"","Time..s.","PPG.trace","Preprocessed.PPG"
"12991",185.00328,79.044174,138.1836
"12992",185.01662,79.41039,138.51994
"12993",185.02995,79.93042,139.02155
"12994",185.04329,80.50904,139.59799
"12995",185.05663,81.04372,140.14857
"12996",185.06996,81.444115,140.58159
"12997",185.0833,81.65896,140.84157
"12998",185.09663,81.66628,140.90074
"12999",185.10997,81.478294,140.76483
"13000",185.1233,81.129166,140.4619
"13001",185.13664,80.66529,140.03331
"13002",185.14998,80.12329,139.5121
"13003",185.16331,79.54467,138.93733
"13004",185.17665,78.93919,138.31763
"13005",185.18999,78.328835,137.67412
"13006",185.20332,77.747765,137.04082
"13007",185.21666,77.22041,136.44308
"13008",185.23,76.76143,135.89723
"13009",185.24333,76.39521,135.42981
"13010",185.25667,76.11932,135.04128
"13011",185.27,75.931335,134.73201
"13012",185.28334,75.8996,134.57312
"13013",185.29668,76.263374,134.80876
"13014",185.31001,77.349815,135.77843
"13015",185.32335,79.35424,137.70003
"13016",185.33669,82.18631,140.51192
"13017",185.35002,85.48226,143.87619
"13018",185.36336,88.68299,147.24825
"13019",185.3767,91.205,150.0416
"13020",185.39003,92.66743,151.85417
"13021",185.40337,93.031204,152.6138
"13022",185.4167,92.50141,152.49123
"13023",185.43004,91.34905,151.72954
"13024",185.44337,89.82559,150.56073
"13025",185.45671,88.13611,149.1783
"13026",185.47005,86.44419,147.74063
"13027",185.48338,84.86458,146.3624
"13028",185.49672,83.46563,145.11546
"13029",185.51006,82.27421,144.03235
"13030",185.52339,81.2781,143.10732
"13031",185.53673,80.45045,142.31961
"13032",185.55006,79.77905,141.6623
"13033",185.5634,79.27856,141.15489
"13034",185.57674,78.9807,140.83449
"13035",185.59007,78.91966,140.7416
"13036",185.60341,79.10277,140.89093
"13037",185.61674,79.48608,141.2462
"13038",185.63008,80.00366,141.74773
"13039",185.64342,80.55543,142.2996
"13040",185.65675,81.04616,142.8077
"13041",185.67009,81.39773,143.19196
"13042",185.68343,81.57839,143.4163
"13043",185.69676,81.57839,143.46564
"13044",185.7101,81.40505,143.34163
"13045",185.72343,81.08278,143.06326
"13046",185.73677,80.64088,142.6552
"13047",185.7501,80.1062,142.14055
"13048",185.76344,79.50561,141.54327
"13049",185.77678,78.87816,140.90038
"13050",185.79012,78.25559,140.24275
"13051",185.80345,77.67452,139.60716
"13052",185.81679,77.152054,139.01202
"13053",185.83012,76.71259,138.48357
"13054",185.84346,76.35371,138.02194
"13055",185.8568,76.070496,137.62479
"13056",185.87013,75.85565,137.28714
"13057",185.88347,75.699394,137.00137
"13058",185.8968,75.58709,136.75467
"13059",185.91014,75.4992,136.52887
"13060",185.92348,75.43328,136.3223
"13061",185.93681,75.39178,136.13808
"13062",185.95015,75.50408,136.10637
"13063",185.96349,76.04364,136.50543
"13064",185.97682,77.298546,137.6367
"13065",185.99016,79.37621,139.62994
"13066",186.0035,82.11795,142.35219
"13067",186.01683,85.118484,145.41891
"13068",186.03017,87.835815,148.2962
"13069",186.0435,89.76456,150.46982
"13070",186.05684,90.65568,151.66608
"13071",186.07018,90.565346,151.90874
"13072",186.08351,89.72793,151.40149
"13073",186.09685,88.39979,150.37735
"13074",186.11018,86.81773,149.05779
"13075",186.12352,85.16243,147.61554
"13076",186.13686,83.577934,146.19237
"13077",186.15019,82.14969,144.87593
"13078",186.16353,80.92653,143.71996
"13079",186.17686,79.90845,142.73083
"13080",186.1902,79.080795,141.90033
"13081",186.20354,78.43626,141.22707
"13082",186.21687,77.98215,140.72409
"13083",186.23021,77.73556,140.41444
"13084",186.24355,77.713585,140.3217
"13085",186.25688,77.91867,140.45534
"13086",186.27022,78.31907,140.7907
"13087",186.28355,78.84642,141.26552
"13088",186.29689,79.41772,141.80077
"13089",186.31023,79.94263,142.30748
"13090",186.32356,80.35035,142.71341
"13091",186.3369,80.59449,142.9685
"13092",186.35023,80.65308,143.04568
"13093",186.36357,80.54322,142.95624
"13094",186.3769,80.2942,142.7242
"13095",186.39024,79.94751,142.3867
"13096",186.40358,79.53979,141.97734
"13097",186.41692,79.10277,141.52594
"13098",186.43025,78.658424,141.05356
"13099",186.44359,78.22873,140.58194
"13100",186.45692,77.8259,140.12375
"13101",186.47026,77.45724,139.68715
"13102",186.4836,77.120316,139.27077
"13103",186.49693,76.822464,138.88292
"13104",186.51027,76.558784,138.51994
"13105",186.5236,76.33173,138.18535
"13106",186.53694,76.1413,137.88028
"13107",186.55028,75.98505,137.60344
"13108",186.56361,75.86786,137.36078
"13109",186.57695,75.78241,137.1462
"13110",186.59029,75.72869,136.96068
"13111",186.60362,75.699394,136.7979
"13112",186.61696,75.684746,136.64885
"13113",186.6303,75.71404,136.54329
"13114",186.64363,75.945984,136.6413
"13115",186.65697,76.65888,137.22751
"13116",186.6703,78.08957,138.55379
"13117",186.68364,80.28199,140.68651
"13118",186.69698,83.021286,143.43462
"13119",186.71031,85.8851,146.39285
"13120",186.72365,88.35096,149.04262
"13121",186.73698,89.98917,150.94179
"13122",186.75032,90.62638,151.89116
"13123",186.76366,90.36759,151.96445
"13124",186.777,89.43252,151.35336
"13125",186.79033,88.0531,150.2687
"13126",186.80367,86.42954,148.8968
"13127",186.817,84.74006,147.40825
"13128",186.83034,83.106735,145.92305
"13129",186.84367,81.619896,144.5333
"13130",186.85701,80.32838,143.2924
"13131",186.87035,79.256584,142.23088
"13132",186.88368,78.40208,141.35313
"13133",186.89702,77.77463,140.67575
"13134",186.91035,77.37911,140.2107
"13135",186.92369,77.23506,139.98474
"13136",186.93703,77.34249,140.00577
"13137",186.95036,77.68673,140.26695
"13138",186.9637,78.21408,140.72202
"13139",186.97704,78.84398,141.2961
"13140",186.99037,79.48119,141.89719
"13141",187.00371,80.042725,142.4425
"13142",187.01704,80.45533,142.85645
"13143",187.03038,80.68482,143.10017
"13144",187.04372,80.72144,143.1582
"13145",187.05705,80.58961,143.04892
"13146",187.07039,80.325935,142.80368
"13147",187.08372,79.971924,142.45985
"13148",187.09706,79.55688,142.04393
"13149",187.1104,79.11253,141.58574
"13150",187.12373,78.660866,141.10634
"13151",187.13707,78.221405,140.62503
"13152",187.1504,77.81125,140.15929
"13153",187.16374,77.44747,139.72711
"13154",187.17708,77.14229,139.34216
"13155",187.19041,76.893265,139.00383
"13156",187.20375,76.700386,138.71387
"13157",187.21709,76.558784,138.46915
"13158",187.23042,76.46357,138.26639
"13159",187.24376,76.40742,138.09972
"13160",187.2571,76.383,137.96303
"13161",187.27043,76.385445,137.85243
"13162",187.28377,76.41474,137.76877
"13163",187.2971,76.46845,137.71043
"13164",187.31044,76.53925,137.67087
"13165",187.32378,76.62226,137.64572
"13166",187.33711,76.71015,137.62805
"13167",187.35045,76.79805,137.61314
"13168",187.36378,76.895706,137.61073
"13169",187.37712,77.117874,137.73589
"13170",187.39046,77.71603,138.24397
"13171",187.4038,78.96117,139.41774
"13172",187.41713,80.96559,141.3897
"13173",187.43047,83.597466,144.05174
"13174",187.4438,86.48814,147.05484
"13175",187.45714,89.1371,149.90656
"13176",187.47047,91.06828,152.12328
"13177",187.48381,92.02045,153.42133
"13178",187.49715,92.02289,153.79941
"13179",187.51048,91.27581,153.42804
"13180",187.52382,90.01602,152.52061
"13181",187.53716,88.4535,151.27109
"13182",187.55049,86.768906,149.85066
"13183",187.56383,85.09895,148.39224
"13184",187.57716,83.546196,146.99883
"13185",187.5905,82.16678,145.73022
"13186",187.60384,80.99733,144.6285
"13187",187.61717,80.03296,143.6953
"13188",187.63051,79.27123,142.9346
"13189",187.64384,78.72678,142.36737
"13190",187.65718,78.416725,142.01752
"13191",187.67052,78.363014,141.91432
"13192",187.68385,78.57542,142.07556
"13193",187.69719,79.027084,142.48271
"13194",187.71053,79.64965,143.07487
"13195",187.72386,80.33814,143.75241
"13196",187.7372,80.99489,144.41972
"13197",187.75053,81.5198,144.97572
"13198",187.76387,81.85428,145.3577
"13199",187.7772,81.969025,145.5304
"13200",187.79054,81.881134,145.50404
"13201",187.80388,81.62234,145.30403
"13202",187.81721,81.24147,144.97386
"13203",187.83055,80.780045,144.55124
"13204",187.84389,80.274666,144.07024
"13205",187.85722,79.75708,143.56123
"13206",187.87056,79.24925,143.0458
"13207",187.8839,78.765854,142.53894
"13208",187.89723,78.328835,142.06335
"13209",187.91057,77.95041,141.6327
"13210",187.9239,77.625694,141.24394
"13211",187.93724,77.35714,140.90118
"13212",187.95058,77.14473,140.60619
"13213",187.96391,76.98604,140.35826
"13214",187.97725,76.86885,140.14688
"13215",187.99059,76.79317,139.97334
"13216",188.00392,76.75166,139.83162
"13217",188.01726,76.74677,139.72522
"13218",188.0306,76.75899,139.63577
"13219",188.04393,76.78584,139.56134
"13220",188.05727,76.822464,139.49751
"13221",188.0706,76.912796,139.48854
"13222",188.08394,77.19844,139.6777
"13223",188.09727,77.93576,140.32747
"13224",188.11061,79.33959,141.6668
"13225",188.12395,81.43191,143.73846
"13226",188.13728,84.01251,146.36382
"13227",188.15062,86.693214,149.1699
"13228",188.16396,89.005264,151.69112
"13229",188.17729,90.55558,153.52284
"13230",188.19063,91.19768,154.4948
"13231",188.20396,91.00725,154.6543
"13232",188.2173,90.17227,154.1633
"13233",188.23064,88.90761,153.21652
"13234",188.24397,87.40368,151.99095
"13235",188.25731,85.8143,150.63293
"13236",188.27065,84.263985,149.26431
"13237",188.28398,82.828415,147.96199
"13238",188.29732,81.55642,146.77838
"13239",188.31065,80.45045,145.72105
"13240",188.32399,79.51049,144.79518
"13241",188.33733,78.74143,144.01082
"13242",188.35066,78.17258,143.40263
"13243",188.364,77.83566,143.0086
"13244",188.37733,77.77463,142.87993
"13245",188.39067,77.996796,143.03255
"13246",188.404,78.47532,143.44847
"13247",188.41734,79.12718,144.05269
"13248",188.43068,79.84985,144.74808
"13249",188.44402,80.53101,145.42455
"13250",188.45735,81.075455,145.98558
"13251",188.47069,81.41726,146.361
"13252",188.48402,81.53933,146.52736
"13253",188.49736,81.45388,146.49002
"13254",188.5107,81.19508,146.27666
"13255",188.52403,80.80934,145.92827
"13256",188.53737,80.34058,145.4848
"13257",188.5507,79.82788,144.98274
"13258",188.56404,79.31274,144.46222
"13259",188.57738,78.82201,143.95001
"13260",188.59071,78.37034,143.46153
"13261",188.60405,77.9675,143.00777
"13262",188.61739,77.61837,142.59512
"13263",188.63072,77.31808,142.2204
"13264",188.64406,77.06172,141.88023
"13265",188.6574,76.85176,141.57845
"13266",188.67073,76.6833,141.3116
"13267",188.68407,76.54902,141.07367
"13268",188.6974,76.44648,140.86328
"13269",188.71074,76.368355,140.6741
"13270",188.72408,76.33662,140.52887
"13271",188.73741,76.46357,140.54134
"13272",188.75075,77.00069,140.96794
"13273",188.76408,78.21164,142.08516
"13274",188.77742,80.22339,144.04102
"13275",188.79076,82.92119,146.74579
"13276",188.8041,85.95834,149.87424
"13277",188.81743,88.84413,152.94623
"13278",188.83076,91.0927,155.47118
"13279",188.8441,92.4062,157.13132
"13280",188.85744,92.76021,157.87302
"13281",188.87077,92.31098,157.82254
"13282",188.88411,91.266045,157.16232
"13283",188.89745,89.84512,156.09346
"13284",188.91078,88.236206,154.7922
"13285",188.92412,86.59556,153.40894
"13286",188.93745,85.02815,152.04764
"13287",188.95079,83.60235,150.77896
"13288",188.96413,82.34257,149.63176
"13289",188.97746,81.248795,148.61119
"13290",188.9908,80.31373,147.71515
"13291",189.00414,79.54711,146.95834
"13292",189.01747,78.975815,146.3729
"13293",189.0308,78.63889,146.00397
"13294",189.04414,78.57053,145.89307
"13295",189.05748,78.77318,146.05104
"13296",189.07082,79.19798,146.4375
"13297",189.08415,79.764404,146.97885
"13298",189.09749,80.360115,147.5672
"13299",189.11082,80.87526,148.0936
"13300",189.12416,81.234146,148.47984
"13301",189.1375,81.38308,148.66734
"13302",189.15083,81.3196,148.6471
"13303",189.16417,81.06325,148.43198
"13304",189.1775,80.66041,148.06236
"13305",189.19084,80.147705,147.5703
"13306",189.20418,79.57885,147.00606
"13307",189.21751,78.98802,146.40207
"13308",189.23085,78.40452,145.78694
"13309",189.24419,77.84543,145.178
"13310",189.25752,77.332726,144.59796
"13311",189.27086,76.87129,144.05318
"13312",189.2842,76.47578,143.55989
"13313",189.29753,76.14374,143.11772
"13314",189.31087,75.86786,142.72133
"13315",189.3242,75.64324,142.36758
"13316",189.33754,75.46502,142.0532
"13317",189.35088,75.32098,141.76744
"13318",189.36421,75.21599,141.51624
"13319",189.37755,75.191574,141.34232
"13320",189.39088,75.40887,141.40935
"13321",189.40422,76.14618,142.00319
"13322",189.41756,77.68185,143.41843
"13323",189.4309,80.08911,145.75325
"13324",189.44423,83.209274,148.87619
"13325",189.45757,86.64927,152.41647
"13326",189.4709,89.8793,155.8543
"13327",189.48424,92.403755,158.68747
"13328",189.49757,93.944305,160.61563
"13329",189.51091,94.483864,161.59094
"13330",189.52425,94.16647,161.72617
"13331",189.53758,93.187454,161.18985
"13332",189.55092,91.76166,160.17616
"13333",189.56425,90.089264,158.87132
"13334",189.57759,88.343636,157.44098
"13335",189.59093,86.64683,156.00491
"13336",189.60426,85.07942,154.64522
"13337",189.6176,83.665825,153.39035
"13338",189.63094,82.41093,152.25002
"13339",189.64427,81.31228,151.22672
"13340",189.65761,80.38697,150.34242
"13341",189.67094,79.67162,149.63918
"13342",189.68428,79.217514,149.1748
"13343",189.69762,79.05394,148.98677
"13344",189.71095,79.17357,149.07683
"13345",189.72429,79.5227,149.40013
"13346",189.73763,80.00122,149.86374
"13347",189.75096,80.499275,150.36183
"13348",189.7643,80.91676,150.79492
"13349",189.77763,81.1902,151.09702
"13350",189.79097,81.27566,151.21967
"13351",189.8043,81.163345,151.14722
"13352",189.81764,80.86549,150.88573
"13353",189.83098,80.42359,150.47087
"13354",189.84431,79.87671,149.93723
"13355",189.85765,79.26147,149.31813
"13356",189.87099,78.624245,148.65782
"13357",189.88432,77.994354,147.98494
"13358",189.89766,77.39376,147.32167
"13359",189.911,76.83223,146.6787
"13360",189.92433,76.32441,146.07188
"13361",189.93767,75.877625,145.51024
"13362",189.951,75.49676,145.00055
"13363",189.96434,75.17937,144.54243
"13364",189.97768,74.92546,144.13788
"13365",189.99101,74.72526,143.7791
"13366",190.00435,74.564125,143.45312
"13367",190.01768,74.43961,143.15874
"13368",190.03102,74.38346,142.92882
"13369",190.04436,74.57389,142.94373
"13370",190.0577,75.31365,143.51392
"13371",190.07103,76.88594,144.93976
"13372",190.08437,79.381096,147.3376
"13373",190.0977,82.652626,150.58978
"13374",190.11104,86.29771,154.31776
"13375",190.12437,89.762115,157.97897
"13376",190.13771,92.5185,161.04042
"13377",190.15105,94.2739,163.18703
"13378",190.16438,94.98192,164.3411
"13379",190.17772,94.769516,164.59688
"13380",190.19106,93.839325,164.12823
"13381",190.20439,92.42329,163.14467
"13382",190.21773,90.738686,161.8483
"13383",190.23106,88.97597,160.42116
"13384",190.2444,87.27184,158.99753
"13385",190.25774,85.697105,157.65004
"13386",190.27107,84.281075,156.41205
"13387",190.28441,83.00664,155.2714
"13388",190.29774,81.8616,154.22032
"13389",190.31108,80.86061,153.27751
"13390",190.32442,80.045166,152.48897
"13391",190.33775,79.46166,151.90688
"13392",190.35109,79.14427,151.57266
"13393",190.36443,79.09056,151.4922
"13394",190.37776,79.2517,151.62492
"13395",190.3911,79.54467,151.8945
"13396",190.40443,79.869385,152.20499
"13397",190.41777,80.13306,152.46457
"13398",190.4311,80.2649,152.60057
"13399",190.44444,80.21362,152.55757
"13400",190.45778,79.9646,152.31522
"13401",190.47112,79.52514,151.87465
"13402",190.48445,78.93187,151.26654
"13403",190.49779,78.238495,150.53978
"13404",190.51112,77.488976,149.73521
"13405",190.52446,76.72724,148.895
"13406",190.5378,75.982605,148.0481
"13407",190.55113,75.27947,147.21942
"13408",190.56447,74.634926,146.42735
"13409",190.5778,74.06363,145.6884
"13410",190.59114,73.57534,145.0146
"13411",190.60448,73.17494,144.41344
"13412",190.61781,72.86244,143.88765
"13413",190.63115,72.63294,143.4351
"13414",190.64449,72.47181,143.04375
"13415",190.65782,72.37415,142.71083
"13416",190.67116,72.33021,142.42857
"13417",190.6845,72.325325,142.184
"13418",190.69783,72.33997,141.95882
"13419",190.71117,72.36439,141.74385
"13420",190.7245,72.3888,141.52965
"13421",190.73784,72.46693,141.36992
"13422",190.75117,72.77699,141.44458
"13423",190.76451,73.64126,142.08313
"13424",190.77785,75.37469,143.61784
"13425",190.79118,78.10422,146.20284
"13426",190.80452,81.69314,149.73251
"13427",190.81786,85.74593,153.83823
"13428",190.83119,89.67422,157.94608
"13429",190.84453,92.90181,161.47598
"13430",190.85786,95.062485,164.03984
"13431",190.8712,96.05859,165.50665
"13432",190.88454,95.99512,165.945
"13433",190.89787,95.08446,165.5342
"13434",190.91121,93.590294,164.51141
"13435",190.92455,91.773865,163.11967
"13436",190.93788,89.85977,161.57352
"13437",190.95122,88.01648,160.03835
"13438",190.96455,86.33677,158.60915
"13439",190.97789,84.85237,157.32277
"13440",190.99123,83.543755,156.16579
"13441",191.00456,82.38163,155.11441
"13442",191.0179,81.35134,154.15855
"13443",191.03123,80.4773,153.32675
"13444",191.04457,79.801025,152.66539
"13445",191.0579,79.361565,152.21971
"13446",191.07124,79.17601,152.0142
"13447",191.08458,79.20775,152.02019
"13448",191.09792,79.395744,152.18343
"13449",191.11125,79.65209,152.42088
"13450",191.12459,79.88403,152.64195
"13451",191.13792,80.01587,152.77017
"13452",191.15126,79.98657,152.74136
"13453",191.1646,79.75708,152.51144
"13454",191.17793,79.32494,152.07172
"13455",191.19127,78.71946,151.44513
"13456",191.2046,77.99191,150.67757
"13457",191.21794,77.20088,149.82378
"13458",191.23128,76.39277,148.92819
"13459",191.24461,75.60906,148.03175
"13460",191.25795,74.87419,147.15967
"13461",191.27129,74.20523,146.33052
"13462",191.28462,73.60708,145.55128
"13463",191.29796,73.08949,144.83392
"13464",191.3113,72.65247,144.18095
"13465",191.32463,72.29847,143.59734
"13466",191.33797,72.02014,143.07834
"13467",191.3513,71.81018,142.619
"13468",191.36464,71.66857,142.22147
"13469",191.37798,71.588005,141.88054
"13470",191.39131,71.57336,141.60301
"13471",191.40465,71.622185,141.3885
"13472",191.41798,71.727165,141.23167
"13473",191.43132,71.87366,141.11964
"13474",191.44466,72.042114,141.03415
"13475",191.458,72.215454,140.9588
"13476",191.47133,72.36683,140.86691
"13477",191.48466,72.48402,140.74556
"13478",191.498,72.552376,140.57904
"13479",191.51134,72.57923,140.37315
"13480",191.52467,72.620735,140.18275
"13481",191.53801,72.89418,140.2256
"13482",191.55135,73.763336,140.8727
"13483",191.56468,75.579765,142.49423
"13484",191.57802,78.48997,145.2663
"13485",191.59135,82.3621,149.09123
"13486",191.60469,86.768906,153.57185
"13487",191.61803,91.08293,158.09741
"13488",191.63136,94.68162,162.04243
"13489",191.6447,97.15724,164.97685
"13490",191.65804,98.38285,166.73862
"13491",191.67137,98.441444,167.37167
"13492",191.68471,97.550316,167.05684
"13493",191.69804,95.98779,166.04276
"13494",191.71138,94.04196,164.59654
"13495",191.72472,91.9765,162.9699
"13496",191.73805,89.98184,161.3495
"13497",191.75139,88.16785,159.84744
"13498",191.76472,86.5687,158.50354
"13499",191.77806,85.155106,157.29521
"13500",191.7914,83.88556,156.18677
"13501",191.80473,82.72831,155.15094
"13502",191.81807,81.685814,154.19371
"13503",191.8314,80.79469,153.35527
"13504",191.84474,80.10376,152.68918
"13505",191.85808,79.639885,152.22855
"13506",191.87141,79.39086,151.96826
"13507",191.88475,79.31518,151.87354
"13508",191.89809,79.344475,151.88142
"13509",191.91142,79.3933,151.90976
"13510",191.92476,79.39086,151.88835
"13511",191.9381,79.276115,151.75456
"13512",191.95143,79.009995,151.46582
"13513",191.96477,78.5803,151.00519
"13514",191.9781,77.99924,150.37976
"13515",191.99144,77.30099,149.61899
"13516",192.00478,76.52216,148.75581
"13517",192.01811,75.70672,147.83168
"13518",192.03145,74.8864,146.8772
"13519",192.04478,74.09537,145.92636
"13520",192.05812,73.3605,145.00697
"13521",192.07146,72.7013,144.14029
"13522",192.0848,72.12512,143.33603
"13523",192.09813,71.6466,142.61142
"13524",192.11147,71.2633,141.96707
"13525",192.1248,70.977646,141.4084
"13526",192.13814,70.77745,140.92625
"13527",192.15147,70.6627,140.5233
"13528",192.16481,70.61143,140.18024
"13529",192.17815,70.608986,139.8844
"13530",192.19148,70.64561,139.62755
"13531",192.20482,70.71641,139.40602
"13532",192.21815,70.80919,139.2087
"13533",192.23149,70.91905,139.03134
"13534",192.24483,71.03868,138.86719
"13535",192.25816,71.16075,138.70921
"13536",192.2715,71.27795,138.55019
"13537",192.28484,71.39025,138.38992
"13538",192.29817,71.49279,138.2234
"13539",192.31151,71.58556,138.05032
"13540",192.32484,71.66613,137.86794
"13541",192.33818,71.73449,137.67586
"13542",192.35152,71.79065,137.47372
"13543",192.36485,71.837036,137.26357
"13544",192.37819,71.88098,137.05241
"13545",192.39153,71.92493,136.84264
"13546",192.40486,71.96399,136.62935
"13547",192.4182,72.00549,136.41972
"13548",192.43153,72.044556,136.20895
"13549",192.44487,72.08118,135.99696
"13550",192.4582,72.11536,135.78368
"13551",192.47154,72.183716,135.60564
"13552",192.48488,72.44007,135.61774
"13553",192.49821,73.23598,136.1774
"13554",192.51155,75.00603,137.73607
"13555",192.52489,78.03586,140.60983
"13556",192.53822,82.31327,144.82587
"13557",192.55156,87.48669,150.07158
"13558",192.5649,92.90181,155.72066
"13559",192.57823,97.7847,161.00673
"13560",192.59157,101.51766,165.29547
"13561",192.6049,103.80774,168.25798
"13562",192.61824,104.64027,169.8345
"13563",192.63158,104.19348,170.15773
"13564",192.64491,102.745705,169.466
"13565",192.65825,100.6363,168.0674
"13566",192.67159,98.18997,166.26596
"13567",192.68492,95.672844,164.31726
"13568",192.69826,93.28756,162.42175
"13569",192.7116,91.14641,160.69583
"13570",192.72493,89.28359,159.18134
"13571",192.73827,87.657585,157.84544
"13572",192.7516,86.22934,156.6565
"13573",192.76494,84.972,155.59383
"13574",192.77827,83.895325,154.67253
"13575",192.79161,83.02373,153.92267
"13576",192.80495,82.39628,153.38971
"13577",192.81828,82.022736,153.09105
"13578",192.83162,81.86893,153.00046
"13579",192.84496,81.8616,153.05154
"13580",192.85829,81.91287,153.161
"13581",192.87163,81.934845,153.24275
"13582",192.88496,81.85428,153.22266
"13583",192.8983,81.619896,153.04622
"13584",192.91164,81.19508,152.67203
"13585",192.92497,80.587166,152.10146
"13586",192.93831,79.80835,151.34099
"13587",192.95164,78.9099,150.43655
"13588",192.96498,77.94064,149.43323
"13589",192.97832,76.95186,148.38008
"13590",192.99165,75.98016,147.31313
"13591",193.00499,75.06218,146.26952
"13592",193.01833,74.22476,145.27779
"13593",193.03166,73.477684,144.35023
"13594",193.045,72.83559,143.50432
"13595",193.05833,72.29847,142.74332
"13596",193.07167,71.86389,142.06807
"13597",193.085,71.53185,141.48178
"13598",193.09834,71.292595,140.97789
"13599",193.11168,71.13634,140.54953
"13600",193.12502,71.063095,140.1993
"13601",193.13835,71.05089,139.9078
"13602",193.15169,71.08995,139.6672
"13603",193.16502,71.16319,139.462
"13604",193.17836,71.26086,139.28352
"13605",193.1917,71.36828,139.11784
"13606",193.20503,71.47082,138.95064
"13607",193.21837,71.568474,138.78175
"13608",193.2317,71.658806,138.6086
"13609",193.24504,71.73937,138.4285
"13610",193.25838,71.80774,138.23872
"13611",193.27171,71.868774,138.04375
"13612",193.28505,71.920044,137.84091
"13613",193.29839,71.96155,137.62991
"13614",193.31172,71.993286,137.41045
"13615",193.32506,72.01526,137.1822
"13616",193.3384,72.03479,136.95221
"13617",193.35173,72.047,136.7155
"13618",193.36507,72.059204,136.47917
"13619",193.3784,72.08118,136.25299
"13620",193.39174,72.11047,136.03482
"13621",193.40508,72.147095,135.82489
"13622",193.41841,72.19592,135.62831
"13623",193.43175,72.256966,135.44548
"13624",193.44508,72.33021,135.27675
"13625",193.45842,72.4181,135.12495
"13626",193.47176,72.55726,135.02718
"13627",193.48509,72.921036,135.15837
"13628",193.49843,73.863434,135.87955
"13629",193.51176,75.789734,137.61407
"13630",193.5251,78.941635,140.6344
"13631",193.53844,83.243454,144.90314
"13632",193.55177,88.2826,150.04364
"13633",193.56511,93.385216,155.40509
"13634",193.57845,97.811554,160.24971
"13635",193.59178,101.017166,164.01193
"13636",193.60512,102.79454,166.44609
"13637",193.61845,103.19249,167.55637
"13638",193.63179,102.41367,167.50232
"13639",193.64513,100.7364,166.52547
"13640",193.65846,98.46586,164.90294
"13641",193.6718,95.88281,162.89696
"13642",193.68513,93.21675,160.72723
"13643",193.69847,90.64347,158.56697
"13644",193.7118,88.26551,156.52162
"13645",193.72514,86.13168,154.64609
"13646",193.73848,84.26154,152.96756
"13647",193.75182,82.67216,151.51135
"13648",193.76515,81.40505,150.32776
"13649",193.77849,80.499275,149.4659
"13650",193.79182,79.98901,148.97124
"13651",193.80516,79.87671,148.85858
"13652",193.8185,80.113525,149.09155
"13653",193.83183,80.601814,149.58339
"13654",193.84517,81.20729,150.20767
"13655",193.8585,81.795685,150.8338
"13656",193.87184,82.247345,151.34158
"13657",193.88518,82.47196,151.63643
"13658",193.89851,82.42069,151.66241
"13659",193.91185,82.08621,151.40358
"13660",193.92519,81.497826,150.88039
"13661",193.93852,80.69703,150.1264
"13662",193.95186,79.75952,149.21068
"13663",193.9652,78.746315,148.18996
"13664",193.97853,77.71114,147.1156
"13665",193.99187,76.700386,146.03331
"13666",194.0052,75.755554,144.98537
"13667",194.01854,74.89372,143.99089
"13668",194.03188,74.13443,143.07202
"13669",194.04521,73.480125,142.23442
"13670",194.05855,72.935684,141.48624
"13671",194.07188,72.50111,140.8309
"13672",194.08522,72.16907,140.26453
"13673",194.09856,71.939575,139.79031
"13674",194.1119,71.80286,139.4017
"13675",194.12523,71.7467,139.08939
"13676",194.13857,71.75159,138.83636
"13677",194.1519,71.80774,138.63475
"13678",194.16524,71.905396,138.4764
"13679",194.17857,72.03479,138.35283
"13680",194.19191,72.181274,138.2504
"13681",194.20525,72.33997,138.16476
"13682",194.21858,72.50355,138.08896
"13683",194.23192,72.66224,138.01338
"13684",194.24525,72.80873,137.93057
"13685",194.25859,72.94301,137.84012
"13686",194.27193,73.06508,137.74165
"13687",194.28526,73.17006,137.62991
"13688",194.2986,73.255516,137.50194
"13689",194.31194,73.32876,137.36441
"13690",194.32527,73.38247,137.20964
"13691",194.33861,73.41909,137.03946
"13692",194.35194,73.43862,136.85333
"13693",194.36528,73.43862,136.64828
"13694",194.37862,73.41909,136.4237
"13695",194.39195,73.38003,136.17899
"13696",194.40529,73.32876,135.92084
"13697",194.41862,73.272606,135.6562
"13698",194.43196,73.31411,135.48747
"13699",194.4453,73.71694,135.68137
"13700",194.45863,74.86931,136.63739
"13701",194.47197,77.0959,138.70364
"13702",194.4853,80.47486,141.99185
"13703",194.49864,84.76204,146.29387
"13704",194.51198,89.41543,151.09607
"13705",194.52531,93.7441,155.71898
"13706",194.53865,97.145035,159.54941
"13707",194.55199,99.28863,162.22879
"13708",194.56532,100.138245,163.68118
"13709",194.57866,99.83795,164.01021
"13710",194.592,98.60746,163.39966
"13711",194.60533,96.69581,162.06949
"13712",194.61867,94.34226,160.23769
"13713",194.632,91.77142,158.11504
"13714",194.64534,89.1664,155.87787
"13715",194.65868,86.64927,153.64719
"13716",194.67201,84.300606,151.50632
"13717",194.68535,82.16434,149.50444
"13718",194.69868,80.28199,147.68973
"13719",194.71202,78.712135,146.1287
"13720",194.72536,77.53536,144.91167
"13721",194.7387,76.841995,144.14128
"13722",194.75203,76.67841,143.87901
"13723",194.76537,77.02754,144.12434
"13724",194.7787,77.79416,144.79807
"13725",194.79204,78.81712,145.75209
"13726",194.80537,79.91089,146.80888
"13727",194.81871,80.902115,147.79733
"13728",194.83205,81.66628,148.58969
"13729",194.84538,82.11551,149.09099
"13730",194.85872,82.22537,149.26697
"13731",194.87206,82.005646,149.11679
"13732",194.88539,81.50759,148.68141
"13733",194.89873,80.799576,148.02051
"13734",194.91206,79.94995,147.19588
"13735",194.9254,79.01976,146.26413
"13736",194.93874,78.07004,145.28377
"13737",194.95207,77.137405,144.29082
"13738",194.96541,76.25361,143.31757
"13739",194.97874,75.43816,142.38504
"13740",194.99208,74.70817,141.51248
"13741",195.00542,74.08316,140.7221
"13742",195.01875,73.56313,140.01718
"13743",195.03209,73.14809,139.40099
"13744",195.04543,72.84291,138.88168
"13745",195.05876,72.64271,138.45782
"13746",195.0721,72.532845,138.11804
"13747",195.08543,72.50111,137.85295
"13748",195.09877,72.53773,137.65523
"13749",195.1121,72.63294,137.51724
"13750",195.12544,72.77455,137.42863
"13751",195.13878,72.955215,137.3835
"13752",195.15211,73.16029,137.36842
"13753",195.16545,73.38247,137.37686
"13754",195.17879,73.61196,137.39955
"13755",195.19212,73.83414,137.4221
"13756",195.20546,74.0441,137.43938
"13757",195.2188,74.24185,137.451
"13758",195.23213,74.42741,137.45662
"13759",195.24547,74.59098,137.44604
"13760",195.2588,74.7277,137.41373
"13761",195.27214,74.827805,137.34908
"13762",195.28548,74.88396,137.24359
"13763",195.29881,74.89372,137.09348
"13764",195.31215,74.861984,136.90216
"13765",195.32549,74.793625,136.67323
"13766",195.33882,74.75456,136.47147
"13767",195.35216,74.949875,136.50285
"13768",195.3655,75.72625,137.12141
"13769",195.37883,77.43282,138.69443
"13770",195.39217,80.233154,141.41454
"13771",195.4055,83.99054,145.1792
"13772",195.41884,88.26551,149.57887
"13773",195.43217,92.44038,154.01204
"13774",195.44551,95.89014,157.85056
"13775",195.45885,98.22659,160.68358
"13776",195.47218,99.34234,162.3689
"13777",195.48552,99.33257,162.96358
"13778",195.49886,98.38773,162.62288
"13779",195.51219,96.725105,161.53487
"13780",195.52553,94.571754,159.90417
"13781",195.53886,92.12787,157.91565
"13782",195.5522,89.564354,155.73112
"13783",195.56554,87.02281,153.48846
"13784",195.57887,84.58625,151.27136
"13785",195.59221,82.303505,149.13194
"13786",195.60555,80.22339,147.12381
"13787",195.61888,78.40208,145.30948
"13788",195.63222,76.94209,143.79956
"13789",195.64555,75.965515,142.72742
"13790",195.65889,75.579765,142.21559
"13791",195.67223,75.82147,142.31917
"13792",195.68556,76.6247,142.99182
"13793",195.6989,77.83566,144.0973
"13794",195.71223,79.22728,145.42128
"13795",195.72557,80.58228,146.75214
"13796",195.7389,81.722435,147.91049
"13797",195.75224,82.53544,148.77733
"13798",195.76558,82.97734,149.29846
"13799",195.77892,83.06035,149.47452
"13800",195.79225,82.82109,149.3309
"13801",195.80559,82.31815,148.91612
"13802",195.81892,81.61501,148.28543
"13803",195.83226,80.7776,147.49849
"13804",195.8456,79.8645,146.6097
"13805",195.85893,78.91722,145.65817
"13806",195.87227,77.98459,144.6917
"13807",195.8856,77.0959,143.74002
"13808",195.89894,76.265816,142.81918
"13809",195.91228,75.50408,141.94075
"13810",195.92561,74.81804,141.11421
"13811",195.93895,74.22232,140.35655
"13812",195.95229,73.71694,139.67062
"13813",195.96562,73.3019,139.05923
"13814",195.97896,72.969864,138.51788
"13815",195.9923,72.708626,138.03696
"13816",196.00563,72.50355,137.60402
"13817",196.01897,72.35218,137.21838
"13818",196.0323,72.254524,136.88173
"13819",196.04564,72.21057,136.59573
"13820",196.05898,72.22522,136.36696
"13821",196.07231,72.29359,136.19237
"13822",196.08565,72.413216,136.07117
"13823",196.09898,72.57435,135.99521
"13824",196.11232,72.779434,135.96825
"13825",196.12566,73.01869,135.98186
"13826",196.13899,73.27749,136.02249
"13827",196.15233,73.55337,136.08829
"13828",196.16566,73.831696,136.16516
"13829",196.179,74.10269,136.2434
"13830",196.19234,74.36637,136.32278
"13831",196.20567,74.69596,136.47632
"13832",196.21901,75.29656,136.91116
"13833",196.23235,76.49287,137.96048
"13834",196.24568,78.56321,139.92122
"13835",196.25902,81.58083,142.89394
"13836",196.27235,85.34066,146.70317
"13837",196.28569,89.391014,150.92043
"13838",196.29903,93.14595,154.96883
"13839",196.31236,96.08789,158.32158
"13840",196.3257,97.94095,160.67738
"13841",196.33904,98.6807,161.97778
"13842",196.35237,98.424355,162.3052
"13843",196.3657,97.35012,161.80673
"13844",196.37904,95.65331,160.65211
"13845",196.39238,93.51949,159.00746
"13846",196.40572,91.11955,157.03
"13847",196.41905,88.59754,154.85547
"13848",196.43239,86.065765,152.59236
"13849",196.44572,83.60235,150.3185
"13850",196.45906,81.26101,148.08974
"13851",196.4724,79.09056,145.9587
"13852",196.48573,77.17647,144.01617
"13853",196.49907,75.64568,142.39716
"13854",196.5124,74.66178,141.27718
"13855",196.52574,74.34928,140.79785
"13856",196.53908,74.75212,141.02411
"13857",196.55241,75.78729,141.89528
"13858",196.56575,77.25704,143.23338
"13859",196.57909,78.89769,144.78831
"13860",196.59242,80.45533,146.31151
"13861",196.60576,81.74441,147.61482
"13862",196.6191,82.65995,148.58488
"13863",196.63243,83.18974,149.1978
"13864",196.64577,83.353325,149.46106
"13865",196.6591,83.20195,149.41447
"13866",196.67244,82.791794,149.10439
"13867",196.68578,82.18143,148.58127
"13868",196.69911,81.41482,147.88283
"13869",196.71245,80.5481,147.06033
"13870",196.72578,79.62524,146.1546
"13871",196.73912,78.68528,145.20293
"13872",196.75246,77.75754,144.2341
"13873",196.7658,76.87862,143.2851
"13874",196.77913,76.06561,142.37454
"13875",196.79247,75.335625,141.5216
"13876",196.8058,74.703285,140.7435
"13877",196.81914,74.178375,140.05307
"13878",196.83247,73.76578,139.45854
"13879",196.84581,73.47036,138.9683
"13880",196.85915,73.29458,138.58847
"13881",196.87248,73.23842,138.32277
"13882",196.88582,73.29214,138.16519
"13883",196.89915,73.43618,138.09961
"13884",196.91249,73.64614,138.10445
"13885",196.92583,73.89273,138.15248
"13886",196.93916,74.15396,138.22285
"13887",196.9525,74.40299,138.2892
"13888",196.96584,74.63004,138.34134
"13889",196.97917,74.847336,138.39082
"13890",196.99251,75.15007,138.53253
"13891",197.00584,75.772644,139.00354
"13892",197.01918,77.04463,140.14342
"13893",197.03252,79.2224,142.22882
"13894",197.04585,82.337685,145.31981
"13895",197.05919,86.151215,149.20639
"13896",197.07253,90.18692,153.43433
"13897",197.08586,93.86374,157.42949
"13898",197.0992,96.68604,160.68503
"13899",197.11253,98.40482,162.92525
"13900",197.12587,99.002975,164.09856
"13901",197.1392,98.6099,164.29933
"13902",197.15254,97.411156,163.68214
"13903",197.16588,95.604485,162.41957
"13904",197.17921,93.385216,160.68794
"13905",197.19255,90.92912,158.65013
"13906",197.20589,88.377815,156.44035
"13907",197.21922,85.841156,154.1655
"13908",197.23256,83.389946,151.89682
"13909",197.2459,81.077896,149.6907
"13910",197.25923,78.96849,147.61499
"13911",197.27257,77.14473,145.75899
"13912",197.2859,75.736015,144.26105
"13913",197.29924,74.8864,143.27818
"13914",197.31258,74.686195,142.91818
"13915",197.32591,75.142746,143.20868
"13916",197.33925,76.14862,144.06276
"13917",197.35258,77.506065,145.29985
"13918",197.36592,78.98802,146.70387
"13919",197.37926,80.37965,148.06387
"13920",197.3926,81.52712,149.22322
"13921",197.40593,82.34745,150.09128
"13922",197.41927,82.80644,150.62363
"13923",197.4326,82.91142,150.81631
"13924",197.44594,82.69901,150.69489
"13925",197.45927,82.21561,150.29582
"13926",197.47261,81.514915,149.66437
"13927",197.48595,80.66285,148.85965
"13928",197.49928,79.70336,147.92088
"13929",197.51262,78.692604,146.90085
"13930",197.52596,77.67696,145.84435
"13931",197.53929,76.70283,144.7976
"13932",197.55263,75.80682,143.79857
"13933",197.56596,75.01335,142.87405
"13934",197.5793,74.3444,142.04927
"13935",197.59264,73.8024,141.33054
"13936",197.60597,73.38003,140.7145
"13937",197.61931,73.077286,140.20488
"13938",197.63264,72.8893,139.80055
"13939",197.64598,72.80873,139.49777
"13940",197.65932,72.82826,139.29257
"13941",197.67265,72.935684,139.17587
"13942",197.68599,73.109024,139.12845
"13943",197.69933,73.321434,139.12552
"13944",197.71266,73.55093,139.1463
"13945",197.726,73.79019,139.18404
"13946",197.73933,74.124664,139.32445
"13947",197.75267,74.830246,139.84642
"13948",197.766,76.297554,141.15218
"13949",197.77934,78.83177,143.5707
"13950",197.79268,82.49882,147.20123
"13951",197.80602,87.03746,151.81796
"13952",197.81935,91.895935,156.89636
"13953",197.83269,96.38087,161.75304
"13954",197.84602,99.89166,165.77573
"13955",197.85936,102.11093,168.61661
"13956",197.8727,102.99718,170.19382
"13957",197.88603,102.68711,170.60242
"13958",197.89937,101.400475,170.02475
"13959",197.9127,99.386284,168.67932
"13960",197.92604,96.89357,166.79243
"13961",197.93938,94.14694,164.57373
"13962",197.95271,91.33929,162.20816
"13963",197.96605,88.60731,159.83054
"13964",197.97939,86.04379,157.536
"13965",197.99272,83.70733,155.3884
"13966",198.00606,81.6321,153.42903
"13967",198.0194,79.87671,151.72464
"13968",198.03273,78.52659,150.37067
"13969",198.04607,77.66964,149.46767
"13970",198.0594,77.35714,149.08234
"13971",198.07274,77.591515,149.23412
"13972",198.08607,78.28489,149.85222
"13973",198.09941,79.281,150.79472
"13974",198.11275,80.38697,151.87822
"13975",198.12608,81.42214,152.92549
"13976",198.13942,82.2449,153.7927
"13977",198.15276,82.760056,154.378
"13978",198.16609,82.91875,154.62296
"13979",198.17943,82.718544,154.51396
"13980",198.19276,82.19119,154.07156
"13981",198.2061,81.40017,153.34901
"13982",198.21944,80.42115,152.41376
"13983",198.23277,79.327385,151.33316
"13984",198.24611,78.187225,150.17198
"13985",198.25945,77.0544,148.9825
"13986",198.27278,75.9704,147.80644
"13987",198.28612,74.966965,146.67708
"13988",198.29945,74.06851,145.62134
"13989",198.31279,73.3019,144.66937
"13990",198.32613,72.674446,143.8326
"13991",198.33946,72.18616,143.11539
"13992",198.3528,71.83215,142.5172
"13993",198.36613,71.60021,142.03001
"13994",198.37947,71.468376,141.63568
"13995",198.3928,71.42931,141.33
"13996",198.40614,71.465935,141.09879
"13997",198.41948,71.568474,140.93463
"13998",198.43282,71.71252,140.81519
"13999",198.44615,71.871216,140.7149
"14000",198.45949,72.02014,140.6098
"14001",198.47282,72.164185,140.50447
"14002",198.48616,72.42542,140.52084
"14003",198.4995,73.109024,140.96774
"14004",198.51283,74.62028,142.26366
"14005",198.52617,77.26681,144.74207
"14006",198.5395,81.08034,148.47018
"14007",198.55284,85.750824,153.17444
"14008",198.56618,90.687416,158.29074
"14009",198.57951,95.167465,163.10477
"14010",198.59285,98.59281,167.00409
"14011",198.60619,100.65095,169.64325
"14012",198.61952,101.32723,170.96487
"14013",198.63286,100.79256,171.09668
"14014",198.6462,99.30572,170.25961
"14015",198.65953,97.1548,168.712
"14016",198.67287,94.62058,166.71387
"14017",198.6862,91.930115,164.48029
"14018",198.69954,89.271385,162.19437
"14019",198.71288,86.75914,159.97185
"14020",198.72621,84.46662,157.89055
"14021",198.73955,82.423134,155.98665
"14022",198.75288,80.655525,154.29477
"14023",198.76622,79.1931,152.85283
"14024",198.77956,78.08469,151.7192
"14025",198.7929,77.39376,150.96841
"14026",198.80623,77.14229,150.6355
"14027",198.81956,77.315636,150.71954
"14028",198.8329,77.821014,151.14104
"14029",198.84624,78.53147,151.7834
"14030",198.85957,79.28588,152.49191
"14031",198.87291,79.937744,153.12146
"14032",198.88625,80.377205,153.55898
"14033",198.89958,80.53834,153.7319
"14034",198.91292,80.38941,153.59981
"14035",198.92625,79.94263,153.16519
"14036",198.93959,79.24437,152.46515
"14037",198.95293,78.35569,151.55286
"14038",198.96626,77.34493,150.4907
"14039",198.9796,76.27802,149.34082
"14040",198.99294,75.21355,148.16003
"14041",199.00627,74.19302,146.98993
"14042",199.0196,73.248184,145.86362
"14043",199.03294,72.40101,144.80545
"14044",199.04628,71.67101,143.83798
"14045",199.05962,71.06798,142.97467
"14046",199.07295,70.59678,142.22435
"14047",199.08629,70.26475,141.59846
"14048",199.09962,70.05234,141.08183
"14049",199.11296,69.94736,140.66599
"14050",199.1263,69.93271,140.33719
"14051",199.13963,69.996185,140.08606
"14052",199.15297,70.118256,139.89551
"14053",199.1663,70.279396,139.74785
"14054",199.17964,70.452736,139.61742
"14055",199.19298,70.61143,139.47775
"14056",199.20631,70.748146,139.32108
"14057",199.21965,70.93126,139.21507
"14058",199.23299,71.39025,139.39067
"14059",199.24632,72.51087,140.24223
"14060",199.25966,74.67399,142.17131
"14061",199.273,78.0383,145.36919
"14062",199.28633,82.43534,149.70493
"14063",199.29967,87.37682,154.72252
"14064",199.313,92.16205,159.73827
"14065",199.32634,96.09277,164.04906
"14066",199.33968,98.719765,167.17896
"14067",199.35301,99.92096,168.96515
"14068",199.36635,99.81598,169.4827
"14069",199.37968,98.65385,168.93982
"14070",199.39302,96.72755,167.59645
"14071",199.40636,94.33494,165.72658
"14072",199.4197,91.734795,163.5744
"14073",199.43303,89.1371,161.34341
"14074",199.44637,86.678566,159.17041
"14075",199.4597,84.439766,157.14032
"14076",199.47304,82.44999,155.28929
"14077",199.48637,80.72877,153.64464
"14078",199.49971,79.30297,152.24162
"14079",199.51305,78.22629,151.14316
"14080",199.52638,77.54513,150.40657
"14081",199.53972,77.281456,150.06618
"14082",199.55305,77.418175,150.11794
"14083",199.56639,77.86496,150.48404
"14084",199.57973,78.48997,151.04233
"14085",199.59306,79.15648,151.66165
"14086",199.6064,79.73266,152.21147
"14087",199.61974,80.113525,152.58398
"14088",199.63307,80.235596,152.7096
"14089",199.64641,80.06958,152.55093
"14090",199.65974,79.61791,152.10144
"14091",199.67308,78.91234,151.38393
"14092",199.68642,78.01633,150.45392
"14093",199.69975,76.99336,149.36896
"14094",199.71309,75.90692,148.18855
"14095",199.72643,74.827805,146.98152
"14096",199.73976,73.8024,145.79448
"14097",199.7531,72.87221,144.67061
"14098",199.76643,72.061646,143.6373
"14099",199.77977,71.38537,142.71295
"14100",199.7931,70.84337,141.90175
"14101",199.80644,70.433205,141.20544
"14102",199.81978,70.152435,140.62572
"14103",199.83311,69.993744,140.15929
"14104",199.84645,69.942474,139.79532
"14105",199.85979,69.98398,139.52252
"14106",199.87312,70.098724,139.32426
"14107",199.88646,70.27451,139.19064
"14108",199.8998,70.4918,139.104
"14109",199.91313,70.74326,139.05833
"14110",199.92647,71.009384,139.03519
"14111",199.9398,71.27306,139.01791
"14112",199.95314,71.502556,138.97469
"14113",199.96648,71.675896,138.88248
"14114",199.97981,71.81018,138.75664
"14115",199.99315,72.03479,138.72531
"14116",200.00648,72.64759,139.0892
"14117",200.01982,74.06363,140.27548
"14118",200.03316,76.61738,142.64372
"14119",200.0465,80.36744,146.28807
"14120",200.05983,85.02571,150.95782
"14121",200.07317,90.0087,156.09787
"14122",200.0865,94.57664,160.97858
"14123",200.09984,98.09964,164.95709
"14124",200.11317,100.23346,167.65652
"14125",200.12651,100.95613,169.01149
"14126",200.13985,100.44099,169.15123
"14127",200.15318,98.96391,168.31294
"14128",200.16652,96.832535,166.77419
"14129",200.17986,94.33494,164.80261
"14130",200.19319,91.720146,162.63579
"14131",200.20653,89.17616,160.45805
"14132",200.21986,86.81529,158.38394
"14133",200.2332,84.69611,156.47774
"14134",200.24654,82.83574,154.76411
"14135",200.25987,81.26101,153.278
"14136",200.27321,80.0061,152.0625
"14137",200.28654,79.12718,151.18378
"14138",200.29988,78.66331,150.69263
"14139",200.31322,78.61692,150.60446
"14140",200.32655,78.91478,150.8591
"14141",200.33989,79.44457,151.35498
"14142",200.35323,80.05737,151.95042
"14143",200.36656,80.61402,152.50887
"14144",200.3799,80.990005,152.90404
"14145",200.39323,81.109634,153.05461
"14146",200.40657,80.938736,152.9184
"14147",200.4199,80.4773,152.4863
"14148",200.43324,79.75708,151.78099
"14149",200.44658,78.83421,150.85052
"14150",200.45992,77.77219,149.75206
"14151",200.47325,76.63691,148.54716
"14152",200.48659,75.4992,147.30435
"14153",200.49992,74.407875,146.07237
"14154",200.51326,73.40688,144.89662
"14155",200.5266,72.5304,143.8141
"14156",200.53993,71.79309,142.84337
"14157",200.55327,71.199814,141.99362
"14158",200.5666,70.75548,141.27428
"14159",200.57994,70.44541,140.67532
"14160",200.59328,70.26719,140.19852
"14161",200.60661,70.19394,139.82112
"14162",200.61995,70.21591,139.53665
"14163",200.63329,70.30869,139.32368
"14164",200.64662,70.46006,139.1722
"14165",200.65996,70.65537,139.06938
"14166",200.6733,70.88487,139.00687
"14167",200.68663,71.12901,138.96616
"14168",200.69997,71.38293,138.94286
"14169",200.7133,71.63439,138.92503
"14170",200.72664,71.868774,138.898
"14171",200.73997,72.061646,138.83676
"14172",200.75331,72.198364,138.7254
"14173",200.76665,72.25941,138.54265
"14174",200.77998,72.24475,138.2861
"14175",200.79332,72.22522,138.02422
"14176",200.80666,72.427864,137.9839
"14177",200.81999,73.233536,138.55295
"14178",200.83333,75.06462,140.17258
"14179",200.84666,78.150604,143.10432
"14180",200.86,82.39384,147.28976
"14181",200.87334,87.34997,152.32071
"14182",200.88667,92.32807,157.5285
"14183",200.90001,96.59327,162.17896
"14184",200.91335,99.61089,165.71512
"14185",200.92668,101.18318,167.90025
"14186",200.94002,101.38094,168.76
"14187",200.95335,100.42878,168.47598
"14188",200.96669,98.62455,167.31015
"14189",200.98003,96.27589,165.5435
"14190",200.99336,93.67574,163.45198
"14191",201.0067,91.04631,161.24991
"14192",201.02003,88.56092,159.10971
"14193",201.03337,86.30259,157.11891
"14194",201.0467,84.30549,155.31877
"14195",201.06004,82.58671,153.73454
"14196",201.07338,81.17555,152.40422
"14197",201.08672,80.11597,151.38138
"14198",201.10005,79.45678,150.72581
"14199",201.11339,79.21019,150.46225
"14200",201.12672,79.33715,150.56453
"14201",201.14006,79.73754,150.9442
"14202",201.1534,80.26978,151.46823
"14203",201.16673,80.780045,151.98692
"14204",201.18007,81.146255,152.37752
"14205",201.1934,81.28298,152.55006
"14206",201.20674,81.143814,152.45099
"14207",201.22008,80.71656,152.05948
"14208",201.23341,80.028076,151.39339
"14209",201.24675,79.12718,150.49338
"14210",201.26009,78.065155,149.40407
"14211",201.27342,76.912796,148.19124
"14212",201.28676,75.73113,146.9131
"14213",201.3001,74.581215,145.62978
"14214",201.31343,73.50942,144.38864
"14215",201.32677,72.55726,143.23364
"14216",201.3401,71.744255,142.18805
"14217",201.35344,71.07286,141.25867
"14218",201.36678,70.55283,140.45967
"14219",201.38011,70.16708,139.7787
"14220",201.39345,69.91318,139.21751
"14221",201.40678,69.77646,138.76558
"14222",201.42012,69.74227,138.41191
"14223",201.43346,69.79599,138.14508
"14224",201.4468,69.925385,137.9556
"14225",201.46013,70.11337,137.82875
"14226",201.47346,70.34287,137.7493
"14227",201.4868,70.591896,137.69653
"14228",201.50014,70.853134,137.66377
"14229",201.51347,71.10948,137.63428
"14230",201.52681,71.35363,137.6006
"14231",201.54015,71.56603,137.5428
"14232",201.55348,71.73449,137.4477
"14233",201.56682,71.83215,137.28706
"14234",201.58015,71.851685,137.05135
"14235",201.60683,71.96155,136.6514
"14236",201.62016,72.589,137.02765
"14237",201.6335,74.14664,138.3537
"14238",201.64684,76.925,140.94914
"14239",201.66017,80.91188,144.83992
"14240",201.67351,85.73861,149.69514
"14241",201.68684,90.74845,154.88432
"14242",201.70018,95.19676,159.66852
"14243",201.71352,98.492714,163.43936
"14244",201.72685,100.3653,165.88985
"14245",201.74019,100.841385,167.00235
"14246",201.75352,100.11383,166.92609
"14247",201.76686,98.47074,165.91156
"14248",201.7802,96.20264,164.22067
"14249",201.79353,93.60006,162.12442
"14250",201.80687,90.90715,159.8565
"14251",201.8202,88.3119,157.6021
"14252",201.83354,85.93149,155.48143
"14253",201.84688,83.82208,153.55739
"14254",201.86021,82.01785,151.8726
"14255",201.87355,80.54322,150.46103
"14256",201.88689,79.44457,149.37936
"14257",201.90022,78.768295,148.68573
"14258",201.91356,78.53391,148.41286
"14259",201.9269,78.70237,148.53549
"14260",201.94023,79.17601,148.96858
"14261",201.95357,79.81079,149.5776
"14262",201.9669,80.448006,150.20891
"14263",201.98024,80.95827,150.73317
"14264",201.99358,81.23659,151.04144
"14265",202.00691,81.231705,151.07521
"14266",202.02025,80.92653,150.80853
"14267",202.03358,80.33082,150.24178
"14268",202.04692,79.49828,149.41959
"14269",202.06026,78.487526,148.39314
"14270",202.0736,77.36935,147.22769
"14271",202.08693,76.2121,145.98824
"14272",202.10027,75.07439,144.73215
"14273",202.1136,74.00748,143.5113
"14274",202.12694,73.043106,142.35966
"14275",202.14027,72.21057,141.30972
"14276",202.15361,71.519646,140.37538
"14277",202.16695,70.975204,139.56593
"14278",202.18028,70.572365,138.88107
"14279",202.19362,70.30625,138.32034
"14280",202.20695,70.16708,137.87825
"14281",202.22029,70.14511,137.549
"14282",202.23363,70.220795,137.31671
"14283",202.24696,70.37217,137.16249
"14284",202.2603,70.58213,137.07158
"14285",202.27364,70.83116,137.0263
"14286",202.28697,71.08995,136.99857
"14287",202.30031,71.33166,136.96184
"14288",202.31364,71.534294,136.89359
"14289",202.32698,71.69543,136.79016
"14290",202.34032,71.84436,136.67958
"14291",202.35365,72.09338,136.67374
"14292",202.36699,72.708626,137.0419
"14293",202.38033,74.07095,138.17638
"14294",202.39366,76.49287,140.41301
"14295",202.407,80.04761,143.85815
"14296",202.42033,84.491035,148.30307
"14297",202.43367,89.28359,153.23598
"14298",202.447,93.73434,157.97684
"14299",202.46034,97.20119,161.87288
"14300",202.47368,99.320366,164.5296
"14301",202.48701,100.033264,165.84627
"14302",202.50035,99.49615,165.9352
"14303",202.51369,97.96292,165.01123
"14304",202.52702,95.73388,163.34354
"14305",202.54036,93.09956,161.2009
"14306",202.5537,90.309,158.81969
"14307",202.56703,87.569695,156.40254
"14308",202.58037,85.013504,154.0829
"14309",202.5937,82.70878,151.93484
"14310",202.60704,80.70191,150.01263
"14311",202.62038,79.03685,148.3695
"14312",202.63371,77.77707,147.07962
"14313",202.64705,76.99092,146.224
"14314",202.66039,76.72236,145.8614
"14315",202.67372,76.946976,145.9836
"14316",202.68706,77.56954,146.51076
"14317",202.7004,78.433815,147.29907
"14318",202.71373,79.35668,148.17299
"14319",202.72707,80.17456,148.97076
"14320",202.7404,80.75807,149.55972
"14321",202.75374,81.024185,149.84953
"14322",202.76707,80.94362,149.80098
"14323",202.78041,80.52613,149.41298
"14324",202.79375,79.815674,148.71896
"14325",202.80708,78.88304,147.78058
"14326",202.82042,77.79904,146.66167
"14327",202.83376,76.63935,145.4332
"14328",202.84709,75.4699,144.15872
"14329",202.86043,74.34928,142.89653
"14330",202.87376,73.32632,141.69698
"14331",202.8871,72.430305,140.5924
"14332",202.90044,71.68078,139.60632
"14333",202.91377,71.08751,138.75308
"14334",202.92711,70.660255,138.04732
"14335",202.94044,70.399025,137.49422
"14336",202.95378,70.28428,137.07944
"14337",202.96712,70.28428,136.77582
"14338",202.98045,70.362404,136.55032
"14339",202.99379,70.467384,136.35413
"14340",203.00713,70.56992,136.15877
"14341",203.02046,70.67979,135.97394
"14342",203.0338,70.89464,135.89754
"14343",203.04713,71.465935,136.1843
"14344",203.06047,72.781876,137.23355
"14345",203.0738,75.18181,139.40791
"14346",203.08714,78.77562,142.85115
"14347",203.10048,83.32891,147.36618
"14348",203.11382,88.31434,152.45564
"14349",203.12715,93.01167,157.4128
"14350",203.14049,96.75685,161.56459
"14351",203.15382,99.13481,164.4662
"14352",203.16716,100.067444,165.9968
"14353",203.1805,99.69634,166.2528
"14354",203.19383,98.26078,165.43275
"14355",203.20717,96.061035,163.80367
"14356",203.2205,93.39498,161.63953
"14357",203.23384,90.545815,159.20895
"14358",203.24718,87.73083,156.72353
"14359",203.26051,85.101395,154.33568
"14360",203.27385,82.73319,152.12689
"14361",203.28719,80.66285,150.14197
"14362",203.30052,78.91966,148.4195
"14363",203.31386,77.56222,147.02829
"14364",203.3272,76.66865,146.05853
"14365",203.34053,76.30732,145.5931
"14366",203.35387,76.47822,145.64859
"14367",203.3672,77.10811,146.16843
"14368",203.38054,78.04074,147.01068
"14369",203.39388,79.080795,147.9895
"14370",203.40721,80.04028,148.92026
"14371",203.42055,80.77028,149.65152
"14372",203.43388,81.17311,150.07843
"14373",203.44722,81.20729,150.14928
"14374",203.46056,80.8777,149.85742
"14375",203.47389,80.22583,149.23299
"14376",203.48723,79.31762,148.33183
"14377",203.50056,78.23605,147.22894
"14378",203.5139,77.05684,145.9946
"14379",203.52724,75.860535,144.70631
"14380",203.54057,74.70817,143.42459
"14381",203.55391,73.651024,142.20207
"14382",203.56725,72.72083,141.07347
"14383",203.58058,71.93713,140.0623
"14384",203.59392,71.309685,139.18289
"14385",203.60725,70.82628,138.42792
"14386",203.62059,70.47227,137.78723
"14387",203.63393,70.21591,137.23314
"14388",203.64726,70.03769,136.74916
"14389",203.6606,69.91806,136.3182
"14390",203.67393,69.874115,135.9592
"14391",203.68727,70.0206,135.78925
"14392",203.7006,70.66514,136.12193
"14393",203.71394,72.22522,137.3903
"14394",203.72728,75.04021,139.96233
"14395",203.74062,79.14183,143.90895
"14396",203.75395,84.21271,148.953
"14397",203.76729,89.61074,154.48268
"14398",203.78062,94.540016,159.7123
"14399",203.79396,98.321815,163.94847
"14400",203.8073,100.59724,166.79645
"14401",203.82063,101.337,168.17987
"14402",203.83397,100.733955,168.2436
"14403",203.8473,99.07866,167.23625
"14404",203.86064,96.6836,165.43741
"14405",203.87398,93.86374,163.13892
"14406",203.88731,90.88762,160.59604
"14407",203.90065,87.96765,158.01631
"14408",203.91399,85.23323,155.53088
"14409",203.92732,82.75029,153.21149
"14410",203.94066,80.55787,151.10501
"14411",203.954,78.69993,149.26451
"14412",203.96733,77.239944,147.7639
"14413",203.98067,76.263374,146.70108
"14414",203.994,75.82147,146.14241
"14415",204.00734,75.90936,146.09972
"14416",204.02068,76.44404,146.50656
"14417",204.03401,77.26925,147.22064
"14418",204.04735,78.187225,148.05328
"14419",204.06068,79.0222,148.8316
"14420",204.07402,79.639885,149.41873
"14421",204.08736,79.94751,149.7151
"14422",204.1007,79.906006,149.67197
"14423",204.11403,79.51537,149.2784
"14424",204.12737,78.819565,148.56744
"14425",204.1407,77.88937,147.60036
"14426",204.15404,76.80293,146.44795
"14427",204.16737,75.64324,145.18835
"14428",204.18071,74.486,143.89496
"14429",204.19405,73.392235,142.62888
"14430",204.20738,72.396126,141.42627
"14431",204.22072,71.52209,140.3146
"14432",204.23405,70.784775,139.31236
"14433",204.24739,70.18173,138.42134
"14434",204.26073,69.70565,137.63844
"14435",204.27406,69.337,136.94809
"14436",204.2874,69.068436,136.34631
"14437",204.30074,68.9073,135.84357
"14438",204.31407,68.980545,135.57016
"14439",204.32741,69.610435,135.8557
"14440",204.34074,71.24132,137.16191
"14441",204.35408,74.212555,139.85944
"14442",204.36742,78.54124,144.00726
"14443",204.38075,83.8587,149.27914
"14444",204.39409,89.47402,155.01505
"14445",204.40742,94.55955,160.39664
"14446",204.42076,98.41459,164.70667
"14447",204.4341,100.69001,167.55754
"14448",204.44743,101.385826,168.89992
"14449",204.46077,100.71198,168.89438
"14450",204.4741,98.97856,167.80821
"14451",204.48744,96.52247,165.9452
"14452",204.50078,93.67574,163.6148
"14453",204.51411,90.719154,161.08559
"14454",204.52745,87.86023,158.56163
"14455",204.54079,85.21614,156.16318
"14456",204.55412,82.84062,153.95067
"14457",204.56746,80.75075,151.94957
"14458",204.5808,78.96849,150.19078
"14459",204.59413,77.54757,148.73763
"14460",204.60747,76.56367,147.67708
"14461",204.6208,76.068054,147.07408
"14462",204.63414,76.06317,146.94632
"14463",204.64748,76.47578,147.2359
"14464",204.66081,77.14961,147.7996
"14465",204.67415,77.91379,148.4747
"14466",204.68748,78.607155,149.10287
"14467",204.70082,79.093,149.5452
"14468",204.71416,79.281,149.70485
"14469",204.7275,79.13695,149.53833
"14470",204.74083,78.66819,149.0426
"14471",204.75417,77.90646,148.23926
"14472",204.7675,76.927444,147.19481
"14473",204.78084,75.81903,145.99037
"14474",204.79417,74.65934,144.70003
"14475",204.80751,73.514305,143.38809
"14476",204.82085,72.430305,142.10141
"14477",204.83418,71.4464,140.88095
"14478",204.84752,70.59678,139.76402
"14479",204.86086,69.879,138.7524
"14480",204.87419,69.30282,137.85994
"14481",204.88753,68.858475,137.08131
"14482",204.90086,68.51911,136.39378
"14483",204.9142,68.27497,135.79086
"14484",204.92754,68.191956,135.34145
"14485",204.94087,68.509346,135.28984
"14486",204.95421,69.65682,136.07823
"14487",204.96754,72.08118,138.17937
"14488",204.98088,75.9704,141.82112
"14489",204.99422,81.1194,146.8442
"14490",205.00755,86.939804,152.69958
"14491",205.02089,92.58686,158.5635
"14492",205.03423,97.22316,163.59314
"14493",205.04756,100.30427,167.21246
"14494",205.0609,101.691,169.2337
"14495",205.07423,101.53719,169.75774
"14496",205.08757,100.138245,169.03183
"14497",205.1009,97.848175,167.37108
"14498",205.11424,95.03319,165.11385
"14499",205.12758,92.015564,162.56601
"14500",205.14091,89.06386,159.98979
"14501",205.15425,86.33433,157.5435
"14502",205.16759,83.90509,155.31221
"14503",205.18092,81.78348,153.31264
"14504",205.19426,79.957275,151.54218
"14505",205.2076,78.42161,150.00517
"14506",205.22093,77.23018,148.76442
"14507",205.23427,76.44892,147.8966
"14508",205.2476,76.10956,147.44627
"14509",205.26094,76.192566,147.4077
"14510",205.27428,76.60029,147.69644
"14511",205.28761,77.18379,148.1737
"14512",205.30095,77.77951,148.68141
"14513",205.31429,78.25315,149.08566
"14514",205.32762,78.49729,149.2752
"14515",205.34096,78.45579,149.18674
"14516",205.3543,78.10422,148.78691
"14517",205.36763,77.46212,148.08557
"14518",205.38097,76.58076,147.1249
"14519",205.3943,75.528496,145.96577
"14520",205.40764,74.38346,144.681
"14521",205.42097,73.22621,143.34824
"14522",205.43431,72.11536,142.0257
"14523",205.44765,71.09972,140.76366
"14524",205.46098,70.21103,139.59683
"14525",205.47432,69.46639,138.5463
"14526",205.48766,68.86824,137.61897
"14527",205.50099,68.41657,136.81944
"14528",205.51433,68.09674,136.13763
"14529",205.52766,67.88434,135.55325
"14530",205.541,67.76715,135.05745
"14531",205.55434,67.74517,134.6532
"14532",205.56767,67.96979,134.49486
"14533",205.58101,68.807205,134.95633
"14534",205.59435,70.748146,136.5475
"14535",205.60768,74.127106,139.63734
"14536",205.62102,78.91966,144.24637
"14537",205.63435,84.698555,149.9915
"14538",205.64769,90.69474,156.13452
"14539",205.66103,96.00488,161.77887
"14540",205.67436,99.91852,166.19266
"14541",205.6877,102.1207,169.01729
"14542",205.70103,102.660255,170.24812
"14543",205.71437,101.79599,170.092
"14544",205.7277,99.8819,168.85902
"14545",205.74104,97.29885,166.8973
"14546",205.75438,94.40574,164.54477
"14547",205.76772,91.49554,162.08475
"14548",205.78105,88.77089,159.71933
"14549",205.79439,86.33189,157.55441
"14550",205.80772,84.18585,155.60625
"14551",205.82106,82.29618,153.84738
"14552",205.8344,80.638435,152.2614
"14553",205.84773,79.22728,150.8702
"14554",205.86107,78.116425,149.73518
"14555",205.8744,77.36446,148.92436
"14556",205.88774,77.00313,148.48067
"14557",205.90108,76.998245,148.38213
"14558",205.91441,77.24971,148.53978
"14559",205.92775,77.63302,148.83714
"14560",205.94109,78.011444,149.1416
"14561",205.95442,78.28245,149.35046
"14562",205.96776,78.363014,149.37735
"14563",205.9811,78.20187,149.16505
"14564",205.99443,77.77463,148.68161
"14565",206.00777,77.09834,147.93578
"14566",206.0211,76.2121,146.95885
"14567",206.03444,75.17937,145.80774
"14568",206.04778,74.07828,144.556
"14569",206.06111,72.97475,143.26741
"14570",206.07445,71.92981,142.00293
"14571",206.08778,70.98497,140.8059
"14572",206.10112,70.17685,139.71605
"14573",206.11446,69.5201,138.75233
"14574",206.12779,69.017166,137.9219
"14575",206.14113,68.66071,137.22224
"14576",206.15446,68.42878,136.63596
"14577",206.1678,68.299385,136.14496
"14578",206.18114,68.24567,135.7256
"14579",206.19447,68.243225,135.35583
"14580",206.20781,68.30915,135.05437
"14581",206.22115,68.58991,134.96979
"14582",206.23448,69.46151,135.48482
"14583",206.24782,71.41711,137.11108
"14584",206.26115,74.80827,140.23404
"14585",206.27449,79.62524,144.88876
"14586",206.28783,85.44076,150.69257
"14587",206.30116,91.49554,156.91737
"14588",206.3145,96.883804,162.66487
"14589",206.32784,100.875565,167.18425
"14590",206.34117,103.13634,170.09738
"14591",206.3545,103.71496,171.39902
"14592",206.36784,102.86534,171.2905
"14593",206.38118,100.93904,170.07874
"14594",206.39452,98.33158,168.12563
"14595",206.40785,95.42138,165.78828
"14596",206.42119,92.52094,163.36977
"14597",206.43452,89.84024,161.08034
"14598",206.44786,87.481804,159.0294
"14599",206.4612,85.44076,157.22217
"14600",206.47453,83.65118,155.60262
"14601",206.48787,82.054474,154.12001
"14602",206.5012,80.635994,152.76573
"14603",206.51454,79.44457,151.5942
"14604",206.52788,78.54612,150.67838
"14605",206.54121,77.98703,150.07385
"14606",206.55455,77.75754,149.78145
"14607",206.56789,77.786835,149.74066
"14608",206.58122,77.96506,149.84972
"14609",206.59456,78.16281,149.98387
"14610",206.6079,78.277565,150.04121
"14611",206.62123,78.22873,149.93855
"14612",206.63457,77.95285,149.60732
"14613",206.6479,77.42794,149.01843
"14614",206.66124,76.67353,148.18364
"14615",206.67458,75.72869,147.13484
"14616",206.68791,74.649574,145.92224
"14617",206.70125,73.514305,144.61977
"14618",206.71458,72.379036,143.28181
"14619",206.72792,71.29992,141.96454
"14620",206.74126,70.32578,140.71852
"14621",206.7546,69.48104,139.57146
"14622",206.76793,68.77791,138.53961
"14623",206.78127,68.23102,137.64203
"14624",206.7946,67.83795,136.88118
"14625",206.80794,67.59869,136.26186
"14626",206.82127,67.49859,135.77422
"14627",206.83461,67.525444,135.4104
"14628",206.84795,67.65728,135.1524
"14629",206.86128,67.86725,134.97667
"14630",206.87462,68.13092,134.86119
"14631",206.88795,68.419014,134.77838
"14632",206.90129,68.69245,134.68991
"14633",206.91463,68.93416,134.57826
"14634",206.92796,69.13435,134.43265
"14635",206.9413,69.38827,134.34702
"14636",206.95464,69.993744,134.62088
"14637",206.96797,71.45373,135.76817
"14638",206.98131,74.24185,138.28923
"14639",206.99464,78.53391,142.40135
"14640",207.00798,84.09308,147.9147
"14641",207.02132,90.28214,154.23167
"14642",207.03465,96.20508,160.47592
"14643",207.04799,101.00496,165.78221
"14644",207.06133,104.15442,169.58807
"14645",207.07466,105.548485,171.73697
"14646",207.088,105.37026,172.35713
"14647",207.10133,103.956665,171.73636
"14648",207.11467,101.71053,170.23888
"14649",207.128,99.02983,168.23663
"14650",207.14134,96.26124,166.06273
"14651",207.15468,93.661095,163.97075
"14652",207.16801,91.36858,162.10515
"14653",207.18135,89.39834,160.49017
"14654",207.19469,87.682,159.06754
"14655",207.20802,86.11948,157.74507
"14656",207.22136,84.6424,156.45923
"14657",207.2347,83.25811,155.22002
"14658",207.24803,82.02518,154.0889
"14659",207.26137,81.024185,153.1512
"14660",207.2747,80.31373,152.47275
"14661",207.28804,79.89136,152.06018
"14662",207.30138,79.69604,151.86147
"14663",207.31471,79.62524,151.78116
"14664",207.32805,79.59106,151.73526
"14665",207.34138,79.4934,151.62482
"14666",207.35472,79.259026,151.3746
"14667",207.36806,78.83177,150.9242
"14668",207.3814,78.19455,150.25046
"14669",207.39473,77.35226,149.35175
"14670",207.40807,76.3415,148.25824
"14671",207.4214,75.22087,147.02328
"14672",207.43474,74.04898,145.70204
"14673",207.44807,72.89662,144.36371
"14674",207.46141,71.82727,143.07237
"14675",207.47475,70.887314,141.87701
"14676",207.48808,70.08896,140.79388
"14677",207.50142,69.43221,139.82742
"14678",207.51476,68.91951,138.98448
"14679",207.52809,68.53864,138.25735
"14680",207.54143,68.282295,137.64284
"14681",207.55476,68.15045,137.14482
"14682",207.5681,68.138245,136.76231
"14683",207.58144,68.23102,136.4844
"14684",207.59477,68.401924,136.28754
"14685",207.60811,68.6363,136.15947
"14686",207.62144,68.9073,136.07536
"14687",207.63478,69.205154,136.02657
"14688",207.64812,69.50301,135.98709
"14689",207.66145,69.7789,135.93495
"14690",207.67479,70.00107,135.8377
"14691",207.68813,70.14511,135.66928
"14692",207.70146,70.203705,135.4199
"14693",207.7148,70.23056,135.14062
"14694",207.72813,70.4625,135.06728
"14695",207.74147,71.36584,135.67256
"14696",207.7548,73.47524,137.51215
"14697",207.76814,77.09834,140.93135
"14698",207.78148,82.15701,145.89934
"14699",207.79482,88.15076,151.9605
"14700",207.80815,94.24216,158.30661
"14701",207.82149,99.53521,164.04472
"14702",207.83482,103.360954,168.48094
"14703",207.84816,105.46792,171.31793
"14704",207.8615,105.93179,172.57768
"14705",207.87483,105.02602,172.48227
"14706",207.88817,103.11192,171.35023
"14707",207.9015,100.58503,169.5456
"14708",207.91484,97.81644,167.42029
"14709",207.92818,95.10887,165.26949
"14710",207.94151,92.65522,163.288
"14711",207.95485,90.5214,161.54965
"14712",207.96819,88.6659,160.02295
"14713",207.98152,86.99596,158.62381
"14714",207.99486,85.4139,157.26038
"14715",208.0082,83.88312,155.89877
"14716",208.02153,82.43046,154.56746
"14717",208.03487,81.13405,153.347
"14718",208.0482,80.06714,152.31554
"14719",208.06154,79.27856,151.52905
"14720",208.07487,78.75853,150.98648
"14721",208.08821,78.44602,150.63518
"14722",208.10155,78.25071,150.3913
"14723",208.11488,78.09201,150.17793
"14724",208.12822,77.87961,149.9059
"14725",208.14156,77.54269,149.50272
"14726",208.15489,77.04219,148.92543
"14727",208.16823,76.368355,148.15916
"14728",208.18156,75.53582,147.21313
"14729",208.1949,74.57389,146.1117
"14730",208.20824,73.53384,144.90207
"14731",208.22157,72.464485,143.63065
"14732",208.23491,71.414665,142.34534
"14733",208.24825,70.42832,141.0907
"14734",208.26158,69.542076,139.90533
"14735",208.27492,68.78523,138.82169
"14736",208.28825,68.172424,137.85841
"14737",208.30159,67.701225,137.01761
"14738",208.31493,67.37408,136.30612
"14739",208.32826,67.173874,135.71136
"14740",208.3416,67.09575,135.23242
"14741",208.35493,67.12016,134.85358
"14742",208.36827,67.227585,134.5585
"14743",208.3816,67.405815,134.3376
"14744",208.39494,67.63531,134.17352
"14745",208.40828,67.896545,134.04837
"14746",208.42162,68.17731,133.9509
"14747",208.43495,68.46296,133.8671
"14748",208.44829,68.74128,133.78488
"14749",208.46162,69.00496,133.69673
"14750",208.47496,69.24422,133.59239
"14751",208.4883,69.4493,133.46136
"14752",208.50163,69.61532,133.29767
"14753",208.51497,69.72518,133.08301
"14754",208.5283,69.77402,132.81076
"14755",208.54164,69.81796,132.53514
"14756",208.55498,70.09628,132.49527
"14757",208.56831,71.0753,133.1648
"14758",208.58165,73.289696,135.1003
"14759",208.59499,77.05928,138.66019
"14760",208.60832,82.2913,143.80031
"14761",208.62166,88.465706,150.04633
"14762",208.635,94.745094,156.59027
"14763",208.64833,100.22858,162.53453
"14764",208.66167,104.24231,167.1804
"14765",208.675,106.53727,170.23294
"14766",208.68834,107.18669,171.71165
"14767",208.70168,106.43229,171.80684
"14768",208.71501,104.601204,170.80176
"14769",208.72835,102.07187,169.04121
"14770",208.74168,99.20561,166.8647
"14771",208.75502,96.307625,164.5669
"14772",208.76836,93.60006,162.36894
"14773",208.7817,91.19768,160.39156
"14774",208.79503,89.10292,158.64673
"14775",208.80836,87.24498,157.07326
"14776",208.8217,85.56039,155.61507
"14777",208.83504,84.01007,154.23851
"14778",208.84837,82.63554,152.98929
"14779",208.86171,81.497826,151.93394
"14780",208.87505,80.66285,151.14578
"14781",208.88838,80.14526,150.64891
"14782",208.90172,79.89868,150.40686
"14783",208.91505,79.83032,150.33533
"14784",208.92839,79.835205,150.3349
"14785",208.94173,79.81079,150.30533
"14786",208.95506,79.676506,150.16513
"14787",208.9684,79.36889,149.8474
"14788",208.98174,78.856186,149.31497
"14789",208.99507,78.135956,148.55899
"14790",209.0084,77.22774,147.59251
"14791",209.02174,76.173035,146.45117
"14792",209.03508,75.028,145.18654
"14793",209.04842,73.846344,143.8495
"14794",209.06175,72.67689,142.48775
"14795",209.07509,71.58068,141.16269
"14796",209.08842,70.59678,139.91568
"14797",209.10176,69.754486,138.77954
"14798",209.1151,69.07088,137.77576
"14799",209.12843,68.55085,136.9142
"14800",209.14177,68.18707,136.19264
"14801",209.1551,67.96735,135.60376
"14802",209.16844,67.877014,135.1374
"14803",209.18178,67.89899,134.78053
"14804",209.19511,68.016174,134.51956
"14805",209.20845,68.206604,134.3355
"14806",209.22179,68.44831,134.20866
"14807",209.23512,68.71931,134.11867
"14808",209.24846,69.00252,134.04936
"14809",209.2618,69.27596,133.97914
"14810",209.27513,69.542076,133.91013
"14811",209.28847,69.788666,133.82991
"14812",209.3018,70.01083,133.73297
"14813",209.31514,70.21347,133.62344
"14814",209.32848,70.39414,133.49829
"14815",209.34181,70.54551,133.34947
"14816",209.35515,70.65537,133.16388
"14817",209.36848,70.71641,132.93289
"14818",209.38182,70.72373,132.6501
"14819",209.39516,70.674904,132.31139
"14820",209.4085,70.61875,131.96382
"14821",209.42183,70.767685,131.8196
"14822",209.43517,71.5758,132.3392
"14823",209.4485,73.58022,134.08037
"14824",209.46184,77.10811,137.40764
"14825",209.47517,82.091095,142.30025
"14826",209.48851,88.03845,148.31296
"14827",209.50185,94.13229,154.658
"14828",209.51518,99.46685,160.43419
"14829",209.52852,103.37316,164.94884
"14830",209.54185,105.58999,167.89607
"14831",209.55519,106.18082,169.28659
"14832",209.56853,105.375145,169.29907
"14833",209.58186,103.485466,168.20236
"14834",209.5952,100.83894,166.28976
"14835",209.60854,97.76517,163.8672
"14836",209.62187,94.554665,161.21185
"14837",209.63521,91.422295,158.53432
"14838",209.64854,88.50721,155.97618
"14839",209.66188,85.88754,153.62236
"14840",209.67522,83.59014,151.50894
"14841",209.68855,81.65896,149.68996
"14842",209.70189,80.15503,148.23787
"14843",209.71523,79.132065,147.21976
"14844",209.72856,78.61448,146.67505
"14845",209.7419,78.58518,146.60245
"14846",209.75523,78.9514,146.92445
"14847",209.76857,79.5642,147.50449
"14848",209.7819,80.26002,148.18668
"14849",209.79524,80.885025,148.81981
"14850",209.80858,81.31228,149.27472
"14851",209.82191,81.45632,149.45978
"14852",209.83525,81.270775,149.31975
"14853",209.84859,80.75807,148.84676
"14854",209.86192,79.95972,148.0721
"14855",209.87526,78.93919,147.05032
"14856",209.8886,77.77707,145.85504
"14857",209.90193,76.54902,144.55753
"14858",209.91527,75.32098,143.22163
"14859",209.9286,74.13931,141.89375
"14860",209.94194,73.060196,140.63148
"14861",209.95528,72.1178,139.47221
"14862",209.96861,71.329216,138.43732
"14863",209.98195,70.69932,137.53645
"14864",209.99529,70.223236,136.76973
"14865",210.00862,69.891205,136.13217
"14866",210.02196,69.68856,135.61363
"14867",210.0353,69.590904,135.19374
"14868",210.04863,69.58114,134.85869
"14869",210.06197,69.65438,134.60634
"14870",210.0753,69.79599,134.42465
"14871",210.08864,69.98642,134.2962
"14872",210.10197,70.21835,134.21521
"14873",210.11531,70.484474,134.17566
"14874",210.12865,70.76524,134.15907
"14875",210.14198,71.05577,134.16101
"14876",210.15532,71.33654,134.16228
"14877",210.16866,71.60265,134.15765
"14878",210.18199,71.834595,134.12718
"14879",210.19533,72.0177,134.05511
"14880",210.20866,72.13733,133.9253
"14881",210.222,72.18616,133.72841
"14882",210.23534,72.164185,133.46225
"14883",210.24867,72.12268,133.17587
"14884",210.26201,72.26673,133.07376
"14885",210.27534,73.006485,133.57185
"14886",210.28868,74.82292,135.16974
"14887",210.30202,78.00168,138.1867
"14888",210.31535,82.45487,142.57745
"14889",210.32869,87.725945,147.92525
"14890",210.34203,93.05562,153.49635
"14891",210.35536,97.63332,158.48204
"14892",210.3687,100.88045,162.28021
"14893",210.38203,102.591896,164.64418
"14894",210.39537,102.85069,165.60898
"14895",210.4087,101.874115,165.34648
"14896",210.42204,99.93561,164.09154
"14897",210.43538,97.30862,162.08754
"14898",210.44872,94.27146,159.59128
"14899",210.46205,91.056076,156.82187
"14900",210.47539,87.852905,153.9642
"14901",210.48872,84.788895,151.1456
"14902",210.50206,81.94949,148.45586
"14903",210.5154,79.40795,145.97523
"14904",210.52873,77.27413,143.8229
"14905",210.54207,75.69207,142.15565
"14906",210.5554,74.793625,141.12259
"14907",210.56874,74.64225,140.80852
"14908",210.58208,75.191574,141.19041
"14909",210.59541,76.29023,142.13881
"14910",210.60875,77.696495,143.42914
"14911",210.62209,79.15892,144.81958
"14912",210.63542,80.45533,146.0897
"14913",210.64876,81.43191,147.08052
"14914",210.6621,81.99832,147.69168
"14915",210.67543,82.12039,147.8762
"14916",210.68877,81.82498,147.64706
"14917",210.7021,81.17555,147.05467
"14918",210.71544,80.255135,146.17099
"14919",210.72878,79.149155,145.07298
"14920",210.74211,77.943085,143.84032
"14921",210.75545,76.70527,142.53822
"14922",210.76878,75.491875,141.22186
"14923",210.78212,74.356606,139.94571
"14924",210.79546,73.33364,138.74638
"14925",210.80879,72.44984,137.65425
"14926",210.82213,71.710075,136.67854
"14927",210.83546,71.12413,135.83354
"14928",210.8488,70.68223,135.11427
"14929",210.86214,70.36729,134.50815
"14930",210.87547,70.169525,134.00937
"14931",210.88881,70.06943,133.60207
"14932",210.90215,70.05722,133.27953
"14933",210.91548,70.11093,133.02252
"14934",210.92882,70.22568,132.82823
"14935",210.94215,70.3917,132.68881
"14936",210.95549,70.59678,132.59363
"14937",210.96883,70.83116,132.53416
"14938",210.98216,71.08263,132.4991
"14939",210.9955,71.3341,132.47191
"14940",211.00883,71.56115,132.42815
"14941",211.02217,71.744255,132.34753
"14942",211.0355,71.871216,132.2165
"14943",211.04884,71.993286,132.08455
"14944",211.06218,72.33265,132.1737
"14945",211.07552,73.321434,132.92288
"14946",211.08885,75.389336,134.78207
"14947",211.10219,78.76097,138.00963
"14948",211.11552,83.27276,142.4827
"14949",211.12886,88.40711,147.71933
"14950",211.1422,93.402306,152.97725
"14951",211.15553,97.513695,157.50746
"14952",211.16887,100.25788,160.79895
"14953",211.1822,101.52987,162.704
"14954",211.19554,101.47372,163.32065
"14955",211.20888,100.32136,162.83934
"14956",211.22221,98.3267,161.47972
"14957",211.23555,95.71923,159.44496
"14958",211.24889,92.71137,156.92833
"14959",211.26222,89.48623,154.10042
"14960",211.27556,86.19516,151.10579
"14961",211.2889,82.95293,148.05716
"14962",211.30223,79.85962,145.05614
"14963",211.31557,77.02754,142.21967
"14964",211.3289,74.61051,139.70975
"14965",211.34224,72.813614,137.74443
"14966",211.35558,71.8468,136.55304
"14967",211.36891,71.8468,136.29825
"14968",211.38225,72.79408,136.99074
"14969",211.39558,74.493324,138.4648
"14970",211.40892,76.61494,140.41432
"14971",211.42226,78.79271,142.48631
"14972",211.4356,80.709236,144.36511
"14973",211.44893,82.161896,145.83994
"14974",211.46227,83.08232,146.82793
"14975",211.4756,83.48516,147.32709
"14976",211.48894,83.42657,147.37741
"14977",211.50227,82.97978,147.0377
"14978",211.51561,82.22781,146.37886
"14979",211.52895,81.248795,145.46947
"14980",211.54228,80.111084,144.37079
"14981",211.55562,78.87816,143.14133
"14982",211.56895,77.62081,141.84892
"14983",211.58229,76.39521,140.54897
"14984",211.59563,75.23796,139.27907
"14985",211.60896,74.1857,138.07799
"14986",211.6223,73.26284,136.97343
"14987",211.63564,72.4889,135.98895
"14988",211.64897,71.871216,135.13655
"14989",211.66231,71.41711,134.42842
"14990",211.67564,71.12413,133.86723
"14991",211.68898,70.98009,133.44582
"14992",211.70232,70.977646,133.1615
"14993",211.71565,71.080185,132.98209
"14994",211.72899,71.2633,132.88646
"14995",211.74232,71.49523,132.84537
"14996",211.75566,71.7467,132.83105
"14997",211.769,71.99573,132.82217
"14998",211.78233,72.274055,132.85037
"14999",211.79567,72.7892,133.12408
"15000",211.809,73.94888,134.05843
"15001",211.82234,76.192566,136.113
"15002",211.83568,79.72289,139.52435
"15003",211.84901,84.38361,144.17642
"15004",211.86235,89.66201,149.59181
"15005",211.87569,94.79637,155.0281
"15006",211.88902,99.03227,159.7264
"15007",211.90236,101.88388,163.17276
"15008",211.9157,103.255974,165.22873
"15009",211.92903,103.28527,165.98477
"15010",211.94237,102.20126,165.62843
"15011",211.9557,100.25056,164.37152
"15012",211.96904,97.67483,162.42862
"15013",211.98238,94.68162,159.98775
"15014",211.99571,91.45159,157.21652
"15015",212.00905,88.13855,154.26134
"15016",212.02238,84.859695,151.23682
"15017",212.03572,81.69314,148.22212
"15018",212.04906,78.72434,145.30624
"15019",212.0624,76.085144,142.62718
"15020",212.07573,73.953766,140.37346
"15021",212.08907,72.552376,138.78313
"15022",212.1024,72.07141,138.06943
"15023",212.11574,72.569466,138.31972
"15024",212.12907,73.92691,139.44496
"15025",212.14241,75.86542,141.19368
"15026",212.15575,78.01877,143.21782
"15027",212.16908,80.03296,145.17009
"15028",212.18242,81.66384,146.802
"15029",212.19576,82.78691,147.97707
"15030",212.20909,83.39239,148.66963
"15031",212.22243,83.51202,148.89528
"15032",212.23576,83.21904,148.71205
"15033",212.26244,81.688255,147.3627
"15034",212.27577,80.59693,146.32414
"15035",212.28911,79.39086,145.13673
"15036",212.30244,78.12863,143.85547
"15037",212.31578,76.86885,142.5372
"15038",212.32912,75.65301,141.22351
"15039",212.34245,74.52506,139.95972
"15040",212.35579,73.514305,138.77786
"15041",212.36913,72.637825,137.6987
"15042",212.38246,71.91028,136.74109
"15043",212.3958,71.343864,135.92188
"15044",212.40913,70.93614,135.24365
"15045",212.42247,70.674904,134.69917
"15046",212.4358,70.55039,134.28325
"15047",212.44914,70.54551,133.98306
"15048",212.46248,70.63584,133.77794
"15049",212.47581,70.78722,133.63669
"15050",212.48915,70.98497,133.54654
"15051",212.50249,71.29504,133.57489
"15052",212.51582,72.02991,134.03773
"15053",212.52916,73.70962,135.46838
"15054",212.5425,76.805374,138.36757
"15055",212.55583,81.42947,142.89183
"15056",212.56917,87.24986,148.7569
"15057",212.5825,93.55367,155.28726
"15058",212.59584,99.42046,161.5776
"15059",212.60918,104.02991,166.79395
"15060",212.62251,106.966965,170.48193
"15061",212.63585,108.24628,172.60396
"15062",212.64919,108.0827,173.32307
"15063",212.66252,106.74723,172.86519
"15064",212.67586,104.52064,171.47444
"15065",212.6892,101.66659,169.38666
"15066",212.70253,98.42191,166.81906
"15067",212.71587,94.98924,163.96208
"15068",212.7292,91.53948,160.98074
"15069",212.74254,88.20691,158.00877
"15070",212.75587,85.08186,155.1402
"15071",212.76921,82.23514,152.45229
"15072",212.78255,79.75708,150.04408
"15073",212.79588,77.7673,148.04672
"15074",212.80922,76.40742,146.61707
"15075",212.82256,75.792175,145.88956
"15076",212.83589,75.93866,145.90454
"15077",212.84923,76.74433,146.5833
"15078",212.86256,77.99924,147.73647
"15079",212.8759,79.432365,149.10707
"15080",212.88924,80.79469,150.45166
"15081",212.90257,81.89334,151.57515
"15082",212.91591,82.62821,152.36919
"15083",212.92924,82.950485,152.77359
"15084",212.94258,82.86015,152.77547
"15085",212.95592,82.391396,152.39609
"15086",212.96925,81.60769,151.68712
"15087",212.98259,80.570076,150.69975
"15088",212.99593,79.361565,149.50906
"15089",213.00926,78.04318,148.17073
"15090",213.0226,76.68818,146.75458
"15091",213.03593,75.355156,145.31805
"15092",213.04927,74.10513,143.92288
"15093",213.0626,72.96498,142.59851
"15094",213.07594,71.96399,141.37767
"15095",213.08928,71.12169,140.28424
"15096",213.10262,70.44541,139.33052
"15097",213.11595,69.92294,138.50948
"15098",213.12929,69.556725,137.82835
"15099",213.14262,69.34432,137.2896
"15100",213.15596,69.27108,136.88336
"15101",213.1693,69.32235,136.59935
"15102",213.18263,69.4786,136.42192
"15103",213.19597,69.70565,136.32018
"15104",213.2093,69.96689,136.25972
"15105",213.22264,70.223236,136.20253
"15106",213.23598,70.49424,136.16801
"15107",213.24931,70.99962,136.37634
"15108",213.26265,72.198364,137.29382
"15109",213.27599,74.60807,139.45973
"15110",213.28932,78.502174,143.18533
"15111",213.30266,83.74151,148.37785
"15112",213.316,89.77432,154.52759
"15113",213.32933,95.765625,160.82434
"15114",213.34267,100.85359,166.40498
"15115",213.356,104.45716,170.66023
"15116",213.36934,106.4152,173.38255
"15117",213.38268,106.847336,174.64017
"15118",213.39601,105.99039,174.6222
"15119",213.40935,104.1178,173.5618
"15120",213.42268,101.505455,171.70314
"15121",213.43602,98.426796,169.29652
"15122",213.44936,95.130844,166.57642
"15123",213.46269,91.82025,163.73866
"15124",213.47603,88.656136,160.94392
"15125",213.48936,85.73617,158.29446
"15126",213.5027,83.11894,155.85649
"15127",213.51604,80.850845,153.68587
"15128",213.52937,79.00023,151.86185
"15129",213.54271,77.65255,150.48293
"15130",213.55605,76.87862,149.63564
"15131",213.56938,76.700386,149.35986
"15132",213.58272,77.0544,149.61076
"15133",213.59605,77.803925,150.26823
"15134",213.60939,78.75609,151.15176
"15135",213.62273,79.708244,152.06505
"15136",213.63606,80.499275,152.84695
"15137",213.6494,81.0193,153.38258
"15138",213.66273,81.197525,153.59267
"15139",213.67607,81.00954,153.44211
"15140",213.6894,80.479744,152.94386
"15141",213.70274,79.656975,152.1361
"15142",213.71608,78.61204,151.08043
"15143",213.72942,77.420616,149.84563
"15144",213.74275,76.14862,148.49303
"15145",213.75609,74.84978,147.07382
"15146",213.76942,73.58022,145.64333
"15147",213.78276,72.38148,144.24396
"15148",213.7961,71.29748,142.92188
"15149",213.80943,70.35264,141.70508
"15150",213.82277,69.5787,140.62965
"15151",213.8361,68.9781,139.7034
"15152",213.84944,68.55329,138.93416
"15153",213.86278,68.28718,138.31033
"15154",213.87611,68.16266,137.8198
"15155",213.88945,68.16022,137.44743
"15156",213.90279,68.265205,137.18243
"15157",213.91612,68.45075,137.00127
"15158",213.92946,68.697334,136.88693
"15159",213.9428,68.97078,136.80717
"15160",213.95613,69.239334,136.73106
"15161",213.96947,69.48104,136.6365
"15162",213.9828,69.70565,136.5324
"15163",213.99614,70.07675,136.5818
"15164",214.00948,70.98985,137.1848
"15165",214.02281,72.952774,138.86615
"15166",214.03615,76.30244,141.99559
"15167",214.04948,81.0193,146.59691
"15168",214.06282,86.67368,152.28314
"15169",214.07616,92.52094,158.33896
"15170",214.0895,97.71145,163.92075
"15171",214.10283,101.59579,168.35857
"15172",214.11617,103.905396,171.34305
"15173",214.1295,104.689095,172.8738
"15174",214.14284,104.149536,173.10577
"15175",214.15617,102.54795,172.25887
"15176",214.16951,100.16266,170.5782
"15177",214.18285,97.26711,168.31274
"15178",214.19618,94.115204,165.70044
"15179",214.20952,90.9218,162.94814
"15180",214.22285,87.852905,160.22055
"15181",214.23619,85.013504,157.62656
"15182",214.24953,82.46708,155.2368
"15183",214.26286,80.26734,153.11417
"15184",214.2762,78.48264,151.33783
"15185",214.28954,77.18623,149.994
"15186",214.30287,76.4416,149.16144
"15187",214.31621,76.26093,148.86957
"15188",214.32954,76.58076,149.07254
"15189",214.34288,77.27169,149.65662
"15190",214.35622,78.15549,150.45515
"15191",214.36955,79.046616,151.28864
"15192",214.38289,79.783936,151.99615
"15193",214.39622,80.257576,152.46304
"15194",214.40956,80.396736,152.61026
"15195",214.4229,80.181885,152.4078
"15196",214.43623,79.635,151.86661
"15197",214.44957,78.8098,151.03
"15198",214.4629,77.769745,149.95274
"15199",214.47624,76.58564,148.69894
"15200",214.48958,75.318535,147.32513
"15201",214.50291,74.03433,145.89464
"15202",214.51625,72.78676,144.46063
"15203",214.52959,71.62951,143.07797
"15204",214.54292,70.59678,141.78366
"15205",214.55626,69.715416,140.60844
"15206",214.5696,69.00252,139.57416
"15207",214.58293,68.46052,138.68849
"15208",214.59627,68.086975,137.95435
"15209",214.6096,67.87457,137.36966
"15210",214.62294,67.80621,136.92238
"15211",214.63628,67.85748,136.59259
"15212",214.64961,68.01129,136.36694
"15213",214.66295,68.24078,136.22179
"15214",214.67628,68.5362,136.14973
"15215",214.68962,68.87068,136.12598
"15216",214.70296,69.224686,136.13219
"15217",214.7163,69.55428,136.12506
"15218",214.72963,69.82529,136.06964
"15219",214.74297,70.04257,135.96896
"15220",214.7563,70.313576,135.9288
"15221",214.76964,70.977646,136.29018
"15222",214.78297,72.532845,137.56343
"15223",214.79631,75.38445,140.18169
"15224",214.80965,79.61547,144.26846
"15225",214.82298,84.90608,149.54706
"15226",214.83632,90.59464,155.38893
"15227",214.84966,95.84863,160.974
"15228",214.86299,99.95514,165.57578
"15229",214.87633,102.55283,168.79707
"15230",214.88966,103.62707,170.57608
"15231",214.903,103.33898,171.02634
"15232",214.91634,101.94003,170.35674
"15233",214.92967,99.698784,168.80112
"15234",214.94301,96.89845,166.61638
"15235",214.95634,93.805145,164.05115
"15236",214.96968,90.66056,161.33797
"15237",214.98302,87.640495,158.65105
"15238",214.99635,84.86214,156.11145
"15239",215.00969,82.391396,153.79265
"15240",215.02303,80.28443,151.76042
"15241",215.03636,78.60471,150.0896
"15242",215.0497,77.435265,148.87654
"15243",215.06303,76.83223,148.19336
"15244",215.07637,76.79561,148.05774
"15245",215.0897,77.2546,148.4166
"15246",215.10304,78.05783,149.13403
"15247",215.11638,79.01976,150.03526
"15248",215.12971,79.94995,150.93481
"15249",215.14305,80.689705,151.673
"15250",215.15639,81.13649,152.14134
"15251",215.16972,81.24147,152.28185
"15252",215.18306,80.987564,152.06674
"15253",215.1964,80.40162,151.51166
"15254",215.20973,79.54223,150.66483
"15255",215.22307,78.47776,149.58604
"15256",215.2364,77.27657,148.33728
"15257",215.24974,75.99725,146.97285
"15258",215.26308,74.71549,145.56601
"15259",215.27641,73.48501,144.17038
"15260",215.28975,72.35706,142.83884
"15261",215.30309,71.36584,141.60876
"15262",215.31642,70.538185,140.51129
"15263",215.32976,69.88388,139.56131
"15264",215.3431,69.400475,138.76178
"15265",215.35643,69.08064,138.11072
"15266",215.36977,68.91463,137.60347
"15267",215.3831,68.88045,137.22287
"15268",215.39644,68.95613,136.95107
"15269",215.40977,69.12215,136.77196
"15270",215.42311,69.35165,136.66153
"15271",215.43645,69.62997,136.60709
"15272",215.44978,69.942474,136.59554
"15273",215.46312,70.26231,136.60107
"15274",215.47646,70.55772,136.59218
"15275",215.48979,70.801865,136.54126
"15276",215.50313,70.977646,136.4296
"15277",215.51646,71.10948,136.27948
"15278",215.5298,71.378044,136.27022
"15279",215.54314,72.164185,136.78693
"15280",215.55647,73.96109,138.33896
"15281",215.56981,77.083694,141.27284
"15282",215.58315,81.50759,145.6056
"15283",215.59648,86.82506,150.97018
"15284",215.60982,92.32563,156.68404
"15285",215.62315,97.196304,161.93988
"15286",215.63649,100.81453,166.09549
"15287",215.64983,102.90929,168.8407
"15288",215.66316,103.517204,170.16454
"15289",215.6765,102.82872,170.21097
"15290",215.68983,101.10506,169.2007
"15291",215.70317,98.62943,167.38461
"15292",215.7165,95.68505,165.0224
"15293",215.72984,92.53559,162.3631
"15294",215.74318,89.393456,159.6127
"15295",215.75652,86.41245,156.92525
"15296",215.76985,83.6878,154.40099
"15297",215.78319,81.28542,152.11386
"15298",215.79652,79.27856,150.14717
"15299",215.80986,77.75998,148.60605
"15300",215.8232,76.81758,147.59364
"15301",215.83653,76.490425,147.16704
"15302",215.84987,76.75166,147.3186
"15303",215.8632,77.47921,147.94464
"15304",215.87654,78.487526,148.87418
"15305",215.88988,79.55688,149.89626
"15306",215.90321,80.499275,150.8248
"15307",215.91655,81.16823,151.50935
"15308",215.92989,81.48562,151.86325
"15309",215.94322,81.41726,151.84132
"15310",215.95656,80.972916,151.44127
"15311",215.9699,80.201416,150.70018
"15312",215.98323,79.1638,149.66885
"15313",215.99657,77.94064,148.41956
"15314",216.0099,76.60761,147.02217
"15315",216.02324,75.245285,145.55383
"15316",216.03658,73.91226,144.07222
"15317",216.04991,72.672005,142.64172
"15318",216.06325,71.56359,141.3043
"15319",216.07658,70.608986,140.08606
"15320",216.08992,69.82529,139.0089
"15321",216.10326,69.222244,138.08789
"15322",216.1166,68.79744,137.32628
"15323",216.12993,68.54597,136.72473
"15324",216.14326,68.45075,136.27158
"15325",216.1566,68.489815,135.94972
"15326",216.16994,68.6363,135.73651
"15327",216.18327,68.87068,135.61578
"15328",216.19661,69.17586,135.57317
"15329",216.20995,69.53231,135.59137
"15330",216.22328,69.910736,135.64268
"15331",216.23662,70.279396,135.69606
"15332",216.24995,70.59922,135.71211
"15333",216.26329,70.84337,135.66249
"15334",216.27663,71.03136,135.56433
"15335",216.28996,71.312126,135.56483
"15336",216.3033,72.042114,136.02333
"15337",216.31664,73.71206,137.4446
"15338",216.32997,76.67841,140.21445
"15339",216.3433,80.96315,144.39539
"15340",216.35664,86.19272,149.65506
"15341",216.36998,91.68108,155.33694
"15342",216.38332,96.61768,160.63858
"15343",216.39665,100.336006,164.8762
"15344",216.40999,102.53574,167.71144
"15345",216.42332,103.23399,169.11394
"15346",216.43666,102.626076,169.23209
"15347",216.45,100.96834,168.28142
"15348",216.46333,98.5391,166.50745
"15349",216.47667,95.61181,164.1595
"15350",216.49,92.437935,161.4735
"15351",216.50334,89.23476,158.659
"15352",216.51668,86.151215,155.86404
"15353",216.53001,83.302055,153.2071
"15354",216.54335,80.75807,150.76631
"15355",216.55669,78.61936,148.65129
"15356",216.57002,76.998245,146.98703
"15357",216.58336,76.0119,145.90688
"15358",216.5967,75.70916,145.4795
"15359",216.61003,76.06561,145.70187
"15360",216.62337,76.946976,146.46028
"15361",216.6367,78.1384,147.55629
"15362",216.65004,79.40063,148.76035
"15363",216.66338,80.52613,149.86711
"15364",216.67671,81.36355,150.72098
"15365",216.69005,81.829865,151.2299
"15366",216.70338,81.881134,151.33836
"15367",216.71672,81.529564,151.04558
"15368",216.73006,80.814224,150.37804
"15369",216.7434,79.80347,149.39273
"15370",216.75673,78.57786,148.16098
"15371",216.77007,77.222855,146.76154
"15372",216.7834,75.826355,145.27824
"15373",216.79674,74.461586,143.78305
"15374",216.81007,73.18715,142.33554
"15375",216.82341,72.04944,140.98492
"15376",216.83675,71.08751,139.77454
"15377",216.85008,70.30625,138.71477
"15378",216.86342,69.71053,137.81612
"15379",216.87675,69.29305,137.07709
"15380",216.89009,69.04402,136.49347
"15381",216.90343,68.9366,136.04367
"15382",216.91676,68.94148,135.70282
"15383",216.9301,69.031815,135.44757
"15384",216.94344,69.16365,135.23665
"15385",216.95677,69.3077,135.04207
"15386",216.97011,69.454185,134.85442
"15387",216.98344,69.67635,134.74702
"15388",216.99678,70.23056,134.97862
"15389",217.01012,71.5465,135.98927
"15390",217.02345,74.02945,138.20805
"15391",217.03679,77.81857,141.8106
"15392",217.05013,82.68925,146.6131
"15393",217.06346,88.07263,152.08052
"15394",217.0768,93.206985,157.46715
"15395",217.09013,97.355,162.02788
"15396",217.10347,100.07965,165.29486
"15397",217.1168,101.28329,167.12599
"15398",217.13014,101.102615,167.61043
"15399",217.14348,99.77203,166.9393
"15400",217.15681,97.56008,165.34523
"15401",217.17015,94.73777,163.07167
"15402",217.18349,91.57122,160.36568
"15403",217.19682,88.28504,157.4411
"15404",217.21016,85.05745,154.47241
"15405",217.2235,82.00809,151.5811
"15406",217.23683,79.2224,148.85817
"15407",217.25017,76.80049,146.41196
"15408",217.2635,74.87175,144.38322
"15409",217.27684,73.59243,142.94365
"15410",217.29018,73.07973,142.23071
"15411",217.30351,73.36538,142.30011
"15412",217.31685,74.36149,143.08888
"15413",217.33018,75.85321,144.4044
"15414",217.34352,77.54757,145.96918
"15415",217.35686,79.16136,147.50633
"15416",217.3702,80.46998,148.78874
"15417",217.38353,81.34402,149.67747
"15418",217.39687,81.72488,150.10034
"15419",217.4102,81.62478,150.05415
"15420",217.42354,81.09987,149.58002
"15421",217.43687,80.22827,148.7428
"15422",217.45021,79.10033,147.62198
"15423",217.46355,77.803925,146.29745
"15424",217.47688,76.41474,144.83965
"15425",217.49022,75.01579,143.32866
"15426",217.50356,73.6852,141.84232
"15427",217.51689,72.47913,140.4389
"15428",217.53023,71.44152,139.16626
"15429",217.54356,70.589455,138.04674
"15430",217.5569,69.93759,137.1008
"15431",217.57024,69.468834,136.3176
"15432",217.58357,69.15877,135.67844
"15433",217.59691,68.97566,135.15654
"15434",217.61024,68.89021,134.72658
"15435",217.62358,68.875565,134.36475
"15436",217.63692,68.97566,134.1172
"15437",217.65025,69.420006,134.21704
"15438",217.66359,70.660255,135.12666
"15439",217.67693,73.15297,137.32751
"15440",217.69026,77.09102,141.05159
"15441",217.7036,82.27421,146.14388
"15442",217.71693,88.114136,152.05487
"15443",217.73027,93.77341,157.96771
"15444",217.7436,98.43656,163.06128
"15445",217.75694,101.58846,166.78932
"15446",217.77028,103.10704,168.98254
"15447",217.78362,103.12657,169.72417
"15448",217.79695,101.89609,169.21638
"15449",217.81029,99.70611,167.71066
"15450",217.82362,96.852066,165.47244
"15451",217.83696,93.61715,162.76416
"15452",217.8503,90.247955,159.8205
"15453",217.86363,86.93492,156.82771
"15454",217.87697,83.80255,153.91206
"15455",217.8903,80.94118,151.16953
"15456",217.90364,78.4387,148.69646
"15457",217.91698,76.4123,146.62126
"15458",217.93031,74.99626,145.09311
"15459",217.94365,74.30045,144.24094
"15460",217.95699,74.356606,144.11897
"15461",217.97032,75.08171,144.66772
"15462",217.98366,76.28779,145.72011
"15463",217.997,77.72579,147.0421
"15464",218.01033,79.13451,148.37975
"15465",218.02367,80.30152,149.51971
"15466",218.037,81.0901,150.31772
"15467",218.05034,81.43435,150.69603
"15468",218.06367,81.3196,150.62611
"15469",218.07701,80.7776,150.12535
"15470",218.09035,79.88159,149.25365
"15471",218.10368,78.7219,148.09026
"15472",218.11702,77.39864,146.72705
"15473",218.13036,75.99481,145.24193
"15474",218.14369,74.59342,143.71538
"15475",218.15703,73.26528,142.21828
"15476",218.17036,72.06653,140.80907
"15477",218.1837,71.01915,139.51376
"15478",218.19704,70.14755,138.36151
"15479",218.21037,69.44198,137.34805
"15480",218.22371,68.88777,136.46391
"15481",218.23705,68.46784,135.69673
"15482",218.25038,68.17731,135.04582
"15483",218.26372,68.13092,134.62997
"15484",218.27705,68.65827,134.78642
"15485",218.29039,70.26475,136.03847
"15486",218.30373,73.323875,138.79337
"15487",218.31706,77.87961,143.14047
"15488",218.3304,83.543755,148.73836
"15489",218.34373,89.59365,154.899
"15490",218.35707,95.133286,160.73843
"15491",218.3704,99.41802,165.4961
"15492",218.38374,102.07187,168.75676
"15493",218.39708,103.09972,170.47435
"15494",218.41042,102.68711,170.78362
"15495",218.42375,101.11482,169.9203
"15496",218.43709,98.6807,168.14603
"15497",218.45042,95.69482,165.74391
"15498",218.46376,92.44038,162.97993
"15499",218.4771,89.15419,160.0825
"15500",218.49043,86.00473,157.21912
"15501",218.50377,83.089645,154.49168
"15502",218.5171,80.479744,151.97833
"15503",218.53044,78.25071,149.7643
"15504",218.54378,76.507515,147.96643
"15505",218.55711,75.3576,146.70737
"15506",218.57045,74.86687,146.07156
"15507",218.58379,75.03044,146.07472
"15508",218.59712,75.733574,146.62256
"15509",218.61046,76.790726,147.54639
"15510",218.6238,77.960175,148.61554
"15511",218.63713,79.027084,149.6187
"15512",218.65047,79.83032,150.39153
"15513",218.6638,80.26246,150.81836
"15514",218.67714,80.27711,150.84122
"15515",218.69048,79.87915,150.45192
"15516",218.70381,79.11986,149.68884
"15517",218.71715,78.07248,148.61395
"15518",218.73048,76.824905,147.30614
"15519",218.74382,75.4699,145.85191
"15520",218.75716,74.08804,144.32849
"15521",218.7705,72.75746,142.81316
"15522",218.78383,71.534294,141.36366
"15523",218.79716,70.46494,140.02975
"15524",218.8105,69.55428,138.82112
"15525",218.82384,68.807205,137.74762
"15526",218.83717,68.21149,136.80212
"15527",218.85051,67.7525,135.97475
"15528",218.86385,67.43267,135.27219
"15529",218.87718,67.405815,134.8526
"15530",218.89052,68.05768,135.1109
"15531",218.90385,69.88876,136.56879
"15532",218.91719,73.255516,139.61957
"15533",218.93053,78.1384,144.29169
"15534",218.94386,84.09796,150.19307
"15535",218.9572,90.3505,156.57367
"15536",218.97054,95.96826,162.51488
"15537",218.98387,100.21637,167.262
"15538",218.99721,102.748146,170.42554
"15539",219.01054,103.58312,171.97139
"15540",219.02388,102.93858,172.06383
"15541",219.03722,101.12459,170.96666
"15542",219.05055,98.48539,168.98761
"15543",219.06389,95.360344,166.44023
"15544",219.07722,92.06683,163.62674
"15545",219.09056,88.831924,160.76892
"15546",219.1039,85.80698,158.01997
"15547",219.11723,83.06279,155.45726
"15548",219.13057,80.63355,153.12373
"15549",219.1439,78.55833,151.06831
"15550",219.15724,76.912796,149.37773
"15551",219.17058,75.78729,148.15575
"15552",219.18391,75.23796,147.47476
"15553",219.19725,75.26238,147.35037
"15554",219.21059,75.755554,147.6955
"15555",219.22392,76.53925,148.34656
"15556",219.23726,77.41085,149.11
"15557",219.2506,78.184784,149.80302
"15558",219.26393,78.71946,150.28098
"15559",219.27727,78.93187,150.45337
"15560",219.2906,78.7805,150.26862
"15561",219.30394,78.26536,149.71536
"15562",219.31728,77.420616,148.8164
"15563",219.33061,76.32197,147.63715
"15564",219.34395,75.052414,146.25266
"15565",219.35728,73.69985,144.74548
"15566",219.37062,72.3473,143.19604
"15567",219.38396,71.063095,141.6727
"15568",219.3973,69.90097,140.2313
"15569",219.41063,68.90242,138.91714
"15570",219.42397,68.08209,137.75002
"15571",219.4373,67.43755,136.73305
"15572",219.45064,66.95659,135.85951
"15573",219.46397,66.61234,135.10767
"15574",219.47731,66.37797,134.45493
"15575",219.49065,66.30717,133.95844
"15576",219.50398,66.65873,133.8821
"15577",219.51732,67.91852,134.72498
"15578",219.53065,70.56504,136.99396
"15579",219.54399,74.79851,140.93259
"15580",219.55733,80.394295,146.36583
"15581",219.57066,86.72495,152.7088
"15582",219.584,92.8896,159.0836
"15583",219.59734,97.99954,164.59634
"15584",219.61067,101.48104,168.64032
"15585",219.62401,103.182724,171.01329
"15586",219.63734,103.236435,171.79146
"15587",219.65068,101.93271,171.21387
"15588",219.66402,99.62066,169.58722
"15589",219.67735,96.68604,167.26575
"15590",219.69069,93.48531,164.58646
"15591",219.70403,90.301674,161.82423
"15592",219.71736,87.33044,159.17493
"15593",219.7307,84.65949,156.73306
"15594",219.74403,82.30839,154.52757
"15595",219.75737,80.26002,152.55135
"15596",219.7707,78.536354,150.83582
"15597",219.78404,77.18379,149.43752
"15598",219.79738,76.27558,148.4413
"15599",219.81071,75.83612,147.88545
"15600",219.82405,75.84589,147.76509
"15601",219.83739,76.20477,147.99416
"15602",219.85072,76.74677,148.41756
"15603",219.86406,77.315636,148.88475
"15604",219.8774,77.77463,149.25986
"15605",219.89073,78.03586,149.45154
"15606",219.90407,78.028534,149.38283
"15607",219.9174,77.72335,149.01604
"15608",219.93074,77.12276,148.3443
"15609",219.94408,76.25849,147.39012
"15610",219.95741,75.17937,146.19408
"15611",219.97075,73.96597,144.83003
"15612",219.98409,72.69642,143.37192
"15613",219.99742,71.448845,141.8961
"15614",220.01076,70.294044,140.47408
"15615",220.0241,69.280846,139.15756
"15616",220.03743,68.44587,137.98761
"15617",220.05077,67.808655,136.98933
"15618",220.0641,67.369194,136.1689
"15619",220.07744,67.12016,135.52516
"15620",220.09077,67.0396,135.0421
"15621",220.10411,67.088425,134.68591
"15622",220.11745,67.2227,134.4167
"15623",220.13078,67.40093,134.19565
"15624",220.14412,67.59136,133.99236
"15625",220.15746,67.80133,133.81456
"15626",220.17079,68.22125,133.85327
"15627",220.18413,69.297935,134.56187
"15628",220.19746,71.58312,136.51262
"15629",220.2108,75.43084,140.0973
"15630",220.22414,80.78493,145.30861
"15631",220.23747,87.149765,151.69798
"15632",220.25081,93.680626,158.45227
"15633",220.26414,99.43023,164.6294
"15634",220.27748,103.65392,169.46028
"15635",220.29082,106.0441,172.58965
"15636",220.30415,106.66178,174.02121
"15637",220.31749,105.77066,173.96327
"15638",220.33083,103.727165,172.72511
"15639",220.34416,100.93904,170.67847
"15640",220.3575,97.80423,168.198
"15641",220.37083,94.66209,165.61224
"15642",220.38417,91.74456,163.15291
"15643",220.3975,89.15663,160.93199
"15644",220.41084,86.905624,158.96713
"15645",220.42418,84.9427,157.22002
"15646",220.43752,83.21904,155.65082
"15647",220.45085,81.74441,154.27678
"15648",220.46419,80.56519,153.15208
"15649",220.47752,79.7522,152.35675
"15650",220.49086,79.33959,151.9364
"15651",220.5042,79.293205,151.86937
"15652",220.51753,79.51049,152.06456
"15653",220.53087,79.85474,152.39351
"15654",220.5442,80.17944,152.71368
"15655",220.55754,80.377205,152.91705
"15656",220.57088,80.35523,152.90688
"15657",220.58421,80.05737,152.62012
"15658",220.59755,79.4519,152.01643
"15659",220.61089,78.55833,151.10573
"15660",220.62422,77.418175,149.92052
"15661",220.63756,76.10956,148.53122
"15662",220.6509,74.71305,147.01314
"15663",220.66423,73.3312,145.46606
"15664",220.67757,72.03479,143.96126
"15665",220.6909,70.889755,142.5673
"15666",220.70424,69.93027,141.32312
"15667",220.71758,69.173416,140.25159
"15668",220.73091,68.61921,139.35905
"15669",220.74425,68.262764,138.64696
"15670",220.75758,68.07965,138.09706
"15671",220.77092,68.04547,137.69037
"15672",220.78426,68.12848,137.3998
"15673",220.79759,68.299385,137.19972
"15674",220.81093,68.52888,137.06357
"15675",220.82426,68.787674,136.9639
"15676",220.8376,69.068436,136.89427
"15677",220.85094,69.34188,136.82611
"15678",220.86427,69.58602,136.73718
"15679",220.87761,69.78378,136.60951
"15680",220.89095,69.90097,136.40744
"15681",220.90428,69.91806,136.10893
"15682",220.91762,69.84726,135.72307
"15683",220.93095,69.85458,135.41312
"15684",220.94429,70.36729,135.60878
"15685",220.95763,72.00061,136.94109
"15686",220.97096,75.22331,139.9138
"15687",220.9843,80.12085,144.66206
"15688",220.99763,86.30991,150.8549
"15689",221.01097,93.00679,157.74896
"15690",221.0243,99.2227,164.37134
"15691",221.03764,104.10559,169.85493
"15692",221.05098,107.208664,173.7113
"15693",221.06432,108.50019,175.8531
"15694",221.07765,108.175476,176.41902
"15695",221.09099,106.56901,175.69304
"15696",221.10432,104.09094,174.04526
"15697",221.11766,101.15633,171.86348
"15698",221.131,98.12894,169.49722
"15699",221.14433,95.28466,167.21948
"15700",221.15767,92.76265,165.17511
"15701",221.171,90.57267,163.38396
"15702",221.18434,88.636604,161.77829
"15703",221.19768,86.84215,160.25372
"15704",221.21101,85.13069,158.75609
"15705",221.22435,83.51202,157.29774
"15706",221.23769,82.04715,155.94263
"15707",221.25102,80.82155,154.781
"15708",221.26436,79.888916,153.87405
"15709",221.2777,79.24925,153.23093
"15710",221.29103,78.839096,152.7973
"15711",221.30437,78.57542,152.49734
"15712",221.3177,78.36057,152.23798
"15713",221.33104,78.11154,151.93771
"15714",221.34438,77.747765,151.51492
"15715",221.35771,77.21309,150.90987
"15716",221.37105,76.48066,150.09035
"15717",221.38438,75.55535,149.05505
"15718",221.39772,74.46891,147.82971
"15719",221.41106,73.272606,146.46056
"15720",221.4244,72.02258,145.0003
"15721",221.43773,70.784775,143.5132
"15722",221.45107,69.6202,142.06065
"15723",221.4644,68.577705,140.69379
"15724",221.47774,67.684135,139.44327
"15725",221.49107,66.966354,138.34062
"15726",221.50441,66.43412,137.4011
"15727",221.51775,66.08499,136.62804
"15728",221.53108,65.899445,136.00764
"15729",221.54442,65.86282,135.53038
"15730",221.55775,65.94095,135.16672
"15731",221.57109,66.11185,134.89827
"15732",221.58443,66.34135,134.69377
"15733",221.59776,66.60502,134.53061
"15734",221.6111,66.880905,134.38791
"15735",221.62444,67.156784,134.25381
"15736",221.63777,67.42535,134.12103
"15737",221.65111,67.67925,133.98198
"15738",221.66444,67.913635,133.83134
"15739",221.67778,68.12848,133.66849
"15740",221.69112,68.3238,133.49283
"15741",221.70445,68.49714,133.30128
"15742",221.71779,68.648506,133.09319
"15743",221.73112,68.76326,132.85321
"15744",221.74446,68.8365,132.5753
"15745",221.7578,68.85115,132.24109
"15746",221.77113,68.807205,131.84874
"15747",221.78447,68.77791,131.46967
"15748",221.7978,69.048904,131.38997
"15749",221.81114,70.19394,132.19278
"15750",221.82448,72.82094,134.51334
"15751",221.83781,77.24971,138.71776
"15752",221.85115,83.319145,144.70125
"15753",221.86449,90.41398,151.89981
"15754",221.87782,97.564964,159.37624
"15755",221.89116,103.75647,166.11664
"15756",221.9045,108.265816,171.36838
"15757",221.91783,110.85863,174.8445
"15758",221.93117,111.61547,176.56567
"15759",221.9445,110.802475,176.74066
"15760",221.95784,108.77852,175.67929
"15761",221.97118,105.953766,173.75386
"15762",221.98451,102.745705,171.35686
"15763",221.99785,99.510796,168.83275
"15764",222.01118,96.49561,166.42728
"15765",222.02452,93.832,164.27914
"15766",222.03786,91.51995,162.39934
"15767",222.0512,89.48623,160.72562
"15768",222.06453,87.640495,159.17633
"15769",222.07787,85.94858,157.72318
"15770",222.0912,84.43244,156.39293
"15771",222.10454,83.15312,155.25212
"15772",222.11787,82.17166,154.3692
"15773",222.13121,81.50027,153.76567
"15774",222.14455,81.094986,153.40727
"15775",222.15788,80.85817,153.20468
"15776",222.17122,80.68482,153.05815
"15777",222.18456,80.47242,152.86716
"15778",222.19789,80.14526,152.55476
"15779",222.21123,79.639885,152.05392
"15780",222.22456,78.92699,151.32977
"15781",222.2379,77.99924,150.36848
"15782",222.25124,76.8835,149.19022
"15783",222.26457,75.62615,147.83548
"15784",222.27791,74.285805,146.35844
"15785",222.29124,72.92836,144.82243
"15786",222.30458,71.61974,143.29283
"15787",222.31792,70.40635,141.81755
"15788",222.33125,69.33456,140.44595
"15789",222.34459,68.43366,139.21176
"15790",222.35793,67.72076,138.1374
"15791",222.37126,67.19829,137.23122
"15792",222.3846,66.85405,136.48692
"15793",222.39793,66.67826,135.90033
"15794",222.41127,66.6392,135.44496
"15795",222.4246,66.71732,135.10556
"15796",222.43794,66.88823,134.86139
"15797",222.45128,67.12993,134.69334
"15798",222.46461,67.41314,134.57437
"15799",222.47795,67.71099,134.47888
"15800",222.49129,68.00641,134.39027
"15801",222.50462,68.282295,134.29137
"15802",222.51796,68.52155,134.16444
"15803",222.5313,68.71931,134.0035
"15804",222.54463,68.88045,133.81212
"15805",222.55797,69.0074,133.59158
"15806",222.5713,69.11482,133.35548
"15807",222.58464,69.20271,133.10321
"15808",222.59798,69.278404,132.84149
"15809",222.61131,69.332115,132.56015
"15810",222.62465,69.37118,132.26584
"15811",222.63799,69.400475,131.96298
"15812",222.65132,69.420006,131.65128
"15813",222.66466,69.42489,131.32553
"15814",222.678,69.417564,130.98773
"15815",222.69133,69.383385,130.62285
"15816",222.70467,69.31747,130.22516
"15817",222.718,69.26864,129.8425
"15818",222.73134,69.49813,129.73663
"15819",222.74467,70.56016,130.47047
"15820",222.75801,73.0724,132.68773
"15821",222.77135,77.383995,136.78284
"15822",222.78468,83.34356,142.66064
"15823",222.79802,90.33097,149.75255
"15824",222.81136,97.376976,157.1214
"15825",222.82469,103.45617,163.74362
"15826",222.83803,107.860535,168.881
"15827",222.85136,110.3679,172.259
"15828",222.8647,111.08324,173.92334
"15829",222.87804,110.25315,174.0646
"15830",222.89137,108.18768,172.94455
"15831",222.90471,105.233536,170.87126
"15832",222.91805,101.752045,168.17831
"15833",222.93138,98.08011,165.18613
"15834",222.94472,94.49607,162.16708
"15835",222.95805,91.175705,159.29971
"15836",222.97139,88.21179,156.68504
"15837",222.98473,85.64095,154.37082
"15838",222.99806,83.49981,152.40596
"15839",223.0114,81.83719,150.8527
"15840",223.02473,80.706795,149.77972
"15841",223.03807,80.130615,149.22563
"15842",223.0514,80.07446,149.17355
"15843",223.06474,80.4358,149.53722
"15844",223.07808,81.03883,150.15387
"15845",223.09142,81.70046,150.84796
"15846",223.10475,82.247345,151.44798
"15847",223.11809,82.55985,151.83072
"15848",223.13142,82.55009,151.90096
"15849",223.14476,82.178986,151.60954
"15850",223.1581,81.45632,150.95497
"15851",223.17143,80.42603,149.9702
"15852",223.18477,79.151596,148.70908
"15853",223.1981,77.71114,147.24211
"15854",223.21144,76.192566,145.65201
"15855",223.22478,74.67643,144.01689
"15856",223.23811,73.231094,142.4052
"15857",223.25145,71.91272,140.87529
"15858",223.26479,70.7628,139.47264
"15859",223.27812,69.8082,138.22937
"15860",223.29146,69.048904,137.15158
"15861",223.3048,68.4947,136.25516
"15862",223.31813,68.13336,135.53429
"15863",223.33147,67.94537,134.97546
"15864",223.3448,67.90631,134.5597
"15865",223.35814,67.981995,134.25745
"15866",223.37148,68.15045,134.05034
"15867",223.38481,68.384834,133.91443
"15868",223.39815,68.663155,133.82977
"15869",223.41148,68.9659,133.77824
"15870",223.42482,69.280846,133.74838
"15871",223.43816,69.590904,133.72346
"15872",223.45149,69.88632,133.6936
"15873",223.46483,70.15976,133.65099
"15874",223.47816,70.40391,133.58763
"15875",223.4915,70.61387,133.49771
"15876",223.50484,70.7921,133.38263
"15877",223.51817,70.93858,133.24136
"15878",223.53151,71.05089,133.0705
"15879",223.54485,71.11925,132.85919
"15880",223.55818,71.14122,132.60364
"15881",223.57152,71.10948,132.29506
"15882",223.58485,71.02403,131.93178
"15883",223.59819,70.88487,131.51212
"15884",223.61153,70.694435,131.03683
"15885",223.62486,70.51133,130.56293
"15886",223.6382,70.58213,130.3372
"15887",223.65154,71.43664,130.8974
"15888",223.66487,73.65591,132.84906
"15889",223.6782,77.55245,136.54735
"15890",223.69154,82.950485,141.8689
"15891",223.70488,89.23964,148.25026
"15892",223.71822,95.499504,154.79886
"15893",223.73155,100.78035,160.56406
"15894",223.74489,104.47669,164.90979
"15895",223.75822,106.43717,167.63516
"15896",223.77156,106.80827,168.83243
"15897",223.7849,105.83414,168.69604
"15898",223.79823,103.78088,167.4501
"15899",223.81157,100.92195,165.33432
"15900",223.8249,97.53567,162.60185
"15901",223.83824,93.88571,159.49988
"15902",223.85158,90.196686,156.24478
"15903",223.86491,86.624855,152.9916
"15904",223.87825,83.29229,149.86606
"15905",223.89159,80.30152,146.97818
"15906",223.90492,77.7966,144.48268
"15907",223.91826,75.948425,142.56564
"15908",223.9316,74.92058,141.41118
"15909",223.94493,74.78874,141.1206
"15910",223.95827,75.50408,141.6731
"15911",223.9716,76.87129,142.89981
"15912",223.98494,78.59495,144.5257
"15913",223.99828,80.35279,146.23962
"15914",224.01161,81.87137,147.76923
"15915",224.02495,82.9749,148.93124
"15916",224.03828,83.57305,149.62236
"15917",224.05162,83.64385,149.80482
"15918",224.06496,83.22148,149.49632
"15919",224.0783,82.374306,148.74982
"15920",224.09163,81.197525,147.64723
"15921",224.10497,79.78882,146.27596
"15922",224.1183,78.24094,144.72147
"15923",224.13164,76.64912,143.07468
"15924",224.14497,75.08659,141.40744
"15925",224.15831,73.62661,139.79391
"15926",224.17165,72.31556,138.28369
"15927",224.18498,71.19249,136.92049
"15928",224.19832,70.27207,135.72484
"15929",224.21165,69.56893,134.7177
"15930",224.22499,69.07332,133.89612
"15931",224.23833,68.77547,133.2568
"15932",224.25166,68.65339,132.78397
"15933",224.265,68.68757,132.46356
"15934",224.27834,68.85603,132.27852
"15935",224.29167,69.12947,132.2037
"15936",224.30501,69.4786,132.21313
"15937",224.31834,69.879,132.28474
"15938",224.33168,70.30869,132.39816
"15939",224.34502,70.745705,132.53232
"15940",224.35835,71.1754,132.67282
"15941",224.37169,71.59045,132.8121
"15942",224.38503,71.9762,132.93506
"15943",224.39836,72.32288,133.031
"15944",224.4117,72.61341,133.08162
"15945",224.42503,72.83803,133.07541
"15946",224.43837,72.972305,132.98587
"15947",224.4517,73.00893,132.80287
"15948",224.46504,72.938126,132.5136
"15949",224.47838,72.78676,132.14154
"15950",224.49171,72.72816,131.85753
"15951",224.50505,73.20668,132.10881
"15952",224.51839,74.813156,133.50299
"15953",224.53172,77.95285,136.48059
"15954",224.54506,82.59159,141.05536
"15955",224.5584,88.24353,146.78828
"15956",224.57173,94.083466,152.88583
"15957",224.58507,99.18608,158.42856
"15958",224.5984,102.86534,162.70738
"15959",224.61174,104.89418,165.45076
"15960",224.62508,105.39956,166.73409
"15961",224.63841,104.63294,166.7612
"15962",224.65175,102.84093,165.73897
"15963",224.66508,100.24567,163.85748
"15964",224.67842,97.06935,161.31384
"15965",224.69176,93.51705,158.29495
"15966",224.7051,89.779205,154.9795
"15967",224.71843,86.01694,151.52284
"15968",224.73177,82.36454,148.05847
"15969",224.7451,78.93675,144.70457
"15970",224.75844,75.87274,141.60733
"15971",224.77177,73.3605,138.96611
"15972",224.78511,71.65148,137.0496
"15973",224.79845,70.97276,136.11
"15974",224.81178,71.4464,136.30154
"15975",224.82512,72.97963,137.56747
"15976",224.83846,75.28924,139.6577
"15977",224.85179,77.93576,142.15701
"15978",224.86513,80.47242,144.62917
"15979",224.87846,82.55741,146.72893
"15980",224.8918,84.00519,148.25662
"15981",224.90514,84.77669,149.15329
"15982",224.91847,84.92561,149.45149
"15983",224.93181,84.54475,149.22455
"15984",224.94514,83.7293,148.55113
"15985",224.95848,82.5745,147.51288
"15986",224.97182,81.17311,146.19194
"15987",224.98515,79.61791,144.6734
"15988",224.99849,77.996796,143.04034
"15989",225.01183,76.385445,141.3664
"15990",225.02516,74.85466,139.72266
"15991",225.0385,73.45571,138.16292
"15992",225.05183,72.22522,136.72792
"15993",225.06517,71.19005,135.44978
"15994",225.0785,70.35508,134.33951
"15995",225.09184,69.7203,133.40332
"15996",225.10518,69.28817,132.64995
"15997",225.11852,69.04402,132.07106
"15998",225.13185,68.97566,131.66032
"15999",225.14519,69.065994,131.40614
"16000",225.15852,69.29305,131.29152
"16001",225.17186,69.625084,131.28896
"16002",225.1852,70.04257,131.38223
"16003",225.19853,70.518654,131.54715
"16004",225.21187,71.03868,131.77089
"16005",225.2252,71.570915,132.02309
"16006",225.23854,72.08606,132.27483
"16007",225.25188,72.549934,132.4914
"16008",225.26521,72.92592,132.63457
"16009",225.27855,73.19447,132.68205
"16010",225.29189,73.38247,132.65738
"16011",225.30522,73.69985,132.76796
"16012",225.31856,74.62028,133.4915
"16013",225.3319,76.715034,135.41814
"16014",225.34523,80.31373,138.91417
"16015",225.35857,85.28207,143.8923
"16016",225.3719,91.03899,149.81429
"16017",225.38524,96.72022,155.84048
"16018",225.39857,101.42733,161.0701
"16019",225.41191,104.58167,164.89404
"16020",225.42525,106.08072,167.16127
"16021",225.43858,106.141754,168.03732
"16022",225.45192,105.043106,167.7556
"16023",225.46526,103.01671,166.5118
"16024",225.47859,100.26765,164.48201
"16025",225.49193,96.9839,161.83163
"16026",225.50526,93.34371,158.7222
"16027",225.5186,89.51797,155.31345
"16028",225.53194,85.660484,151.7534
"16029",225.54527,81.89334,148.16315
"16030",225.55861,78.31907,144.64804
"16031",225.57195,75.0695,141.34595
"16032",225.58528,72.32044,138.44281
"16033",225.59862,70.311134,136.19351
"16034",225.61195,69.312584,134.89218
"16035",225.62529,69.5201,134.76572
"16036",225.63863,70.95323,135.87135
"16037",225.65196,73.38979,138.0252
"16038",225.6653,76.40986,140.8387
"16039",225.67863,79.50317,143.81981
"16040",225.69197,82.213165,146.51428
"16041",225.7053,84.242004,148.61229
"16042",225.71864,85.470055,149.9729
"16043",225.73198,85.94858,150.62236
"16044",225.74532,85.79721,150.65689
"16045",225.75865,85.14778,150.18863
"16046",225.77199,84.11505,149.31677
"16047",225.78532,82.80644,148.13676
"16048",225.79866,81.30984,146.72786
"16049",225.812,79.7058,145.16476
"16050",225.82533,78.05783,143.5076
"16051",225.83867,76.4416,141.83067
"16052",225.852,74.92302,140.2009
"16053",225.86534,73.548485,138.66771
"16054",225.87868,72.342415,137.26003
"16055",225.89201,71.32189,136.0002
"16056",225.90535,70.48203,134.88914
"16057",225.91869,69.8082,133.91788
"16058",225.93202,69.28817,133.07936
"16059",225.94536,68.91463,132.37108
"16060",225.9587,68.68757,131.7976
"16061",225.97203,68.59724,131.35376
"16062",225.98537,68.64118,131.04137
"16063",225.9987,68.807205,130.85243
"16064",226.01204,69.07576,130.77121
"16065",226.02538,69.42733,130.7814
"16066",226.03871,69.82529,130.84897
"16067",226.05205,70.237885,130.9436
"16068",226.06538,70.69199,131.09265
"16069",226.07872,71.414665,131.52444
"16070",226.09206,72.89174,132.73323
"16071",226.1054,75.68719,135.30655
"16072",226.11873,80.03296,139.51755
"16073",226.13206,85.6556,145.14122
"16074",226.1454,91.85443,151.51678
"16075",226.15874,97.68459,157.71739
"16076",226.17207,102.26231,162.84775
"16077",226.18541,105.10414,166.38528
"16078",226.19875,106.22476,168.2904
"16079",226.21208,105.93179,168.81696
"16080",226.22542,104.52552,168.22105
"16081",226.23875,102.24521,166.70717
"16082",226.25209,99.283745,164.44087
"16083",226.26543,95.82178,161.58153
"16084",226.27876,92.03021,158.2844
"16085",226.2921,88.07263,154.70276
"16086",226.30544,84.09308,150.97548
"16087",226.31877,80.216064,147.22638
"16088",226.3321,76.55146,143.56853
"16089",226.34544,73.24086,140.15016
"16090",226.35878,70.47715,137.17523
"16091",226.37212,68.49958,134.90007
"16092",226.38545,67.56939,133.61049
"16093",226.39879,67.8819,133.53455
"16094",226.41212,69.46639,134.74036
"16095",226.42546,72.112915,137.05771
"16096",226.4388,75.403984,140.10231
"16097",226.45213,78.81468,143.36938
"16098",226.46547,81.849396,146.36705
"16099",226.4788,84.16388,148.73933
"16100",226.49214,85.62386,150.32944
"16101",226.50548,86.261086,151.14241
"16102",226.51881,86.21225,151.28923
"16103",226.53215,85.63607,150.90718
"16104",226.54549,84.66926,150.1165
"16105",226.55882,83.41436,149.00752
"16106",226.57216,81.9617,147.66156
"16107",226.5855,80.38941,146.15057
"16108",226.59883,78.77074,144.54407
"16109",226.61217,77.16426,142.89917
"16110",226.6255,75.631035,141.27733
"16111",226.63884,74.215,139.72476
"16112",226.65218,72.95766,138.28664
"16113",226.66551,71.888306,136.99721
"16114",226.67885,71.02403,135.87944
"16115",226.69218,70.35752,134.93243
"16116",226.70552,69.874115,134.1477
"16117",226.71886,69.54696,133.50412
"16118",226.7322,69.33944,132.96994
"16119",226.74553,69.23445,132.53181
"16120",226.75887,69.261314,132.22226
"16121",226.7722,69.625084,132.25044
"16122",226.78554,70.801865,133.10301
"16123",226.79887,73.340965,135.35468
"16124",226.81221,77.506065,139.31168
"16125",226.82555,83.05058,144.77826
"16126",226.83888,89.28359,151.1066
"16127",226.85222,95.26269,157.37581
"16128",226.86555,100.07721,162.6673
"16129",226.87889,103.182724,166.40022
"16130",226.89223,104.5597,168.50166
"16131",226.90556,104.50111,169.21056
"16132",226.9189,103.31945,168.79456
"16133",226.93224,101.25887,167.4627
"16134",226.94557,98.51713,165.3853
"16135",226.95891,95.26513,162.71196
"16136",226.97224,91.67132,159.59518
"16137",226.98558,87.887085,156.17567
"16138",226.99892,84.05646,152.59152
"16139",227.01225,80.28443,148.94626
"16140",227.02559,76.70527,145.37599
"16141",227.03893,73.48257,142.05032
"16142",227.05226,70.83116,139.19525
"16143",227.0656,69.00008,137.07764
"16144",227.07893,68.23834,135.97215
"16145",227.09227,68.68513,136.05139
"16146",227.1056,70.30137,137.31404
"16147",227.11894,72.82338,139.53297
"16148",227.13228,75.82391,142.30923
"16149",227.14561,78.83177,145.18658
"16150",227.15895,81.42458,147.74289
"16151",227.17229,83.34112,149.70395
"16152",227.18562,84.5008,150.96805
"16153",227.19896,84.947586,151.55548
"16154",227.2123,84.79866,151.56117
"16155",227.22563,84.18097,151.09344
