"","Time..s.","PPG.trace","Preprocessed.PPG"
"58798",795.77625,97.17189,226.93912
"58799",795.78955,93.39498,223.69882
"58800",795.80286,89.61074,220.33318
"58801",795.81616,85.97543,216.9982
"58802",795.82947,82.58915,213.79865
"58803",795.8428,79.53979,210.8302
"58804",795.8561,76.944534,208.22057
"58805",795.8694,74.95476,206.1353
"58806",795.8827,73.71206,204.73494
"58807",795.896,73.287254,204.11363
"58808",795.9093,73.65835,204.27495
"58809",795.9226,74.67887,205.09729
"58810",795.9359,76.112,206.36414
"58811",795.9492,77.69161,207.82225
"58812",795.9625,79.17113,209.22963
"58813",795.9758,80.35523,210.38783
"58814",795.98914,81.11452,211.15822
"58815",796.00244,81.38308,211.46161
"58816",796.01575,81.17311,211.29486
"58817",796.02905,80.52857,210.68698
"58818",796.04236,79.52758,209.70251
"58819",796.05566,78.2678,208.42796
"58820",796.069,76.85176,206.9578
"58821",796.0823,75.372246,205.3799
"58822",796.0956,73.917145,203.78018
"58823",796.1089,72.55482,202.22777
"58824",796.1222,71.34142,200.78171
"58825",796.1355,70.311134,199.48083
"58826",796.1488,69.468834,198.33575
"58827",796.1621,68.81697,197.3548
"58828",796.1754,68.35554,196.5439
"58829",796.1887,68.067444,195.89192
"58830",796.202,67.93805,195.38963
"58831",796.21533,67.96246,195.03711
"58832",796.22864,68.11383,194.8123
"58833",796.24194,68.36286,194.6899
"58834",796.25525,68.680244,194.64362
"58835",796.26855,69.07332,194.68295
"58836",796.28186,69.67391,194.9421
"58837",796.29517,70.82872,195.77422
"58838",796.3085,73.023575,197.68246
"58839",796.3218,76.66865,201.10953
"58840",796.3351,81.83475,206.17152
"58841",796.3484,88.18494,212.57906
"58842",796.3617,94.991684,219.64159
"58843",796.375,101.349205,226.46759
"58844",796.3883,106.42252,232.20807
"58845",796.4016,109.70626,236.3175
"58846",796.4149,111.061264,238.60083
"58847",796.4282,110.624245,239.13448
"58848",796.4415,108.67109,238.13834
"58849",796.45483,105.585106,235.94832
"58850",796.46814,101.788666,232.95142
"58851",796.48145,97.687035,229.53069
"58852",796.49475,93.61227,226.00864
"58853",796.50806,89.79385,222.6156
"58854",796.52136,86.34409,219.4719
"58855",796.53467,83.302055,216.62811
"58856",796.548,80.68482,214.11407
"58857",796.5613,78.536354,211.98701
"58858",796.5746,76.93477,210.33969
"58859",796.5879,75.95087,209.26
"58860",796.6012,75.60906,208.79166
"58861",796.6145,75.85321,208.89859
"58862",796.6278,76.54658,209.46237
"58863",796.6411,77.486534,210.2944
"58864",796.6544,78.467995,211.19731
"58865",796.6677,79.31274,211.99417
"58866",796.681,79.886475,212.54643
"58867",796.69434,80.096436,212.75284
"58868",796.70764,79.90845,212.56787
"58869",796.72095,79.33471,211.99127
"58870",796.73425,78.41917,211.05493
"58871",796.74756,77.242386,209.82875
"58872",796.76086,75.894714,208.3949
"58873",796.7742,74.46403,206.83592
"58874",796.7875,73.023575,205.22247
"58875",796.8008,71.64904,203.62993
"58876",796.8141,70.39658,202.1165
"58877",796.8274,69.30282,200.72263
"58878",796.8407,68.39216,199.47768
"58879",796.854,67.67681,198.39958
"58880",796.8673,67.156784,197.49446
"58881",796.8806,66.81987,196.7562
"58882",796.8939,66.64652,196.17097
"58883",796.9072,66.62455,195.7317
"58884",796.92053,66.722206,195.41138
"58885",796.93384,66.91753,195.19177
"58886",796.94714,67.18608,195.0515
"58887",796.96045,67.50103,194.96602
"58888",796.97375,67.842834,194.91724
"58889",796.98706,68.19684,194.89133
"58890",797.00037,68.55573,194.88138
"58891",797.0137,68.90486,194.87288
"58892",797.027,69.23201,194.8533
"58893",797.0403,69.52987,194.81467
"58894",797.0536,69.79111,194.74872
"58895",797.0669,70.01572,194.6543
"58896",797.0802,70.21591,194.54248
"58897",797.0935,70.39414,194.41496
"58898",797.1068,70.55283,194.27347
"58899",797.1201,70.677345,194.10275
"58900",797.1334,70.745705,193.87978
"58901",797.1467,70.728615,193.57349
"58902",797.16003,70.640724,193.19586
"58903",797.17334,70.61631,192.87897
"58904",797.18665,71.05577,193.02519
"58905",797.19995,72.56214,194.25206
"58906",797.21326,75.67254,197.13002
"58907",797.22656,80.56275,201.885
"58908",797.23987,86.939804,208.27963
"58909",797.2532,94.07126,215.62796
"58910",797.2665,100.95369,222.95012
"58911",797.2798,106.63004,229.28128
"58912",797.2931,110.50706,233.99048
"58913",797.3064,112.396736,236.8335
"58914",797.3197,112.40894,237.8581
"58915",797.333,110.82933,237.29126
"58916",797.3463,108.0412,235.46655
"58917",797.3596,104.4889,232.79054
"58918",797.3729,100.59724,229.66415
"58919",797.3862,96.71778,226.42836
"58920",797.39954,93.09224,223.32526
"58921",797.41284,89.84268,220.48483
"58922",797.42615,86.9984,217.94814
"58923",797.43945,84.55207,215.7205
"58924",797.45276,82.513466,213.82416
"58925",797.46606,80.92409,212.31332
"58926",797.4794,79.83765,211.25577
"58927",797.4927,79.26879,210.68184
"58928",797.506,79.17601,210.56621
"58929",797.5193,79.43725,210.8017
"58930",797.5326,79.869385,211.21625
"58931",797.5459,80.29664,211.63942
"58932",797.5592,80.584724,211.93678
"58933",797.5725,80.62867,211.99901
"58934",797.5858,80.377205,211.7672
"58935",797.5991,79.818115,211.2199
"58936",797.6124,78.97826,210.37436
"58937",797.62573,77.891815,209.25598
"58938",797.63904,76.61982,207.9181
"58939",797.65234,75.228195,206.42085
"58940",797.66565,73.79019,204.83372
"58941",797.67896,72.36927,203.21875
"58942",797.69226,71.03136,201.64238
"58943",797.70557,69.820404,200.15115
"58944",797.7189,68.76814,198.78078
"58945",797.7322,67.88678,197.54842
"58946",797.7455,67.17876,196.46185
"58947",797.7588,66.64408,195.52652
"58948",797.7721,66.27299,194.73805
"58949",797.7854,66.055695,194.0918
"58950",797.7987,65.97513,193.57547
"58951",797.812,66.021515,193.18358
"58952",797.8253,66.17044,192.89568
"58953",797.8386,66.39994,192.69301
"58954",797.8519,66.68803,192.55609
"58955",797.86523,67.01518,192.46725
"58956",797.87854,67.36187,192.40817
"58957",797.89185,67.70855,192.35991
"58958",797.90515,68.033264,192.30052
"58959",797.91846,68.32868,192.22198
"58960",797.93176,68.58991,192.11848
"58961",797.94507,68.81941,191.99142
"58962",797.9584,69.017166,191.83978
"58963",797.9717,69.188065,191.66747
"58964",797.985,69.32479,191.46632
"58965",797.9983,69.43221,191.24014
"58966",798.0116,69.51278,190.99046
"58967",798.0249,69.573814,190.72377
"58968",798.0382,69.625084,190.44922
"58969",798.0515,69.67391,190.17383
"58970",798.0648,69.70809,189.88531
"58971",798.0781,69.71053,189.56613
"58972",798.09143,69.67147,189.20552
"58973",798.10474,69.58602,188.7973
"58974",798.11804,69.488365,188.3742
"58975",798.13135,69.5494,188.10675
"58976",798.14465,70.15976,188.39053
"58977",798.15796,71.8053,189.72856
"58978",798.17126,74.827805,192.49498
"58979",798.1846,79.24925,196.75479
"58980",798.1979,84.715645,202.19772
"58981",798.2112,90.55558,208.18503
"58982",798.2245,95.96338,213.92268
"58983",798.2378,100.26765,218.7258
"58984",798.2511,103.1046,222.19612
"58985",798.2644,104.4181,224.23164
"58986",798.2777,104.31556,224.89217
"58987",798.291,103.0338,224.37027
"58988",798.3043,100.8658,222.92207
"58989",798.3176,98.13382,220.84215
"58990",798.33093,95.14305,218.41806
"58991",798.34424,92.13519,215.88342
"58992",798.35754,89.27383,213.40128
"58993",798.37085,86.63218,211.04944
"58994",798.38416,84.2591,208.88362
"58995",798.39746,82.20096,206.95857
"58996",798.41077,80.53101,205.3574
"58997",798.4241,79.33227,204.17526
"58998",798.4374,78.67063,203.49275
"58999",798.4507,78.55833,203.3389
"59000",798.464,78.924545,203.66006
"59001",798.4773,79.61547,204.31738
"59002",798.4906,80.462654,205.15254
"59003",798.5039,81.290306,205.99466
"59004",798.5172,81.95438,206.69905
"59005",798.5305,82.34745,207.1532
"59006",798.5438,82.41093,207.29004
"59007",798.5571,82.127716,207.08217
"59008",798.57043,81.5198,206.54074
"59009",798.58374,80.64088,205.70932
"59010",798.59705,79.569084,204.65756
"59011",798.61035,78.382545,203.45755
"59012",798.62366,77.15694,202.1814
"59013",798.63696,75.965515,200.90112
"59014",798.65027,74.8571,199.66663
"59015",798.6636,73.87076,198.51956
"59016",798.6769,73.02846,197.48572
"59017",798.6902,72.33509,196.5745
"59018",798.7035,71.79065,195.79053
"59019",798.7168,71.38293,195.12627
"59020",798.7301,71.1046,194.57866
"59021",798.7434,70.941025,194.1371
"59022",798.7567,70.872665,193.78564
"59023",798.77,70.887314,193.51506
"59024",798.7833,70.97276,193.31573
"59025",798.79663,71.10216,193.16302
"59026",798.80994,71.26574,193.04855
"59027",798.82324,71.45129,192.96115
"59028",798.83655,71.65392,192.89664
"59029",798.84985,71.868774,192.85068
"59030",798.86316,72.08362,192.81142
"59031",798.87646,72.28382,192.76424
"59032",798.8898,72.45472,192.694
"59033",798.9031,72.567024,192.57051
"59034",798.9164,72.603645,192.37485
"59035",798.9297,72.56458,192.10464
"59036",798.943,72.45472,191.76242
"59037",798.9563,72.32288,191.39479
"59038",798.9696,72.325325,191.15732
"59039",798.9829,72.7599,191.35207
"59040",798.9962,73.99283,192.35873
"59041",799.0095,76.280464,194.45865
"59042",799.0228,79.635,197.69695
"59043",799.03613,83.79523,201.84576
"59044",799.04944,88.25819,206.42732
"59045",799.06274,92.43061,210.85782
"59046",799.07605,95.799805,214.61546
"59047",799.08936,98.08255,217.39195
"59048",799.10266,99.19829,219.07277
"59049",799.11597,99.210495,219.68492
"59050",799.1293,98.29252,219.36728
"59051",799.1426,96.68116,218.32756
"59052",799.1559,94.63523,216.80292
"59053",799.1692,92.403755,215.0288
"59054",799.1825,90.18692,213.19957
"59055",799.1958,88.10681,211.4378
"59056",799.2091,86.20981,209.79414
"59057",799.2224,84.508125,208.28651
"59058",799.2357,83.00664,206.9259
"59059",799.249,81.73708,205.7503
"59060",799.2623,80.75563,204.82314
"59061",799.27563,80.10864,204.19977
"59062",799.28894,79.82544,203.91995
"59063",799.30225,79.87427,203.96332
"59064",799.31555,80.16724,204.25235
"59065",799.32886,80.57984,204.67018
"59066",799.34216,80.99733,205.10579
"59067",799.35547,81.31716,205.45679
"59068",799.3688,81.45876,205.63956
"59069",799.3821,81.3782,205.60458
"59070",799.3954,81.06081,205.33026
"59071",799.4087,80.516365,204.81897
"59072",799.422,79.77905,204.0978
"59073",799.4353,78.907455,203.2193
"59074",799.4486,77.95041,202.2281
"59075",799.4619,76.96651,201.18015
"59076",799.4752,76.0119,200.13074
"59077",799.4885,75.125656,199.11986
"59078",799.50183,74.32975,198.17163
"59079",799.51514,73.653465,197.31815
"59080",799.52844,73.09926,196.56561
"59081",799.54175,72.66712,195.91783
"59082",799.55505,72.34486,195.36641
"59083",799.56836,72.130005,194.91234
"59084",799.58167,72.010376,194.54677
"59085",799.595,71.973755,194.26047
"59086",799.6083,72.01282,194.0487
"59087",799.6216,72.11536,193.90164
"59088",799.6349,72.26917,193.80907
"59089",799.6482,72.45716,193.75546
"59090",799.6615,72.66224,193.72482
"59091",799.6748,72.86977,193.70305
"59092",799.6881,73.06508,193.67554
"59093",799.7014,73.24574,193.63948
"59094",799.7147,73.402,193.58467
"59095",799.728,73.53872,193.5152
"59096",799.74133,73.64126,193.41582
"59097",799.75464,73.721825,193.29767
"59098",799.76794,73.7731,193.15276
"59099",799.78125,73.79996,192.98502
"59100",799.79456,73.797516,192.78882
"59101",799.80786,73.77554,192.57301
"59102",799.82117,73.71938,192.32234
"59103",799.8345,73.62905,192.03574
"59104",799.8478,73.494774,191.70236
"59105",799.8611,73.33364,191.33794
"59106",799.8744,73.22133,191.0173
"59107",799.8877,73.37026,190.9544
"59108",799.901,74.14664,191.5236
"59109",799.9143,75.894714,193.08876
"59110",799.9276,78.751205,195.81696
"59111",799.9409,82.562294,199.58902
"59112",799.9542,86.922714,204.02951
"59113",799.9675,91.251396,208.57452
"59114",799.98083,94.974594,212.64932
"59115",799.99414,97.71389,215.85657
"59116",800.00745,99.3399,218.03613
"59117",800.02075,99.89166,219.19228
"59118",800.03406,99.50347,219.4257
"59119",800.04736,98.355995,218.88771
"59120",800.06067,96.6836,217.78894
"59121",800.074,94.728004,216.3547
"59122",800.0873,92.70405,214.791
"59123",800.1006,90.77043,213.25438
"59124",800.1139,89.01747,211.838
"59125",800.1272,87.45983,210.56215
"59126",800.1405,86.09018,209.42561
"59127",800.1538,84.89143,208.41719
"59128",800.1671,83.88068,207.5593
"59129",800.1804,83.09697,206.89687
"59130",800.1937,82.579384,206.47606
"59131",800.20703,82.33036,206.30765
"59132",800.22034,82.31327,206.36339
"59133",800.23364,82.44999,206.5724
"59134",800.24695,82.64286,206.84184
"59135",800.26025,82.79912,207.08069
"59136",800.27356,82.85527,207.22432
"59137",800.28687,82.76494,207.22322
"59138",800.3002,82.496376,207.04106
"59139",800.3135,82.04227,206.66496
"59140",800.3268,81.41482,206.10133
"59141",800.3401,80.64088,205.37161
"59142",800.3534,79.764404,204.51517
"59143",800.3667,78.82933,203.57272
"59144",800.38,77.88449,202.5913
"59145",800.3933,76.96651,201.6072
"59146",800.4066,76.11688,200.66277
"59147",800.4199,75.36004,199.78458
"59148",800.4332,74.703285,198.98282
"59149",800.44653,74.1564,198.27042
"59150",800.45984,73.721825,197.65323
"59151",800.47314,73.38735,197.12256
"59152",800.48645,73.14809,196.67665
"59153",800.49976,72.99184,196.30627
"59154",800.51306,72.91615,196.01158
"59155",800.52637,72.90883,195.78288
"59156",800.5397,72.955215,195.60767
"59157",800.553,73.04799,195.48029
"59158",800.5663,73.1725,195.38754
"59159",800.5796,73.31655,195.31824
"59160",800.5929,73.47036,195.26318
"59161",800.6062,73.6144,195.20317
"59162",800.6195,73.7438,195.13301
"59163",800.6328,73.848785,195.0425
"59164",800.6461,73.934235,194.93571
"59165",800.6594,73.99771,194.80963
"59166",800.6727,74.0441,194.66844
"59167",800.68604,74.07095,194.50917
"59168",800.69934,74.08316,194.33609
"59169",800.71265,74.08316,194.15118
"59170",800.72595,74.075836,193.95895
"59171",800.73926,74.06607,193.76405
"59172",800.75256,74.05142,193.56396
"59173",800.76587,74.03677,193.36342
"59174",800.7792,74.0148,193.15509
"59175",800.7925,73.98306,192.93631
"59176",800.8058,73.936676,192.70189
"59177",800.8191,73.87564,192.45137
"59178",800.8324,73.831696,192.21603
"59179",800.8457,73.90738,192.09895
"59180",800.859,74.36881,192.37
"59181",800.8723,75.55535,193.38055
"59182",800.8856,77.71114,195.39745
"59183",800.8989,80.84108,198.45586
"59184",800.91223,84.69367,202.33473
"59185",800.92554,88.797745,206.58548
"59186",800.93884,92.594185,210.65685
"59187",800.95215,95.6289,214.08513
"59188",800.96545,97.6675,216.61214
"59189",800.97876,98.6807,218.17744
"59190",800.99207,98.74906,218.82957
"59191",801.0054,98.01419,218.68062
"59192",801.0187,96.66163,217.89099
"59193",801.032,94.906235,216.65628
"59194",801.0453,92.95796,215.17383
"59195",801.0586,90.99748,213.61829
"59196",801.0719,89.14931,212.11378
"59197",801.0852,87.46227,210.71266
"59198",801.0985,85.95834,209.44193
"59199",801.1118,84.6424,208.31218
"59200",801.1251,83.543755,207.35861
"59201",801.1384,82.720985,206.64659
"59202",801.15173,82.22537,206.23601
"59203",801.16504,82.08133,206.16151
"59204",801.17834,82.24979,206.39502
"59205",801.19165,82.650185,206.86572
"59206",801.20496,83.158005,207.45636
"59207",801.21826,83.648735,208.04578
"59208",801.23157,84.01984,208.5309
"59209",801.2449,84.207825,208.84451
"59210",801.2582,84.16388,208.93207
"59211",801.2715,83.87579,208.77411
"59212",801.2848,83.35577,208.3752
"59213",801.2981,82.64286,207.76717
"59214",801.3114,81.78592,206.99281
"59215",801.3247,80.84352,206.10623
"59216",801.338,79.87427,205.16335
"59217",801.3513,78.92699,204.21213
"59218",801.3646,78.0383,203.2899
"59219",801.3779,77.23506,202.42535
"59220",801.39124,76.53193,201.63582
"59221",801.40454,75.9411,200.93661
"59222",801.41785,75.457695,200.32637
"59223",801.43115,75.07927,199.806
"59224",801.44446,74.79851,199.37146
"59225",801.45776,74.61051,199.02092
"59226",801.47107,74.50553,198.74751
"59227",801.4844,74.476234,198.54651
"59228",801.4977,74.50797,198.40562
"59229",801.511,74.600746,198.32677
"59230",801.5243,74.73014,198.28743
"59231",801.5376,74.88396,198.27657
"59232",801.5509,75.04997,198.2827
"59233",801.5642,75.21599,198.29402
"59234",801.5775,75.372246,198.30078
"59235",801.5908,75.511406,198.29532
"59236",801.6041,75.61883,198.26247
"59237",801.61743,75.69207,198.19879
"59238",801.63074,75.71404,198.08614
"59239",801.64404,75.67742,197.91557
"59240",801.65735,75.577324,197.68039
"59241",801.67065,75.41863,197.38348
"59242",801.68396,75.21355,197.03523
"59243",801.69727,75.01335,196.68546
"59244",801.7106,74.95476,196.47102
"59245",801.7239,75.301445,196.66005
"59246",801.7372,76.36347,197.57524
"59247",801.7505,78.33372,199.43184
"59248",801.7638,81.18288,202.22893
"59249",801.7771,84.65705,205.74007
"59250",801.7904,88.32166,209.55022
"59251",801.8037,91.6762,213.16481
"59252",801.817,94.33494,216.18843
"59253",801.8303,96.08789,218.38934
"59254",801.8436,96.90822,219.71242
"59255",801.85693,96.86183,220.19441
"59256",801.87024,96.078125,219.93764
"59257",801.88354,94.73289,219.09485
"59258",801.89685,93.031204,217.85356
"59259",801.91016,91.1635,216.39308
"59260",801.92346,89.28603,214.86447
"59261",801.93677,87.50378,213.3724
"59262",801.9501,85.86069,211.9638
"59263",801.9634,84.37385,210.66011
"59264",801.9767,83.06767,209.49062
"59265",801.99,81.99344,208.51225
"59266",802.0033,81.20973,207.79085
"59267",802.0166,80.7776,207.39653
"59268",802.0299,80.71656,207.35979
"59269",802.0432,80.990005,207.65562
"59270",802.0565,81.50027,208.19682
"59271",802.0698,82.11795,208.86139
"59272",802.0831,82.7161,209.52573
"59273",802.09644,83.18486,210.07936
"59274",802.10974,83.4461,210.44012
"59275",802.12305,83.4461,210.54782
"59276",802.13635,83.16777,210.37718
"59277",802.14966,82.63065,209.93906
"59278",802.16296,81.881134,209.27174
"59279",802.1763,80.9778,208.4272
"59280",802.1896,79.98413,207.4641
"59281",802.2029,78.96361,206.44308
"59282",802.2162,77.962616,205.4097
"59283",802.2295,77.02022,204.40363
"59284",802.2428,76.175476,203.46576
"59285",802.2561,75.46014,202.6309
"59286",802.2694,74.8864,201.9153
"59287",802.2827,74.45426,201.32336
"59288",802.296,74.161285,200.85709
"59289",802.3093,73.987946,200.50128
"59290",802.32263,73.9147,200.24016
"59291",802.33594,73.919586,200.05487
"59292",802.34924,73.985504,199.93077
"59293",802.36255,74.08316,199.84047
"59294",802.37585,74.1857,199.7581
"59295",802.38916,74.27604,199.66675
"59296",802.40247,74.3444,199.55623
"59297",802.4158,74.41032,199.4454
"59298",802.4291,74.57389,199.4343
"59299",802.4424,75.03288,199.72372
"59300",802.4557,76.06073,200.59634
"59301",802.469,77.8674,202.2799
"59302",802.4823,80.50904,204.8549
"59303",802.4956,83.81476,208.17653
"59304",802.5089,87.43786,211.91884
"59305",802.5222,90.916916,215.63033
"59306",802.5355,93.822235,218.8768
"59307",802.5488,95.88037,221.36688
"59308",802.56213,96.99123,222.974
"59309",802.57544,97.17189,223.68564
"59310",802.58875,96.534676,223.58505
"59311",802.60205,95.26269,222.82977
"59312",802.61536,93.57076,221.6148
"59313",802.62866,91.666435,220.13457
"59314",802.64197,89.73281,218.56552
"59315",802.6553,87.88464,217.0215
"59316",802.6686,86.17807,215.56133
"59317",802.6819,84.62043,214.19675
"59318",802.6952,83.21416,212.93486
"59319",802.7085,81.991,211.81215
"59320",802.7218,81.01442,210.8978
"59321",802.7351,80.35523,210.27031
"59322",802.7484,80.062256,209.98843
"59323",802.7617,80.128174,210.0563
"59324",802.775,80.49195,210.42409
"59325",802.7883,81.041275,210.98878
"59326",802.80164,81.64431,211.62436
"59327",802.81494,82.176544,212.20798
"59328",802.82825,82.53544,212.63489
"59329",802.84155,82.6453,212.82399
"59330",802.85486,82.46952,212.73088
"59331",802.86816,82.003204,212.34174
"59332",802.8815,81.287865,211.689
"59333",802.8948,80.38697,210.82835
"59334",802.9081,79.36645,209.81993
"59335",802.9214,78.29954,208.73322
"59336",802.9347,77.24727,207.6278
"59337",802.948,76.25849,206.55301
"59338",802.9613,75.369804,205.5474
"59339",802.9746,74.600746,204.63364
"59340",802.9879,73.96597,203.83014
"59341",803.0012,73.47036,203.14597
"59342",803.0145,73.09682,202.56837
"59343",803.02783,72.84047,202.0963
"59344",803.04114,72.68421,201.71631
"59345",803.05444,72.601204,201.40468
"59346",803.06775,72.56458,201.13684
"59347",803.08105,72.56458,200.90448
"59348",803.09436,72.586555,200.69409
"59349",803.10767,72.68421,200.56007
"59350",803.121,73.01625,200.6635
"59351",803.1343,73.87076,201.29976
"59352",803.1476,75.53826,202.77573
"59353",803.1609,78.19455,205.29259
"59354",803.1742,81.78836,208.82997
"59355",803.1875,86.0267,213.1242
"59356",803.2008,90.4213,217.70714
"59357",803.2141,94.417946,222.02945
"59358",803.2274,97.56008,225.62215
"59359",803.2407,99.58892,228.19974
"59360",803.254,100.42634,229.6493
"59361",803.26733,100.15045,230.01175
"59362",803.28064,98.95903,229.45003
"59363",803.29395,97.13039,228.21385
"59364",803.30725,94.96727,226.58606
"59365",803.32056,92.74067,224.82718
"59366",803.33386,90.64835,223.13301
"59367",803.34717,88.780655,221.59807
"59368",803.3605,87.13512,220.22693
"59369",803.3738,85.662926,218.9777
"59370",803.3871,84.31037,217.80212
"59371",803.4004,83.075,216.70145
"59372",803.4137,82.00809,215.73064
"59373",803.427,81.17555,214.96086
"59374",803.4403,80.63355,214.4556
"59375",803.4536,80.38209,214.22394
"59376",803.4669,80.36744,214.22124
"59377",803.4802,80.499275,214.36456
"59378",803.4935,80.67506,214.55595
"59379",803.50684,80.799576,214.70157
"59380",803.52014,80.79469,214.72168
"59381",803.53345,80.59937,214.5512
"59382",803.54675,80.17212,214.14267
"59383",803.56006,79.517815,213.49374
"59384",803.57336,78.660866,212.62172
"59385",803.5867,77.65499,211.57399
"59386",803.6,76.561226,210.40694
"59387",803.6133,75.440605,209.17885
"59388",803.6266,74.34928,207.94504
"59389",803.6399,73.32876,206.74792
"59390",803.6532,72.41566,205.62634
"59391",803.6665,71.63439,204.60806
"59392",803.6798,70.99962,203.71187
"59393",803.6931,70.504005,202.935
"59394",803.7064,70.13779,202.27203
"59395",803.7197,69.891205,201.71725
"59396",803.73303,69.74471,201.25487
"59397",803.74634,69.68612,200.8758
"59398",803.75964,69.70321,200.57057
"59399",803.77295,69.78134,200.32693
"59400",803.78625,69.90341,200.12967
"59401",803.79956,70.05234,199.96307
"59402",803.81287,70.21835,199.81822
"59403",803.8262,70.39414,199.68834
"59404",803.8395,70.5626,199.55661
"59405",803.8528,70.72617,199.42526
"59406",803.8661,70.872665,199.28195
"59407",803.8794,70.994736,199.11879
"59408",803.8927,71.08995,198.93259
"59409",803.906,71.16319,198.72739
"59410",803.9193,71.2169,198.50494
"59411",803.9326,71.25353,198.2671
"59412",803.9459,71.26818,198.00842
"59413",803.9592,71.25109,197.71846
"59414",803.97253,71.199814,197.39378
"59415",803.98584,71.1046,197.02356
"59416",803.99915,70.97032,196.6113
"59417",804.01245,70.83116,196.18996
"59418",804.02576,70.85069,195.92296
"59419",804.03906,71.378044,196.1644
"59420",804.05237,72.87465,197.39157
"59421",804.0657,75.69207,199.98633
"59422",804.079,79.90845,204.06808
"59423",804.0923,85.262535,209.41931
"59424",804.1056,91.17326,215.49449
"59425",804.1189,96.88136,221.55176
"59426",804.1322,101.68368,226.88162
"59427",804.1455,105.13344,231.009
"59428",804.1588,107.054855,233.71584
"59429",804.1721,107.48943,234.99588
"59430",804.1854,106.64713,235.01262
"59431",804.1987,104.86,234.05821
"59432",804.21204,102.51621,232.4913
"59433",804.22534,99.984436,230.66316
"59434",804.23865,97.56985,228.8731
"59435",804.25195,95.44335,227.29565
"59436",804.26526,93.65621,225.99112
"59437",804.27856,92.14984,224.9115
"59438",804.2919,90.79973,223.94107
"59439",804.3052,89.48623,222.96506
"59440",804.3185,88.162964,221.93823
"59441",804.3318,86.84459,220.87495
"59442",804.3451,85.59457,219.83882
"59443",804.3584,84.491035,218.91013
"59444",804.3717,83.5877,218.14714
"59445",804.385,82.879684,217.55124
"59446",804.3983,82.33036,217.0919
"59447",804.4116,81.87381,216.70818
"59448",804.4249,81.446556,216.33948
"59449",804.43823,80.98268,215.9208
"59450",804.45154,80.42359,215.39243
"59451",804.46484,79.73998,214.72206
"59452",804.47815,78.91478,213.88873
"59453",804.49146,77.960175,212.9002
"59454",804.50476,76.90059,211.77687
"59455",804.51807,75.775085,210.5545
"59456",804.5314,74.62516,209.27255
"59457",804.5447,73.50454,207.98396
"59458",804.558,72.447395,206.72383
"59459",804.5713,71.48058,205.521
"59460",804.5846,70.62852,204.4027
"59461",804.5979,69.90097,203.3823
"59462",804.6112,69.3077,202.47343
"59463",804.6245,68.84871,201.68031
"59464",804.6378,68.52155,201.00468
"59465",804.6511,68.32136,200.44579
"59466",804.6644,68.23346,199.99294
"59467",804.67773,68.22858,199.62035
"59468",804.69104,68.28962,199.31354
"59469",804.70435,68.39216,199.05013
"59470",804.71765,68.51423,198.80945
"59471",804.73096,68.64362,198.57991
"59472",804.74426,68.77547,198.35687
"59473",804.75757,68.90242,198.13306
"59474",804.7709,69.02449,197.90833
"59475",804.7842,69.13435,197.6752
"59476",804.7975,69.224686,197.42598
"59477",804.8108,69.29305,197.15762
"59478",804.8241,69.332115,196.86209
"59479",804.8374,69.34432,196.54092
"59480",804.8507,69.332115,196.19572
"59481",804.864,69.30282,195.83305
"59482",804.8773,69.261314,195.45726
"59483",804.8906,69.2198,195.08017
"59484",804.90393,69.18562,194.7091
"59485",804.91724,69.16853,194.35406
"59486",804.93054,69.17586,194.0229
"59487",804.94385,69.207596,193.71638
"59488",804.95715,69.263756,193.43529
"59489",804.97046,69.337,193.17302
"59490",804.98376,69.43221,192.93501
"59491",804.9971,69.55428,192.72684
"59492",805.0104,69.70077,192.54689
"59493",805.0237,69.874115,192.39839
"59494",805.037,70.064545,192.27238
"59495",805.0503,70.25498,192.15234
"59496",805.0636,70.435646,192.02847
"59497",805.0769,70.61631,191.91025
"59498",805.0902,70.91661,191.91731
"59499",805.1035,71.639275,192.35612
"59500",805.1168,73.233536,193.68912
"59501",805.1301,76.09735,196.34148
"59502",805.14343,80.38453,200.5067
"59503",805.15674,85.90463,206.03882
"59504",805.17004,92.12543,212.44414
"59505",805.18335,98.26078,218.9584
"59506",805.19666,103.54894,224.81721
"59507",805.20996,107.440605,229.44478
"59508",805.22327,109.70382,232.5655
"59509",805.2366,110.348366,234.13829
"59510",805.2499,109.58175,234.32007
"59511",805.2632,107.75067,233.41342
"59512",805.2765,105.255516,231.78548
"59513",805.2898,102.486916,229.8061
"59514",805.3031,99.77692,227.79883
"59515",805.3164,97.3428,225.98274
"59516",805.3297,95.274895,224.4568
"59517",805.343,93.55367,223.21292
"59518",805.3563,92.07416,222.15695
"59519",805.3696,90.719154,221.17926
"59520",805.38293,89.40566,220.20074
"59521",805.39624,88.11902,219.20802
"59522",805.40955,86.90318,218.24591
"59523",805.42285,85.824066,217.38252
"59524",805.43616,84.93538,216.67584
"59525",805.44946,84.25422,216.14891
"59526",805.46277,83.74883,215.77647
"59527",805.4761,83.35577,215.50056
"59528",805.4894,82.99931,215.24898
"59529",805.5027,82.6038,214.94719
"59530",805.516,82.108185,214.53294
"59531",805.5293,81.46609,213.95673
"59532",805.5426,80.65797,213.19443
"59533",805.5559,79.70336,212.26039
"59534",805.5692,78.62913,211.17688
"59535",805.5825,77.47677,209.98167
"59536",805.5958,76.29267,208.71872
"59537",805.60913,75.125656,207.43585
"59538",805.62244,74.002594,206.16046
"59539",805.63574,72.96254,204.93298
"59540",805.64905,72.02991,203.78043
"59541",805.66235,71.22667,202.72812
"59542",805.67566,70.555275,201.78256
"59543",805.68896,70.02548,200.95763
"59544",805.7023,69.63241,200.25285
"59545",805.7156,69.366295,199.66275
"59546",805.7289,69.207596,199.17175
"59547",805.7422,69.14656,198.77345
"59548",805.7555,69.16365,198.45137
"59549",805.7688,69.241776,198.19086
"59550",805.7821,69.35897,197.97186
"59551",805.7954,69.5079,197.78825
"59552",805.8087,69.67635,197.62883
"59553",805.822,69.84726,197.47713
"59554",805.8353,70.01572,197.32831
"59555",805.84863,70.17441,197.17499
"59556",805.86194,70.30869,197.00223
"59557",805.87524,70.41367,196.80435
"59558",805.88855,70.484474,196.57558
"59559",805.90186,70.518654,196.3124
"59560",805.91516,70.521095,196.01854
"59561",805.92847,70.49912,195.70035
"59562",805.9418,70.45762,195.36194
"59563",805.9551,70.416115,195.02223
"59564",805.9684,70.381935,194.68855
"59565",805.9817,70.35508,194.36113
"59566",805.995,70.3502,194.05484
"59567",806.0083,70.36729,193.77037
"59568",806.0216,70.41123,193.51329
"59569",806.0349,70.47959,193.282
"59570",806.0482,70.56504,193.06993
"59571",806.0615,70.65293,192.86298
"59572",806.0748,70.73106,192.649
"59573",806.08813,70.79454,192.42284
"59574",806.10144,70.85802,192.19864
"59575",806.11475,71.02403,192.07896
"59576",806.12805,71.570915,192.34535
"59577",806.14136,72.91615,193.42719
"59578",806.15466,75.46258,195.75224
"59579",806.16797,79.40063,199.5485
"59580",806.1813,84.58381,204.71295
"59581",806.1946,90.5214,210.7938
"59582",806.2079,96.47852,217.07971
"59583",806.2212,101.678795,222.79494
"59584",806.2345,105.55093,227.34453
"59585",806.2478,107.82391,230.41599
"59586",806.2611,108.48798,231.94955
"59587",806.2744,107.73113,232.08295
"59588",806.2877,105.8732,231.09161
"59589",806.301,103.29015,229.31711
"59590",806.31433,100.3653,227.12007
"59591",806.32764,97.41848,224.80966
"59592",806.34094,94.68162,222.61713
"59593",806.35425,92.25727,220.65158
"59594",806.36755,90.15762,218.93497
"59595",806.38086,88.32899,217.42375
"59596",806.39417,86.70298,216.05803
"59597",806.4075,85.25033,214.81485
"59598",806.4208,84.000305,213.7289
"59599",806.4341,83.01396,212.86757
"59600",806.4474,82.3328,212.2806
"59601",806.4607,81.96414,211.98483
"59602",806.474,81.85428,211.93636
"59603",806.4873,81.91043,212.05046
"59604",806.5006,82.01785,212.21759
"59605",806.5139,82.07889,212.34169
"59606",806.5272,82.00809,212.33586
"59607",806.5405,81.74441,212.13493
"59608",806.55383,81.25613,211.70117
"59609",806.56714,80.53834,211.02264
"59610",806.58044,79.622795,210.12393
"59611",806.59375,78.56077,209.05011
"59612",806.60706,77.401085,207.84544
"59613",806.62036,76.20233,206.56548
"59614",806.63367,75.01335,205.25781
"59615",806.647,73.87808,203.9667
"59616",806.6603,72.833145,202.73045
"59617",806.6736,71.91028,201.58362
"59618",806.6869,71.11925,200.53978
"59619",806.7002,70.47715,199.62016
"59620",806.7135,69.976654,198.82208
"59621",806.7268,69.610435,198.14264
"59622",806.7401,69.36874,197.57626
"59623",806.7534,69.241776,197.11708
"59624",806.7667,69.21736,196.75647
"59625",806.78,69.278404,196.48056
"59626",806.79333,69.41024,196.27734
"59627",806.80664,69.59823,196.1344
"59628",806.81995,69.820404,196.03152
"59629",806.83325,70.05722,195.95023
"59630",806.84656,70.296486,195.87878
"59631",806.85986,70.52354,195.8026
"59632",806.87317,70.72617,195.70909
"59633",806.8865,70.906845,195.59996
"59634",806.8998,71.05577,195.46472
"59635",806.9131,71.1754,195.30484
"59636",806.9264,71.26574,195.11942
"59637",806.9397,71.326775,194.9075
"59638",806.953,71.360954,194.67064
"59639",806.9663,71.380486,194.4202
"59640",806.9796,71.38293,194.15327
"59641",806.9929,71.378044,193.8791
"59642",807.0062,71.3756,193.60722
"59643",807.01953,71.3756,193.3377
"59644",807.03284,71.38781,193.0804
"59645",807.04614,71.40978,192.83324
"59646",807.05945,71.44396,192.59897
"59647",807.07275,71.48058,192.36821
"59648",807.08606,71.51232,192.13371
"59649",807.09937,71.53185,191.888
"59650",807.1127,71.551384,191.6429
"59651",807.126,71.66369,191.49118
"59652",807.1393,72.1178,191.68478
"59653",807.1526,73.304344,192.62502
"59654",807.1659,75.61639,194.72781
"59655",807.1792,79.23949,198.21393
"59656",807.1925,84.051575,203.00224
"59657",807.2058,89.59121,208.66849
"59658",807.2191,95.16502,214.54202
"59659",807.2324,100.04059,219.8915
"59660",807.2457,103.673454,224.15063
"59661",807.25903,105.79996,227.01694
"59662",807.27234,106.407875,228.4311
"59663",807.28564,105.66567,228.51414
"59664",807.29895,103.86389,227.51442
"59665",807.31226,101.33944,225.73572
"59666",807.32556,98.44633,223.50946
"59667",807.33887,95.47997,221.11955
"59668",807.3522,92.65278,218.77611
"59669",807.3655,90.07706,216.59578
"59670",807.3788,87.79431,214.62794
"59671",807.3921,85.79233,212.86954
"59672",807.4054,84.068665,211.32689
"59673",807.4187,82.64286,210.02823
"59674",807.432,81.55886,209.02682
"59675",807.4453,80.86549,208.38217
"59676",807.4586,80.58228,208.126
"59677",807.4719,80.66041,208.22234
"59678",807.4852,81.00221,208.58478
"59679",807.49854,81.47341,209.0873
"59680",807.51184,81.94217,209.6021
"59681",807.52515,82.29374,210.01436
"59682",807.53845,82.44999,210.2423
"59683",807.55176,82.35233,210.2212
"59684",807.56506,81.97879,209.92117
"59685",807.57837,81.339134,209.34335
"59686",807.5917,80.4773,208.52338
"59687",807.605,79.449455,207.51045
"59688",807.6183,78.32151,206.3653
"59689",807.6316,77.15938,205.15071
"59690",807.6449,76.016785,203.91934
"59691",807.6582,74.93767,202.71574
"59692",807.6715,73.94888,201.56876
"59693",807.6848,73.074844,200.50562
"59694",807.6981,72.33265,199.54701
"59695",807.7114,71.72228,198.69704
"59696",807.72473,71.24376,197.95984
"59697",807.73804,70.8922,197.33464
"59698",807.75134,70.65293,196.81076
"59699",807.76465,70.51621,196.38194
"59700",807.77795,70.47471,196.04407
"59701",807.79126,70.51621,195.7879
"59702",807.80457,70.626076,195.6014
"59703",807.8179,70.79698,195.47937
"59704",807.8312,71.009384,195.40417
"59705",807.8445,71.24864,195.36247
"59706",807.8578,71.505,195.34535
"59707",807.8711,71.766235,195.34113
"59708",807.8844,72.02014,195.33772
"59709",807.8977,72.25941,195.32762
"59710",807.911,72.47913,195.30545
"59711",807.9243,72.66956,195.26085
"59712",807.9376,72.8307,195.19292
"59713",807.9509,72.95766,195.09583
"59714",807.96423,73.05043,194.96852
"59715",807.97754,73.10658,194.8075
"59716",807.99084,73.12123,194.60672
"59717",808.00415,73.094376,194.3649
"59718",808.01746,73.02846,194.08318
"59719",808.03076,72.91371,193.75056
"59720",808.04407,72.76723,193.38263
"59721",808.0574,72.64271,193.03209
"59722",808.0707,72.7013,192.86076
"59723",808.084,73.253075,193.18445
"59724",808.0973,74.67399,194.39452
"59725",808.1106,77.24483,196.79892
"59726",808.1239,80.99733,200.46532
"59727",808.1372,85.65804,205.1572
"59728",808.1505,90.687416,210.36339
"59729",808.1638,95.42626,215.43622
"59730",808.1771,99.27642,219.76845
"59731",808.1904,101.874115,222.96854
"59732",808.20374,103.10216,224.88014
"59733",808.21704,103.03136,225.53128
"59734",808.23035,101.85458,225.07423
"59735",808.24365,99.84772,223.75032
"59736",808.25696,97.31594,221.83879
"59737",808.27026,94.540016,219.60399
"59738",808.28357,91.74456,217.26291
"59739",808.2969,89.08095,214.96631
"59740",808.3102,86.62241,212.79155
"59741",808.3235,84.4007,210.7768
"59742",808.3368,82.44755,208.96117
"59743",808.3501,80.81911,207.40921
"59744",808.3634,79.59594,206.21164
"59745",808.3767,78.84642,205.4495
"59746",808.39,78.607155,205.17418
"59747",808.4033,78.853745,205.37724
"59748",808.4166,79.48608,205.97375
"59749",808.42993,80.360115,206.83173
"59750",808.44324,81.30251,207.78539
"59751",808.45654,82.159454,208.68303
"59752",808.46985,82.791794,209.38286
"59753",808.48315,83.106735,209.78505
"59754",808.49646,83.06279,209.8382
"59755",808.50977,82.66483,209.53595
"59756",808.5231,81.95926,208.91365
"59757",808.5364,81.01442,208.03004
"59758",808.5497,79.91333,206.96066
"59759",808.563,78.72678,205.77141
"59760",808.5763,77.5256,204.53043
"59761",808.5896,76.368355,203.29585
"59762",808.6029,75.299,202.113
"59763",808.6162,74.3444,201.01149
"59764",808.6295,73.52163,200.01198
"59765",808.6428,72.83803,199.12593
"59766",808.6561,72.29603,198.36012
"59767",808.66943,71.888306,197.71165
"59768",808.68274,71.60998,197.17984
"59769",808.69604,71.45373,196.7614
"59770",808.70935,71.4049,196.4455
"59771",808.72266,71.45373,196.22572
"59772",808.73596,71.58312,196.08804
"59773",808.74927,71.78577,196.02766
"59774",808.7626,72.044556,196.02975
"59775",808.7759,72.34486,196.08145
"59776",808.7892,72.66468,196.16205
"59777",808.8025,72.98451,196.25266
"59778",808.8158,73.28237,196.33128
"59779",808.8291,73.53384,196.37282
"59780",808.8424,73.71694,196.35385
"59781",808.8557,73.82437,196.26494
"59782",808.869,73.863434,196.11101
"59783",808.8823,73.88052,195.93633
"59784",808.8956,74.02701,195.89157
"59785",808.90894,74.58366,196.26157
"59786",808.92224,75.90692,197.41557
"59787",808.93555,78.24582,199.62656
"59788",808.94885,81.64431,202.97023
"59789",808.96216,85.87045,207.24776
"59790",808.97546,90.443275,212.00403
"59791",808.9888,94.75975,216.64685
"59792",809.0021,98.27543,220.62378
"59793",809.0154,100.646065,223.56552
"59794",809.0287,101.752045,225.3167
"59795",809.042,101.65438,225.89879
"59796",809.0553,100.52888,225.44998
"59797",809.0686,98.62699,224.18962
"59798",809.0819,96.22949,222.37422
"59799",809.0952,93.590294,220.24219
"59800",809.1085,90.91936,217.99594
"59801",809.1218,88.35096,215.76877
"59802",809.13513,85.95346,213.63223
"59803",809.14844,83.76349,211.62831
"59804",809.16174,81.81033,209.79277
"59805",809.17505,80.15747,208.19649
"59806",809.18835,78.89525,206.93918
"59807",809.20166,78.1091,206.1185
"59808",809.21497,77.84543,205.79573
"59809",809.2283,78.09201,205.97498
"59810",809.2416,78.74876,206.5721
"59811",809.2549,79.66674,207.45097
"59812",809.2682,80.67506,208.44887
"59813",809.2815,81.60769,209.4026
"59814",809.2948,82.32304,210.1682
"59815",809.3081,82.72587,210.64363
"59816",809.3214,82.76494,210.76788
"59817",809.3347,82.44022,210.52957
"59818",809.348,81.79813,209.96373
"59819",809.3613,80.90456,209.12636
"59820",809.37463,79.83765,208.08772
"59821",809.38794,78.6804,206.9254
"59822",809.40125,77.4963,205.70006
"59823",809.41455,76.3415,204.46701
"59824",809.42786,75.267265,203.27844
"59825",809.44116,74.31266,202.17593
"59826",809.45447,73.497215,201.18275
"59827",809.4678,72.84047,200.3228
"59828",809.4811,72.33509,199.59369
"59829",809.4944,71.98108,199.00015
"59830",809.5077,71.76135,198.52983
"59831",809.521,71.64904,198.16006
"59832",809.5343,71.62707,197.87712
"59833",809.5476,71.66857,197.65697
"59834",809.5609,71.73937,197.4674
"59835",809.5742,71.83215,197.30205
"59836",809.5875,71.95178,197.16643
"59837",809.6008,72.17639,197.13953
"59838",809.61414,72.708626,197.42728
"59839",809.62744,73.85855,198.34935
"59840",809.64075,75.94354,200.24242
"59841",809.65405,79.11009,203.2822
"59842",809.66736,83.25567,207.39996
"59843",809.68066,87.992065,212.2381
"59844",809.694,92.74311,217.23889
"59845",809.7073,96.886246,221.78024
"59846",809.7206,99.9527,225.37439
"59847",809.7339,101.70809,227.75331
"59848",809.7472,102.132904,228.8565
"59849",809.7605,101.37118,228.78644
"59850",809.7738,99.664604,227.74771
"59851",809.7871,97.31106,226.00868
"59852",809.8004,94.608376,223.84697
"59853",809.8137,91.825134,221.52023
"59854",809.827,89.13954,219.20418
"59855",809.84033,86.65659,217.00684
"59856",809.85364,84.403145,214.96141
"59857",809.86694,82.38407,213.07994
"59858",809.88025,80.62379,211.39417
"59859",809.89355,79.18089,209.97076
"59860",809.90686,78.1384,208.90266
"59861",809.92017,77.574425,208.28052
"59862",809.9335,77.51339,208.14368
"59863",809.9468,77.90402,208.4566
"59864",809.9601,78.624245,209.11133
"59865",809.9734,79.50561,209.94969
"59866",809.9867,80.38453,210.81316
"59867",810,81.10475,211.5454
"59868",810.0133,81.549095,212.02426
"59869",810.0266,81.651634,212.17522
"59870",810.0399,81.3904,211.9656
"59871",810.0532,80.78737,211.40602
"59872",810.0665,79.906006,210.54927
"59873",810.07983,78.83177,209.4721
"59874",810.09314,77.64767,208.2515
"59875",810.10645,76.43183,206.96214
"59876",810.11975,75.250175,205.66898
"59877",810.13306,74.15396,204.42433
"59878",810.14636,73.179825,203.2675
"59879",810.15967,72.3473,202.22185
"59880",810.173,71.66369,201.29909
"59881",810.1863,71.12657,200.50146
"59882",810.1996,70.72617,199.82378
"59883",810.2129,70.43076,199.23856
"59884",810.2262,70.21591,198.72467
"59885",810.2395,70.07187,198.27487
"59886",810.2528,70.01816,197.9109
"59887",810.2661,70.17197,197.75278
"59888",810.2794,70.79942,198.0731
"59889",810.2927,72.26917,199.25534
"59890",810.306,74.879074,201.62366
"59891",810.31934,78.70237,205.28693
"59892",810.33264,83.509575,210.05357
"59893",810.34595,88.77821,215.43188
"59894",810.35925,93.822235,220.75023
"59895",810.37256,97.98001,225.33995
"59896",810.38586,100.81697,228.73878
"59897",810.3992,102.17197,230.74431
"59898",810.4125,102.11093,231.37614
"59899",810.4258,100.860916,230.8171
"59900",810.4391,98.736855,229.34494
"59901",810.4524,96.09277,227.28639
"59902",810.4657,93.25094,224.94745
"59903",810.479,90.46281,222.57341
"59904",810.4923,87.86267,220.30023
"59905",810.5056,85.50912,218.19238
"59906",810.5189,83.39239,216.24782
"59907",810.5322,81.497826,214.45927
"59908",810.54553,79.852295,212.86055
"59909",810.55884,78.52659,211.53023
"59910",810.57214,77.60616,210.56375
"59911",810.58545,77.152054,210.03484
"59912",810.59875,77.16182,209.9556
"59913",810.61206,77.55978,210.26486
"59914",810.62537,78.21164,210.84047
"59915",810.6387,78.958725,211.53166
"59916",810.652,79.64233,212.18272
"59917",810.6653,80.130615,212.65984
"59918",810.6786,80.32838,212.86168
"59919",810.6919,80.17944,212.723
"59920",810.7052,79.68383,212.233
"59921",810.7185,78.88548,211.42477
"59922",810.7318,77.86008,210.36453
"59923",810.7451,76.6955,209.13309
"59924",810.7584,75.47234,207.80666
"59925",810.7717,74.27848,206.4713
"59926",810.78503,73.1725,205.18652
"59927",810.79834,72.19592,203.99658
"59928",810.81165,71.36828,202.92506
"59929",810.82495,70.70176,201.9888
"59930",810.83826,70.19394,201.19041
"59931",810.85156,69.83261,200.52264
"59932",810.86487,69.590904,199.96321
"59933",810.8782,69.44442,199.49144
"59934",810.8915,69.36141,199.07857
"59935",810.9048,69.32235,198.70705
"59936",810.9181,69.34432,198.39534
"59937",810.9314,69.54452,198.26254
"59938",810.9447,70.21347,198.60477
"59939",810.958,71.74914,199.83461
"59940",810.9713,74.49821,202.32584
"59941",810.9846,78.56565,206.22134
"59942",810.9979,83.72686,211.33772
"59943",811.0112,89.408104,217.13544
"59944",811.02454,94.84764,222.86897
"59945",811.03784,99.30816,227.79349
"59946",811.05115,102.29893,231.38763
"59947",811.06445,103.65392,233.43947
"59948",811.07776,103.47082,233.99554
"59949",811.09106,102.03525,233.29344
"59950",811.1044,99.72564,231.67244
"59951",811.1177,96.9424,229.50563
"59952",811.131,94.046844,227.13953
"59953",811.1443,91.30511,224.83675
"59954",811.1576,88.85634,222.74126
"59955",811.1709,86.72251,220.88419
"59956",811.1842,84.84749,219.21924
"59957",811.1975,83.16533,217.68857
"59958",811.2108,81.65652,216.27867
"59959",811.2241,80.34791,215.02184
"59960",811.2374,79.30785,213.99266
"59961",811.25073,78.60471,213.26788
"59962",811.26404,78.25071,212.87027
"59963",811.27734,78.204315,212.76921
"59964",811.29065,78.37034,212.87912
"59965",811.30396,78.63157,213.08942
"59966",811.31726,78.86351,213.2786
"59967",811.33057,78.96117,213.34073
"59968",811.3439,78.84642,213.19351
"59969",811.3572,78.467995,212.77904
"59970",811.3705,77.823456,212.08662
"59971",811.3838,76.94209,211.13724
"59972",811.3971,75.88495,209.98453
"59973",811.4104,74.72526,208.69624
"59974",811.4237,73.53628,207.34242
"59975",811.437,72.3888,205.99295
"59976",811.4503,71.33166,204.69795
"59977",811.4636,70.40147,203.49687
"59978",811.4769,69.61776,202.41321
"59979",811.49023,68.98543,201.45644
"59980",811.50354,68.50446,200.63127
"59981",811.51685,68.174866,199.94244
"59982",811.53015,67.98688,199.38492
"59983",811.54346,67.93561,198.95824
"59984",811.55676,68.00397,198.64958
"59985",811.57007,68.174866,198.4456
"59986",811.5834,68.43366,198.33487
"59987",811.5967,68.75838,198.29814
"59988",811.61,69.119705,198.30817
"59989",811.6233,69.49813,198.34659
"59990",811.6366,69.85214,198.37242
"59991",811.6499,70.15488,198.35803
"59992",811.6632,70.37461,198.27011
"59993",811.6765,70.49912,198.09383
"59994",811.6898,70.53574,197.83354
"59995",811.7031,70.55283,197.55487
"59996",811.71643,70.784775,197.4916
"59997",811.72974,71.658806,198.07765
"59998",811.74304,73.64614,199.80432
"59999",811.75635,77.051956,203.01158
"60000",811.76965,81.84451,207.712
"60001",811.78296,87.59899,213.52412
"60002",811.79626,93.56344,219.72604
"60003",811.8096,98.87358,225.46004
"60004",811.8229,102.8336,230.00986
"60005",811.8362,105.09682,232.98662
"60006",811.8495,105.65835,234.33243
"60007",811.8628,104.75502,234.23093
"60008",811.8761,102.76524,233.01474
"60009",811.8894,100.140686,231.1016
"60010",811.9027,97.30129,228.8916
"60011",811.916,94.571754,226.70273
"60012",811.9293,92.16205,224.74838
"60013",811.9426,90.13321,223.09961
"60014",811.95593,88.41688,221.69994
"60015",811.96924,86.890976,220.43706
"60016",811.98254,85.44076,219.20218
"60017",811.99585,84.02716,217.9586
"60018",812.00916,82.68192,216.73921
"60019",812.02246,81.50027,215.64137
"60020",812.03577,80.570076,214.75807
"60021",812.0491,79.92798,214.13379
"60022",812.0624,79.551994,213.75555
"60023",812.0757,79.36645,213.556
"60024",812.089,79.27123,213.44098
"60025",812.1023,79.17113,213.3181
"60026",812.1156,78.98558,213.10664
"60027",812.1289,78.6511,212.74046
"60028",812.1422,78.12375,212.17096
"60029",812.1555,77.3962,211.38478
"60030",812.1688,76.48554,210.39275
"60031",812.1821,75.43328,209.23065
"60032",812.19543,74.30045,207.95511
"60033",812.20874,73.15541,206.63196
"60034",812.22205,72.059204,205.32185
"60035",812.23535,71.06554,204.08003
"60036",812.24866,70.21347,202.94876
"60037",812.26196,69.51278,201.94225
"60038",812.27527,68.9659,201.06764
"60039",812.2886,68.57038,200.32732
"60040",812.3019,68.31403,199.71379
"60041",812.3152,68.18219,199.21677
"60042",812.3285,68.157776,198.82304
"60043",812.3418,68.226135,198.52133
"60044",812.3551,68.367744,198.29501
"60045",812.3684,68.5655,198.12926
"60046",812.3817,68.795,198.00143
"60047",812.395,69.04402,197.9003
"60048",812.4083,69.30282,197.81673
"60049",812.42163,69.5494,197.72902
"60050",812.43494,69.769135,197.62218
"60051",812.44824,69.959564,197.49289
"60052",812.46155,70.118256,197.33781
"60053",812.47485,70.24277,197.15352
"60054",812.48816,70.33555,196.94139
"60055",812.50146,70.40147,196.70529
"60056",812.5148,70.44297,196.44684
"60057",812.5281,70.46006,196.16527
"60058",812.5414,70.45518,195.86226
"60059",812.5547,70.44297,195.55177
"60060",812.568,70.435646,195.24579
"60061",812.5813,70.435646,194.9469
"60062",812.5946,70.452736,194.6651
"60063",812.6079,70.49912,194.41313
"60064",812.6212,70.56992,194.18703
"60065",812.6345,70.67246,193.99487
"60066",812.6478,70.79942,193.83035
"60067",812.66113,70.95079,193.6942
"60068",812.67444,71.12657,193.58719
"60069",812.68774,71.326775,193.5101
"60070",812.70105,71.553825,193.46611
"60071",812.71436,71.81262,193.46097
"60072",812.72766,72.09827,193.49075
"60073",812.74097,72.39857,193.54413
"60074",812.7543,72.68665,193.59467
"60075",812.7676,72.94057,193.62004
"60076",812.7809,73.14076,193.59962
"60077",812.7942,73.321434,193.56595
"60078",812.8075,73.66811,193.70392
"60079",812.8208,74.60807,194.446
"60080",812.8341,76.6833,196.35272
"60081",812.8474,80.30396,199.86974
"60082",812.8607,85.52865,205.10391
"60083",812.874,91.99115,211.73918
"60084",812.8873,98.932175,219.05493
"60085",812.90063,105.38247,226.09686
"60086",812.91394,110.502174,232.00977
"60087",812.92725,113.80301,236.2638
"60088",812.94055,115.177536,238.69467
"60089",812.95386,114.794235,239.41068
"60090",812.96716,113.01198,238.71573
"60091",812.98047,110.28733,237.0227
"60092",812.9938,107.0988,234.78065
"60093",813.0071,103.854126,232.38281
"60094",813.0204,100.84627,230.12039
"60095",813.0337,98.251015,228.17659
"60096",813.047,96.09033,226.58626
"60097",813.0603,94.261696,225.26044
"60098",813.0736,92.62592,224.07034
"60099",813.0869,91.07805,222.91702
"60100",813.1002,89.57656,221.76172
"60101",813.1135,88.162964,220.64738
"60102",813.12683,86.925156,219.66467
"60103",813.14014,85.93393,218.88986
"60104",813.15344,85.2137,218.35507
"60105",813.16675,84.715645,218.01994
"60106",813.18005,84.35676,217.80843
"60107",813.19336,84.04181,217.62962
"60108",813.20667,83.682915,217.39703
"60109",813.22,83.19951,217.02872
"60110",813.2333,82.55009,216.47928
"60111",813.2466,81.71755,215.72644
"60112",813.2599,80.69947,214.76204
"60113",813.2732,79.52758,213.61201
"60114",813.2865,78.25071,212.32037
"60115",813.2998,76.92256,210.93756
"60116",813.3131,75.596855,209.51569
"60117",813.3264,74.32731,208.10854
"60118",813.3397,73.16518,206.76913
"60119",813.353,72.14221,205.53258
"60120",813.36633,71.28039,204.4252
"60121",813.37964,70.58457,203.4569
"60122",813.39294,70.0499,202.62799
"60123",813.40625,69.66415,201.9313
"60124",813.41956,69.41024,201.3544
"60125",813.43286,69.27596,200.88919
"60126",813.44617,69.23689,200.515
"60127",813.4595,69.28573,200.2275
"60128",813.4728,69.400475,200.00742
"60129",813.4861,69.56161,199.83731
"60130",813.4994,69.74471,199.69421
"60131",813.5127,69.944916,199.57394
"60132",813.526,70.13779,199.45259
"60133",813.5393,70.31602,199.32263
"60134",813.5526,70.46494,199.16893
"60135",813.5659,70.57969,198.9857
"60136",813.5792,70.65293,198.76456
"60137",813.5925,70.69199,198.51152
"60138",813.60583,70.69688,198.22552
"60139",813.61914,70.674904,197.91283
"60140",813.63245,70.6334,197.57991
"60141",813.64575,70.57725,197.23105
"60142",813.65906,70.50645,196.86578
"60143",813.67236,70.42832,196.49098
"60144",813.68567,70.362404,196.12595
"60145",813.699,70.30869,195.77106
"60146",813.7123,70.279396,195.4389
"60147",813.7256,70.28428,195.14001
"60148",813.7389,70.31846,194.87057
"60149",813.7522,70.38926,194.63882
"60150",813.7655,70.49668,194.4459
"60151",813.7788,70.643166,194.29541
"60152",813.7921,70.82384,194.18369
"60153",813.8054,71.04112,194.11421
"60154",813.8187,71.27795,194.07108
"60155",813.83203,71.52209,194.04265
"60156",813.84534,71.75647,194.0121
"60157",813.85864,71.95178,193.9498
"60158",813.87195,72.11047,193.85698
"60159",813.88525,72.29359,193.79355
"60160",813.89856,72.72816,193.98729
"60161",813.91187,73.848785,194.88068
"60162",813.9252,76.17059,197.01025
"60163",813.9385,80.02319,200.74318
"60164",813.9518,85.384605,206.10532
"60165",813.9651,91.827576,212.71655
"60166",813.9784,98.583046,219.84163
"60167",813.9917,104.740364,226.57967
"60168",814.005,109.55245,232.16489
"60169",814.0183,112.59937,236.13531
"60170",814.0316,113.80545,238.36012
"60171",814.0449,113.339134,238.95023
"60172",814.0582,111.54223,238.19516
"60173",814.07153,108.83711,236.47574
"60174",814.08484,105.67544,234.21523
"60175",814.09814,102.450294,231.79243
"60176",814.11145,99.457085,229.5008
"60177",814.12476,96.85939,227.51114
"60178",814.13806,94.696266,225.87488
"60179",814.15137,92.88472,224.52258
"60180",814.1647,91.29046,223.33096
"60181",814.178,89.78653,222.17986
"60182",814.1913,88.324104,221.02325
"60183",814.2046,86.922714,219.88199
"60184",814.2179,85.6556,218.8312
"60185",814.2312,84.60578,217.95813
"60186",814.2445,83.809875,217.30615
"60187",814.2578,83.245895,216.86124
"60188",814.2711,82.845505,216.56229
"60189",814.2844,82.52567,216.33138
"60190",814.2977,82.193634,216.07826
"60191",814.31104,81.76883,215.72202
"60192",814.32434,81.19997,215.20844
"60193",814.33765,80.448006,214.49397
"60194",814.35095,79.51293,213.5729
"60195",814.36426,78.41428,212.45903
"60196",814.37756,77.19844,211.19363
"60197",814.39087,75.92401,209.83165
"60198",814.4042,74.64469,208.42496
"60199",814.4175,73.41909,207.032
"60200",814.4308,72.28626,205.69351
"60201",814.4441,71.28527,204.45146
"60202",814.4574,70.43076,203.32462
"60203",814.4707,69.73739,202.3322
"60204",814.484,69.19783,201.47194
"60205",814.4973,68.80965,200.74619
"60206",814.5106,68.56306,200.1499
"60207",814.5239,68.438545,199.66798
"60208",814.53723,68.4239,199.29204
"60209",814.55054,68.49958,199.00597
"60210",814.56384,68.646065,198.79306
"60211",814.57715,68.84627,198.63846
"60212",814.59045,69.07332,198.51695
"60213",814.60376,69.312584,198.41476
"60214",814.61707,69.54452,198.31271
"60215",814.6304,69.75937,198.20084
"60216",814.6437,69.944916,198.06636
"60217",814.657,70.101166,197.90839
"60218",814.6703,70.220795,197.71867
"60219",814.6836,70.30625,197.49854
"60220",814.6969,70.3502,197.23955
"60221",814.7102,70.35752,196.94531
"60222",814.7235,70.330666,196.61713
"60223",814.7368,70.26963,196.25392
"60224",814.7501,70.19638,195.8766
"60225",814.7634,70.1207,195.49455
"60226",814.77673,70.05478,195.1199
"60227",814.79004,70.00351,194.75784
"60228",814.80334,69.97421,194.41615
"60229",814.81665,69.97177,194.1004
"60230",814.82996,70.00351,193.81876
"60231",814.84326,70.066986,193.56984
"60232",814.85657,70.16464,193.35709
"60233",814.8699,70.30137,193.18646
"60234",814.8832,70.47471,193.05672
"60235",814.8965,70.67246,192.9568
"60236",814.9098,70.87999,192.87285
"60237",814.9231,71.07774,192.7856
"60238",814.9364,71.24132,192.67035
"60239",814.9497,71.36828,192.5236
"60240",814.963,71.52209,192.40767
"60241",814.9763,71.922485,192.54314
"60242",814.9896,72.99916,193.36739
"60243",815.0029,75.250175,195.39963
"60244",815.01624,79.01976,199.02078
"60245",815.02954,84.30305,204.27344
"60246",815.04285,90.68253,210.7874
"60247",815.05615,97.408714,217.84741
"60248",815.06946,103.59289,224.5756
"60249",815.08276,108.4831,230.2031
"60250",815.09607,111.65209,234.26218
"60251",815.1094,113.01198,236.61119
"60252",815.1227,112.71412,237.34496
"60253",815.136,111.063705,236.71686
"60254",815.1493,108.46357,235.08746
"60255",815.1626,105.338524,232.8519
"60256",815.1759,102.07675,230.38196
"60257",815.1892,98.97612,227.97122
"60258",815.2025,96.22705,225.81516
"60259",815.2158,93.890594,223.9858
"60260",815.2291,91.90814,222.43742
"60261",815.24243,90.16983,221.07124
"60262",815.25574,88.585335,219.80455
"60263",815.26904,87.1107,218.5982
"60264",815.28235,85.767914,217.47763
"60265",815.29565,84.62287,216.51283
"60266",815.30896,83.736626,215.77106
"60267",815.32227,83.123825,215.27502
"60268",815.3356,82.75029,214.99911
"60269",815.3489,82.533,214.86777
"60270",815.3622,82.37919,214.79312
"60271",815.3755,82.2034,214.69168
"60272",815.3888,81.92996,214.4871
"60273",815.4021,81.4905,214.10796
"60274",815.4154,80.85573,213.51976
"60275",815.4287,80.01831,212.70909
"60276",815.442,78.99779,211.68915
"60277",815.4553,77.838104,210.49814
"60278",815.4686,76.595406,209.18788
"60279",815.48193,75.32342,207.8095
"60280",815.49524,74.08072,206.42065
"60281",815.50854,72.91371,205.06866
"60282",815.52185,71.854126,203.78763
"60283",815.53516,70.93126,202.6102
"60284",815.54846,70.15732,201.55286
"60285",815.56177,69.542076,200.63004
"60286",815.5751,69.083084,199.84424
"60287",815.5884,68.770584,199.19058
"60288",815.6017,68.592354,198.66144
"60289",815.615,68.53132,198.24391
"60290",815.6283,68.57038,197.92458
"60291",815.6416,68.68513,197.68214
"60292",815.6549,68.858475,197.5019
"60293",815.6682,69.07576,197.37102
"60294",815.6815,69.315025,197.2689
"60295",815.6948,69.56649,197.18646
"60296",815.7081,69.81796,197.1119
"60297",815.72144,70.05478,197.03052
"60298",815.73474,70.26963,196.93459
"60299",815.74805,70.45762,196.8185
"60300",815.76135,70.608986,196.67166
"60301",815.77466,70.71885,196.48805
"60302",815.78796,70.78966,196.26883
"60303",815.8013,70.82384,196.01518
"60304",815.8146,70.82384,195.72842
"60305",815.8279,70.801865,195.4197
"60306",815.8412,70.7628,195.09319
"60307",815.8545,70.71641,194.75813
"60308",815.8678,70.67979,194.4314
"60309",815.8811,70.6627,194.12305
"60310",815.8944,70.674904,193.84346
"60311",815.9077,70.72373,193.60088
"60312",815.921,70.801865,193.38913
"60313",815.9343,70.89464,193.19446
"60314",815.94763,70.98741,193.00269
"60315",815.96094,71.05577,192.7894
"60316",815.97424,71.09972,192.55383
"60317",815.98755,71.1461,192.32208
"60318",816.00085,71.33654,192.23584
"60319",816.01416,72.007935,192.6365
"60320",816.02747,73.64126,194.02008
"60321",816.0408,76.66132,196.84143
"60322",816.0541,81.20241,201.27818
"60323",816.0674,87.02525,207.13861
"60324",816.0807,93.51461,213.8475
"60325",816.094,99.83063,220.58585
"60326",816.1073,105.15785,226.53278
"60327",816.1206,108.95186,231.11296
"60328",816.1339,111.00755,234.0734
"60329",816.1472,111.378654,235.41348
"60330",816.1605,110.2971,235.3125
"60331",816.1738,108.10712,234.0693
"60332",816.18713,105.19447,232.035
"60333",816.20044,101.93515,229.563
"60334",816.21375,98.64408,226.95741
"60335",816.22705,95.5581,224.45406
"60336",816.24036,92.79439,222.17654
"60337",816.25366,90.3798,220.16177
"60338",816.26697,88.26795,218.3743
"60339",816.2803,86.41001,216.77473
"60340",816.2936,84.79622,215.36125
"60341",816.3069,83.46075,214.17566
"60342",816.3202,82.46952,213.29259
"60343",816.3335,81.85916,212.7594
"60344",816.3468,81.619896,212.57823
"60345",816.3601,81.67605,212.68501
"60346",816.3734,81.90799,212.96933
"60347",816.3867,82.1741,213.29507
"60348",816.4,82.36454,213.55345
"60349",816.4133,82.37919,213.642
"60350",816.42664,82.14969,213.48685
"60351",816.43994,81.634544,213.03888
"60352",816.45325,80.84352,212.29893
"60353",816.46655,79.80835,211.29013
"60354",816.47986,78.59495,210.07074
"60355",816.49316,77.27413,208.70601
"60356",816.5065,75.91913,207.26582
"60357",816.5198,74.58854,205.80771
"60358",816.5331,73.33364,204.3837
"60359",816.5464,72.198364,203.0401
"60360",816.5597,71.19493,201.79286
"60361",816.573,70.347755,200.67053
"60362",816.5863,69.66659,199.68773
"60363",816.5996,69.15144,198.84967
"60364",816.6129,68.80232,198.16153
"60365",816.6262,68.607,197.61629
"60366",816.6395,68.55085,197.2041
"60367",816.65283,68.607,196.90247
"60368",816.66614,68.755936,196.69537
"60369",816.67944,68.96834,196.5564
"60370",816.69275,69.23201,196.47533
"60371",816.70605,69.52743,196.43425
"60372",816.71936,69.837494,196.41705
"60373",816.73267,70.14755,196.40953
"60374",816.746,70.44785,196.40195
"60375",816.7593,70.72617,196.38176
"60376",816.7726,70.97032,196.3361
"60377",816.7859,71.17784,196.26144
"60378",816.7992,71.343864,196.15178
"60379",816.8125,71.46105,195.99846
"60380",816.8258,71.52941,195.79997
"60381",816.8391,71.553825,195.55968
"60382",816.8524,71.54894,195.29085
"60383",816.8657,71.52209,194.9999
"60384",816.879,71.483025,194.69589
"60385",816.89233,71.44152,194.38823
"60386",816.90564,71.40246,194.08171
"60387",816.91895,71.35851,193.76909
"60388",816.93225,71.29748,193.438
"60389",816.94556,71.20958,193.07816
"60390",816.95886,71.09483,192.6887
"60391",816.97217,70.98741,192.303
"60392",816.9855,70.99962,192.03355
"60393",816.9988,71.41955,192.17223
"60394",817.0121,72.7013,193.18584
"60395",817.0254,75.26971,195.52615
"60396",817.0387,79.31518,199.4238
"60397",817.052,84.65705,204.74426
"60398",817.0653,90.76311,210.99585
"60399",817.0786,96.8423,217.41139
"60400",817.0919,102.09628,223.1917
"60401",817.1052,105.96109,227.74701
"60402",817.1185,108.192566,230.78976
"60403",817.13184,108.81758,232.29579
"60404",817.14514,108.02655,232.4053
"60405",817.15845,106.10025,231.35483
"60406",817.17175,103.380486,229.4507
"60407",817.18506,100.209045,227.0099
"60408",817.19836,96.903336,224.33572
"60409",817.2117,93.68795,221.64856
"60410",817.225,90.71183,219.10019
"60411",817.2383,88.02869,216.75179
"60412",817.2516,85.64095,214.61494
"60413",817.2649,83.55108,212.70135
"60414",817.2782,81.795685,211.05693
"60415",817.2915,80.43824,209.7556
"60416",817.3048,79.54223,208.87329
"60417",817.3181,79.14427,208.46103
"60418",817.3314,79.20531,208.49532
"60419",817.3447,79.61547,208.88065
"60420",817.35803,80.22095,209.4741
"60421",817.37134,80.86061,210.12067
"60422",817.38464,81.3904,210.67735
"60423",817.39795,81.69802,211.02843
"60424",817.41125,81.71023,211.0937
"60425",817.42456,81.392845,210.82977
"60426",817.43787,80.762955,210.24341
"60427",817.4512,79.86694,209.37125
"60428",817.4645,78.77074,208.27087
"60429",817.4778,77.54757,207.0093
"60430",817.5177,73.80972,202.92204
"60431",817.531,72.7306,201.64948
"60432",817.5443,71.79553,200.48724
"60433",817.5576,71.01427,199.44958
"60434",817.5709,70.37705,198.53157
"60435",817.5842,69.87167,197.72548
"60436",817.59753,69.488365,197.02567
"60437",817.61084,69.21736,196.42618
"60438",817.62415,69.05623,195.92809
"60439",817.63745,69.00252,195.53238
"60440",817.65076,69.051346,195.23753
"60441",817.66406,69.19539,195.03943
"60442",817.67737,69.42489,194.93129
"60443",817.6907,69.71786,194.89378
"60444",817.704,70.05966,194.91428
"60445",817.7173,70.42832,194.9723
"60446",817.7306,70.801865,195.04674
"60447",817.7439,71.16075,195.11818
"60448",817.7572,71.48058,195.16179
"60449",817.7705,71.744255,195.15923
"60450",817.7838,71.939575,195.09656
"60451",817.7971,72.06897,194.97406
"60452",817.8104,72.149536,194.80678
"60453",817.8237,72.19104,194.60295
"60454",817.83704,72.198364,194.36624
"60455",817.85034,72.16907,194.09314
"60456",817.86365,72.0885,193.76785
"60457",817.87695,71.94446,193.37657
"60458",817.89026,71.744255,192.92464
"60459",817.90356,71.553825,192.47621
"60460",817.9169,71.553825,192.21227
"60461",817.9302,72.1178,192.5123
"60462",817.9435,73.71206,193.86024
"60463",817.9568,76.6833,196.63498
"60464",817.9701,81.07057,200.91861
"60465",817.9834,86.55894,206.44043
"60466",817.9967,92.508736,212.5952
"60467",818.01,98.11673,218.59409
"60468",818.0233,102.67979,223.7233
"60469",818.0366,105.780426,227.53268
"60470",818.0499,107.31121,229.86911
"60471",818.06323,107.38445,230.79582
"60472",818.07654,106.232086,230.49922
"60473",818.08984,104.16174,229.24863
"60474",818.10315,101.50301,227.34496
"60475",818.11646,98.546425,225.06033
"60476",818.12976,95.516594,222.61008
"60477",818.14307,92.57954,220.15791
"60478",818.1564,89.82071,217.79219
"60479",818.1697,87.28161,215.55998
"60480",818.183,84.998856,213.50478
"60481",818.1963,83.03105,211.69319
"60482",818.2096,81.46853,210.22539
"60483",818.2229,80.4065,209.20926
"60484",818.2362,79.91089,208.72635
"60485",818.2495,79.974365,208.78705
"60486",818.2628,80.5066,209.31848
"60487",818.2761,81.33425,210.16197
"60488",818.2894,82.262,211.13142
"60489",818.30273,83.09209,212.0322
"60490",818.31604,83.665825,212.70256
"60491",818.32935,83.87579,213.02708
"60492",818.34265,83.68047,212.95288
"60493",818.35596,83.089645,212.47707
"60494",818.36926,82.16434,211.64832
"60495",818.38257,80.98512,210.53674
"60496",818.3959,79.64477,209.22717
"60497",818.4092,78.22629,207.79759
"60498",818.4225,76.81514,206.33101
"60499",818.4358,75.4699,204.88625
"60500",818.4491,74.23697,203.51175
"60501",818.4624,73.14809,202.24277
"60502",818.4757,72.20813,201.08868
"60503",818.489,71.41711,200.05417
"60504",818.5023,70.76524,199.1341
"60505",818.5156,70.240326,198.32059
"60506",818.52893,69.839935,197.6152
"60507",818.54224,69.56161,197.01938
"60508",818.55554,69.39803,196.5296
"60509",818.56885,69.337,196.13725
"60510",818.58215,69.38094,195.84798
"60511",818.59546,69.5201,195.65529
"60512",818.60876,69.74471,195.5524
"60513",818.6221,70.0499,195.53711
"60514",818.6354,70.42344,195.59972
"60515",818.6487,70.838486,195.7155
"60516",818.662,71.26574,195.85646
"60517",818.6753,71.67101,195.98878
"60518",818.6886,72.0177,196.0752
"60519",818.7019,72.26917,196.07722
"60520",818.7152,72.40589,195.97235
"60521",818.7285,72.430305,195.75945
"60522",818.7418,72.36927,195.46185
"60523",818.7551,72.25941,195.11353
"60524",818.76843,72.13733,194.74956
"60525",818.78174,72.044556,194.41107
"60526",818.79504,72.05432,194.17223
"60527",818.80835,72.35462,194.22423
"60528",818.82166,73.287254,194.91794
"60529",818.83496,75.264824,196.68573
"60530",818.84827,78.551,199.82393
"60531",818.8616,83.123825,204.35147
"60532",818.8749,88.60731,209.93257
"60533",818.8882,94.35447,215.94872
"60534",818.9015,99.615776,221.6586
"60535",818.9148,103.78577,226.44159
"60536",818.9281,106.52506,229.9242
"60537",818.9414,107.76288,231.99092
"60538",818.9547,107.60418,232.69981
"60539",818.968,106.26627,232.22453
"60540",818.9813,104.02991,230.80899
"60541",818.9946,101.19539,228.7254
"60542",819.00793,98.058136,226.2505
"60543",819.02124,94.86229,223.61897
"60544",819.03455,91.78119,221.00232
"60545",819.04785,88.91005,218.49934
"60546",819.06116,86.30259,216.17032
"60547",819.07446,84.01251,214.0772
"60548",819.08777,82.11795,212.30803
"60549",819.1011,80.69703,210.9533
"60550",819.1144,79.83032,210.10837
"60551",819.1277,79.55932,209.83206
"60552",819.141,79.84985,210.10883
"60553",819.1543,80.58228,210.83656
"60554",819.1676,81.5906,211.86308
"60555",819.1809,82.686806,213.009
"60556",819.1942,83.67071,214.07687
"60557",819.2075,84.39338,214.91426
"60558",819.2208,84.749825,215.408
"60559",819.23413,84.70344,215.51006
"60560",819.24744,84.27375,215.22736
"60561",819.26074,83.529106,214.61627
"60562",819.27405,82.55009,213.74754
"60563",819.28735,81.40505,212.6822
"60564",819.30066,80.12329,211.44435
"60565",819.31396,78.74143,210.06635
"60566",819.3273,77.30099,208.58656
"60567",819.3406,75.85077,207.052
"60568",819.3539,74.44694,205.51851
"60569",819.3672,73.14809,204.04613
"60570",819.3805,72.00061,202.68452
"60571",819.3938,71.026474,201.4604
"60572",819.4071,70.24765,200.40115
"60573",819.4204,69.66903,199.51778
"60574",819.4337,69.28817,198.81407
"60575",819.447,69.09041,198.28157
"60576",819.4603,69.05867,197.9089
"60577",819.47363,69.16121,197.66953
"60578",819.48694,69.35897,197.52858
"60579",819.50024,69.625084,197.46216
"60580",819.51355,69.927826,197.44069
"60581",819.52686,70.25498,197.4531
"60582",819.54016,70.57725,197.47083
"60583",819.55347,70.87511,197.47423
"60584",819.5668,71.11925,197.43321
"60585",819.5801,71.29992,197.33636
"60586",819.5934,71.40734,197.1719
"60587",819.6067,71.44152,196.93756
"60588",819.62,71.40734,196.63593
"60589",819.6333,71.33898,196.29904
"60590",819.6466,71.28283,195.97223
"60591",819.6599,71.360954,195.77794
"60592",819.6732,71.8761,196.02312
"60593",819.6865,73.26772,197.16087
"60594",819.6998,75.90448,199.58725
"60595",819.71313,79.888916,203.4437
"60596",819.72644,84.98421,208.53552
"60597",819.73975,90.63615,214.34322
"60598",819.75305,96.08789,220.12733
"60599",819.76636,100.61921,225.1614
"60600",819.77966,103.77112,228.95767
"60601",819.79297,105.38491,231.31432
"60602",819.8063,105.52407,232.24675
"60603",819.8196,104.393684,231.91399
"60604",819.8329,102.296486,230.57909
"60605",819.8462,99.57671,228.55608
"60606",819.8595,96.57374,226.16487
"60607",819.8728,93.575645,223.68471
"60608",819.8861,90.775314,221.30861
"60609",819.8994,88.27039,219.14041
"60610",819.9127,86.07797,217.20644
"60611",819.926,84.17609,215.49449
"60612",819.93933,82.54276,213.99167
"60613",819.95264,81.20729,212.73566
"60614",819.96594,80.22339,211.78949
"60615",819.97925,79.65209,211.22517
"60616",819.99255,79.500725,211.06293
"60617",820.00586,79.70336,211.24995
"60618",820.01917,80.14038,211.6777
"60619",820.0325,80.65308,212.1948
"60620",820.0458,81.094986,212.6571
"60621",820.0591,81.34646,212.9428
"60622",820.0724,81.339134,212.97755
"60623",820.0857,81.041275,212.72154
"60624",820.099,80.47242,212.18523
"60625",820.1123,79.66186,211.38943
"60626",820.1256,78.658424,210.37543
"60627",820.1389,77.52071,209.19579
"60628",820.1522,76.29511,207.8927
"60629",820.1655,75.020676,206.50249
"60630",820.17883,73.73647,205.06268
"60631",820.19214,72.49622,203.6267
"60632",820.20544,71.343864,202.23984
"60633",820.21875,70.33799,200.96346
"60634",820.23206,69.539635,199.86316
"60635",820.24536,68.98299,198.97963
"60636",820.25867,68.6778,198.33017
"60637",820.272,68.59968,197.89822
"60638",820.2853,68.70466,197.64694
"60639",820.2986,68.926834,197.51614
"60640",820.3119,69.205154,197.44843
"60641",820.3252,69.48348,197.38942
"60642",820.3385,69.730064,197.30736
"60643",820.3518,69.9205,197.17686
"60644",820.3651,70.0621,197.00348
"60645",820.3784,70.17685,196.80766
"60646",820.3917,70.28184,196.60568
"60647",820.405,70.40391,196.42406
"60648",820.41833,70.54795,196.26822
"60649",820.43164,70.711525,196.13641
"60650",820.44495,70.87755,196.01218
"60651",820.45825,71.01915,195.8687
"60652",820.47156,71.10704,195.67593
"60653",820.48486,71.11925,195.41023
"60654",820.49817,71.05821,195.07167
"60655",820.5115,71.009384,194.74341
"60656",820.5248,71.258415,194.71149
"60657",820.5381,72.26429,195.44418
"60658",820.5514,74.48844,197.42659
"60659",820.5647,78.17258,200.93849
"60660",820.578,83.18974,205.89854
"60661",820.5913,89.04677,211.85526
"60662",820.6046,94.977036,218.06824
"60663",820.6179,100.174866,223.7341
"60664",820.6312,104.03235,228.22205
"60665",820.64453,106.27848,231.2192
"60666",820.65784,106.90105,232.66296
"60667",820.67114,106.090485,232.69305
"60668",820.68445,104.14221,231.5601
"60669",820.69775,101.42489,229.59723
"60670",820.71106,98.304726,227.14659
"60671",820.72437,95.10399,224.51788
"60672",820.7377,92.04486,221.93076
"60673",820.751,89.2665,219.5288
"60674",820.7643,86.7982,217.35007
"60675",820.7776,84.62531,215.38962
"60676",820.7909,82.72587,213.63472
"60677",820.8042,81.11452,212.10855
"60678",820.8175,79.84253,210.8714
"60679",820.8308,78.96849,209.99243
"60680",820.8441,78.52415,209.51585
"60681",820.8574,78.467995,209.41357
"60682",820.8707,78.695045,209.59274
"60683",820.88403,79.0515,209.90842
"60684",820.89734,79.398186,210.22546
"60685",820.91064,79.61059,210.41905
"60686",820.92395,79.61547,210.41176
"60687",820.93726,79.37133,210.1556
"60688",820.95056,78.870834,209.63545
"60689",820.96387,78.1384,208.86772
"60690",820.9772,77.21309,207.88423
"60691",820.9905,76.16083,206.74487
"60692",821.0038,75.035324,205.49939
"60693",821.0171,73.89761,204.20653
"60694",821.0304,72.80141,202.91962
"60695",821.0437,71.79309,201.68634
"60696",821.057,70.9044,200.54118
"60697",821.0703,70.16708,199.51962
"60698",821.0836,69.58602,198.63129
"60699",821.0969,69.16121,197.88104
"60700",821.1102,68.858475,197.2396
"60701",821.12354,68.66071,196.69366
"60702",821.13684,68.53132,196.20992
"60703",821.15015,68.455635,195.77583
"60704",821.16345,68.436104,195.39554
"60705",821.17676,68.48737,195.08543
"60706",821.19006,68.61921,194.8575
"60707",821.20337,68.83406,194.7167
"60708",821.2167,69.11726,194.65097
"60709",821.23,69.44442,194.63805
"60710",821.2433,69.80087,194.66464
"60711",821.2566,70.17685,194.7219
"60712",821.2699,70.56016,194.79823
"60713",821.2832,70.93858,194.88167
"60714",821.2965,71.26818,194.9281
"60715",821.3098,71.49767,194.88472
"60716",821.3231,71.58312,194.70447
"60717",821.3364,71.54162,194.39993
"60718",821.34973,71.56603,194.16002
"60719",821.36304,72.05432,194.38475
"60720",821.37634,73.52163,195.60376
"60721",821.38965,76.37324,198.25291
"60722",821.40295,80.69947,202.4658
"60723",821.41626,86.19028,207.97847
"60724",821.42957,92.18646,214.1681
"60725",821.4429,97.84329,220.20576
"60726",821.4562,102.399025,225.31909
"60727",821.4695,105.38491,229.00494
"60728",821.4828,106.65446,231.06776
"60729",821.4961,106.29557,231.54182
"60730",821.5094,104.58167,230.64966
"60731",821.5227,101.89609,228.73225
"60732",821.536,98.67582,226.19624
"60733",821.5493,95.32128,223.42532
"60734",821.5626,92.1474,220.73022
"60735",821.5759,89.34463,218.30705
"60736",821.58923,86.96666,216.2211
"60737",821.60254,84.95491,214.42706
"60738",821.61584,83.243454,212.87045
"60739",821.62915,81.79813,211.52649
"60740",821.64246,80.65308,210.43764
"60741",821.65576,79.87915,209.68411
"60742",821.66907,79.537346,209.33853
"60743",821.6824,79.61547,209.40219
"60744",821.6957,80.045166,209.81987
"60745",821.709,80.689705,210.46582
"60746",821.7223,81.392845,211.19052
"60747",821.7356,82.01297,211.85417
"60748",821.7489,82.44999,212.3541
"60749",821.7622,82.62089,212.60156
"60750",821.7755,82.5037,212.56628
"60751",821.7888,82.108185,212.24901
"60752",821.8021,81.478294,211.685
"60753",821.8154,80.66773,210.92064
"60754",821.82874,79.72045,209.99423
"60755",821.84204,78.67307,208.93811
"60756",821.85535,77.55245,207.77602
"60757",821.86865,76.39277,206.53984
"60758",821.88196,75.245285,205.27963
"60759",821.89526,74.178375,204.06413
"60760",821.90857,73.25796,202.96179
"60761",821.9219,72.532845,202.02599
"60762",821.9352,72.03235,201.29214
"60763",821.9485,71.75891,200.76971
"60764",821.9618,71.68566,200.43893
"60765",821.9751,71.766235,200.25969
"60766",821.9884,71.95178,200.18793
"60767",822.0017,72.198364,200.183
"60768",822.015,72.46937,200.2102
"60769",822.0283,72.740364,200.24586
"60770",822.0416,72.99672,200.27536
"60771",822.05493,73.231094,200.29088
"60772",822.06824,73.41909,200.26735
"60773",822.08154,73.55093,200.19353
"60774",822.09485,73.61196,200.05302
"60775",822.10815,73.57778,199.81921
"60776",822.12146,73.426414,199.46715
"60777",822.13477,73.16029,198.9956
"60778",822.1481,72.80385,198.42542
"60779",822.1614,72.44007,197.83676
"60780",822.1747,72.31556,197.476
"60781",822.188,72.84047,197.76077
"60782",822.2013,74.46891,199.16548
"60783",822.2146,77.471886,201.9956
"60784",822.2279,81.80789,206.25261
"60785",822.2412,87.064316,211.56554
"60786",822.2545,92.53559,217.25757
"60787",822.2678,97.42336,222.53708
"60788",822.2811,101.07088,226.72906
"60789",822.29443,103.12901,229.44566
"60790",822.30774,103.54162,230.58105
"60791",822.32104,102.48203,230.25714
"60792",822.33435,100.262764,228.74043
"60793",822.34766,97.2842,226.39508
"60794",822.36096,93.95407,223.60507
"60795",822.37427,90.63859,220.72565
"60796",822.3876,87.589226,218.00874
"60797",822.4009,84.94026,215.59694
"60798",822.4142,82.7161,213.52716
"60799",822.4275,80.87526,211.7712
"60800",822.4408,79.37377,210.29706
"60801",822.4541,78.20676,209.11047
"60802",822.4674,77.40597,208.25365
"60803",822.4807,77.01289,207.77951
"60804",822.494,77.032425,207.70569
"60805",822.5073,77.41085,207.99138
"60806",822.5206,78.03342,208.53304
"60807",822.53394,78.75365,209.1918
"60808",822.54724,79.42504,209.82425
"60809",822.56055,79.92554,210.30678
"60810",822.57385,80.164795,210.5437
"60811",822.58716,80.08667,210.47073
"60812",822.60046,79.674065,210.06084
"60813",822.6138,78.95628,209.33287
"60814",822.6271,77.98947,208.33344
"60815",822.6404,76.84932,207.13045
"60816",822.6537,75.60906,205.79173
"60817",822.667,74.34196,204.3874
"60818",822.6803,73.09682,202.96545
"60819",822.6936,71.920044,201.57295
"60820",822.7069,70.84825,200.24866
"60821",822.7202,69.90097,199.01538
"60822",822.7335,69.102615,197.90143
"60823",822.7468,68.4654,196.92368
"60824",822.76013,67.98688,196.0847
"60825",822.77344,67.66216,195.38458
"60826",822.78674,67.476616,194.81348
"60827",822.80005,67.42046,194.36597
"60828",822.81335,67.491264,194.04366
"60829",822.82666,67.68902,193.85051
"60830",822.83997,68.016174,193.79295
"60831",822.8533,68.44831,193.8506
"60832",822.8666,68.95857,193.99988
"60833",822.8799,69.505455,194.20172
"60834",822.8932,70.04257,194.41089
"60835",822.9065,70.52598,194.58313
"60836",822.9198,70.92149,194.68259
"60837",822.9331,71.19737,194.67476
"60838",822.9464,71.33898,194.54129
"60839",822.9597,71.36828,194.29993
"60840",822.973,71.36828,194.03018
"60841",822.9863,71.56359,193.95575
"60842",822.99963,72.33997,194.46849
"60843",823.01294,74.12222,196.01137
"60844",823.02625,77.16426,198.86972
"60845",823.03955,81.409935,203.02678
"60846",823.05286,86.48814,208.14905
"60847",823.06616,91.74944,213.61311
"60848",823.07947,96.46632,218.69716
"60849",823.0928,100.065,222.81042
"60850",823.1061,102.240326,225.61278
"60851",823.1194,102.95567,227.02313
"60852",823.1327,102.3502,227.13503
"60853",823.146,100.67536,226.15863
"60854",823.1593,98.24368,224.37306
"60855",823.1726,95.39452,222.09402
"60856",823.1859,92.437935,219.61852
"60857",823.1992,89.63027,217.19954
"60858",823.2125,87.12779,214.998
"60859",823.2258,84.996414,213.08937
"60860",823.23914,83.23125,211.48035
"60861",823.25244,81.812775,210.16286
"60862",823.26575,80.726326,209.13306
"60863",823.27905,79.96948,208.39891
"60864",823.29236,79.53979,207.96826
"60865",823.30566,79.40551,207.8196
"60866",823.319,79.500725,207.89622
"60867",823.3323,79.725334,208.10522
"60868",823.3456,79.96704,208.33835
"60869",823.3589,80.15015,208.52042
"60870",823.3722,80.22095,208.59592
"60871",823.3855,80.15747,208.53934
"60872",823.3988,79.94263,208.3294
"60873",823.4121,79.569084,207.95407
"60874",823.4254,79.03441,207.40593
"60875",823.4387,78.35081,206.69215
"60876",823.452,77.5256,205.8154
"60877",823.46533,76.58808,204.80055
"60878",823.47864,75.579765,203.68561
"60879",823.49194,74.547035,202.51474
"60880",823.50525,73.53628,201.33357
"60881",823.51855,72.59876,200.19406
"60882",823.53186,71.77112,199.13513
"60883",823.54517,71.07774,198.1846
"60884",823.5585,70.53086,197.3589
"60885",823.5718,70.13046,196.6626
"60886",823.5851,69.86679,196.0905
"60887",823.5984,69.73983,195.64688
"60888",823.6117,69.74227,195.32869
"60889",823.625,69.86191,195.12778
"60890",823.6383,70.08896,195.03801
"60891",823.6516,70.40147,195.0408
"60892",823.6649,70.7628,195.10219
"60893",823.6782,71.131454,195.18217
"60894",823.6915,71.48058,195.25417
"60895",823.70483,71.78088,195.28824
"60896",823.71814,72.00061,195.25111
"60897",823.73145,72.112915,195.11343
"60898",823.74475,72.12024,194.87428
"60899",823.75806,72.06653,194.57433
"60900",823.77136,72.12268,194.38255
"60901",823.78467,72.62562,194.63933
"60902",823.798,73.97574,195.759
"60903",823.8113,76.43427,198.02928
"60904",823.8246,79.96948,201.45306
"60905",823.8379,84.24933,205.73196
"60906",823.8512,88.6952,210.31062
"60907",823.8645,92.66987,214.55702
"60908",823.8778,95.66796,217.95105
"60909",823.8911,97.462425,220.23514
"60910",823.9044,98.06302,221.38144
"60911",823.9177,97.60891,221.49179
"60912",823.931,96.30274,220.7359
"60913",823.94434,94.37644,219.31906
"60914",823.95764,92.06439,217.45627
"60915",823.97095,89.58144,215.35033
"60916",823.98425,87.09117,213.15947
"60917",823.99756,84.701,210.99089
"60918",824.01086,82.46464,208.90144
"60919",824.0242,80.428474,206.9423
"60920",824.0375,78.65598,205.18321
"60921",824.0508,77.24727,203.7325
"60922",824.0641,76.317085,202.7163
"60923",824.0774,75.95575,202.23987
"60924",824.0907,76.16815,202.32588
"60925",824.104,76.87862,202.9166
"60926",824.1173,77.92355,203.86398
"60927",824.1306,79.10033,204.97586
"60928",824.1439,80.22095,206.06836
"60929",824.1572,81.13405,206.98837
"60930",824.17053,81.74685,207.63661
"60931",824.18384,82.005646,207.95
"60932",824.19714,81.91531,207.92235
"60933",824.21045,81.50027,207.56715
"60934",824.22375,80.82155,206.93532
"60935",824.23706,79.9353,206.07475
"60936",824.25037,78.907455,205.04489
"60937",824.2637,77.79172,203.895
"60938",824.277,76.64423,202.67851
"60939",824.2903,75.51385,201.44325
"60940",824.3036,74.44694,200.23615
"60941",824.3169,73.48257,199.09824
"60942",824.3302,72.65003,198.06203
"60943",824.3435,71.96643,197.14874
"60944",824.3568,71.43908,196.37035
"60945",824.3701,71.06554,195.72928
"60946",824.3834,70.82384,195.20837
"60947",824.3967,70.69932,194.7971
"60948",824.41003,70.6627,194.46983
"60949",824.42334,70.68955,194.2049
"60950",824.43665,70.745705,193.9701
"60951",824.44995,70.81163,193.74683
"60952",824.46326,70.887314,193.53537
"60953",824.47656,71.05577,193.41905
"60954",824.48987,71.52453,193.6083
"60955",824.5032,72.637825,194.45674
"60956",824.5165,74.71061,196.29945
"60957",824.5298,77.86496,199.28851
"60958",824.5431,81.92996,203.28679
"60959",824.5564,86.47593,207.89307
"60960",824.5697,90.90715,212.52666
"60961",824.583,94.63767,216.59802
"60962",824.5963,97.2842,219.70198
"60963",824.6096,98.70756,221.66547
"60964",824.6229,98.951706,222.49423
"60965",824.6362,98.160675,222.29544
"60966",824.64954,96.54688,221.24918
"60967",824.66284,94.347145,219.56653
"60968",824.67615,91.808044,217.47577
"60969",824.68945,89.15419,215.19092
"60970",824.70276,86.54429,212.86708
"60971",824.71606,84.07599,210.60329
"60972",824.7294,81.79813,208.4528
"60973",824.7427,79.74731,206.45818
"60974",824.756,77.994354,204.69733
"60975",824.7693,76.64912,203.28941
"60976",824.7826,75.82147,202.35706
"60977",824.7959,75.58221,201.98721
"60978",824.8092,75.93866,202.20561
"60979",824.8225,76.79317,202.9332
"60980",824.8358,77.97482,204.01463
"60981",824.8491,79.273674,205.2502
"60982",824.8624,80.49439,206.44821
"60983",824.87573,81.48318,207.45245
"60984",824.88904,82.127716,208.14334
"60985",824.90234,82.38163,208.46375
"60986",824.91565,82.2449,208.40144
"60987",824.92896,81.77127,207.99797
"60988",824.94226,81.03151,207.31357
"60989",824.95557,80.10132,206.41562
"60990",824.9689,79.04906,205.36652
"60991",824.9822,77.9382,204.22594
"60992",824.9955,76.82002,203.04332
"60993",825.0088,75.72869,201.85262
"60994",825.0221,74.70817,200.69861
"60995",825.0354,73.79019,199.61526
"60996",825.0487,73.00404,198.63506
"60997",825.062,72.36927,197.78166
"60998",825.0753,71.888306,197.06224
"60999",825.0886,71.54894,196.46939
"61000",825.1019,71.33166,195.988
"61001",825.11523,71.19493,195.5804
"61002",825.12854,71.11192,195.22223
"61003",825.14185,71.116806,194.94936
"61004",825.15515,71.378044,194.933
"61005",825.16846,72.23987,195.52539
"61006",825.18176,74.09537,197.13838
"61007",825.19507,77.18135,200.03984
"61008",825.2084,81.43435,204.20476
"61009",825.2217,86.47105,209.28629
"61010",825.235,91.65423,214.67169
"61011",825.2483,96.28565,219.66731
"61012",825.2616,99.82086,223.71146
"61013",825.2749,101.996185,226.50618
"61014",825.2882,102.77745,227.97482
"61015",825.3015,102.2916,228.20078
"61016",825.3148,100.76326,227.36905
"61017",825.3281,98.460976,225.71562
"61018",825.34143,95.67773,223.50928
"61019",825.35474,92.68452,221.006
"61020",825.36804,89.705956,218.42383
"61021",825.38135,86.88609,215.90727
"61022",825.39465,84.29572,213.53209
"61023",825.40796,81.97879,211.3494
"61024",825.42126,79.971924,209.40437
"61025",825.4346,78.348366,207.77994
"61026",825.4479,77.188675,206.56863
"61027",825.4612,76.57343,205.86554
"61028",825.4745,76.524605,205.70963
"61029",825.4878,76.98848,206.0649
"61030",825.5011,77.83078,206.81308
"61031",825.5144,78.86351,207.77802
"61032",825.5277,79.906006,208.78499
"61033",825.541,80.78981,209.66586
"61034",825.5543,81.392845,210.29358
"61035",825.5676,81.63943,210.5837
"61036",825.58093,81.50515,210.50066
"61037",825.59424,81.00954,210.05208
"61038",825.60754,80.2063,209.2804
"61039",825.62085,79.17601,208.25656
"61040",825.63416,77.99924,207.05403
"61041",825.64746,76.74677,205.73904
"61042",825.66077,75.48455,204.37515
"61043",825.6741,74.268715,203.0182
"61044",825.6874,73.131,201.70139
"61045",825.7007,72.10315,200.45888
"61046",825.714,71.2047,199.31364
"61047",825.7273,70.44053,198.27463
"61048",825.7406,69.79843,197.3338
"61049",825.7539,69.26864,196.48521
"61050",825.7672,68.82674,195.70796
"61051",825.7805,68.4654,194.99747
"61052",825.7938,68.24078,194.4124
"61053",825.8071,68.37507,194.17921
"61054",825.82043,69.25643,194.6973
"61055",825.83374,71.27795,196.38307
"61056",825.84705,74.63004,199.4626
"61057",825.86035,79.19798,203.86273
"61058",825.87366,84.5301,209.16978
"61059",825.88696,89.94766,214.72891
"61060",825.90027,94.73533,219.82744
"61061",825.9136,98.36088,223.91347
"61062",825.9269,100.58747,226.71384
"61063",825.9402,101.400475,228.1702
"61064",825.9535,100.93172,228.37021
"61065",825.9668,99.42046,227.51308
"61066",825.9801,97.15968,225.85919
"61067",825.9934,94.45945,223.69519
"61068",826.0067,91.595634,221.28323
"61069",826.02,88.780655,218.83061
"61070",826.0333,86.14389,216.46825
"61071",826.04663,83.73907,214.25542
"61072",826.05994,81.57595,212.20915
"61073",826.07324,79.674065,210.35652
"61074",826.08655,78.09445,208.76672
"61075",826.09985,76.93233,207.54504
"61076",826.11316,76.263374,206.78023
"61077",826.12646,76.13153,206.53162
"61078",826.1398,76.49287,206.77206
"61079",826.1531,77.225296,207.3949
"61080",826.1664,78.153046,208.23593
"61081",826.1797,79.093,209.11816
"61082",826.193,79.8938,209.89061
"61083",826.2063,80.428474,210.42197
"61084",826.2196,80.62379,210.63068
"61085",826.2329,80.45045,210.47684
"61086",826.2462,79.923096,209.96356
"61087",826.2595,79.09544,209.13351
"61088",826.2728,78.05051,208.0603
"61089",826.28613,76.86641,206.81528
"61090",826.29944,75.62615,205.4771
"61091",826.31274,74.39811,204.11237
"61092",826.32605,73.23598,202.77518
"61093",826.33936,72.17639,201.50421
"61094",826.35266,71.2462,200.32953
"61095",826.36597,70.467384,199.27716
"61096",826.3793,69.8497,198.36159
"61097",826.3926,69.38827,197.58296
"61098",826.4059,69.07088,196.93396
"61099",826.4192,68.87312,196.39467
"61100",826.4325,68.75838,195.9322
"61101",826.4458,68.733955,195.55649
"61102",826.4591,68.91951,195.38998
"61103",826.4724,69.63729,195.7615
"61104",826.4857,71.32189,197.12227
"61105",826.499,74.3151,199.84428
"61106",826.5123,78.677956,204.02948
"61107",826.52563,84.11749,209.4277
"61108",826.53894,90.023346,215.46223
"61109",826.55225,95.61425,221.36636
"61110",826.56555,100.17975,226.4198
"61111",826.57886,103.29015,230.16083
"61112",826.59216,104.8185,232.41699
"61113",826.60547,104.84535,233.21942
"61114",826.6188,103.59777,232.74826
"61115",826.6321,101.400475,231.28839
"61116",826.6454,98.617226,229.1739
"61117",826.6587,95.589836,226.7283
"61118",826.672,92.60639,224.23204
"61119",826.6853,89.84024,221.85983
"61120",826.6986,87.37194,219.69904
"61121",826.7119,85.19417,217.75163
"61122",826.7252,83.2752,215.99498
"61123",826.7385,81.59548,214.41762
"61124",826.75183,80.19165,213.06364
"61125",826.76514,79.13451,212.01248
"61126",826.77844,78.4802,211.33113
"61127",826.79175,78.24338,211.04681
"61128",826.80505,78.37034,211.11888
"61129",826.81836,78.74143,211.43904
"61130",826.83167,79.219955,211.87823
"61131",826.845,79.66918,212.30309
"61132",826.8583,79.974365,212.59793
"61133",826.8716,80.04761,212.67038
"61134",826.8849,79.83765,212.46191
"61135",826.8982,79.31762,211.93681
"61136",826.9115,78.51682,211.11469
"61137",826.9248,77.49142,210.04292
"61138",826.9381,76.317085,208.79019
"61139",826.9514,75.06706,207.42508
"61140",826.9647,73.80972,206.01358
"61141",826.978,72.601204,204.61162
"61142",826.99133,71.483025,203.26222
"61143",827.00464,70.484474,201.99751
"61144",827.01794,69.62997,200.84564
"61145",827.03125,68.93416,199.82578
"61146",827.04456,68.41413,198.95995
"61147",827.05786,68.06012,198.24388
"61148",827.07117,67.862366,197.673
"61149",827.0845,67.80621,197.23755
"61150",827.0978,67.87457,196.92485
"61151",827.1111,68.04547,196.71683
"61152",827.1244,68.30183,196.59961
"61153",827.1377,68.61677,196.54898
"61154",827.151,68.95857,196.53506
"61155",827.1643,69.29305,196.5245
"61156",827.1776,69.5787,196.47556
"61157",827.1909,69.79111,196.3623
"61158",827.2042,69.944916,196.19708
"61159",827.2175,70.17929,196.11723
"61160",827.23083,70.8629,196.49394
"61161",827.24414,72.49134,197.83685
"61162",827.25745,75.45281,200.56367
"61163",827.27075,79.84741,204.81618
"61164",827.28406,85.40658,210.37057
"61165",827.29736,91.510185,216.64314
"61166",827.31067,97.32815,222.8208
"61167",827.324,102.11093,228.14508
"61168",827.3373,105.39468,232.1198
"61169",827.3506,107.03044,234.54915
"61170",827.3639,107.0988,235.4622
"61171",827.3772,105.846344,235.05658
"61172",827.3905,103.63195,233.64989
"61173",827.4038,100.85115,231.60759
"61174",827.4171,97.87015,229.27818
"61175",827.4304,94.977036,226.94351
"61176",827.4437,92.35981,224.79431
"61177",827.45703,90.07706,222.8978
"61178",827.47034,88.097046,221.2327
"61179",827.48364,86.35142,219.7401
"61180",827.49695,84.788895,218.37605
"61181",827.51025,83.41436,217.15117
"61182",827.52356,82.27177,216.11528
"61183",827.53687,81.427025,215.34154
"61184",827.5502,80.907,214.8661
"61185",827.5635,80.68238,214.66983
"61186",827.5768,80.67994,214.68872
"61187",827.5901,80.78493,214.81496
"61188",827.6034,80.88747,214.94203
"61189",827.6167,80.885025,214.96733
"61190",827.63,80.70191,214.81187
"61191",827.6433,80.27711,214.40901
"61192",827.6566,79.586174,213.72675
"61193",827.6699,78.63889,212.76653
"61194",827.6832,77.48165,211.56674
"61195",827.69653,76.17792,210.18431
"61196",827.70984,74.793625,208.68057
"61197",827.72314,73.411766,207.13602
"61198",827.73645,72.09338,205.61176
"61199",827.74976,70.889755,204.16104
"61200",827.76306,69.83505,202.82164
"61201",827.77637,68.95857,201.6275
"61202",827.7897,68.28962,200.61351
"61203",827.803,67.85016,199.8081
"61204",827.8163,67.65728,199.23555
"61205",827.8296,67.701225,198.89378
"61206",827.8429,67.947815,198.75604
"61207",827.8562,68.350655,198.78226
"61208",827.8695,68.841385,198.90895
"61209",827.8828,69.35165,199.07051
"61210",827.8961,69.83017,199.21628
"61211",827.9094,70.24277,199.31107
"61212",827.9227,70.56748,199.33087
"61213",827.93604,70.7921,199.26073
"61214",827.94934,70.92149,199.10237
"61215",827.96265,70.96788,198.86505
"61216",827.97595,70.95079,198.5657
"61217",827.98926,70.889755,198.22188
"61218",828.00256,70.79698,197.8444
"61219",828.01587,70.67979,197.43962
"61220",828.0292,70.54063,197.0092
"61221",828.0425,70.38682,196.55978
"61222",828.0558,70.21835,196.09091
"61223",828.0691,70.03281,195.59969
"61224",828.0824,69.83261,195.08801
"61225",828.0957,69.61776,194.55544
"61226",828.109,69.38094,193.99417
"61227",828.1223,69.12947,193.41086
"61228",828.1356,68.929276,192.87096
"61229",828.1489,69.051346,192.64706
"61230",828.16223,70.00839,193.26196
"61231",828.17554,72.359505,195.30084
"61232",828.18884,76.40009,199.10266
"61233",828.20215,82.03494,204.62502
"61234",828.21545,88.7538,211.40747
"61235",828.22876,95.70702,218.63425
"61236",828.24207,101.95712,225.37518
"61237",828.2554,106.80827,230.91249
"61238",828.2687,109.92844,234.8704
"61239",828.282,111.276115,237.15335
"61240",828.2953,110.98802,237.84264
"61241",828.3086,109.33761,237.1606
"61242",828.3219,106.703285,235.44307
"61243",828.3352,103.49035,233.0646
"61244",828.3485,100.07965,230.38799
"61245",828.3618,96.781265,227.71709
"61246",828.3751,93.7905,225.25073
"61247",828.3884,91.17815,223.06934
"61248",828.40173,88.91005,221.15056
"61249",828.41504,86.922714,219.44167
"61250",828.42834,85.169754,217.90504
"61251",828.44165,83.6585,216.55534
"61252",828.45496,82.42802,215.4392
"61253",828.46826,81.52224,214.6093
"61254",828.48157,80.953384,214.08801
"61255",828.4949,80.66773,213.83215
"61256",828.5082,80.5774,213.7627
"61257",828.5215,80.570076,213.77342
"61258",828.5348,80.552986,213.77415
"61259",828.5481,80.44068,213.67914
"61260",828.5614,80.16968,213.4219
"61261",828.5747,79.7058,212.96333
"61262",828.588,79.027084,212.27542
"61263",828.6013,78.135956,211.35388
"61264",828.6146,77.05928,210.21895
"61265",828.6279,75.841,208.90877
"61266",828.64124,74.52506,207.46286
"61267",828.65454,73.17738,205.94409
"61268",828.66785,71.86389,204.41739
"61269",828.68115,70.63828,202.93753
"61270",828.69446,69.54696,201.55365
"61271",828.70776,68.628975,200.309
"61272",828.72107,67.894104,199.2188
"61273",828.7344,67.33257,198.27896
"61274",828.7477,66.934616,197.48515
"61275",828.761,66.6807,196.82295
"61276",828.7743,66.55375,196.27977
"61277",828.7876,66.54398,195.84981
"61278",828.8009,66.65629,195.54161
"61279",828.8142,66.87846,195.3468
"61280",828.8275,67.19096,195.24925
"61281",828.8408,67.562065,195.22008
"61282",828.8541,67.95758,195.22691
"61283",828.86743,68.34577,195.23878
"61284",828.88074,68.7071,195.23592
"61285",828.89404,69.031815,195.20773
"61286",828.90735,69.31747,195.15063
"61287",828.92065,69.559166,195.0585
"61288",828.93396,69.749596,194.92265
"61289",828.94727,69.88388,194.73662
"61290",828.9606,69.959564,194.49617
"61291",828.9739,69.979095,194.20193
"61292",828.9872,69.944916,193.8546
"61293",829.0005,69.879,193.47446
"61294",829.0138,69.788666,193.06784
"61295",829.0271,69.698326,192.6584
"61296",829.0404,69.6202,192.25835
"61297",829.0537,69.56649,191.88026
"61298",829.067,69.53475,191.52248
"61299",829.0803,69.53231,191.193
"61300",829.0936,69.56161,190.89517
"61301",829.10693,69.62264,190.63
"61302",829.12024,69.71053,190.3936
"61303",829.13354,69.81552,190.17705
"61304",829.14685,69.93027,189.97353
"61305",829.16016,70.066986,189.79556
"61306",829.17346,70.41856,189.83673
"61307",829.18677,71.42443,190.54318
"61308",829.2001,73.651024,192.50179
"61309",829.2134,77.506065,196.15842
"61310",829.2267,83.038376,201.6128
"61311",829.24,89.864655,208.53403
"61312",829.2533,97.2256,216.20325
"61313",829.2666,104.16907,223.68501
"61314",829.2799,109.874725,230.14595
"61315",829.2932,113.86893,235.07373
"61316",829.3065,115.9881,238.25131
"61317",829.3198,116.30549,239.69333
"61318",829.3331,115.053024,239.57541
"61319",829.34644,112.59693,238.21472
"61320",829.35974,109.36202,235.99847
"61321",829.37305,105.76822,233.32224
"61322",829.38635,102.17685,230.53612
"61323",829.39966,98.85649,227.90878
"61324",829.41296,95.93408,225.57564
"61325",829.4263,93.4316,223.5711
"61326",829.4396,91.28802,221.84726
"61327",829.4529,89.42031,220.3323
"61328",829.4662,87.765015,218.97139
"61329",829.4795,86.31724,217.76627
"61330",829.4928,85.1136,216.76004
"61331",829.5061,84.19562,216.00186
"61332",829.5194,83.57061,215.50797
"61333",829.5327,83.19951,215.24844
"61334",829.546,83.00664,215.15556
"61335",829.5593,82.89189,215.13478
"61336",829.57263,82.75517,215.08844
"61337",829.58594,82.50858,214.92795
"61338",829.59924,82.091095,214.58885
"61339",829.61255,81.45876,214.02187
"61340",829.62585,80.601814,213.21051
"61341",829.63916,79.53979,212.1673
"61342",829.65247,78.311745,210.92487
"61343",829.6658,76.97383,209.5342
"61344",829.6791,75.58709,208.05289
"61345",829.6924,74.212555,206.54045
"61346",829.7057,72.901505,205.04854
"61347",829.719,71.70031,203.62552
"61348",829.7323,70.640724,202.30656
"61349",829.7456,69.73739,201.11075
"61350",829.7589,68.99275,200.04541
"61351",829.7722,68.40681,199.1155
"61352",829.7855,67.97223,198.31863
"61353",829.7988,67.684135,197.65468
"61354",829.81213,67.53033,197.116
"61355",829.82544,67.49615,196.69214
"61356",829.83875,67.56695,196.3722
"61357",829.85205,67.72564,196.14235
"61358",829.86536,67.947815,195.98096
"61359",829.87866,68.206604,195.86311
"61360",829.89197,68.48493,195.7729
"61361",829.9053,68.76082,195.68895
"61362",829.9186,69.02205,195.59895
"61363",829.9319,69.26864,195.50249
"61364",829.9452,69.49569,195.39418
"61365",829.9585,69.70809,195.27832
"61366",829.9718,69.90585,195.15446
"61367",829.9851,70.0914,195.02457
"61368",829.9984,70.25742,194.88095
"61369",830.0117,70.40147,194.72054
"61370",830.025,70.504005,194.52312
"61371",830.0383,70.555275,194.27763
"61372",830.05164,70.55283,193.98004
"61373",830.06494,70.51133,193.64331
"61374",830.07825,70.450294,193.28575
"61375",830.09155,70.38926,192.92628
"61376",830.10486,70.347755,192.58444
"61377",830.11816,70.33311,192.26816
"61378",830.1315,70.347755,191.98071
"61379",830.1448,70.40391,191.73523
"61380",830.1581,70.49668,191.52812
"61381",830.1714,70.61631,191.35077
"61382",830.1847,70.75548,191.1967
"61383",830.198,70.889755,191.04208
"61384",830.2113,70.992294,190.85992
"61385",830.2246,71.080185,190.66632
"61386",830.2379,71.312126,190.61952
"61387",830.2512,72.10803,191.14394
"61388",830.2645,74.03433,192.82361
"61389",830.27783,77.52804,196.13089
"61390",830.29114,82.67216,201.19775
"61391",830.30444,89.12245,207.73155
"61392",830.31775,96.15137,215.04555
"61393",830.33105,102.84581,222.24472
"61394",830.34436,108.39765,228.5105
"61395",830.35767,112.33814,233.33841
"61396",830.371,114.51835,236.52917
"61397",830.3843,114.99687,238.0864
"61398",830.3976,113.9617,238.14487
"61399",830.4109,111.71557,236.96004
"61400",830.4242,108.61738,234.85297
"61401",830.4375,105.04555,232.17543
"61402",830.4508,101.33944,229.252
"61403",830.4641,97.76517,226.34459
"61404",830.4774,94.49119,223.62576
"61405",830.4907,91.59075,221.17818
"61406",830.504,89.07118,219.02081
"61407",830.51733,86.90074,217.13385
"61408",830.53064,85.067215,215.51598
"61409",830.54395,83.59258,214.19969
"61410",830.55725,82.50614,213.22552
"61411",830.57056,81.832306,212.63
"61412",830.58386,81.5613,212.41626
"61413",830.59717,81.617455,212.52121
"61414",830.6105,81.87869,212.833
"61415",830.6238,82.213165,213.22618
"61416",830.6371,82.496376,213.57855
"61417",830.6504,82.62333,213.78352
"61418",830.6637,82.52079,213.76297
"61419",830.677,82.15213,213.47308
"61420",830.6903,81.50515,212.89336
"61421",830.7036,80.601814,212.03706
"61422",830.7169,79.48119,210.93526
"61423",830.7302,78.204315,209.64217
"61424",830.7435,76.82979,208.21152
"61425",830.75684,75.4284,206.71106
"61426",830.77014,74.05875,205.19855
"61427",830.78345,72.76967,203.7238
"61428",830.79675,71.59289,202.32108
"61429",830.81006,70.55283,201.0183
"61430",830.82336,69.66903,199.83926
"61431",830.8367,68.943924,198.79132
"61432",830.85,68.37507,197.87697
"61433",830.8633,67.964905,197.10353
"61434",830.8766,67.70367,196.4662
"61435",830.8899,67.579155,195.95743
"61436",830.9032,67.5816,195.57172
"61437",830.9165,67.68658,195.28862
"61438",830.9298,67.8819,195.09915
"61439",830.9431,68.14313,194.98169
"61440",830.9564,68.45075,194.9188
"61441",830.9697,68.78523,194.89236
"61442",830.98303,69.12703,194.8837
"61443",830.99634,69.45907,194.87596
"61444",831.00964,69.76669,194.85419
"61445",831.02295,70.03525,194.80295
"61446",831.03625,70.25742,194.71373
"61447",831.04956,70.42832,194.58017
"61448",831.06287,70.55283,194.40556
"61449",831.0762,70.63584,194.19334
"61450",831.0895,70.68467,193.94954
"61451",831.1028,70.7042,193.67796
"61452",831.1161,70.69932,193.38258
"61453",831.1294,70.68223,193.07484
"61454",831.1427,70.65537,192.7568
"61455",831.156,70.63096,192.44037
"61456",831.1693,70.608986,192.12561
"61457",831.1826,70.60166,191.82481
"61458",831.1959,70.61143,191.54088
"61459",831.2092,70.640724,191.27678
"61460",831.22253,70.68223,191.0258
"61461",831.23584,70.73106,190.78345
"61462",831.24915,70.78233,190.54507
"61463",831.26245,70.83116,190.30585
"61464",831.27576,70.870224,190.05838
"61465",831.28906,70.90929,189.81213
"61466",831.30237,71.028915,189.64767
"61467",831.3157,71.534294,189.87271
"61468",831.3423,75.78241,193.63597
"61469",831.3556,80.257576,197.97934
"61470",831.3689,86.20004,203.92986
"61471",831.3822,93.02388,210.94745
"61472",831.3955,99.87457,218.20514
"61473",831.4088,105.8732,224.82484
"61474",831.4221,110.42893,230.18912
"61475",831.4354,113.304955,234.01605
"61476",831.4487,114.49149,236.24338
"61477",831.46204,114.125275,236.95502
"61478",831.47534,112.428474,236.32463
"61479",831.48865,109.713585,234.62314
"61480",831.50195,106.31266,232.15076
"61481",831.51526,102.54795,229.20831
"61482",831.52856,98.70023,226.06522
"61483",831.5419,94.994125,222.9435
"61484",831.5552,91.55413,219.97208
"61485",831.5685,88.448616,217.22763
"61486",831.5818,85.70931,214.75235
"61487",831.5951,83.37774,212.5992
"61488",831.6084,81.512474,210.8395
"61489",831.6217,80.18921,209.56349
"61490",831.635,79.46899,208.84918
"61491",831.6483,79.34936,208.71295
"61492",831.6616,79.744865,209.08812
"61493",831.6749,80.50416,209.83943
"61494",831.68823,81.43923,210.79027
"61495",831.70154,82.357216,211.75323
"61496",831.71484,83.10185,212.57153
"61497",831.72815,83.55352,213.12013
"61498",831.74146,83.648735,213.3264
"61499",831.75476,83.36065,213.15234
"61500",831.76807,82.71122,212.60794
"61501",831.7814,81.74929,211.73074
"61502",831.7947,80.550545,210.58667
"61503",831.808,79.183334,209.23666
"61504",831.8213,77.71847,207.74628
"61505",831.8346,76.226746,206.18326
"61506",831.8479,74.77409,204.61269
"61507",831.8612,73.41665,203.09193
"61508",831.8745,72.19348,201.66304
"61509",831.8878,71.133896,200.3595
"61510",831.9011,70.25498,199.20352
"61511",831.9144,69.5494,198.1934
"61512",831.92773,69.014725,197.33215
"61513",831.94104,68.63874,196.61288
"61514",831.95435,68.40925,196.02835
"61515",831.96765,68.316475,195.57336
"61516",831.98096,68.34577,195.23755
"61517",831.99426,68.47761,195.00519
"61518",832.00757,68.697334,194.86484
"61519",832.0209,68.98299,194.79729
"61520",832.0342,69.31747,194.78749
"61521",832.0475,69.68368,194.81987
"61522",832.0608,70.0621,194.87592
"61523",832.0741,70.43809,194.94135
"61524",832.0874,70.7921,194.99655
"61525",832.1007,71.10948,195.02618
"61526",832.114,71.380486,195.01936
"61527",832.1273,71.60998,194.97949
"61528",832.1406,71.79065,194.89798
"61529",832.15393,71.92981,194.7806
"61530",832.16724,72.027466,194.62605
"61531",832.18054,72.0885,194.43794
"61532",832.19385,72.12268,194.22488
"61533",832.20715,72.13245,193.98848
"61534",832.22046,72.12268,193.73285
"61535",832.23376,72.10315,193.46715
"61536",832.2471,72.06409,193.1813
"61537",832.2604,71.99573,192.86494
"61538",832.2737,71.885864,192.50494
"61539",832.287,71.744255,192.10977
"61540",832.3003,71.62951,191.73703
"61541",832.3136,71.78821,191.63416
"61542",832.3269,72.69642,192.28575
"61543",832.3402,74.881516,194.24261
"61544",832.3535,78.64866,197.84981
"61545",832.3668,83.90509,203.06401
"61546",832.3801,90.16983,209.45079
"61547",832.39343,96.656746,216.25551
"61548",832.40674,102.51133,222.63062
"61549",832.42004,107.0988,227.92157
"61550",832.43335,110.133514,231.80312
"61551",832.44666,111.586174,234.19745
"61552",832.45996,111.554436,235.15277
"61553",832.47327,110.22629,234.8107
"61554",832.4866,107.85809,233.38708
"61555",832.4999,104.75258,231.15213
"61556",832.5132,101.21248,228.38554
"61557",832.5265,97.50149,225.33745
"61558",832.5398,93.83688,222.21976
"61559",832.5531,90.34806,219.16333
"61560",832.5664,87.10338,216.24202
"61561",832.5797,84.14923,213.50986
"61562",832.593,81.57107,211.06136
"61563",832.6063,79.47631,209.0157
"61564",832.6196,78.00168,207.5247
"61565",832.63293,77.2375,206.69807
"61566",832.64624,77.20332,206.57756
"61567",832.65955,77.81369,207.10052
"61568",832.67285,78.88304,208.10155
"61569",832.68616,80.17456,209.35815
"61570",832.69946,81.46853,210.65758
"61571",832.71277,82.581825,211.81677
"61572",832.7261,83.38262,212.69826
"61573",832.7394,83.792786,213.21413
"61574",832.7527,83.7879,213.32777
"61575",832.766,83.38262,213.04086
"61576",832.7793,82.61356,212.37752
"61577",832.7926,81.55154,211.39717
"61578",832.8059,80.26978,210.16391
"61579",832.8192,78.84886,208.75142
"61580",832.8325,77.36935,207.23593
"61581",832.8458,75.911804,205.69618
"61582",832.85913,74.53239,204.18901
"61583",832.87244,73.272606,202.75836
"61584",832.88574,72.16174,201.43727
"61585",832.89905,71.22179,200.25237
"61586",832.91235,70.45762,199.21388
"61587",832.92566,69.874115,198.33218
"61588",832.93896,69.468834,197.61047
"61589",832.9523,69.22957,197.04211
"61590",832.9656,69.136795,196.61276
"61591",832.9789,69.17586,196.31235
"61592",832.9922,69.32235,196.12059
"61593",833.0055,69.559166,196.02373
"61594",833.0188,69.86191,196.0002
"61595",833.0321,70.220795,196.04227
"61596",833.0454,70.61143,196.1273
"61597",833.0587,71.02159,196.24408
"61598",833.072,71.42687,196.36879
"61599",833.0853,71.82239,196.4964
"61600",833.09863,72.19104,196.6095
"61601",833.11194,72.52064,196.69507
"61602",833.12524,72.80629,196.747
"61603",833.13855,73.05043,196.76633
"61604",833.15186,73.248184,196.7469
"61605",833.16516,73.392235,196.67996
"61606",833.17847,73.47524,196.55647
"61607",833.1918,73.49233,196.36966
"61608",833.2051,73.4313,196.10526
"61609",833.2184,73.28237,195.75105
"61610",833.2317,73.05043,195.30919
"61611",833.245,72.80385,194.84543
"61612",833.2583,72.77699,194.59369
"61613",833.2716,73.43374,195.02472
"61614",833.2849,75.299,196.68478
"61615",833.2982,78.68284,199.9217
"61616",833.3115,83.52422,204.72192
"61617",833.3248,89.373924,210.68176
"61618",833.33813,95.482414,217.08319
"61619",833.35144,101.01961,223.10422
"61620",833.36475,105.358055,228.09953
"61621",833.37805,108.20477,231.7387
"61622",833.39136,109.523155,233.93848
"61623",833.40466,109.41573,234.75365
"61624",833.41797,108.070496,234.32765
"61625",833.4313,105.73159,232.86595
"61626",833.4446,102.68711,230.62558
"61627",833.4579,99.22026,227.8677
"61628",833.4712,95.58007,224.82816
"61629",833.4845,91.95697,221.69193
"61630",833.4978,88.48524,218.59384
"61631",833.5111,85.25033,215.6241
"61632",833.5244,82.31571,212.85356
"61633",833.5377,79.781494,210.39171
"61634",833.551,77.77219,208.37558
"61635",833.56433,76.42695,206.96072
"61636",833.57764,75.83368,206.2558
"61637",833.59094,75.98993,206.28185
"61638",833.60425,76.788284,206.95488
"61639",833.61755,78.028534,208.09476
"61640",833.63086,79.47143,209.47604
"61641",833.64417,80.8777,210.8658
"61642",833.6575,82.06668,212.08221
"61643",833.6708,82.91142,212.99155
"61644",833.6841,83.34356,213.51466
"61645",833.6974,83.35088,213.62648
"61646",833.7107,82.9456,213.32591
"61647",833.724,82.18143,212.6538
"61648",833.7373,81.12428,211.66483
"61649",833.7506,79.84497,210.42065
"61650",833.7639,78.42405,208.99489
"61651",833.7772,76.944534,207.46613
"61652",833.7905,75.474785,205.9009
"61653",833.80383,74.073395,204.3581
"61654",833.81714,72.78676,202.88625
"61655",833.83044,71.6466,201.52068
"61656",833.84375,70.67002,200.28305
"61657",833.85706,69.87167,199.19315
"61658",833.87036,69.261314,198.26628
"61659",833.88367,68.82918,197.49857
"61660",833.897,68.558174,196.87848
"61661",833.9103,68.43122,196.39397
"61662",833.9236,68.43366,196.03488
"61663",833.9369,68.53864,195.77841
"61664",833.9502,68.72663,195.60823
"61665",833.9635,68.97078,195.50009
"61666",833.9768,69.25155,195.4362
"61667",833.9901,69.5494,195.39816
"61668",834.0034,69.84726,195.36945
"61669",834.0167,70.13046,195.33537
"61670",834.03,70.38438,195.28087
"61671",834.04333,70.61143,195.20743
"61672",834.05664,70.81407,195.11668
"61673",834.06995,70.994736,195.01028
"61674",834.08325,71.1461,194.88023
"61675",834.09656,71.2633,194.72075
"61676",834.10986,71.326775,194.5112
"61677",834.12317,71.309685,194.22307
"61678",834.1365,71.19737,193.83919
"61679",834.1498,71.01915,193.38588
"61680",834.1631,70.923935,193.01001
"61681",834.1764,71.28039,193.08284
"61682",834.1897,72.60609,194.13605
"61683",834.203,75.33318,196.63208
"61684",834.2163,79.586174,200.73923
"61685",834.2296,85.08675,206.22687
"61686",834.2429,91.21477,212.51385
"61687",834.2562,97.145035,218.79459
"61688",834.26953,102.12802,224.31335
"61689",834.28284,105.721825,228.59866
"61690",834.29614,107.78729,231.46794
"61691",834.30945,108.37812,232.92712
"61692",834.32275,107.65545,233.09126
"61693",834.33606,105.84146,232.14151
"61694",834.34937,103.199814,230.3074
"61695",834.3627,100.00885,227.84143
"61696",834.376,96.515144,224.973
"61697",834.3893,92.93111,221.90506
"61698",834.4026,89.410545,218.78859
"61699",834.4159,86.06821,215.74033
"61700",834.4292,82.98955,212.8513
"61701",834.4425,80.28443,210.23961
"61702",834.4558,78.09689,208.06096
"61703",834.4691,76.59052,206.49512
"61704",834.4824,75.88495,205.683
"61705",834.4957,76.00214,205.67159
"61706",834.50903,76.84688,206.39139
"61707",834.52234,78.221405,207.66737
"61708",834.53564,79.86694,209.25732
"61709",834.54895,81.5198,210.90602
"61710",834.56226,82.96513,212.39885
"61711",834.57556,84.06622,213.5926
"61712",834.58887,84.73762,214.39107
"61713",834.6022,84.945145,214.74664
"61714",834.6155,84.698555,214.65459
"61715",834.6288,84.04913,214.152
"61716",834.6421,83.05791,213.28731
"61717",834.6554,81.80545,212.13042
"61718",834.6687,80.37476,210.75615
"61719",834.682,78.84642,209.23952
"61720",834.6953,77.298546,207.6556
"61721",834.7086,75.80438,206.07701
"61722",834.7219,74.42008,204.5616
"61723",834.7352,73.196915,203.16406
"61724",834.74854,72.15686,201.9114
"61725",834.76184,71.31457,200.82402
"61726",834.77515,70.674904,199.91293
"61727",834.78845,70.22812,199.17474
"61728",834.80176,69.959564,198.60081
"61729",834.81506,69.857025,198.18451
"61730",834.82837,69.91318,197.92369
"61731",834.8417,70.10605,197.80135
"61732",834.855,70.416115,197.80223
"61733",834.8683,70.804306,197.89093
"61734",834.8816,71.23399,198.03325
"61735",834.8949,71.67834,198.20366
"61736",834.9082,72.11047,198.37575
"61737",834.9215,72.51087,198.5296
"61738",834.9348,72.86977,198.65446
"61739",834.9481,73.18471,198.74658
"61740",834.9614,73.445946,198.79485
"61741",834.97473,73.64858,198.79266
"61742",834.98804,73.77554,198.72115
"61743",835.00134,73.81705,198.56813
"61744",835.01465,73.75357,198.31143
"61745",835.02795,73.58755,197.95021
"61746",835.04126,73.37026,197.53253
"61747",835.05457,73.32632,197.2814
"61748",835.0679,73.88785,197.63438
"61749",835.0812,75.560234,199.11577
"61750",835.0945,78.6804,202.09718
"61751",835.1078,83.22392,206.59947
"61752",835.1211,88.77333,212.24963
"61753",835.1344,94.61326,218.36372
"61754",835.1477,99.92584,224.13297
"61755",835.161,104.078735,228.90854
"61756",835.1743,106.76677,232.34903
"61757",835.1876,107.95819,234.3769
"61758",835.2009,107.78241,235.07481
"61759",835.21423,106.43961,234.60022
"61760",835.22754,104.166626,233.15347
"61761",835.24084,101.241776,230.98383
"61762",835.25415,97.93118,228.33704
"61763",835.26746,94.47166,225.43787
"61764",835.28076,91.05852,222.47696
"61765",835.29407,87.80896,219.57298
"61766",835.3074,84.79622,216.80428
"61767",835.3207,82.08865,214.2466
"61768",835.334,79.7937,212.01692
"61769",835.3473,78.028534,210.2453
"61770",835.3606,76.927444,209.0826
"61771",835.3739,76.5539,208.61304
"61772",835.3872,76.87129,208.82274
"61773",835.4005,77.74044,209.59412
"61774",835.4138,78.94408,210.72714
"61775",835.4271,80.23804,211.9881
"61776",835.4404,81.41482,213.17232
"61777",835.45374,82.31815,214.11987
"61778",835.46704,82.85039,214.72455
"61779",835.48035,82.97246,214.9357
"61780",835.49365,82.684364,214.7405
"61781",835.50696,82.020294,214.16031
"61782",835.52026,81.03639,213.23955
"61783",835.53357,79.801025,212.03658
"61784",835.5469,78.39475,210.62408
"61785",835.5602,76.89082,209.06999
"61786",835.5735,75.36492,207.44693
"61787",835.5868,73.89029,205.82745
"61788",835.6001,72.515755,204.262
"61789",835.6134,71.28039,202.79274
"61790",835.6267,70.21347,201.45334
"61791",835.64,69.34188,200.27592
"61792",835.6533,68.66804,199.26901
"61793",835.6666,68.189514,198.43637
"61794",835.67993,67.90143,197.7792
"61795",835.69324,67.7818,197.2815
"61796",835.70654,67.80621,196.92409
"61797",835.71985,67.96002,196.69684
"61798",835.73315,68.21881,196.57938
"61799",835.74646,68.5655,196.5579
"61800",835.75977,68.99519,196.63028
"61801",835.7731,69.48592,196.77711
"61802",835.7864,70.01816,196.98079
"61803",835.7997,70.57969,197.2304
"61804",835.813,71.14122,197.49754
"61805",835.8263,71.66613,197.74562
"61806",835.8396,72.12268,197.94174
"61807",835.8529,72.46937,198.04227
"61808",835.8662,72.68421,198.02177
"61809",835.8795,72.764786,197.87373
"61810",835.8928,72.7892,197.67204
"61811",835.9061,72.99428,197.65178
"61812",835.91943,73.81705,198.25562
"61813",835.93274,75.72137,199.96672
"61814",835.94604,78.97826,203.0899
"61815",835.95935,83.52178,207.6015
"61816",835.97266,88.9247,213.11447
"61817",835.98596,94.47898,218.94765
"61818",835.99927,99.41558,224.33672
"61819",836.0126,103.16075,228.68863
"61820",836.0259,105.43374,231.6854
"61821",836.0392,106.22232,233.26878
"61822",836.0525,105.65835,233.52426
"61823",836.0658,103.96399,232.63173
"61824",836.0791,101.4078,230.82442
"61825",836.0924,98.285194,228.3708
"61826",836.1057,94.872055,225.52908
"61827",836.119,91.393,222.51477
"61828",836.1323,88.0116,219.4894
"61829",836.1456,84.8304,216.55856
"61830",836.15894,81.92508,213.8042
"61831",836.17224,79.378654,211.31793
"61832",836.18555,77.313194,209.23305
"61833",836.19885,75.87274,207.70863
"61834",836.21216,75.16716,206.87407
"61835",836.22546,75.22331,206.77919
"61836",836.2388,75.96307,207.36967
"61837",836.2521,77.20332,208.48376
"61838",836.2654,78.695045,209.88809
"61839",836.2787,80.198975,211.35124
"61840",836.292,81.51003,212.66852
"61841",836.3053,82.476845,213.68253
"61842",836.3186,83.0164,214.29948
"61843",836.3319,83.087204,214.46455
"61844",836.3452,82.70634,214.18016
"61845",836.3585,81.92752,213.48592
"61846",836.3718,80.82155,212.44019
"61847",836.38513,79.48119,211.1255
"61848",836.39844,77.994354,209.62245
"61849",836.41174,76.453804,208.01923
"61850",836.42505,74.93034,206.38495
"61851",836.43835,73.48989,204.78607
"61852",836.45166,72.181274,203.27402
"61853",836.46497,71.043564,201.89197
"61854",836.4783,70.08652,200.65503
"61855",836.4916,69.32967,199.5884
"61856",836.5049,68.77547,198.70074
"61857",836.5182,68.41657,197.99109
"61858",836.5315,68.24567,197.4582
"61859",836.5448,68.243225,197.08844
"61860",836.5581,68.401924,196.87975
"61861",836.5714,68.69489,196.81027
"61862",836.5847,69.09773,196.85983
"61863",836.598,69.57137,196.99278
"61864",836.6113,70.08896,197.18448
"61865",836.62463,70.59922,197.38503
"61866",836.63794,71.05333,197.54536
"61867",836.65125,71.4049,197.61736
"61868",836.66455,71.6466,197.59045
"61869",836.67786,71.8053,197.48811
"61870",836.69116,72.025024,197.45175
"61871",836.70447,72.6305,197.80801
"61872",836.7178,74.073395,199.02061
"61873",836.7311,76.71015,201.47217
"61874",836.7444,80.64576,205.30496
"61875",836.7577,85.62142,210.30081
"61876",836.771,91.090256,215.94531
"61877",836.7843,96.31983,221.52145
"61878",836.7976,100.62653,226.33815
"61879",836.8109,103.57824,229.93443
"61880",836.8242,105.03334,232.12636
"61881",836.8375,105.05043,232.92574
"61882",836.8508,103.82483,232.48296
"61883",836.86414,101.6202,231.02286
"61884",836.87744,98.73197,228.81026
"61885",836.89075,95.44579,226.10945
"61886",836.90405,92.0058,223.15213
"61887",836.91736,88.59754,220.11905
"61888",836.93066,85.34066,217.13084
"61889",836.944,82.31327,214.27036
"61890",836.9573,79.59594,211.62532
"61891",836.9706,77.28878,209.30553
"61892",836.9839,75.545586,207.4776
"61893",836.9972,74.50065,206.29346
"61894",837.0105,74.229645,205.8506
"61895",837.0238,74.703285,206.14392
"61896",837.0371,75.77753,207.05264
"61897",837.0504,77.22041,208.36357
"61898",837.0637,78.77562,209.83191
"61899",837.077,80.22339,211.24141
"61900",837.09033,81.392845,212.41785
"61901",837.10364,82.16922,213.23775
"61902",837.11694,82.48661,213.62292
"61903",837.13025,82.320595,213.53462
"61904",837.14355,81.705345,212.9919
"61905",837.15686,80.709236,212.04909
"61906",837.17017,79.4226,210.78462
"61907",837.1835,77.94797,209.29195
"61908",837.1968,76.39521,207.67506
"61909",837.2101,74.84978,206.01698
"61910",837.2234,73.38735,204.39362
"61911",837.2367,72.061646,202.86127
"61912",837.25,70.90929,201.46083
"61913",837.2633,69.944916,200.21237
"61914",837.2766,69.18318,199.13641
"61915",837.2899,68.62409,198.2393
"61916",837.3032,68.265205,197.52492
"61917",837.3165,68.104065,196.99707
"61918",837.32983,68.1236,196.64485
"61919",837.34314,68.282295,196.43242
"61920",837.35645,68.53864,196.32259
"61921",837.36975,68.8365,196.26228
"61922",837.38306,69.12947,196.20639
"61923",837.39636,69.39803,196.13525
"61924",837.40967,69.695885,196.10179
"61925",837.423,70.23544,196.31935
"61926",837.4363,71.40734,197.18611
"61927",837.4496,73.653465,199.16371
"61928",837.4629,77.23018,202.5421
"61929",837.4762,82.07645,207.3018
"61930",837.4895,87.76013,213.05038
"61931",837.5028,93.58297,219.11572
"61932",837.5161,98.758835,224.71605
"61933",837.5294,102.67979,229.22322
"61934",837.5427,105.03822,232.2904
"61935",837.556,105.81949,233.85411
"61936",837.56934,105.17494,234.01642
"61937",837.58264,103.36828,232.99648
"61938",837.59595,100.70466,231.06311
"61939",837.60925,97.49905,228.50452
"61940",837.62256,94.029755,225.58206
"61941",837.63586,90.5214,222.51213
"61942",837.6492,87.13512,219.45464
"61943",837.6625,83.9588,216.5013
"61944",837.6758,81.06813,213.73434
"61945",837.6891,78.538795,211.23839
"61946",837.7024,76.48798,209.1419
"61947",837.7157,75.04753,207.5917
"61948",837.729,74.32487,206.71428
"61949",837.7423,74.35905,206.5711
"61950",837.7556,75.071945,207.10773
"61951",837.7689,76.29267,208.17445
"61952",837.7822,77.77707,209.543
"61953",837.79553,79.27123,210.9677
"61954",837.80884,80.55787,212.23155
"61955",837.82214,81.48562,213.17674
"61956",837.83545,81.95438,213.69193
"61957",837.84875,81.93729,213.73592
"61958",837.86206,81.45632,213.31549
"61959",837.87537,80.57984,212.48453
"61960",837.8887,79.38842,211.31123
"61961",837.902,77.98703,209.89073
"61962",837.9153,76.46601,208.30681
"61963",837.9286,74.915695,206.64606
"61964",837.9419,73.42153,204.99301
"61965",837.9552,72.05188,203.41779
"61966",837.9685,70.85069,201.96822
"61967",837.9818,69.84726,200.67886
"61968",837.9951,69.05867,199.573
"61969",838.0084,68.48005,198.65247
"61970",838.0217,68.09186,197.90428
"61971",838.03503,67.862366,197.30266
"61972",838.04834,67.757385,196.81837
"61973",838.06165,67.7525,196.43091
"61974",838.07495,67.86725,196.16292
"61975",838.08826,68.253,196.16953
"61976",838.10156,69.2491,196.79854
"61977",838.11487,71.29015,198.50363
"61978",838.1282,74.68131,201.6226
"61979",838.1415,79.42748,206.20256
"61980",838.1548,85.172195,211.92938
"61981",838.1681,91.23918,218.158
"61982",838.1814,96.813,224.08305
"61983",838.1947,101.21004,229.0055
"61984",838.208,104.03967,232.49794
"61985",838.2213,105.21889,234.42839
"61986",838.2346,104.86977,234.86736
"61987",838.2479,103.24376,234.01852
"61988",838.2612,100.65827,232.15941
"61989",838.27454,97.442894,229.5896
"61990",838.28784,93.91745,226.60925
"61991",838.30115,90.34806,223.47478
"61992",838.31445,86.925156,220.37524
"61993",838.32776,83.75372,217.42023
"61994",838.34106,80.88991,214.67372
"61995",838.3544,78.38743,212.19905
"61996",838.3677,76.33173,210.09296
"61997",838.381,74.84245,208.48904
"61998",838.3943,74.01724,207.50266
"61999",838.4076,73.89273,207.19118
"62000",838.4209,74.4152,207.5228
"62001",838.4342,75.41863,208.3517
"62002",838.4475,76.67841,209.4683
"62003",838.4608,77.960175,210.64627
"62004",838.4741,79.07103,211.69337
"62005",838.4874,79.85962,212.45293
"62006",838.50073,80.22827,212.8172
