"","Time..s.","PPG.trace","Preprocessed.PPG"
"80370",1103.8694,79.03197,136.16753
"80371",1103.8827,78.9514,136.0567
"80372",1103.896,78.87816,135.95068
"80373",1103.9093,78.819565,135.85703
"80374",1103.9226,78.768295,135.76886
"80375",1103.9359,78.73167,135.69374
"80376",1103.9492,78.70237,135.6248
"80377",1103.9625,78.6804,135.56227
"80378",1103.9758,78.66819,135.50882
"80379",1103.9891,78.66819,135.4672
"80380",1104.0024,78.677956,135.43533
"80381",1104.0157,78.69993,135.41599
"80382",1104.029,78.73655,135.41197
"80383",1104.0424,78.77562,135.41156
"80384",1104.0557,78.81468,135.41235
"80385",1104.069,78.8513,135.41193
"80386",1104.0823,78.8806,135.40532
"80387",1104.0956,78.89525,135.38498
"80388",1104.1089,78.905014,135.36021
"80389",1104.1222,78.922104,135.34308
"80390",1104.1355,78.98558,135.37286
"80391",1104.1488,79.1638,135.51938
"80392",1104.1621,79.53246,135.86191
"80393",1104.1754,80.113525,136.42836
"80394",1104.1887,80.86305,137.18143
"80395",1104.202,81.671165,138.01651
"80396",1104.2153,82.39628,138.79385
"80397",1104.2286,82.90166,139.37411
"80398",1104.242,83.123825,139.68697
"80399",1104.2552,83.07988,139.74065
"80400",1104.2686,82.845505,139.60252
"80401",1104.2819,82.5037,139.34964
"80402",1104.2952,82.13748,139.06166
"80403",1104.3085,81.79813,138.78911
"80404",1104.3218,81.50271,138.54988
"80405",1104.3351,81.24635,138.34048
"80406",1104.3484,81.01442,138.1475
"80407",1104.3617,80.78493,137.94972
"80408",1104.375,80.54322,137.73254
"80409",1104.3883,80.289314,137.49562
"80410",1104.4016,80.04028,137.25563
"80411",1104.4149,79.81079,137.0274
"80412",1104.4282,79.62524,136.83594
"80413",1104.4415,79.49096,136.68994
"80414",1104.4548,79.41039,136.59346
"80415",1104.4681,79.361565,136.5262
"80416",1104.4814,79.33959,136.48427
"80417",1104.4948,79.3225,136.44653
"80418",1104.508,79.30053,136.40338
"80419",1104.5214,79.26391,136.3449
"80420",1104.5347,79.21263,136.27061
"80421",1104.548,79.149155,136.18253
"80422",1104.5613,79.07591,136.08269
"80423",1104.5746,78.99779,135.97568
"80424",1104.5879,78.922104,135.86867
"80425",1104.6012,78.853745,135.76662
"80426",1104.6145,78.79759,135.67464
"80427",1104.6278,78.75853,135.59799
"80428",1104.6411,78.73655,135.53722
"80429",1104.6544,78.729225,135.4904
"80430",1104.6677,78.73167,135.45312
"80431",1104.681,78.73899,135.4208
"80432",1104.6943,78.75365,135.39606
"80433",1104.7076,78.77318,135.37663
"80434",1104.721,78.80003,135.36514
"80435",1104.7343,78.83177,135.35938
"80436",1104.7476,78.86595,135.35704
"80437",1104.7609,78.89525,135.35089
"80438",1104.7742,78.91722,135.33833
"80439",1104.7875,78.93675,135.32402
"80440",1104.8008,78.97826,135.33229
"80441",1104.8141,79.097885,135.41998
"80442",1104.8274,79.37377,135.66768
"80443",1104.8407,79.85718,136.13152
"80444",1104.854,80.54078,136.81065
"80445",1104.8673,81.3489,137.63568
"80446",1104.8806,82.15213,138.48106
"80447",1104.8939,82.79912,139.19531
"80448",1104.9072,83.18486,139.66853
"80449",1104.9205,83.29229,139.87549
"80450",1104.9338,83.16533,139.85141
"80451",1104.9471,82.899216,139.68422
"80452",1104.9604,82.57206,139.44766
"80453",1104.9738,82.247345,139.20332
"80454",1104.987,81.95438,138.98059
"80455",1105.0004,81.7029,138.79019
"80456",1105.0137,81.48318,138.62369
"80457",1105.027,81.2781,138.46497
"80458",1105.0403,81.06325,138.29005
"80459",1105.0536,80.82155,138.08159
"80460",1105.0669,80.54566,137.83138
"80461",1105.0802,80.2478,137.55057
"80462",1105.0935,79.96216,137.27267
"80463",1105.1068,79.71557,137.0249
"80464",1105.1201,79.52758,136.82802
"80465",1105.1334,79.398186,136.68385
"80466",1105.1467,79.31762,136.58447
"80467",1105.16,79.26879,136.51431
"80468",1105.1733,79.234604,136.45728
"80469",1105.1866,79.19798,136.39673
"80470",1105.2,79.1638,136.33748
"80471",1105.2133,79.11742,136.26495
"80472",1105.2266,79.063705,136.18365
"80473",1105.2399,78.995346,136.08603
"80474",1105.2532,78.91722,135.9765
"80475",1105.2665,78.84154,135.86697
"80476",1105.2798,78.77074,135.75996
"80477",1105.2931,78.70725,135.65807
"80478",1105.3064,78.65598,135.56639
"80479",1105.3197,78.624245,135.49265
"80480",1105.333,78.60471,135.43011
"80481",1105.3463,78.59983,135.38162
"80482",1105.3596,78.607155,135.34518
"80483",1105.3729,78.624245,135.31874
"80484",1105.3862,78.6511,135.3026
"80485",1105.3995,78.68772,135.29706
"80486",1105.4128,78.7219,135.29022
"80487",1105.4261,78.76097,135.28935
"80488",1105.4395,78.79271,135.28236
"80489",1105.4528,78.8098,135.26172
"80490",1105.4661,78.81712,135.23184
"80491",1105.4794,78.84154,135.21928
"80492",1105.4927,78.91722,135.25876
"80493",1105.506,79.12718,135.43488
"80494",1105.5193,79.54223,135.82265
"80495",1105.5326,80.18921,136.45532
"80496",1105.5459,81.01442,137.28644
"80497",1105.5592,81.898224,138.20195
"80498",1105.5725,82.68925,139.05229
"80499",1105.5858,83.24834,139.69542
"80500",1105.5991,83.5169,140.06549
"80501",1105.6124,83.509575,140.16808
"80502",1105.6257,83.30938,140.07756
"80503",1105.639,83.01152,139.88312
"80504",1105.6523,82.701454,139.66716
"80505",1105.6656,82.41581,139.46594
"80506",1105.679,82.17166,139.29729
"80507",1105.6923,81.96414,139.15764
"80508",1105.7056,81.778595,139.03348
"80509",1105.7189,81.58816,138.89862
"80510",1105.7322,81.373314,138.73341
"80511",1105.7455,81.1194,138.52242
"80512",1105.7588,80.81911,138.25711
"80513",1105.7721,80.48707,137.95067
"80514",1105.7854,80.14526,137.62408
"80515",1105.7987,79.82544,137.3088
"80516",1105.812,79.55932,137.03723
"80517",1105.8253,79.364006,136.82814
"80518",1105.8386,79.237045,136.6813
"80519",1105.8519,79.15892,136.57933
"80520",1105.8652,79.114975,136.5091
"80521",1105.8785,79.08324,136.44969
"80522",1105.8918,79.046616,136.38441
"80523",1105.9052,79.00023,136.30823
"80524",1105.9185,78.94652,136.22327
"80525",1105.9318,78.890366,136.13419
"80526",1105.9451,78.83421,136.04335
"80527",1105.9584,78.77806,135.95076
"80528",1105.9717,78.72678,135.8613
"80529",1105.985,78.675514,135.77023
"80530",1105.9983,78.62913,135.68245
"80531",1106.0116,78.58518,135.59566
"80532",1106.0249,78.551,135.51726
"80533",1106.0382,78.53147,135.45244
"80534",1106.0515,78.52659,135.40166
"80535",1106.0648,78.53147,135.36049
"80536",1106.0781,78.54612,135.32924
"80537",1106.0914,78.572975,135.31065
"80538",1106.1047,78.59983,135.29291
"80539",1106.118,78.62913,135.27844
"80540",1106.1313,78.66331,135.26978
"80541",1106.1447,78.69749,135.26218
"80542",1106.158,78.73411,135.25809
"80543",1106.1713,78.768295,135.25272
"80544",1106.1846,78.80492,135.25084
"80545",1106.1979,78.84154,135.2501
"80546",1106.2112,78.90013,135.27249
"80547",1106.2245,79.029526,135.36751
"80548",1106.2378,79.31274,135.62039
"80549",1106.2511,79.81079,136.09697
"80550",1106.2644,80.533455,136.81372
"80551",1106.2777,81.41726,137.7142
"80552",1106.291,82.320595,138.66183
"80553",1106.3043,83.089645,139.5034
"80554",1106.3176,83.59991,140.11021
"80555",1106.3309,83.809875,140.43268
"80556",1106.3442,83.758606,140.50047
"80557",1106.3575,83.53643,140.39575
"80558",1106.3708,83.23613,140.20596
"80559",1106.3842,82.92363,139.9946
"80560",1106.3975,82.64042,139.80275
"80561",1106.4108,82.391396,139.63625
"80562",1106.4241,82.176544,139.49612
"80563",1106.4374,81.97391,139.36151
"80564",1106.4507,81.76395,139.21324
"80565",1106.464,81.52712,139.03154
"80566",1106.4773,81.248795,138.80093
"80567",1106.4906,80.92409,138.51526
"80568",1106.5039,80.56519,138.18524
"80569",1106.5172,80.19165,137.82936
"80570",1106.5305,79.84009,137.4838
"80571",1106.5438,79.534904,137.17361
"80572",1106.5571,79.30053,136.9247
"80573",1106.5704,79.14183,136.74414
"80574",1106.5837,79.04906,136.62454
"80575",1106.597,79.00267,136.54843
"80576",1106.6104,78.98558,136.50017
"80577",1106.6237,78.97337,136.45625
"80578",1106.637,78.95628,136.40707
"80579",1106.6503,78.924545,136.34271
"80580",1106.6636,78.8806,136.26515
"80581",1106.6769,78.82445,136.17401
"80582",1106.6902,78.76097,136.07379
"80583",1106.7035,78.695045,135.96915
"80584",1106.7168,78.63401,135.86732
"80585",1106.7301,78.57786,135.76848
"80586",1106.7434,78.53391,135.68008
"80587",1106.7567,78.49973,135.60008
"80588",1106.77,78.4802,135.53366
"80589",1106.7833,78.46555,135.47151
"80590",1106.7966,78.45823,135.41623
"80591",1106.8099,78.45579,135.3656
"80592",1106.8232,78.46311,135.32466
"80593",1106.8365,78.47532,135.28883
"80594",1106.8499,78.48997,135.25583
"80595",1106.8632,78.5095,135.22816
"80596",1106.8765,78.52659,135.19867
"80597",1106.8898,78.54368,135.16971
"80598",1106.9031,78.56077,135.14128
"80599",1106.9164,78.58518,135.12071
"80600",1106.9297,78.61448,135.10579
"80601",1106.943,78.64866,135.09666
"80602",1106.9563,78.68284,135.08861
"80603",1106.9696,78.71702,135.08162
"80604",1106.9829,78.746315,135.07082
"80605",1106.9962,78.77318,135.0585
"80606",1107.0095,78.81224,135.05922
"80607",1107.0228,78.9099,135.11975
"80608",1107.0361,79.14671,135.3225
"80609",1107.0494,79.59594,135.74506
"80610",1107.0627,80.28199,136.41847
"80611",1107.076,81.163345,137.30864
"80612",1107.0894,82.12039,138.30205
"80613",1107.1027,82.97978,139.2277
"80614",1107.116,83.59991,139.94095
"80615",1107.1293,83.912415,140.36595
"80616",1107.1426,83.93683,140.51263
"80617",1107.1559,83.758606,140.45744
"80618",1107.1692,83.47295,140.28925
"80619",1107.1825,83.160446,140.08527
"80620",1107.1958,82.87236,139.89595
"80621",1107.2091,82.616005,139.72935
"80622",1107.2224,82.38651,139.58162
"80623",1107.2357,82.1741,139.44379
"80624",1107.249,81.96414,139.30177
"80625",1107.2623,81.739525,139.13853
"80626",1107.2756,81.4905,138.94388
"80627",1107.289,81.197525,138.69748
"80628",1107.3022,80.86305,138.40044
"80629",1107.3156,80.50172,138.06607
"80630",1107.3289,80.14282,137.72285
"80631",1107.3422,79.80835,137.39285
"80632",1107.3555,79.52758,137.1061
"80633",1107.3688,79.31518,136.87892
"80634",1107.3821,79.17601,136.71835
"80635",1107.3954,79.093,136.60959
"80636",1107.4087,79.044174,136.53241
"80637",1107.422,79.01976,136.47812
"80638",1107.4353,78.995346,136.42307
"80639",1107.4486,78.96361,136.35992
"80640",1107.4619,78.91966,136.28358
"80641",1107.4752,78.86595,136.1961
"80642",1107.4885,78.80736,136.10207
"80643",1107.5018,78.746315,136.00375
"80644",1107.5151,78.68284,135.9011
"80645",1107.5284,78.61936,135.79645
"80646",1107.5417,78.55833,135.69226
"80647",1107.555,78.504616,135.59349
"80648",1107.5684,78.45823,135.50037
"80649",1107.5817,78.42649,135.42044
"80650",1107.595,78.40696,135.35173
"80651",1107.6083,78.397194,135.29218
"80652",1107.6216,78.399635,135.24452
"80653",1107.6349,78.40696,135.20183
"80654",1107.6482,78.42405,135.16913
"80655",1107.6615,78.44846,135.14429
"80656",1107.6748,78.48264,135.12997
"80657",1107.6881,78.519264,135.11917
"80658",1107.7014,78.55833,135.11195
"80659",1107.7147,78.59739,135.10596
"80660",1107.728,78.63157,135.0963
"80661",1107.7413,78.658424,135.08038
"80662",1107.7546,78.68284,135.06287
"80663",1107.768,78.70481,135.04367
"80664",1107.7812,78.729225,135.0276
"80665",1107.7946,78.75365,135.01231
"80666",1107.8079,78.77806,134.99777
"80667",1107.8212,78.802475,134.984
"80668",1107.8345,78.83177,134.97586
"80669",1107.8478,78.856186,134.96376
"80670",1107.8611,78.87816,134.94998
"80671",1107.8744,78.91966,134.95642
"80672",1107.8877,79.01732,135.02031
"80673",1107.901,79.24437,135.21664
"80674",1107.9143,79.674065,135.62273
"80675",1107.9276,80.33326,136.27173
"80676",1107.9409,81.18288,137.13176
"80677",1107.9542,82.11551,138.10136
"80678",1107.9675,82.97246,139.02443
"80679",1107.9808,83.617,139.76186
"80680",1107.9941,83.97101,140.2289
"80681",1108.0074,84.054016,140.436
"80682",1108.0208,83.92218,140.43086
"80683",1108.034,83.66094,140.29219
"80684",1108.0474,83.34844,140.0941
"80685",1108.0607,83.04082,139.89111
"80686",1108.074,82.75517,139.7005
"80687",1108.0873,82.49882,139.53024
"80688",1108.1006,82.27421,139.38373
"80689",1108.1139,82.0618,139.24239
"80690",1108.1272,81.84207,139.0871
"80691",1108.1405,81.59548,138.89807
"80692",1108.1538,81.31228,138.66473
"80693",1108.1671,80.987564,138.38103
"80694",1108.1804,80.63355,138.05788
"80695",1108.1937,80.27955,137.72368
"80696",1108.207,79.94995,137.40282
"80697",1108.2203,79.66674,137.11804
"80698",1108.2336,79.4519,136.89278
"80699",1108.247,79.30297,136.72672
"80700",1108.2603,79.21019,136.61215
"80701",1108.2736,79.15404,136.53131
"80702",1108.2869,79.1223,136.47313
"80703",1108.3002,79.097885,136.42128
"80704",1108.3135,79.07103,136.36623
"80705",1108.3268,79.03197,136.29813
"80706",1108.3401,78.98558,136.22148
"80707",1108.3534,78.92943,136.13362
"80708",1108.3667,78.86351,136.03424
"80709",1108.38,78.79271,135.92792
"80710",1108.3933,78.71946,135.81694
"80711",1108.4066,78.6511,135.70856
"80712",1108.4199,78.58518,135.60048
"80713",1108.4332,78.53147,135.50255
"80714",1108.4465,78.48997,135.41515
"80715",1108.4598,78.46067,135.33865
"80716",1108.4731,78.44114,135.27101
"80717",1108.4865,78.42405,135.2052
"80718",1108.4998,78.40696,135.13885
"80719",1108.5131,78.39231,135.07442
"80720",1108.5264,78.382545,135.0144
"80721",1108.5397,78.382545,134.96385
"80722",1108.553,78.39231,134.92307
"80723",1108.5663,78.4094,134.88991
"80724",1108.5796,78.42649,134.85728
"80725",1108.5929,78.44602,134.82764
"80726",1108.6062,78.46311,134.79616
"80727",1108.6195,78.48264,134.76765
"80728",1108.6328,78.50706,134.74464
"80729",1108.6461,78.54124,134.73216
"80730",1108.6594,78.58518,134.73051
"80731",1108.6727,78.63401,134.73512
"80732",1108.686,78.68284,134.74126
"80733",1108.6993,78.72434,134.7416
"80734",1108.7126,78.75853,134.73592
"80735",1108.726,78.785385,134.72397
"80736",1108.7393,78.80492,134.70554
"80737",1108.7526,78.84154,134.7048
"80738",1108.7659,78.93919,134.76625
"80739",1108.7792,79.17845,134.97235
"80740",1108.7925,79.62524,135.39346
"80741",1108.8058,80.291756,136.04826
"80742",1108.8191,81.13649,136.90211
"80743",1108.8324,82.039825,137.84097
"80744",1108.8457,82.85771,138.72261
"80745",1108.859,83.455864,139.41006
"80746",1108.8723,83.77814,139.84033
"80747",1108.8856,83.83429,140.01456
"80748",1108.8989,83.69268,139.99277
"80749",1108.9122,83.43389,139.84938
"80750",1108.9255,83.13359,139.65639
"80751",1108.9388,82.84062,139.46135
"80752",1108.9521,82.57694,139.28644
"80753",1108.9655,82.34257,139.1326
"80754",1108.9788,82.1326,138.99583
"80755",1108.9921,81.92752,138.8574
"80756",1109.0054,81.71267,138.70279
"80757",1109.0187,81.47585,138.5195
"80758",1109.032,81.20973,138.2995
"80759",1109.0453,80.91188,138.03946
"80760",1109.0586,80.59693,137.753
"80761",1109.0719,80.28199,137.45673
"80762",1109.0852,79.9939,137.17744
"80763",1109.0985,79.74731,136.93066
"80764",1109.1118,79.55688,136.73233
"80765",1109.1251,79.42504,136.58664
"80766",1109.1384,79.33959,136.48322
"80767",1109.1517,79.293205,136.41618
"80768",1109.165,79.26391,136.36479
"80769",1109.1783,79.237045,136.31493
"80770",1109.1917,79.21019,136.26422
"80771",1109.205,79.17601,136.20535
"80772",1109.2183,79.132065,136.13565
"80773",1109.2316,79.08568,136.06213
"80774",1109.2449,79.029526,135.9774
"80775",1109.2582,78.96849,135.88603
"80776",1109.2715,78.90257,135.78787
"80777",1109.2848,78.84154,135.69254
"80778",1109.2981,78.78783,135.60262
"80779",1109.3114,78.74387,135.52078
"80780",1109.3247,78.71458,135.45222
"80781",1109.338,78.69749,135.39496
"80782",1109.3513,78.68528,135.34204
"80783",1109.3646,78.675514,135.29118
"80784",1109.3779,78.675514,135.24979
"80785",1109.3912,78.6804,135.21327
"80786",1109.4045,78.69016,135.1818
"80787",1109.4178,78.70481,135.1555
"80788",1109.4312,78.7219,135.13211
"80789",1109.4445,78.746315,135.11658
"80790",1109.4578,78.77074,135.10182
"80791",1109.4711,78.79759,135.09026
"80792",1109.4844,78.82201,135.07709
"80793",1109.4977,78.84642,135.06468
"80794",1109.511,78.86595,135.04816
"80795",1109.5243,78.8806,135.02736
"80796",1109.5376,78.89525,135.00702
"80797",1109.5509,78.9099,134.98714
"80798",1109.5642,78.92699,134.97015
"80799",1109.5775,78.94652,134.95615
"80800",1109.5908,78.96605,134.94275
"80801",1109.6041,78.98802,134.9324
"80802",1109.6174,79.009995,134.92274
"80803",1109.6307,79.04173,134.92354
"80804",1109.644,79.12474,134.9766
"80805",1109.6573,79.327385,135.15189
"80806",1109.6707,79.71557,135.51904
"80807",1109.684,80.31617,136.11075
"80808",1109.6973,81.094986,136.89944
"80809",1109.7106,81.95438,137.79306
"80810",1109.7239,82.760056,138.65982
"80811",1109.7372,83.38262,139.36864
"80812",1109.7505,83.756165,139.84789
"80813",1109.7638,83.87335,140.08246
"80814",1109.7771,83.78302,140.11317
"80815",1109.7904,83.55596,140.00433
"80816",1109.8037,83.26055,139.82005
"80817",1109.817,82.95293,139.61432
"80818",1109.8303,82.66239,139.41606
"80819",1109.8436,82.4036,139.24048
"80820",1109.8569,82.1741,139.08609
"80821",1109.8702,81.95926,138.9392
"80822",1109.8835,81.74441,138.78557
"80823",1109.8969,81.51003,138.60571
"80824",1109.9102,81.24147,138.38434
"80825",1109.9235,80.94606,138.12773
"80826",1109.9368,80.638435,137.84967
"80827",1109.9501,80.33326,137.56445
"80828",1109.9634,80.05005,137.29166
"80829",1109.9767,79.80835,137.05151
"80830",1109.99,79.61547,136.85265
"80831",1110.0033,79.47143,136.69658
"80832",1110.0166,79.37133,136.57996
"80833",1110.0299,79.310295,136.49927
"80834",1110.0432,79.27123,136.43864
"80835",1110.0565,79.24437,136.389
"80836",1110.0698,79.21263,136.33365
"80837",1110.0831,79.17357,136.26997
"80838",1110.0964,79.1223,136.19287
"80839",1110.1097,79.05882,136.10196
"80840",1110.123,78.99046,136.00418
"80841",1110.1364,78.91966,135.90182
"80842",1110.1497,78.84886,135.79726
"80843",1110.163,78.785385,135.6978
"80844",1110.1763,78.729225,135.60368
"80845",1110.1896,78.68528,135.52002
"80846",1110.2029,78.65354,135.44719
"80847",1110.2162,78.63157,135.38313
"80848",1110.2295,78.6218,135.3306
"80849",1110.2428,78.61936,135.28508
"80850",1110.2561,78.6218,135.24437
"80851",1110.2694,78.62913,135.20862
"80852",1110.2827,78.63889,135.17554
"80853",1110.296,78.65354,135.14764
"80854",1110.3093,78.67307,135.12509
"80855",1110.3226,78.69749,135.10803
"80856",1110.3359,78.72678,135.09662
"80857",1110.3492,78.751205,135.08125
"80858",1110.3625,78.77318,135.0642
"80859",1110.3759,78.78783,135.0405
"80860",1110.3892,78.79515,135.00993
"80861",1110.4025,78.80492,134.98204
"80862",1110.4158,78.81712,134.9569
"80863",1110.4291,78.83421,134.93701
"80864",1110.4424,78.853745,134.9201
"80865",1110.4557,78.87572,134.90625
"80866",1110.469,78.89769,134.89308
"80867",1110.4823,78.91966,134.8806
"80868",1110.4956,78.941635,134.8688
"80869",1110.5089,78.96361,134.8577
"80870",1110.5222,78.98558,134.84727
"80871",1110.5355,79.029526,134.85951
"80872",1110.5488,79.149155,134.9488
"80873",1110.5621,79.41772,135.19078
"80874",1110.5754,79.89136,135.64622
"80875",1110.5887,80.567635,136.3191
"80876",1110.602,81.3904,137.15962
"80877",1110.6154,82.23758,138.05025
"80878",1110.6287,82.97246,138.85506
"80879",1110.642,83.492485,139.46797
"80880",1110.6553,83.756165,139.84079
"80881",1110.6686,83.78058,139.98259
"80882",1110.6819,83.63409,139.95424
"80883",1110.6952,83.38506,139.81879
"80884",1110.7085,83.08476,139.62427
"80885",1110.7218,82.78203,139.41794
"80886",1110.7351,82.493935,139.21678
"80887",1110.7484,82.23514,139.03592
"80888",1110.7617,82.003204,138.87384
"80889",1110.775,81.78348,138.71672
"80890",1110.7883,81.56863,138.5576
"80891",1110.8016,81.341576,138.37958
"80892",1110.815,81.0901,138.17003
"80893",1110.8282,80.81178,137.92578
"80894",1110.8416,80.52613,137.6655
"80895",1110.8549,80.24292,137.39873
"80896",1110.8682,79.9939,137.15729
"80897",1110.8815,79.78882,136.95203
"80898",1110.8948,79.635,136.79161
"80899",1110.9081,79.52758,136.67278
"80900",1110.9214,79.45678,136.5872
"80901",1110.9347,79.40551,136.51895
"80902",1110.948,79.36645,136.4613
"80903",1110.9613,79.32983,136.40488
"80904",1110.9746,79.28588,136.33998
"80905",1110.9879,79.237045,136.26883
"80906",1111.0012,79.17601,136.18394
"80907",1111.0145,79.11253,136.09471
"80908",1111.0278,79.04173,135.99617
"80909",1111.0411,78.975815,135.9003
"80910",1111.0544,78.91722,135.8097
"80911",1111.0677,78.86351,135.72214
"80912",1111.081,78.819565,135.64267
"80913",1111.0944,78.785385,135.5716
"80914",1111.1077,78.76097,135.50922
"80915",1111.121,78.74876,135.45828
"80916",1111.1343,78.746315,135.41673
"80917",1111.1476,78.75365,135.38489
"80918",1111.1609,78.765854,135.35814
"80919",1111.1742,78.7805,135.33421
"80920",1111.1875,78.80003,135.31563
"80921",1111.2008,78.81712,135.29521
"80922",1111.2141,78.836655,135.27777
"80923",1111.2274,78.856186,135.26094
"80924",1111.2407,78.87816,135.24716
"80925",1111.254,78.89769,135.23163
"80926",1111.2673,78.91722,135.2167
"80927",1111.2806,78.93919,135.20483
"80928",1111.294,78.96361,135.19609
"80929",1111.3073,78.9807,135.18079
"80930",1111.3206,78.995346,135.16357
"80931",1111.3339,79.009995,135.14682
"80932",1111.3472,79.02464,135.13052
"80933",1111.3605,79.03441,135.1098
"80934",1111.3738,79.046616,135.09183
"80935",1111.3871,79.05638,135.0718
"80936",1111.4004,79.063705,135.04962
"80937",1111.4137,79.07103,135.02768
"80938",1111.427,79.09544,135.02306
"80939",1111.4403,79.18089,135.08023
"80940",1111.4536,79.398186,135.27193
"80941",1111.4669,79.80347,135.6584
"80942",1111.4802,80.413826,136.26262
"80943",1111.4935,81.18288,137.0446
"80944",1111.5068,82.005646,137.90434
"80945",1111.5201,82.75273,138.71411
"80946",1111.5334,83.30694,139.35434
"80947",1111.5468,83.60967,139.76042
"80948",1111.56,83.67315,139.9367
"80949",1111.5734,83.55108,139.92943
"80950",1111.5867,83.30938,139.7987
"80951",1111.6,83.00908,139.60182
"80952",1111.6133,82.70878,139.39555
"80953",1111.6266,82.42802,139.19945
"80954",1111.6399,82.176544,139.02385
"80955",1111.6532,81.94461,138.85994
"80956",1111.6665,81.72488,138.70097
"80957",1111.6798,81.495384,138.52539
"80958",1111.6931,81.248795,138.32553
"80959",1111.7064,80.98024,138.09601
"80960",1111.7197,80.69703,137.84343
"80961",1111.733,80.413826,137.58202
"80962",1111.7463,80.14526,137.32639
"80963",1111.7596,79.91577,137.10144
"80964",1111.773,79.7351,136.91814
"80965",1111.7863,79.603264,136.77802
"80966",1111.7996,79.51049,136.67284
"80967",1111.8129,79.449455,136.5965
"80968",1111.8262,79.40795,136.53778
"80969",1111.8395,79.37133,136.48265
"80970",1111.8528,79.33227,136.42393
"80971",1111.8661,79.28832,136.35912
"80972",1111.8794,79.23216,136.28072
"80973",1111.8927,79.1638,136.18835
"80974",1111.906,79.093,136.09142
"80975",1111.9193,79.01976,135.98982
"80976",1111.9326,78.94408,135.8835
"80977",1111.9459,78.87816,135.78458
"80978",1111.9592,78.819565,135.69092
"80979",1111.9725,78.77318,135.60764
"80980",1111.9858,78.74143,135.53755
"80981",1111.9991,78.71946,135.47624
"80982",1112.0125,78.70725,135.42401
"80983",1112.0258,78.70725,135.3836
"80984",1112.0391,78.712135,135.34808
"80985",1112.0524,78.72678,135.32248
"80986",1112.0657,78.74387,135.29977
"80987",1112.079,78.76341,135.28006
"80988",1112.0923,78.785385,135.26338
"80989",1112.1056,78.80736,135.24739
"80990",1112.1189,78.82933,135.23209
"80991",1112.1322,78.8513,135.21747
"80992",1112.1455,78.873276,135.20354
"80993",1112.1588,78.887924,135.18297
"80994",1112.1721,78.89769,135.15797
"80995",1112.1854,78.90257,135.1284
"80996",1112.1987,78.91234,135.10387
"80997",1112.212,78.92699,135.08452
"80998",1112.2253,78.94652,135.07051
"80999",1112.2386,78.96849,135.05956
"81000",1112.252,78.992905,135.05173
"81001",1112.2653,79.012436,135.03978
"81002",1112.2786,79.027084,135.02356
"81003",1112.2919,79.04173,135.0078
"81004",1112.3052,79.05638,134.9925
"81005",1112.3185,79.093,134.99962
"81006",1112.3318,79.200424,135.07869
"81007",1112.3451,79.44457,135.29785
"81008",1112.3584,79.88159,135.71751
"81009",1112.3717,80.52125,136.35347
"81010",1112.385,81.30251,137.15103
"81011",1112.3983,82.11551,138.00473
"81012",1112.4116,82.82353,138.77887
"81013",1112.4249,83.32403,139.3676
"81014",1112.4382,83.56573,139.71318
"81015",1112.4515,83.580376,139.83926
"81016",1112.4648,83.41924,139.79002
"81017",1112.4781,83.158005,139.63564
"81018",1112.4915,82.85527,139.4316
"81019",1112.5048,82.55253,139.21808
"81020",1112.5181,82.27177,139.01709
"81021",1112.5314,82.01785,138.83417
"81022",1112.5447,81.79324,138.67262
"81023",1112.558,81.57839,138.51381
"81024",1112.5713,81.358665,138.34341
"81025",1112.5846,81.13405,138.16125
"81026",1112.5979,80.89235,137.955
"81027",1112.6112,80.635994,137.72653
"81028",1112.6245,80.38697,137.49739
"81029",1112.6378,80.15503,137.27754
"81030",1112.6511,79.95239,137.07974
"81031",1112.6644,79.78882,136.91467
"81032",1112.6777,79.66674,136.786
"81033",1112.691,79.57885,136.68768
"81034",1112.7043,79.51293,136.6086
"81035",1112.7177,79.45922,136.53966
"81036",1112.731,79.41039,136.47392
"81037",1112.7443,79.35668,136.40178
"81038",1112.7576,79.29565,136.32063
"81039",1112.7709,79.22972,136.2327
"81040",1112.7842,79.15648,136.13538
"81041",1112.7975,79.07591,136.02844
"81042",1112.8108,78.98802,135.91167
"81043",1112.8241,78.905014,135.79703
"81044",1112.8374,78.82445,135.68224
"81045",1112.8507,78.75853,135.57957
"81046",1112.864,78.70725,135.4895
"81047",1112.8773,78.67063,135.41248
"81048",1112.8906,78.641335,135.34163
"81049",1112.9039,78.6218,135.27963
"81050",1112.9172,78.6096,135.22435
"81051",1112.9305,78.60471,135.17601
"81052",1112.9438,78.60471,135.1324
"81053",1112.9572,78.6096,135.09367
"81054",1112.9705,78.61692,135.05754
"81055",1112.9838,78.6218,135.0192
"81056",1112.9971,78.626686,134.981
"81057",1113.0104,78.63645,134.94785
"81058",1113.0237,78.65354,134.92232
"81059",1113.037,78.67307,134.89977
"81060",1113.0503,78.695045,134.88026
"81061",1113.0636,78.71946,134.86389
"81062",1113.0769,78.73899,134.8434
"81063",1113.0902,78.75365,134.81865
"81064",1113.1035,78.765854,134.7919
"81065",1113.1168,78.78294,134.77042
"81066",1113.1301,78.80003,134.74947
"81067",1113.1434,78.82201,134.73393
"81068",1113.1567,78.84642,134.72153
"81069",1113.17,78.87572,134.71477
"81070",1113.1833,78.90257,134.70648
"81071",1113.1967,78.92943,134.69904
"81072",1113.21,78.95384,134.68999
"81073",1113.2233,78.98558,134.68903
"81074",1113.2366,79.05882,134.73056
"81075",1113.2499,79.23216,134.87448
"81076",1113.2632,79.571526,135.18985
"81077",1113.2765,80.10864,135.71358
"81078",1113.2898,80.82155,136.42987
"81079",1113.3031,81.62722,137.26122
"81080",1113.3164,82.40116,138.08601
"81081",1113.3297,83.021286,138.78117
"81082",1113.343,83.407036,139.26134
"81083",1113.3563,83.546196,139.50697
"81084",1113.3696,83.475395,139.547
"81085",1113.3829,83.26055,139.44077
"81086",1113.3962,82.96025,139.24236
"81087",1113.4095,82.63065,139.00526
"81088",1113.4229,82.31327,138.7701
"81089",1113.4362,82.01785,138.54697
"81090",1113.4495,81.75418,138.34636
"81091",1113.4628,81.51736,138.16435
"81092",1113.4761,81.29275,137.98717
"81093",1113.4894,81.07301,137.80783
"81094",1113.5027,80.848404,137.61676
"81095",1113.516,80.62379,137.41866
"81096",1113.5293,80.4065,137.22087
"81097",1113.5426,80.21118,137.03825
"81098",1113.5559,80.04761,136.88129
"81099",1113.5692,79.92554,136.76071
"81100",1113.5825,79.83765,136.6705
"81101",1113.5958,79.77661,136.6044
"81102",1113.6091,79.73022,136.55103
"81103",1113.6224,79.693596,136.50597
"81104",1113.6357,79.65453,136.45732
"81105",1113.649,79.603264,136.39525
"81106",1113.6624,79.54467,136.32425
"81107",1113.6757,79.47875,136.2441
"81108",1113.689,79.40551,136.15456
"81109",1113.7023,79.327385,136.05785
"81110",1113.7156,79.2517,135.96114
"81111",1113.7289,79.17845,135.8645
"81112",1113.7422,79.10521,135.76558
"81113",1113.7555,79.044174,135.67657
"81114",1113.7688,78.992905,135.59543
"81115",1113.7821,78.958725,135.52977
"81116",1113.7954,78.93187,135.47037
"81117",1113.8087,78.91722,135.42233
"81118",1113.822,78.9099,135.38116
"81119",1113.8353,78.9099,135.34709
"81120",1113.8486,78.91722,135.32034
"81121",1113.8619,78.93431,135.30359
"81122",1113.8752,78.96361,135.29958
"81123",1113.8885,78.992905,135.29648
"81124",1113.9019,79.01732,135.28941
"81125",1113.9152,79.03685,135.27823
"81126",1113.9285,79.0515,135.26277
"81127",1113.9418,79.063705,135.24533
"81128",1113.9551,79.07347,135.22583
"81129",1113.9684,79.08324,135.20663
"81130",1113.9817,79.093,135.18774
"81131",1113.995,79.09544,135.16183
"81132",1114.0083,79.09544,135.13356
"81133",1114.0216,79.093,135.10284
"81134",1114.0349,79.09056,135.07205
"81135",1114.0482,79.093,135.04607
"81136",1114.0615,79.097885,135.0226
"81137",1114.0748,79.11009,135.0066
"81138",1114.0881,79.12718,134.99588
"81139",1114.1014,79.14427,134.98569
"81140",1114.1147,79.1638,134.97847
"81141",1114.128,79.20531,134.99384
"81142",1114.1414,79.32006,135.08376
"81143",1114.1547,79.57641,135.31885
"81144",1114.168,80.028076,135.75728
"81145",1114.1813,80.67994,136.41002
"81146",1114.1946,81.47341,137.22475
"81147",1114.2079,82.30106,138.09845
"81148",1114.2212,83.03105,138.90034
"81149",1114.2345,83.55108,139.51509
"81150",1114.2478,83.824524,139.8995
"81151",1114.2611,83.86603,140.06053
"81152",1114.2744,83.72198,140.0373
"81153",1114.2877,83.46563,139.89726
"81154",1114.301,83.15556,139.6955
"81155",1114.3143,82.84306,139.48161
"81156",1114.3276,82.545204,139.2726
"81157",1114.341,82.27909,139.08603
"81158",1114.3542,82.039825,138.91798
"81159",1114.3676,81.81766,138.75957
"81160",1114.3809,81.59548,138.5942
"81161",1114.3942,81.36843,138.417
"81162",1114.4075,81.126724,138.21806
"81163",1114.4208,80.87282,137.99937
"81164",1114.4341,80.61158,137.76541
"81165",1114.4474,80.360115,137.53307
"81166",1114.4607,80.13306,137.31726
"81167",1114.474,79.94751,137.13586
"81168",1114.4873,79.801025,136.98773
"81169",1114.5006,79.69604,136.87653
"81170",1114.5139,79.61791,136.7889
"81171",1114.5272,79.55688,136.71591
"81172",1114.5405,79.49828,136.64346
"81173",1114.5538,79.43969,136.56918
"81174",1114.5671,79.37621,136.48819
"81175",1114.5804,79.30541,136.39789
"81176",1114.5938,79.22972,136.30049
"81177",1114.607,79.15404,136.20073
"81178",1114.6204,79.078354,136.0986
"81179",1114.6337,79.00023,135.99167
"81180",1114.647,78.93187,135.89206
"81181",1114.6603,78.870834,135.79764
"81182",1114.6736,78.819565,135.71107
"81183",1114.6869,78.78294,135.63756
"81184",1114.7002,78.75853,135.5751
"81185",1114.7135,78.74387,135.52165
"81186",1114.7268,78.74387,135.48239
"81187",1114.7401,78.751205,135.45047
"81188",1114.7534,78.765854,135.42609
"81189",1114.7667,78.78783,135.40948
"81190",1114.78,78.8098,135.39357
"81191",1114.7933,78.83177,135.37834
"81192",1114.8066,78.853745,135.3638
"81193",1114.82,78.87572,135.34995
"81194",1114.8333,78.90013,135.33922
"81195",1114.8466,78.92943,135.33414
"81196",1114.8599,78.95384,135.32509
"81197",1114.8732,78.975815,135.31436
"81198",1114.8865,78.98802,135.29456
"81199",1114.8998,78.992905,135.2678
"81200",1114.9131,78.995346,135.23877
"81201",1114.9264,78.995346,135.20737
"81202",1114.9397,79.00511,135.18573
"81203",1114.953,79.0222,135.17172
"81204",1114.9663,79.04173,135.16069
"81205",1114.9796,79.061264,135.15027
"81206",1114.9929,79.080795,135.14046
"81207",1115.0062,79.10521,135.13614
"81208",1115.0195,79.1638,135.16676
"81209",1115.0328,79.3225,135.29933
"81210",1115.0461,79.639885,135.59554
"81211",1115.0594,80.15991,136.10431
"81212",1115.0728,80.86061,136.81
"81213",1115.086,81.66384,137.64012
"81214",1115.0994,82.44511,138.47339
"81215",1115.1127,83.07744,139.18213
"81216",1115.126,83.48516,139.68602
"81217",1115.1393,83.64385,139.95363
"81218",1115.1526,83.597466,140.02112
"81219",1115.1659,83.404594,139.94067
"81220",1115.1792,83.13115,139.77362
"81221",1115.1925,82.83086,139.57118
"81222",1115.2058,82.54276,139.37155
"81223",1115.2191,82.27909,139.18735
"81224",1115.2324,82.04471,139.02419
"81225",1115.2457,81.832306,138.87569
"81226",1115.259,81.62234,138.72298
"81227",1115.2723,81.40505,138.5564
"81228",1115.2856,81.16823,138.36348
"81229",1115.299,80.91432,138.14609
"81230",1115.3123,80.65064,137.91098
"81231",1115.3256,80.396736,137.67741
"81232",1115.3389,80.164795,137.45787
"81233",1115.3522,79.9646,137.26282
"81234",1115.3655,79.80347,137.10059
"81235",1115.3788,79.68383,136.97481
"81236",1115.3921,79.5935,136.87459
"81237",1115.4054,79.520256,136.78864
"81238",1115.4187,79.45434,136.70772
"81239",1115.432,79.38842,136.62474
"81240",1115.4453,79.32006,136.53726
"81241",1115.4586,79.24193,136.43788
"81242",1115.4719,79.166245,136.3385
"81243",1115.4852,79.097885,136.24408
"81244",1115.4985,79.029526,136.14752
"81245",1115.5118,78.96361,136.05127
"81246",1115.5251,78.89769,135.95296
"81247",1115.5385,78.839096,135.85991
"81248",1115.5518,78.78783,135.77235
"81249",1115.5651,78.746315,135.69296
"81250",1115.5784,78.71458,135.62204
"81251",1115.5917,78.69993,135.56721
"81252",1115.605,78.695045,135.5217
"81253",1115.6183,78.69016,135.47603
"81254",1115.6316,78.692604,135.43753
"81255",1115.6449,78.69993,135.40399
"81256",1115.6582,78.709694,135.37312
"81257",1115.6715,78.71946,135.34256
"81258",1115.6848,78.73411,135.31718
"81259",1115.6981,78.75365,135.29716
"81260",1115.7114,78.77074,135.2753
"81261",1115.7247,78.78294,135.24908
"81262",1115.738,78.80003,135.22813
"81263",1115.7513,78.81712,135.20772
"81264",1115.7646,78.836655,135.19028
"81265",1115.778,78.85863,135.17589
"81266",1115.7913,78.8806,135.16219
"81267",1115.8046,78.89769,135.14429
"81268",1115.8179,78.9099,135.12204
"81269",1115.8312,78.91722,135.09529
"81270",1115.8445,78.922104,135.06633
"81271",1115.8578,78.93187,135.0424
"81272",1115.8711,78.9514,135.02855
"81273",1115.8844,78.98802,135.0324
"81274",1115.8977,79.09056,135.1033
"81275",1115.911,79.32006,135.30438
"81276",1115.9243,79.727776,135.69084
"81277",1115.9376,80.32838,136.28293
"81278",1115.9509,81.08278,137.04759
"81279",1115.9642,81.883575,137.88223
"81280",1115.9775,82.6038,138.66132
"81281",1115.9908,83.123825,139.26271
"81282",1116.0042,83.39727,139.63377
"81283",1116.0175,83.438774,139.78145
"81284",1116.0308,83.3045,139.75464
"81285",1116.0441,83.06279,139.6162
"81286",1116.0574,82.77959,139.42871
"81287",1116.0707,82.496376,139.23236
"81288",1116.084,82.230255,139.04425
"81289",1116.0973,81.99344,138.87714
"81290",1116.1106,81.78104,138.72704
"81291",1116.1239,81.57595,138.5776
"81292",1116.1372,81.36843,138.41934
"81293",1116.1505,81.14137,138.23505
"81294",1116.1638,80.89235,138.0217
"81295",1116.1771,80.62867,137.7859
"81296",1116.1904,80.36988,137.54677
"81297",1116.2037,80.130615,137.31906
"81298",1116.217,79.93042,137.12296
"81299",1116.2303,79.77661,136.96698
"81300",1116.2437,79.66186,136.84525
"81301",1116.257,79.588615,136.76143
"81302",1116.2703,79.537346,136.6973
"81303",1116.2836,79.49828,136.64377
"81304",1116.2969,79.45434,136.58414
"81305",1116.3102,79.40551,136.51825
"81306",1116.3235,79.34692,136.44107
"81307",1116.3368,79.27856,136.3523
"81308",1116.3501,79.20775,136.25894
"81309",1116.3634,79.132065,136.1585
"81310",1116.3767,79.05394,136.05324
"81311",1116.39,78.97826,135.94798
"81312",1116.4033,78.907455,135.84525
"81313",1116.4166,78.84642,135.75006
"81314",1116.4299,78.79515,135.66273
"81315",1116.4432,78.75609,135.58601
"81316",1116.4565,78.73167,135.52272
"81317",1116.4698,78.71702,135.46843
"81318",1116.4832,78.709694,135.421
"81319",1116.4965,78.70725,135.37823
"81320",1116.5098,78.712135,135.34271
"81321",1116.5231,78.71702,135.30734
"81322",1116.5364,78.72678,135.27701
"81323",1116.5497,78.74143,135.25186
"81324",1116.563,78.75853,135.22963
"81325",1116.5763,78.77806,135.21036
"81326",1116.5896,78.802475,135.19658
"81327",1116.6029,78.82933,135.186
"81328",1116.6162,78.856186,135.17627
"81329",1116.6295,78.88304,135.16737
"81330",1116.6428,78.907455,135.15688
"81331",1116.6561,78.92699,135.14226
"81332",1116.6694,78.941635,135.12337
"81333",1116.6827,78.95384,135.1025
"81334",1116.696,78.97093,135.08688
"81335",1116.7094,78.98558,135.06937
"81336",1116.7227,79.00023,135.0523
"81337",1116.736,79.01732,135.03815
"81338",1116.7493,79.03685,135.02696
"81339",1116.7626,79.078354,135.03836
"81340",1116.7759,79.19066,135.12186
"81341",1116.7892,79.44213,135.34804
"81342",1116.8025,79.87915,135.76762
"81343",1116.8158,80.50416,136.38885
"81344",1116.8291,81.26345,137.16391
"81345",1116.8424,82.04227,137.98221
"81346",1116.8557,82.71366,138.71742
"81347",1116.869,83.175095,139.26366
"81348",1116.8823,83.39483,139.58261
"81349",1116.8956,83.39971,139.69359
"81350",1116.9089,83.245895,139.64601
"81351",1116.9222,82.99931,139.50087
"81352",1116.9355,82.71366,139.30894
"81353",1116.9489,82.42802,139.10811
"81354",1116.9622,82.15701,138.91298
"81355",1116.9755,81.91287,138.73625
"81356",1116.9888,81.6907,138.57385
"81357",1117.0021,81.48318,138.41917
"81358",1117.0154,81.27322,138.25557
"81359",1117.0287,81.05104,138.07318
"81360",1117.042,80.82399,137.87898
"81361",1117.0553,80.59205,137.67279
"81362",1117.0686,80.37232,137.47157
"81363",1117.0819,80.17456,137.28545
"81364",1117.0952,80.01587,137.1322
"81365",1117.1085,79.8938,137.01062
"81366",1117.1218,79.798584,136.91208
"81367",1117.1351,79.727776,136.83498
"81368",1117.1484,79.66674,136.76543
"81369",1117.1617,79.60815,136.69641
"81370",1117.175,79.54711,136.62312
"81371",1117.1884,79.48119,136.54305
"81372",1117.2017,79.40551,136.45114
"81373",1117.215,79.3225,136.34955
"81374",1117.2283,79.234604,136.24048
"81375",1117.2416,79.14671,136.12866
"81376",1117.2549,79.06615,136.02142
"81377",1117.2682,78.995346,135.92143
"81378",1117.2815,78.93187,135.82655
"81379",1117.2948,78.8806,135.7419
"81380",1117.3081,78.84398,135.67029
"81381",1117.3214,78.81468,135.60486
"81382",1117.3347,78.802475,135.5556
"81383",1117.348,78.80003,135.51573
"81384",1117.3613,78.80736,135.48555
"81385",1117.3746,78.82445,135.46536
"81386",1117.388,78.8513,135.45547
"81387",1117.4012,78.87572,135.44398
"81388",1117.4146,78.90257,135.4357
"81389",1117.4279,78.922104,135.42093
"81390",1117.4412,78.93675,135.40189
"81391",1117.4545,78.9514,135.3833
"81392",1117.4678,78.96117,135.36029
"81393",1117.4811,78.97093,135.33759
"81394",1117.4944,78.97826,135.31274
"81395",1117.5077,78.9807,135.28325
"81396",1117.521,78.9807,135.25139
"81397",1117.5343,78.98314,135.22197
"81398",1117.5476,78.99046,135.19751
"81399",1117.5609,79.00023,135.17572
"81400",1117.5742,79.012436,135.15668
"81401",1117.5875,79.01976,135.13313
"81402",1117.6008,79.029526,135.11226
"81403",1117.6141,79.03685,135.08925
"81404",1117.6274,79.06615,135.08844
"81405",1117.6407,79.15404,135.14714
"81406",1117.654,79.37621,135.34288
"81407",1117.6674,79.781494,135.72867
"81408",1117.6807,80.37965,136.31999
"81409",1117.694,81.11452,137.06673
"81410",1117.7073,81.87625,137.8633
"81411",1117.7206,82.530556,138.57623
"81412",1117.7339,82.97734,139.1021
"81413",1117.7472,83.177536,139.39534
"81414",1117.7605,83.158005,139.47511
"81415",1117.7738,82.984665,139.40047
"81416",1117.7871,82.720985,139.23006
"81417",1117.8004,82.425575,139.01968
"81418",1117.8137,82.127716,138.79762
"81419",1117.827,81.85184,138.58824
"81420",1117.8403,81.61013,138.4044
"81421",1117.8536,81.3904,138.235
"81422",1117.867,81.18288,138.07092
"81423",1117.8802,80.9778,137.90282
"81424",1117.8936,80.765396,137.72098
"81425",1117.9069,80.552986,137.53249
"81426",1117.9202,80.35035,137.34714
"81427",1117.9335,80.16724,137.17497
"81428",1117.9468,80.01343,137.0264
"81429",1117.9601,79.8938,136.9072
"81430",1117.9734,79.798584,136.80865
"81431",1117.9867,79.725334,136.72911
"81432",1118,79.6643,136.65948
"81433",1118.0133,79.61547,136.60016
"81434",1118.0266,79.56664,136.5393
"81435",1118.0399,79.51537,136.47449
"81436",1118.0532,79.45922,136.40318
"81437",1118.0665,79.40063,136.32768
"81438",1118.0798,79.33715,136.24547
"81439",1118.0931,79.26635,136.15395
"81440",1118.1064,79.19554,136.06021
"81441",1118.1198,79.12718,135.9667
"81442",1118.133,79.063705,135.87595
"81443",1118.1464,79.009995,135.79297
"81444",1118.1597,78.97093,135.72296
"81445",1118.173,78.94408,135.66394
"81446",1118.1863,78.924545,135.6114
"81447",1118.1996,78.907455,135.5607
"81448",1118.2129,78.90013,135.51923
"81449",1118.2262,78.90257,135.48729
"81450",1118.2395,78.907455,135.45787
"81451",1118.2528,78.91234,135.4286
"81452",1118.2661,78.922104,135.40437
"81453",1118.2794,78.93431,135.38289
"81454",1118.2927,78.94652,135.36179
"81455",1118.306,78.958725,135.34106
"81456",1118.3193,78.975815,135.3256
"81457",1118.3326,78.99779,135.31557
"81458",1118.346,79.012436,135.29889
"81459",1118.3593,79.02464,135.28023
"81460",1118.3726,79.03197,135.25706
"81461",1118.3859,79.03685,135.23169
"81462",1118.3992,79.04173,135.20647
"81463",1118.4125,79.04906,135.18384
"81464",1118.4258,79.05882,135.16388
"81465",1118.4391,79.07103,135.14667
"81466",1118.4524,79.080795,135.1274
"81467",1118.4657,79.08812,135.10599
"81468",1118.479,79.11742,135.10678
"81469",1118.4923,79.20531,135.16708
"81470",1118.5056,79.4226,135.35954
"81471",1118.5189,79.818115,135.73701
"81472",1118.5322,80.394295,136.30751
"81473",1118.5455,81.09743,137.02296
"81474",1118.5588,81.812775,137.77261
"81475",1118.5721,82.423134,138.43962
"81476",1118.5854,82.82597,138.91818
"81477",1118.5988,82.98955,139.17007
"81478",1118.612,82.933395,139.20735
"81479",1118.6254,82.72587,139.09149
"81480",1118.6387,82.425575,138.87639
"81481",1118.652,82.09354,138.62015
"81482",1118.6653,81.76639,138.35843
"81483",1118.6786,81.47097,138.11821
"81484",1118.6919,81.20973,137.90294
"81485",1118.7052,80.98024,137.71126
"81486",1118.7185,80.77516,137.53682
"81487",1118.7318,80.584724,137.3706
"81488",1118.7451,80.40406,137.20822
"81489",1118.7584,80.24536,137.06215
"81490",1118.7717,80.111084,136.93555
"81491",1118.785,80.008545,136.83649
"81492",1118.7983,79.9353,136.76352
"81493",1118.8116,79.8938,136.72
"81494",1118.825,79.869385,136.69226
"81495",1118.8383,79.84741,136.6662
"81496",1118.8516,79.82544,136.63947
"81497",1118.8649,79.79614,136.6047
"81498",1118.8782,79.75952,136.5617
"81499",1118.8915,79.7058,136.50047
"81500",1118.9048,79.63744,136.42291
"81501",1118.9181,79.55932,136.33345
"81502",1118.9314,79.46899,136.22934
"81503",1118.9447,79.37621,136.11996
"81504",1118.958,79.28832,136.01257
"81505",1118.9713,79.21263,135.91464
"81506",1118.9846,79.151596,135.829
"81507",1118.9979,79.10521,135.75609
"81508",1119.0112,79.07347,135.69638
"81509",1119.0245,79.05638,135.65033
"81510",1119.0378,79.046616,135.61107
"81511",1119.0511,79.04173,135.57639
"81512",1119.0645,79.03929,135.54399
"81513",1119.0778,79.03929,135.51396
"81514",1119.0911,79.044174,135.48882
"81515",1119.1044,79.05882,135.47359
"81516",1119.1177,79.078354,135.4637
"81517",1119.131,79.097885,135.45442
"81518",1119.1443,79.11986,135.4482
"81519",1119.1576,79.13695,135.43777
"81520",1119.1709,79.15404,135.42789
"81521",1119.1842,79.168686,135.41609
"81522",1119.1975,79.17845,135.39987
"81523",1119.2108,79.17601,135.37175
"81524",1119.2241,79.18089,135.35088
"81525",1119.2374,79.21507,135.35945
"81526",1119.2507,79.33227,135.45212
"81527",1119.264,79.59594,135.69492
"81528",1119.2773,80.042725,136.12907
"81529",1119.2906,80.65308,136.74077
"81530",1119.304,81.34646,137.45456
"81531",1119.3173,82.01785,138.16803
"81532",1119.3306,82.55253,138.76576
"81533",1119.3439,82.87236,139.16536
"81534",1119.3572,82.967575,139.35034
"81535",1119.3705,82.86992,139.34543
"81536",1119.3838,82.64042,139.20561
"81537",1119.3971,82.340126,138.98784
"81538",1119.4104,82.022736,138.74358
"81539",1119.4237,81.71755,138.5016
"81540",1119.437,81.44167,138.2794
"81541",1119.4503,81.19997,138.08275
"81542",1119.4636,80.9778,137.89809
"81543",1119.4769,80.77028,137.72113
"81544",1119.4902,80.567635,137.54256
"81545",1119.5168,80.184326,137.18855
"81546",1119.5302,80.025635,137.03561
"81547",1119.5435,79.89868,136.90945
"81548",1119.5568,79.81079,136.81839
"81549",1119.5701,79.7522,136.75388
"81550",1119.5834,79.71557,136.7095
"81551",1119.5967,79.693596,136.67863
"81552",1119.61,79.676506,136.65196
"81553",1119.6233,79.65453,136.61987
"81554",1119.6366,79.61547,136.57
"81555",1119.6499,79.55688,136.49939
"81556",1119.6632,79.48119,136.40985
"81557",1119.6765,79.3933,136.30574
"81558",1119.6898,79.29809,136.19156
"81559",1119.7031,79.21019,136.08173
"81560",1119.7164,79.12962,135.97647
"81561",1119.7297,79.05882,135.87846
"81562",1119.743,78.98802,135.77824
"81563",1119.7563,78.92699,135.68558
"81564",1119.7697,78.87816,135.60321
"81565",1119.783,78.853745,135.54373
"81566",1119.7963,78.84642,135.50058
"81567",1119.8096,78.856186,135.47429
"81568",1119.8229,78.87572,135.45807
"81569",1119.8362,78.90013,135.44734
"81570",1119.8495,78.92943,135.44226
"81571",1119.8628,78.96117,135.44054
"81572",1119.8761,78.995346,135.44225
"81573",1119.8894,79.03197,135.44746
"81574",1119.9027,79.063705,135.44894
"81575",1119.916,79.08812,135.44409
"81576",1119.9293,79.10765,135.43512
"81577",1119.9426,79.14427,135.44385
"81578",1119.9559,79.25414,135.52698
"81579",1119.9692,79.50561,135.75513
"81580",1119.9825,79.94263,136.1767
"81581",1119.9958,80.567635,136.79991
"81582",1120.0092,81.31472,137.56474
"81583",1120.0225,82.06912,138.36023
"81584",1120.0358,82.69901,139.05478
"81585",1120.0491,83.11406,139.55417
"81586",1120.0624,83.27764,139.81506
"81587",1120.0757,83.226364,139.86621
"81588",1120.089,83.021286,139.76196
"81589",1120.1023,82.73319,139.56828
"81590",1120.1156,82.425575,139.34608
"81591",1120.1289,82.13504,139.13135
"81592",1120.1422,81.87625,138.93929
"81593",1120.1555,81.64919,138.77086
"81594",1120.1688,81.444115,138.61732
"81595",1120.1821,81.23659,138.45493
"81596",1120.1954,81.01442,138.27141
"81597",1120.2087,80.77028,138.05898
"81598",1120.222,80.50416,137.81693
"81599",1120.2354,80.233154,137.56168
"81600",1120.2487,79.97681,137.31262
"81601",1120.262,79.75708,137.09216
"81602",1120.2753,79.58373,136.91122
"81603",1120.2886,79.466545,136.78102
"81604",1120.3019,79.3933,136.6911
"81605",1120.3152,79.34936,136.62819
"81606",1120.3285,79.32494,136.58344
"81607",1120.3418,79.30297,136.54036
"81608",1120.3551,79.276115,136.49171
"81609",1120.3684,79.234604,136.42758
"81610",1120.3817,79.18089,136.34995
"81611",1120.395,79.11986,136.2633
"81612",1120.4083,79.0515,136.16743
"81613",1120.4216,78.98314,136.06943
"81614",1120.4349,78.91722,135.97173
"81615",1120.4482,78.85863,135.87929
"81616",1120.4615,78.80736,135.79234
"81617",1120.4749,78.765854,135.71356
"81618",1120.4882,78.73167,135.64081
"81619",1120.5015,78.70725,135.57675
"81620",1120.5148,78.695045,135.52414
"81621",1120.5281,78.69749,135.4858
"81622",1120.5414,78.70725,135.45485
"81623",1120.5547,78.72434,135.43153
"81624",1120.568,78.75365,135.42097
"81625",1120.5813,78.78783,135.4162
"81626",1120.5946,78.82201,135.41249
"81627",1120.6079,78.856186,135.40985
"81628",1120.6212,78.890366,135.40828
"81629",1120.6345,78.91722,135.40045
"81630",1120.6478,78.95384,135.40323
"81631",1120.6611,79.04906,135.46574
"81632",1120.6744,79.276115,135.66309
"81633",1120.6877,79.69848,136.06282
"81634",1120.701,80.32838,136.68329
"81635",1120.7144,81.11452,137.47969
"81636",1120.7277,81.94705,138.34706
"81637",1120.741,82.67948,139.14034
"81638",1120.7543,83.194626,139.73921
"81639",1120.7676,83.4461,140.09052
"81640",1120.7809,83.458305,140.21042
"81641",1120.7942,83.29717,140.15736
"81642",1120.8075,83.038376,140.0016
"81643",1120.8208,82.75517,139.81335
"81644",1120.8341,82.47929,139.62357
"81645",1120.8474,82.230255,139.45201
"81646",1120.8607,82.005646,139.2971
"81647",1120.874,81.80057,139.15471
"81648",1120.8873,81.600365,139.01077
"81649",1120.9006,81.38308,138.8435
"81650",1120.914,81.13893,138.64258
"81651",1120.9272,80.86061,138.39986
"81652",1120.9406,80.55543,138.12157
"81653",1120.9539,80.24048,137.82397
"81654",1120.9672,79.94263,137.53363
"81655",1120.9805,79.67895,137.26816
"81656",1120.9938,79.46166,137.04083
"81657",1121.0071,79.30297,136.86531
"81658",1121.0204,79.19554,136.7361
"81659",1121.0337,79.12718,136.6426
"81660",1121.047,79.08568,136.5738
"81661",1121.0603,79.05882,136.51837
"81662",1121.0736,79.029526,136.45966
"81663",1121.0869,78.98802,136.38782
"81664",1121.1002,78.93431,136.30247
"81665",1121.1135,78.873276,136.20813
"81666",1121.1268,78.81224,136.11188
"81667",1121.1401,78.75853,136.02104
"81668",1121.1534,78.70725,135.93097
"81669",1121.1667,78.658424,135.84174
"81670",1121.18,78.61204,135.75342
"81671",1121.1934,78.56809,135.66609
"81672",1121.2067,78.52659,135.57983
"81673",1121.22,78.49973,135.50693
"81674",1121.2333,78.487526,135.44783
"81675",1121.2466,78.48997,135.403
"81676",1121.2599,78.49973,135.36557
"81677",1121.2732,78.519264,135.33821
"81678",1121.2865,78.54368,135.31635
"81679",1121.2998,78.572975,135.30013
"81680",1121.3131,78.60471,135.28726
"81681",1121.3264,78.641335,135.28027
"81682",1121.3397,78.677956,135.27443
"81683",1121.353,78.71702,135.27217
"81684",1121.3663,78.75609,135.27115
"81685",1121.3796,78.79271,135.26889
"81686",1121.393,78.82201,135.26045
"81687",1121.4062,78.84886,135.25049
"81688",1121.4196,78.89281,135.25845
"81689",1121.4329,79.009995,135.34103
"81690",1121.4462,79.281,135.5811
"81691",1121.4595,79.764404,136.04204
"81692",1121.4728,80.465096,136.73537
"81693",1121.4861,81.31716,137.60197
"81694",1121.4994,82.18631,138.51228
"81695",1121.5127,82.92607,139.32037
"81696",1121.526,83.424126,139.90987
"81697",1121.5393,83.64141,140.23416
"81698",1121.5526,83.617,140.32355
"81699",1121.5659,83.43389,140.25348
"81700",1121.5792,83.17265,140.09955
"81701",1121.5925,82.89189,139.91794
"81702",1121.6058,82.63065,139.74707
"81703",1121.6191,82.40116,139.5998
"81704",1121.6324,82.196075,139.46974
"81705",1121.6458,82.005646,139.34795
"81706",1121.659,81.815216,139.2202
"81707",1121.6724,81.61257,139.07428
"81708",1121.6857,81.38064,138.89275
"81709",1121.699,81.10719,138.66245
"81710",1121.7123,80.78737,138.37723
"81711",1121.7256,80.448006,138.06247
"81712",1121.7389,80.10864,137.7371
"81713",1121.7522,79.79126,137.42313
"81714",1121.7655,79.52758,137.15292
"81715",1121.7788,79.32983,136.9404
"81716",1121.7921,79.1931,136.78273
"81717",1121.8054,79.10521,136.66962
"81718",1121.8187,79.05394,136.59038
"81719",1121.832,79.027084,136.53395
"81720",1121.8453,79.009995,136.48645
"81721",1121.8586,78.98802,136.43353
"81722",1121.872,78.95384,136.36772
"81723",1121.8853,78.9099,136.29108
"81724",1121.8986,78.856186,136.2033
"81725",1121.9119,78.79271,136.10406
"81726",1121.9252,78.73411,136.00774
"81727",1121.9385,78.675514,135.90958
"81728",1121.9518,78.624245,135.81691
"81729",1121.9651,78.5803,135.72997
"81730",1121.9784,78.54612,135.65141
"81731",1121.9917,78.52415,135.584
"81732",1122.005,78.519264,135.53299
"81733",1122.0183,78.52659,135.49403
"81734",1122.0316,78.54368,135.46507
"81735",1122.0449,78.56565,135.44153
"81736",1122.0582,78.590065,135.42111
"81737",1122.0715,78.61692,135.4039
"81738",1122.0848,78.643776,135.38753
"81739",1122.0981,78.66819,135.36955
"81740",1122.1115,78.68772,135.34746
"81741",1122.1248,78.70237,135.32109
"81742",1122.1381,78.71946,135.29762
"81743",1122.1514,78.73899,135.27713
"81744",1122.1647,78.765854,135.26459
"81745",1122.178,78.80003,135.2602
"81746",1122.1913,78.836655,135.25931
"81747",1122.2046,78.870834,135.25713
"81748",1122.2179,78.90013,135.25113
"81749",1122.2312,78.91966,135.23628
"81750",1122.2445,78.93919,135.22205
"81751",1122.2578,78.958725,135.20842
"81752",1122.2711,78.992905,135.21005
"81753",1122.2844,79.078354,135.26402
"81754",1122.2977,79.28832,135.44519
"81755",1122.311,79.691154,135.82578
"81756",1122.3243,80.31861,136.44357
"81757",1122.3376,81.13405,137.26897
"81758",1122.351,82.039825,138.21019
"81759",1122.3643,82.882126,139.11624
"81760",1122.3776,83.53155,139.85573
"81761",1122.3909,83.90265,140.33719
"81762",1122.4042,84.00763,140.56413
"81763",1122.4175,83.912415,140.59416
"81764",1122.4308,83.69756,140.50157
"81765",1122.4441,83.43389,140.35345
"81766",1122.4574,83.17021,140.19708
"81767",1122.4707,82.92851,140.05446
"81768",1122.484,82.70878,139.92624
"81769",1122.4973,82.493935,139.79605
"81770",1122.5106,82.28153,139.66159
"81771",1122.5239,82.06424,139.5156
"81772",1122.5372,81.82742,139.34329
"81773",1122.5505,81.5613,139.13428
"81774",1122.5638,81.26101,138.88278
"81775",1122.5771,80.936295,138.59747
"81776",1122.5905,80.59205,138.28249
"81777",1122.6038,80.25269,137.96164
"81778",1122.6171,79.94995,137.6668
"81779",1122.6304,79.7058,137.42108
"81780",1122.6437,79.520256,137.22633
"81781",1122.657,79.39086,137.08194
"81782",1122.6703,79.29809,136.97012
"81783",1122.6836,79.234604,136.8847
"81784",1122.6969,79.17601,136.80219
"81785",1122.7102,79.114975,136.7154
"81786",1122.7235,79.03685,136.6096
"81787",1122.7368,78.94896,136.49161
"81788",1122.7501,78.853745,136.36354
"81789",1122.7634,78.75853,136.2325
"81790",1122.7767,78.66575,136.10092
"81791",1122.79,78.590065,135.98354
"81792",1122.8033,78.52415,135.87355
"81793",1122.8167,78.470436,135.77371
"81794",1122.83,78.433815,135.68929
"81795",1122.8433,78.41184,135.61836
"81796",1122.8566,78.40208,135.55896
"81797",1122.8699,78.40696,135.5139
"81798",1122.8832,78.41917,135.47632
"81799",1122.8965,78.4387,135.44644
"81800",1122.9098,78.45823,135.41718
"81801",1122.9231,78.47776,135.38852
"81802",1122.9364,78.49973,135.36292
"81803",1122.9497,78.519264,135.33556
"81804",1122.963,78.54124,135.31125
"81805",1122.9763,78.56077,135.28519
"81806",1122.9896,78.58518,135.26462
"81807",1123.0029,78.6096,135.24481
"81808",1123.0162,78.63645,135.22821
"81809",1123.0295,78.658424,135.20757
"81810",1123.0428,78.677956,135.18517
"81811",1123.0562,78.69749,135.16338
"81812",1123.0695,78.71702,135.1422
"81813",1123.0828,78.73899,135.12407
"81814",1123.0961,78.77074,135.11641
"81815",1123.1094,78.80492,135.11217
"81816",1123.1227,78.84398,135.11388
"81817",1123.136,78.87572,135.10948
"81818",1123.1493,78.90257,135.1012
"81819",1123.1626,78.924545,135.08887
"81820",1123.1759,78.97826,135.10896
"81821",1123.1892,79.12474,135.22351
"81822",1123.2025,79.43481,135.50623
"81823",1123.2158,79.95972,136.01347
"81824",1123.2291,80.69215,136.74464
"81825",1123.2424,81.55154,137.62567
"81826",1123.2557,82.41337,138.536
"81827",1123.269,83.13847,139.33652
"81828",1123.2823,83.62432,139.92044
"81829",1123.2957,83.84161,140.25099
"81830",1123.309,83.83185,140.36128
"81831",1123.3223,83.66338,140.31256
"81832",1123.3356,83.40948,140.17314
"81833",1123.3489,83.12871,139.99892
"81834",1123.3622,82.85771,139.8257
"81835",1123.3755,82.60868,139.66597
"81836",1123.3888,82.38163,139.52045
"81837",1123.4021,82.17166,139.3849
"81838",1123.4154,81.971466,139.25258
"81839",1123.4287,81.761505,139.10423
"81840",1123.442,81.52712,138.9249
"81841",1123.4553,81.253685,138.69919
"81842",1123.4686,80.94606,138.43074
"81843",1123.4819,80.61646,138.1307
"81844",1123.4952,80.289314,137.82283
"81845",1123.5085,79.98901,137.53157
"81846",1123.5219,79.73998,137.2822
"81847",1123.5352,79.54955,137.08363
"81848",1123.5485,79.41039,136.93039
"81849",1123.5618,79.3225,136.82407
"81850",1123.5751,79.26635,136.74673
"81851",1123.5884,79.22484,136.6823
"81852",1123.6017,79.1931,136.62633
"81853",1123.615,79.16136,136.56937
"81854",1123.6283,79.1223,136.50409
"81855",1123.6416,79.07103,136.42538
"81856",1123.6549,79.01488,136.3402
"81857",1123.6682,78.95384,136.24837
"81858",1123.6815,78.887924,136.14975
"81859",1123.6948,78.82201,136.04907
"81860",1123.7081,78.76341,135.95366
"81861",1123.7214,78.712135,135.86374
"81862",1123.7347,78.67063,135.78198
"81863",1123.748,78.63645,135.70625
"81864",1123.7614,78.61204,135.63922
"81865",1123.7747,78.59739,135.58119
"81866",1123.788,78.590065,135.53003
"81867",1123.8013,78.590065,135.48596
"81868",1123.8146,78.59495,135.44678
"81869",1123.8279,78.60471,135.41263
"81870",1123.8412,78.624245,135.38855
"81871",1123.8545,78.64622,135.36752
"81872",1123.8678,78.67307,135.35207
"81873",1123.8811,78.69749,135.335
"81874",1123.8944,78.71702,135.31383
"81875",1123.9077,78.73411,135.29082
"81876",1123.921,78.74876,135.2659
"81877",1123.9343,78.76097,135.23901
"81878",1123.9476,78.77562,135.21494
"81879",1123.9609,78.78783,135.18887
"81880",1123.9742,78.79759,135.16075
"81881",1123.9875,78.8098,135.13538
"81882",1124.0009,78.82445,135.11282
"81883",1124.0142,78.839096,135.09073
"81884",1124.0275,78.85863,135.07397
"81885",1124.0408,78.8806,135.06027
"81886",1124.0541,78.907455,135.05214
"81887",1124.0674,78.92943,135.03996
"81888",1124.0807,78.94896,135.02603
"81889",1124.094,78.97826,135.02248
"81890",1124.1073,79.03441,135.04669
"81891",1124.1206,79.17845,135.16055
"81892",1124.1339,79.48608,135.4425
"81893",1124.1472,80.00366,135.94403
"81894",1124.1605,80.723885,136.66437
"81895",1124.1738,81.56863,137.53174
"81896",1124.1871,82.408485,138.42062
"81897",1124.2004,83.106735,139.19414
"81898",1124.2137,83.56573,139.75021
"81899",1124.227,83.76349,140.0594
"81900",1124.2404,83.73174,140.14526
"81901",1124.2537,83.54864,140.07878
"81902",1124.267,83.28008,139.92113
"81903",1124.2803,82.98955,139.7331
"81904",1124.2936,82.71122,139.54819
"81905",1124.3069,82.45731,139.37901
"81906",1124.3202,82.230255,139.22874
"81907",1124.3335,82.01785,139.08604
"81908",1124.3468,81.81033,138.94159
"81909",1124.3601,81.59304,138.78087
"81910",1124.3734,81.35378,138.5914
"81911",1124.3867,81.0901,138.37003
"81912",1124.4,80.80446,138.11845
"81913",1124.4133,80.51148,137.85062
"81914",1124.4266,80.233154,137.58827
"81915",1124.44,79.98657,137.34897
"81916",1124.4532,79.78638,137.14835
"81917",1124.4666,79.63744,136.99274
"81918",1124.4799,79.52758,136.87154
"81919",1124.4932,79.4519,136.78108
"81920",1124.5065,79.398186,136.71024
"81921",1124.5198,79.35424,136.64748
"81922",1124.5331,79.310295,136.58334
"81923",1124.5464,79.26391,136.5154
"81924",1124.5597,79.21019,136.43867
"81925",1124.573,79.14427,136.34807
"81926",1124.5863,79.07103,136.24808
"81927",1124.5996,78.995346,136.14336
"81928",1124.6129,78.91966,136.03627
"81929",1124.6262,78.856186,135.93903
"81930",1124.6395,78.80003,135.84712
"81931",1124.6528,78.74876,135.75835
"81932",1124.6661,78.70481,135.6753
"81933",1124.6794,78.67063,135.60063
"81934",1124.6927,78.643776,135.53223
"81935",1124.706,78.626686,135.47275
"81936",1124.7194,78.6218,135.42494
"81937",1124.7327,78.626686,135.38675
"81938",1124.746,78.63889,135.35603
"81939",1124.7593,78.6511,135.3257
"81940",1124.7726,78.67063,135.30307
"81941",1124.7859,78.692604,135.2835
"81942",1124.7992,78.712135,135.26216
"81943",1124.8125,78.73411,135.24388
"81944",1124.8258,78.751205,135.22142
"81945",1124.8391,78.768295,135.19948
"81946",1124.8524,78.78294,135.17563
"81947",1124.8657,78.79271,135.14735
"81948",1124.879,78.802475,135.11938
"81949",1124.8923,78.8098,135.08928
"81950",1124.9056,78.81712,135.0594
"81951",1124.919,78.82933,135.03464
"81952",1124.9323,78.84154,135.01025
"81953",1124.9456,78.856186,134.9887
"81954",1124.9589,78.8806,134.97736
"81955",1124.9722,78.905014,134.96678
"81956",1124.9855,78.93187,134.95941
"81957",1124.9988,78.958725,134.95288
"81958",1125.0121,78.98314,134.94475
"81959",1125.0254,79.009995,134.93982
"81960",1125.0387,79.07103,134.96991
"81961",1125.052,79.21507,135.08492
"81962",1125.0653,79.51537,135.36069
"81963",1125.0786,80.01587,135.84604
"81964",1125.0919,80.706795,136.53746
"81965",1125.1052,81.51003,137.3628
"81966",1125.1185,82.31083,138.21078
"81967",1125.1318,82.9749,138.94707
"81968",1125.1451,83.40948,139.47461
"81969",1125.1584,83.59014,139.76183
"81970",1125.1718,83.5584,139.84229
"81971",1125.185,83.37774,139.77283
"81972",1125.1984,83.10918,139.60982
"81973",1125.2117,82.82109,139.4189
"81974",1125.225,82.54276,139.22873
"81975",1125.2383,82.2913,139.05673
"81976",1125.2516,82.06668,138.90372
"81977",1125.2649,81.864044,138.76567
"81978",1125.2782,81.668724,138.6286
"81979",1125.2915,81.46609,138.47812
"81980",1125.3048,81.23903,138.29688
"81981",1125.3181,80.99489,138.09146
"81982",1125.3314,80.73609,137.86375
"81983",1125.3447,80.47242,137.6231
"81984",1125.358,80.22339,137.38882
"81985",1125.3713,80.00122,137.17365
"81986",1125.3846,79.818115,136.99057
"81987",1125.398,79.68383,136.8506
"81988",1125.4113,79.586174,136.74306
"81989",1125.4246,79.520256,136.6642
"81990",1125.4379,79.47387,136.60281
"81991",1125.4512,79.43481,136.5473
"81992",1125.4645,79.38842,136.48325
"81993",1125.4778,79.33715,136.41286
"81994",1125.4911,79.276115,136.3311
"81995",1125.5044,79.21263,136.245
"81996",1125.5177,79.14183,136.14958
"81997",1125.531,79.06859,136.04951
"81998",1125.5443,78.995346,135.94716
"81999",1125.5576,78.924545,135.84496
"82000",1125.5709,78.86107,135.74786
"82001",1125.5842,78.81468,135.66588
"82002",1125.5975,78.77806,135.59221
"82003",1125.6108,78.75609,135.53204
"82004",1125.6241,78.74143,135.47852
"82005",1125.6375,78.73411,135.43185
"82006",1125.6508,78.73167,135.38985
"82007",1125.6641,78.73411,135.35265
"82008",1125.6774,78.73899,135.31796
"82009",1125.6907,78.75365,135.29321
"82010",1125.704,78.77074,135.27135
"82011",1125.7173,78.79027,135.25246
"82012",1125.7306,78.81224,135.23662
"82013",1125.7439,78.83177,135.21902
"82014",1125.7572,78.84642,135.19716
"82015",1125.7705,78.85863,135.17331
"82016",1125.7838,78.86595,135.14496
"82017",1125.7971,78.873276,135.11684
"82018",1125.8104,78.8806,135.08894
"82019",1125.8237,78.887924,135.06128
"82020",1125.837,78.90013,135.03873
"82021",1125.8503,78.91478,135.019
"82022",1125.8636,78.93187,135.00217
"82023",1125.877,78.94408,134.98099
"82024",1125.8903,78.96117,134.96507
"82025",1125.9036,78.9807,134.95213
"82026",1125.9169,79.00267,134.94225
"82027",1125.9302,79.02464,134.93304
"82028",1125.9435,79.044174,134.92209
"82029",1125.9568,79.06859,134.91663
"82030",1125.9701,79.093,134.91193
"82031",1125.9834,79.13451,134.92508
"82032",1125.9967,79.23949,135.003
"82033",1126.01,79.47387,135.21362
"82034",1126.0233,79.888916,135.61223
"82035",1126.0366,80.49195,136.21179
"82036",1126.0499,81.234146,136.96936
"82037",1126.0632,82.01785,137.79164
"82038",1126.0765,82.720985,138.55783
"82039",1126.0898,83.23369,139.15556
"82040",1126.1031,83.509575,139.5325
"82041",1126.1165,83.560844,139.69345
"82042",1126.1298,83.43633,139.68022
"82043",1126.1431,83.19951,139.55078
"82044",1126.1564,82.90898,139.36024
"82045",1126.1697,82.60624,139.1484
"82046",1126.183,82.31571,138.93933
"82047",1126.1963,82.04959,138.74557
"82048",1126.2096,81.80789,138.56793
"82049",1126.2229,81.583275,138.39981
"82050",1126.2362,81.36599,138.23201
"82051",1126.2495,81.146255,138.05496
"82052",1126.2628,80.919205,137.86374
"82053",1126.2761,80.69215,137.6654
"82054",1126.2894,80.46998,137.46487
"82055",1126.3027,80.26734,137.27693
"82056",1126.316,80.093994,137.11194
"82057",1126.3293,79.95972,136.98059
"82058",1126.3427,79.86206,136.88168
"82059",1126.356,79.78882,136.80414
"82060",1126.3693,79.7351,136.74382
"82061",1126.3826,79.68871,136.68915
"82062",1126.3959,79.639885,136.63058
"82063",1126.4092,79.58129,136.56073
"82064",1126.4225,79.51537,136.48172
"82065",1126.4358,79.44457,136.39577
"82066",1126.4491,79.36889,136.30272
"82067",1126.4624,79.293205,136.2073
"82068",1126.4757,79.217514,136.10953
"82069",1126.489,79.14183,136.00938
"82070",1126.5023,79.07347,135.9142
"82071",1126.5156,79.009995,135.82176
"82072",1126.5289,78.9514,135.73222
"82073",1126.5422,78.9099,135.65794
"82074",1126.5555,78.88304,135.59702
"82075",1126.5688,78.86595,135.54501
"82076",1126.5822,78.85863,135.50224
"82077",1126.5955,78.86107,135.46901
"82078",1126.6088,78.873276,135.44562
"82079",1126.6221,78.88548,135.4226
"82080",1126.6354,78.90257,135.40486
"82081",1126.6487,78.91966,135.38765
"82082",1126.662,78.93187,135.36609
"82083",1126.6753,78.94652,135.34735
"82084",1126.6886,78.96117,135.32907
"82085",1126.7019,78.96849,135.30392
"82086",1126.7152,78.97337,135.27657
"82087",1126.7285,78.975815,135.24692
"82088",1126.7418,78.97826,135.21735
"82089",1126.7551,78.9807,135.18785
"82090",1126.7684,78.98802,135.16331
"82091",1126.7817,78.99779,135.14145
"82092",1126.795,79.00755,135.11989
"82093",1126.8083,79.01488,135.09619
"82094",1126.8217,79.01732,135.06784
"82095",1126.835,79.02464,135.04445
"82096",1126.8483,79.03441,135.02373
"82097",1126.8616,79.05638,135.01552
"82098",1126.8749,79.08324,135.01288
"82099",1126.8882,79.11742,135.0184
"82100",1126.9015,79.149155,135.02255
"82101",1126.9148,79.17601,135.02281
"82102",1126.9281,79.202866,135.02391
"82103",1126.9414,79.273674,135.06981
"82104",1126.9547,79.44457,135.218
"82105",1126.968,79.77905,135.53513
"82106",1126.9813,80.306404,136.05557
"82107",1126.9946,80.99245,136.75119
"82108",1127.0079,81.74441,137.53416
"82109",1127.0212,82.43778,138.28206
"82110",1127.0345,82.96025,138.8807
"82111",1127.0479,83.250786,139.26375
"82112",1127.0612,83.30938,139.42393
"82113",1127.0745,83.1873,139.40527
"82114",1127.0878,82.948044,139.26562
"82115",1127.1011,82.64774,139.05745
"82116",1127.1144,82.33036,138.82281
"82117",1127.1277,82.022736,138.58801
"82118",1127.141,81.73464,138.36313
"82119",1127.1543,81.47341,138.15611
"82120",1127.1676,81.24391,137.97266
"82121",1127.1809,81.02907,137.79669
"82122",1127.1942,80.82643,137.62622
"82123",1127.2075,80.63111,137.45673
"82124",1127.2208,80.448006,137.29335
"82125",1127.2341,80.27955,137.1389
"82126",1127.2474,80.130615,136.9987
"82127",1127.2607,80.0061,136.87827
"82128",1127.274,79.90845,136.78079
"82129",1127.2874,79.83032,136.6998
"82130",1127.3007,79.766846,136.63101
"82131",1127.314,79.71557,136.57245
"82132",1127.3273,79.66674,136.51472
"82133",1127.3406,79.61059,136.44815
"82134",1127.3539,79.54467,136.37006
"82135",1127.3672,79.46899,136.28014
"82136",1127.3805,79.38598,136.18053
"82137",1127.3938,79.29809,136.07344
"82138",1127.4071,79.20775,135.96117
"82139",1127.4204,79.12474,135.8534
"82140",1127.4337,79.04906,135.75035
"82141",1127.447,78.98314,135.65471
"82142",1127.4603,78.924545,135.56433
"82143",1127.4736,78.87816,135.48433
"82144",1127.4869,78.83421,135.40532
"82145",1127.5002,78.80003,135.3347
"82146",1127.5135,78.77318,135.27034
"82147",1127.5269,78.76097,135.21979
"82148",1127.5402,78.75853,135.17862
"82149",1127.5535,78.768295,135.14958
"82150",1127.5668,78.78294,135.12573
"82151",1127.5801,78.80003,135.10478
"82152",1127.5934,78.82445,135.09169
"82153",1127.6067,78.8513,135.0818
"82154",1127.62,78.873276,135.06787
"82155",1127.6333,78.89525,135.05463
"82156",1127.6466,78.91478,135.03963
"82157",1127.6599,78.93187,135.0228
"82158",1127.6732,78.941635,134.99918
"82159",1127.6865,78.9514,134.97586
"82160",1127.6998,78.96117,134.95285
"82161",1127.7131,78.97337,134.93259
"82162",1127.7264,78.98314,134.91026
"82163",1127.7397,78.992905,134.88824
"82164",1127.753,79.009995,134.87386
"82165",1127.7664,79.027084,134.86
"82166",1127.7797,79.046616,134.84912
"82167",1127.793,79.063705,134.83641
"82168",1127.8063,79.08324,134.82668
"82169",1127.8196,79.10277,134.81755
"82170",1127.8329,79.1223,134.80904
"82171",1127.8462,79.149155,134.80846
"82172",1127.8595,79.17357,134.80627
"82173",1127.8728,79.202866,134.80974
"82174",1127.8861,79.23216,134.81412
"82175",1127.8994,79.26147,134.81943
"82176",1127.9127,79.293205,134.82808
"82177",1127.926,79.37377,134.88655
"82178",1127.9393,79.569084,135.06229
"82179",1127.9526,79.92554,135.40527
"82180",1127.966,80.45289,135.9303
"82181",1127.9792,81.10475,136.59631
"82182",1127.9926,81.78592,137.31201
"82183",1128.0059,82.374306,137.9562
"82184",1128.0192,82.777145,138.43324
"82185",1128.0325,82.95293,138.69582
"82186",1128.0458,82.92363,138.7588
"82187",1128.0591,82.74052,138.66705
"82188",1128.0724,82.45731,138.4695
"82189",1128.0857,82.125275,138.21425
"82190",1128.099,81.78104,137.93643
"82191",1128.1123,81.446556,137.65761
"82192",1128.1256,81.13405,137.3903
"82193",1128.1389,80.84352,137.13522
"82194",1128.1522,80.584724,136.90279
"82195",1128.1655,80.360115,136.69646
"82196",1128.1788,80.17944,136.52704
"82197",1128.1921,80.05005,136.40326
"82198",1128.2054,79.971924,136.32669
"82199",1128.2188,79.940186,136.29407
"82200",1128.232,79.94263,136.29465
"82201",1128.2454,79.9646,136.31482
"82202",1128.2587,79.99634,136.34546
"82203",1128.272,80.02075,136.36975
"82204",1128.2853,80.03784,136.38748
"82205",1128.2986,80.0354,136.38623
"82206",1128.3119,80.01587,136.3678
"82207",1128.3252,79.97681,136.32922
"82208",1128.3385,79.92798,136.27966
"82209",1128.3518,79.86206,136.21149
"82210",1128.3651,79.781494,136.12662
"82211",1128.3784,79.69848,136.03677
"82212",1128.3917,79.61547,135.94434
"82213",1128.405,79.53002,135.84686
"82214",1128.4183,79.447014,135.74916
"82215",1128.4316,79.37377,135.65863
"82216",1128.445,79.31274,135.57802
"82217",1128.4583,79.26391,135.5077
"82218",1128.4716,79.22972,135.45052
"82219",1128.4849,79.21507,135.41179
"82220",1128.4982,79.21263,135.38481
"82221",1128.5115,79.21507,135.36264
"82222",1128.5248,79.22484,135.34787
"82223",1128.5381,79.237045,135.33585
"82224",1128.5514,79.25414,135.3291
"82225",1128.5647,79.276115,135.32776
"82226",1128.578,79.30297,135.33199
"82227",1128.5913,79.33227,135.3395
"82228",1128.6046,79.361565,135.34792
"82229",1128.6179,79.38598,135.35237
"82230",1128.6312,79.40307,135.35027
"82231",1128.6445,79.412834,135.34137
"82232",1128.6578,79.412834,135.32301
"82233",1128.6711,79.41039,135.30222
"82234",1128.6844,79.40307,135.27646
"82235",1128.6978,79.395744,135.25047
"82236",1128.711,79.39086,135.2267
"82237",1128.7244,79.39086,135.20766
"82238",1128.7377,79.39086,135.18861
"82239",1128.751,79.3933,135.17201
"82240",1128.7643,79.398186,135.15793
"82241",1128.7776,79.40063,135.14156
"82242",1128.7909,79.3933,135.1155
"82243",1128.8042,79.39086,135.09409
"82244",1128.8175,79.40307,135.08725
"82245",1128.8308,79.4641,135.12962
"82246",1128.8441,79.62768,135.27644
"82247",1128.8574,79.95972,135.59685
"82248",1128.8707,80.4773,136.11317
"82249",1128.884,81.15114,136.80193
"82250",1128.8973,81.898224,137.58499
"82251",1128.9106,82.60868,138.35477
"82252",1128.924,83.17021,138.99782
"82253",1128.9373,83.52178,139.44846
"82254",1128.9506,83.64629,139.68303
"82255",1128.9639,83.580376,139.73106
"82256",1128.9772,83.38018,139.64276
"82257",1128.9905,83.104294,139.4725
"82258",1129.0038,82.794235,139.25946
"82259",1129.0171,82.48661,139.03915
"82260",1129.0304,82.19852,138.82877
"82261",1129.0437,81.934845,138.6338
"82262",1129.057,81.688255,138.44768
"82263",1129.0703,81.461205,138.27339
"82264",1129.0836,81.24635,138.1042
"82265",1129.0969,81.03883,137.93564
"82266",1129.1102,80.8362,137.76547
"82267",1129.1235,80.64576,137.60117
"82268",1129.1368,80.4773,137.4529
"82269",1129.1501,80.33326,137.32378
"82270",1129.1635,80.218506,137.21944
"82271",1129.1768,80.130615,137.13837
"82272",1129.1901,80.05737,137.06921
"82273",1129.2034,79.98901,137.00266
"82274",1129.2167,79.920654,136.93396
"82275",1129.23,79.84741,136.85825
"82276",1129.2433,79.77173,136.7778
"82277",1129.2566,79.69848,136.69742
"82278",1129.2699,79.62524,136.61475
"82279",1129.2832,79.54955,136.52734
"82280",1129.2965,79.47143,136.43513
"82281",1129.3098,79.3933,136.34048
"82282",1129.3231,79.31274,136.24095
"82283",1129.3364,79.234604,136.14134
"82284",1129.3497,79.16136,136.04417
"82285",1129.363,79.097885,135.95448
"82286",1129.3763,79.03929,135.86769
"82287",1129.3896,78.99046,135.78883
"82288",1129.403,78.958725,135.72554
"82289",1129.4163,78.93919,135.67346
"82290",1129.4296,78.92699,135.6281
"82291",1129.4429,78.92699,135.59456
"82292",1129.4562,78.93675,135.57079
"82293",1129.4695,78.94652,135.54732
"82294",1129.4828,78.96117,135.52904
"82295",1129.4961,78.975815,135.51122
"82296",1129.5094,78.99046,135.49385
"82297",1129.5227,79.00023,135.47206
"82298",1129.536,79.00755,135.44814
"82299",1129.5493,79.01488,135.42444
"82300",1129.5626,79.01732,135.39609
"82301",1129.5759,79.01976,135.36781
"82302",1129.5892,79.01976,135.33717
"82303",1129.6025,79.02464,135.31142
"82304",1129.6158,79.029526,135.28581
"82305",1129.6292,79.04173,135.26768
"82306",1129.6425,79.05638,135.25238
"82307",1129.6558,79.07347,135.23997
"82308",1129.6691,79.09056,135.2281
"82309",1129.6824,79.10765,135.21677
"82310",1129.6957,79.12962,135.21085
"82311",1129.709,79.1931,135.24712
"82312",1129.7223,79.35912,135.38792
"82313",1129.7356,79.68383,135.6926
"82314",1129.7489,80.19653,136.19542
"82315",1129.7622,80.87038,136.8754
"82316",1129.7755,81.62722,137.65944
"82317",1129.7888,82.34501,138.42809
"82318",1129.8021,82.91142,139.06778
"82319",1129.8154,83.26055,139.50789
"82320",1129.8287,83.38506,139.7343
"82321",1129.842,83.32891,139.78394
"82322",1129.8553,83.1458,139.70485
"82323",1129.8687,82.89433,139.5517
"82324",1129.882,82.616005,139.36382
"82325",1129.8953,82.34257,139.17213
"82326",1129.9086,82.08621,138.98898
"82327",1129.9219,81.85428,138.82225
"82328",1129.9352,81.636986,138.6629
"82329",1129.9485,81.43191,138.50899
"82330",1129.9618,81.22926,138.35109
"82331",1129.9751,81.0193,138.17955
"82332",1129.9884,80.80202,137.99413
"82333",1130.0017,80.584724,137.8019
"82334",1130.015,80.37476,137.61021
"82335",1130.0283,80.184326,137.43149
"82336",1130.0416,80.02075,137.27368
"82337",1130.0549,79.888916,137.14249
"82338",1130.0682,79.783936,137.03403
"82339",1130.0815,79.70092,136.94426
"82340",1130.0948,79.62768,136.86166
"82341",1130.1082,79.56176,136.7841
"82342",1130.1215,79.49584,136.70448
"82343",1130.1348,79.432365,136.62524
"82344",1130.1481,79.364006,136.53914
"82345",1130.1614,79.29565,136.4509
"82346",1130.1747,79.22728,136.36052
"82347",1130.188,79.15404,136.26312
"82348",1130.2013,79.078354,136.161
"82349",1130.2146,79.00511,136.05894
"82350",1130.2279,78.93431,135.95705
"82351",1130.2412,78.87572,135.86514
"82352",1130.2545,78.82445,135.77873
"82353",1130.2678,78.78783,135.70537
"82354",1130.2811,78.765854,135.64551
"82355",1130.2944,78.75609,135.59717
"82356",1130.3077,78.751205,135.5534
"82357",1130.321,78.75609,135.51926
"82358",1130.3344,78.765854,135.49014
"82359",1130.3477,78.7805,135.46622
"82360",1130.361,78.802475,135.45007
"82361",1130.3743,78.82445,135.43462
"82362",1130.3876,78.84154,135.41496
"82363",1130.4009,78.85863,135.39584
"82364",1130.4142,78.873276,135.37482
"82365",1130.4275,78.8806,135.34692
"82366",1130.4408,78.887924,135.31926
"82367",1130.4541,78.907455,135.30403
"82368",1130.4674,78.92943,135.29185
"82369",1130.4807,78.94652,135.27548
"82370",1130.494,78.96361,135.25964
"82371",1130.5073,78.97826,135.2419
"82372",1130.5206,78.99046,135.22217
"82373",1130.5339,78.99779,135.19794
"82374",1130.5472,79.00755,135.17638
"82375",1130.5605,79.04173,135.17953
"82376",1130.5739,79.14427,135.25212
"82377",1130.5872,79.378654,135.45976
"82378",1130.6005,79.798584,135.86028
"82379",1130.6138,80.40162,136.45702
"82380",1130.6271,81.13649,137.20444
"82381",1130.6404,81.90311,138.00658
"82382",1130.6537,82.5745,138.73744
"82383",1130.667,83.05791,139.3013
"82384",1130.6803,83.31182,139.65077
"82385",1130.6936,83.353325,139.79578
"82386",1130.7069,83.228806,139.77605
"82387",1130.7202,83.00664,139.65479
"82388",1130.7335,82.735634,139.47774
"82389",1130.7468,82.4622,139.2898
"82390",1130.7601,82.210724,139.11526
"82391",1130.7734,81.98123,138.95486
"82392",1130.7867,81.77615,138.8117
"82393",1130.8,81.58083,138.67189
"82394",1130.8134,81.38796,138.52843
"82395",1130.8267,81.180435,138.36427
"82396",1130.84,80.95827,138.179
"82397",1130.8533,80.719,137.96968
"82398",1130.8666,80.479744,137.7529
"82399",1130.8799,80.25269,137.54085
"82400",1130.8932,80.05737,137.35342
"82401",1130.9065,79.89624,137.19409
"82402",1130.9198,79.77661,137.07123
"82403",1130.9331,79.68383,136.97147
"82404",1130.9464,79.60815,136.8859
"82405",1130.9597,79.54223,136.80772
"82406",1130.973,79.48119,136.73238
"82407",1130.9863,79.415276,136.65024
"82408",1130.9996,79.34936,136.56604
"82409",1131.013,79.27856,136.4749
"82410",1131.0262,79.20775,136.38155
"82411",1131.0396,79.13695,136.28598
"82412",1131.0529,79.06615,136.1882
"82413",1131.0662,78.995346,136.08821
"82414",1131.0795,78.92699,135.98845
"82415",1131.0928,78.86595,135.89388
"82416",1131.1061,78.81224,135.80472
"82417",1131.1194,78.77318,135.72853
"82418",1131.1327,78.74143,135.65845
"82419",1131.146,78.729225,135.6069
"82420",1131.1593,78.73167,135.56963
"82421",1131.1726,78.73655,135.53487
"82422",1131.1859,78.74387,135.5027
"82423",1131.1992,78.75609,135.47566
"82424",1131.2125,78.768295,135.44899
"82425",1131.2258,78.78294,135.42514
"82426",1131.2391,78.80003,135.40419
"82427",1131.2524,78.82445,135.3911
"82428",1131.2657,78.84642,135.37633
"82429",1131.279,78.870834,135.36469
"82430",1131.2924,78.890366,135.34892
"82431",1131.3057,78.907455,135.33133
"82432",1131.319,78.924545,135.31427
"82433",1131.3323,78.93919,135.2953
"82434",1131.3456,78.94896,135.27191
"82435",1131.3589,78.95628,135.24638
"82436",1131.3722,78.96849,135.22597
"82437",1131.3855,78.98802,135.21326
"82438",1131.3988,79.01732,135.21092
"82439",1131.4121,79.08568,135.24857
"82440",1131.4254,79.24681,135.38112
"82441",1131.4387,79.55932,135.67009
"82442",1131.452,80.059814,136.15681
"82443",1131.4653,80.73121,136.83008
"82444",1131.4786,81.49294,137.61467
"82445",1131.492,82.22781,138.3962
"82446",1131.5052,82.81377,139.05177
"82447",1131.5186,83.18486,139.5108
"82448",1131.5319,83.32647,139.75194
"82449",1131.5452,83.2752,139.80463
"82450",1131.5585,83.09697,139.72874
"82451",1131.5718,82.85283,139.58139
"82452",1131.5851,82.58915,139.40686
"82453",1131.5984,82.33036,139.22899
"82454",1131.6117,82.091095,139.06255
"82455",1131.625,81.87381,138.91061
"82456",1131.6383,81.671165,138.76653
"82457",1131.6516,81.47341,138.621
"82458",1131.6649,81.26833,138.46198
"82459",1131.6782,81.0486,138.28188
"82460",1131.6915,80.814224,138.08028
"82461",1131.7048,80.58228,137.87378
"82462",1131.7181,80.360115,137.66982
"82463",1131.7314,80.164795,137.48575
"82464",1131.7448,80.0061,137.33221
"82465",1131.758,79.886475,137.21277
"82466",1131.7714,79.79614,137.1189
"82467",1131.7847,79.727776,137.04416
"82468",1131.798,79.66674,136.97461
"82469",1131.8113,79.603264,136.90071
"82470",1131.8246,79.53246,136.8175
"82471",1131.8379,79.45434,136.72476
"82472",1131.8512,79.37133,136.6247
"82473",1131.8645,79.28832,136.52203
"82474",1131.8778,79.21263,136.4241
"82475",1131.8911,79.13939,136.32625
"82476",1131.9044,79.06859,136.22855
"82477",1131.9177,79.00511,136.13596
"82478",1131.931,78.94652,136.04626
"82479",1131.9443,78.89769,135.96451
"82480",1131.9576,78.856186,135.88855
"82481",1131.971,78.82933,135.82594
"82482",1131.9843,78.81468,135.7747
"82483",1131.9976,78.81224,135.73521
"82484",1132.0109,78.81712,135.70297
"82485",1132.0242,78.82689,135.67577
"82486",1132.0375,78.839096,135.6513
"82487",1132.0508,78.84886,135.62479
"82488",1132.0641,78.85863,135.59857
"82489",1132.0774,78.870834,135.5751
"82490",1132.0907,78.890366,135.55934
"82491",1132.104,78.907455,135.54175
"82492",1132.1173,78.922104,135.52225
"82493",1132.1306,78.93431,135.50076
"82494",1132.1439,78.941635,135.47478
"82495",1132.1572,78.94896,135.44902
"82496",1132.1705,78.9514,135.41861
"82497",1132.1838,78.958725,135.39316
"82498",1132.1971,78.96361,135.3655
"82499",1132.2104,78.97093,135.34042
"82500",1132.2238,78.98314,135.32047
"82501",1132.237,78.995346,135.30089
"82502",1132.2504,79.01488,135.28902
"82503",1132.2637,79.078354,135.3217
"82504",1132.277,79.237045,135.45158
"82505",1132.2903,79.55688,135.74757
"82506",1132.3036,80.062256,136.2391
"82507",1132.3169,80.73121,136.91
"82508",1132.3302,81.48318,137.68483
"82509",1132.3435,82.193634,138.44164
"82510",1132.3568,82.74296,139.05951
"82511",1132.3701,83.070114,139.47238
"82512",1132.3834,83.16777,139.66599
"82513",1132.3967,83.07744,139.67465
"82514",1132.41,82.87236,139.56575
"82515",1132.4233,82.61112,139.39427
"82516",1132.4366,82.33524,139.2
"82517",1132.45,82.07889,139.01662
"82518",1132.4633,81.84451,138.84721
"82519",1132.4766,81.6321,138.69244
"82520",1132.4899,81.43191,138.54326
"82521",1132.5032,81.231705,138.3878
"82522",1132.5165,81.02174,138.21634
"82523",1132.5298,80.80202,138.02855
"82524",1132.5431,80.57496,137.82655
"82525",1132.5564,80.35279,137.62236
"82526",1132.5697,80.15015,137.43074
"82527",1132.583,79.98413,137.26941
"82528",1132.5963,79.85718,137.14197
"82529",1132.6096,79.766846,137.04718
"82530",1132.6229,79.70336,136.97641
"82531",1132.6362,79.65209,136.91586
"82532",1132.6495,79.59594,136.84883
"82533",1132.6628,79.534904,136.77516
"82534",1132.6761,79.4641,136.68982
"82535",1132.6895,79.381096,136.59006
"82536",1132.7028,79.29809,136.4877
"82537",1132.7161,79.21507,136.38275
"82538",1132.7294,79.13451,136.27765
"82539",1132.7427,79.05882,136.17491
"82540",1132.756,78.98802,136.07469
"82541",1132.7693,78.924545,135.97958
"82542",1132.7826,78.870834,135.89226
"82543",1132.7959,78.82933,135.81546
"82544",1132.8092,78.80003,135.74957
"82545",1132.8225,78.785385,135.69742
"82546",1132.8358,78.78294,135.65701
"82547",1132.8491,78.79027,135.6263
"82548",1132.8624,78.802475,135.6007
"82549",1132.8757,78.81224,135.57303
"82550",1132.889,78.82201,135.54567
"82551",1132.9023,78.83177,135.51862
"82552",1132.9156,78.84154,135.49187
"82553",1132.929,78.8513,135.46542
"82554",1132.9423,78.86107,135.43929
"82555",1132.9556,78.86595,135.40857
"82556",1132.9689,78.873276,135.38045
"82557",1132.9822,78.87816,135.35011
"82558",1132.9955,78.88304,135.31993
"82559",1133.0088,78.887924,135.2899
"82560",1133.0221,78.89281,135.26003
"82561",1133.0354,78.90013,135.23274
"82562",1133.0487,78.9099,135.20813
"82563",1133.062,78.91966,135.18382
"82564",1133.0753,78.93431,135.1647
"82565",1133.0886,78.94896,135.14604
"82566",1133.1019,78.96117,135.1254
"82567",1133.1152,78.97337,135.10513
"82568",1133.1285,78.99046,135.09013
"82569",1133.1418,79.02464,135.09276
"82570",1133.1552,79.132065,135.1697
"82571",1133.1685,79.37133,135.38184
"82572",1133.1818,79.79126,135.78212
"82573",1133.1951,80.38941,136.37375
"82574",1133.2084,81.09987,137.09637
"82575",1133.2217,81.8201,137.85098
"82576",1133.235,82.42069,138.50845
"82577",1133.2483,82.81621,138.97961
"82578",1133.2616,82.97734,139.22876
"82579",1133.2749,82.930954,139.27542
"82580",1133.2882,82.73319,139.16925
"82581",1133.3015,82.44755,138.96902
"82582",1133.3148,82.125275,138.72324
"82583",1133.3281,81.80789,138.47227
"82584",1133.3414,81.51736,138.23824
"82585",1133.3547,81.26345,138.03175
"82586",1133.368,81.03151,137.8393
"82587",1133.3813,80.81911,137.65913
"82588",1133.3947,80.621346,137.48697
"82589",1133.408,80.43336,137.3184
"82590",1133.4213,80.26246,137.16106
"82591",1133.4346,80.12085,137.02765
"82592",1133.4479,80.01343,136.92401
"82593",1133.4612,79.937744,136.84875
"82594",1133.4745,79.886475,136.79553
"82595",1133.4878,79.84741,136.75293
"82596",1133.5011,79.818115,136.71887
"82597",1133.5144,79.79126,136.68634
"82598",1133.5277,79.75464,136.64319
"82599",1133.541,79.71313,136.59401
"82600",1133.5543,79.65942,136.53133
"82601",1133.5676,79.59106,136.45232
"82602",1133.5809,79.51537,136.36385
"82603",1133.5942,79.43481,136.26813
"82604",1133.6075,79.3518,136.16745
"82605",1133.6208,79.273674,136.06906
"82606",1133.6342,79.21019,135.98288
"82607",1133.6475,79.15404,135.90204
"82608",1133.6608,79.11253,135.83409
"82609",1133.6741,79.08324,135.77705
"82610",1133.6874,79.06859,135.73375
"82611",1133.7007,79.05638,135.69243
"82612",1133.714,79.04906,135.65561
"82613",1133.7273,79.04173,135.61856
"82614",1133.7406,79.03685,135.58372
"82615",1133.7539,79.03685,135.55362
"82616",1133.7672,79.04173,135.5284
"82617",1133.7805,79.05394,135.51065
"82618",1133.7938,79.07103,135.49817
"82619",1133.8071,79.09056,135.48866
"82620",1133.8204,79.11009,135.47977
"82621",1133.8337,79.12718,135.46904
"82622",1133.847,79.14183,135.4564
"82623",1133.8604,79.151596,135.43935
"82624",1133.8737,79.15892,135.42015
"82625",1133.887,79.1638,135.39874
"82626",1133.9003,79.17113,135.37993
"82627",1133.9136,79.19066,135.37355
"82628",1133.9269,79.273674,135.43127
"82629",1133.9402,79.46899,135.60388
"82630",1133.9535,79.82788,135.94618
"82631",1133.9668,80.35279,136.46571
"82632",1133.9801,81.00221,137.12616
"82633",1133.9934,81.68093,137.8362
"82634",1134.0067,82.266884,138.47469
"82635",1134.02,82.669716,138.94836
"82636",1134.0333,82.847946,139.21002
"82637",1134.0466,82.811325,139.2624
"82638",1134.0599,82.616005,139.15494
"82639",1134.0732,82.32792,138.94861
"82640",1134.0865,82.005646,138.69908
"82641",1134.0999,81.6907,138.44681
"82642",1134.1132,81.40749,138.21645
"82643",1134.1265,81.15846,138.0114
"82644",1134.1398,80.938736,137.82788
"82645",1134.1531,80.72877,137.64725
"82646",1134.1664,80.52125,137.46251
"82647",1134.1797,80.31617,137.27373
"82648",1134.193,80.130615,137.09805
"82649",1134.2063,79.96704,136.93857
"82650",1134.2196,79.84253,136.81302
"82651",1134.2329,79.7522,136.71777
"82652",1134.2462,79.693596,136.65143
"82653",1134.2595,79.656975,136.60522
"82654",1134.2728,79.635,136.57253
"82655",1134.2861,79.61791,136.54402
"82656",1134.2994,79.59594,136.5101
"82657",1134.3127,79.56176,136.46329
"82658",1134.326,79.50561,136.39343
"82659",1134.3394,79.432365,136.30473
"82660",1134.3527,79.34692,136.20154
"82661",1134.366,79.256584,136.09079
"82662",1134.3793,79.17357,135.98454
"82663",1134.3926,79.097885,135.88303
"82664",1134.4059,79.027084,135.78403
"82665",1134.4192,78.96117,135.6877
"82666",1134.4325,78.90013,135.5942
"82667",1134.4458,78.84642,135.5061
"82668",1134.4591,78.80736,135.43098
"82669",1134.4724,78.7805,135.36685
"82670",1134.4857,78.77074,135.31897
"82671",1134.499,78.77074,135.28055
"82672",1134.5123,78.7805,135.25189
"82673",1134.5256,78.79759,135.23087
"82674",1134.539,78.82201,135.2177
"82675",1134.5522,78.853745,135.21262
"82676",1134.5656,78.890366,135.21341
"82677",1134.5789,78.92943,135.21779
"82678",1134.5922,78.96849,135.22339
"82679",1134.6055,79.00023,135.22289
"82680",1134.6188,79.0222,135.21361
"82681",1134.6321,79.04173,135.20258
"82682",1134.6454,79.10277,135.23366
"82683",1134.6587,79.26879,135.37164
"82684",1134.672,79.59594,135.67593
"82685",1134.6853,80.11841,136.18578
"82686",1134.6986,80.8069,136.87796
"82687",1134.7119,81.56374,137.66002
"82688",1134.7252,82.26444,138.40959
"82689",1134.7385,82.79668,139.01259
"82690",1134.7518,83.10185,139.40517
"82691",1134.7651,83.17998,139.58023
"82692",1134.7784,83.075,139.57463
"82693",1134.7917,82.85527,139.451
"82694",1134.805,82.581825,139.26678
"82695",1134.8184,82.28886,139.0545
"82696",1134.8317,82.01541,138.85258
"82697",1134.845,81.77127,138.67143
"82698",1134.8583,81.55642,138.51193
"82699",1134.8716,81.356224,138.36038
"82700",1134.8849,81.15602,138.20256
"82701",1134.8982,80.94606,138.02873
"82702",1134.9115,80.71168,137.82391
"82703",1134.9248,80.465096,137.59958
"82704",1134.9381,80.21362,137.36264
"82705",1134.9514,79.97681,137.1325
"82706",1134.9647,79.76929,136.92426
"82707",1134.978,79.60815,136.7559
"82708",1134.9913,79.49096,136.62646
"82709",1135.0046,79.415276,136.53487
"82710",1135.018,79.37377,136.47508
"82711",1135.0312,79.34936,136.43109
"82712",1135.0446,79.32983,136.39122
"82713",1135.0579,79.30785,136.3483
"82714",1135.0712,79.276115,136.29492
"82715",1135.0845,79.234604,136.23079
"82716",1135.0978,79.183334,136.1556
"82717",1135.1111,79.12474,136.07147
"82718",1135.1244,79.061264,135.98064
"82719",1135.1377,78.995346,135.88538
"82720",1135.151,78.93187,135.7905
"82721",1135.1643,78.87816,135.7034
"82722",1135.1776,78.83421,135.62439
"82723",1135.1909,78.8098,135.56354
"82724",1135.2042,78.80003,135.51657
"82725",1135.2175,78.80492,135.48395
"82726",1135.2308,78.81712,135.4588
"82727",1135.2441,78.83421,135.43892
"82728",1135.2574,78.856186,135.42445
"82729",1135.2708,78.88304,135.41556
"82730",1135.284,78.9099,135.4075
"82731",1135.2974,78.93919,135.40273
"82732",1135.3107,78.96605,135.39642
"82733",1135.324,78.98558,135.38364
"82734",1135.3373,79.00511,135.37146
"82735",1135.3506,79.0515,135.38675
"82736",1135.3639,79.17845,135.48405
"82737",1135.3772,79.45922,135.73915
"82738",1135.3905,79.94751,136.21054
"82739",1135.4038,80.635994,136.89738
"82740",1135.4171,81.45144,137.73271
"82741",1135.4304,82.266884,138.59352
"82742",1135.4437,82.950485,139.34796
"82743",1135.457,83.39727,139.88695
"82744",1135.4703,83.580376,140.17622
"82745",1135.4836,83.53643,140.24417
"82746",1135.497,83.33868,140.15694
"82747",1135.5103,83.05791,139.9805
"82748",1135.5236,82.757614,139.77577
"82749",1135.5369,82.47196,139.5763
"82750",1135.5502,82.21561,139.39719
"82751",1135.5635,81.991,139.24182
"82752",1135.5768,81.78836,139.10141
"82753",1135.5901,81.59548,138.96442
"82754",1135.6034,81.40017,138.81897
"82755",1135.6167,81.17799,138.64055
"82756",1135.63,80.921646,138.42102
"82757",1135.6433,80.63111,138.15929
"82758",1135.6566,80.325935,137.87384
"82759",1135.6699,80.028076,137.58617
"82760",1135.6832,79.76196,137.32092
"82761",1135.6965,79.54711,137.09863
"82762",1135.7098,79.38842,136.92578
"82763",1135.7231,79.27856,136.7968
"82764",1135.7365,79.20531,136.701
"82765",1135.7498,79.15648,136.62733
"82766",1135.7631,79.1223,136.56679
"82767",1135.7764,79.09056,136.50761
"82768",1135.7897,79.05638,136.445
"82769",1135.803,79.012436,136.37157
"82770",1135.8163,78.96361,136.29187
"82771",1135.8296,78.9099,136.20576
"82772",1135.8429,78.856186,136.11798
"82773",1135.8562,78.80736,136.0334
"82774",1135.8695,78.76341,135.95218
"82775",1135.8828,78.72434,135.87447
"82776",1135.8961,78.69016,135.80042
"82777",1135.9094,78.66575,135.73506
"82778",1135.9227,78.64622,135.67383
"82779",1135.936,78.63157,135.61687
"82780",1135.9493,78.62913,135.57166
"82781",1135.9626,78.63157,135.53125
"82782",1135.976,78.643776,135.50069
"82783",1135.9893,78.660866,135.47539
"82784",1136.0026,78.68528,135.45795
"82785",1136.0159,78.709694,135.44127
"82786",1136.0292,78.73655,135.4278
"82787",1136.0425,78.76097,135.41273
"82788",1136.0558,78.78294,135.39598
"82789",1136.0691,78.79759,135.37259
"82790",1136.0824,78.81468,135.3521
"82791",1136.0957,78.84154,135.3419
"82792",1136.109,78.922104,135.38626
"82793",1136.1223,79.12962,135.56009
"82794",1136.1356,79.54223,135.9455
"82795",1136.1489,80.17212,136.56108
"82796",1136.1622,80.98512,137.37946
"82797",1136.1755,81.87137,138.2965
"82798",1136.1888,82.68192,139.16553
"82799",1136.2021,83.282524,139.84995
"82800",1136.2155,83.614555,140.28456
"82801",1136.2288,83.685356,140.46832
"82802",1136.2421,83.5584,140.45654
"82803",1136.2554,83.31182,140.32117
"82804",1136.2687,83.02617,140.139
"82805",1136.282,82.74296,139.95036
"82806",1136.2953,82.48661,139.77974
"82807",1136.3086,82.262,139.63284
"82808",1136.3219,82.0618,139.50333
"82809",1136.3352,81.86893,139.3749
"82810",1136.3485,81.66628,139.23065
"82811",1136.3618,81.444115,139.06056
"82812",1136.3751,81.18288,138.84445
"82813",1136.3884,80.8777,138.57625
"82814",1136.4017,80.54078,138.26675
"82815",1136.415,80.19409,137.93697
"82816",1136.4283,79.86206,137.611
"82817",1136.4417,79.57397,137.31859
"82818",1136.455,79.35424,137.08554
"82819",1136.4683,79.200424,136.91154
"82820",1136.4816,79.10765,136.79378
"82821",1136.4949,79.05882,136.71706
"82822",1136.5082,79.03685,136.66566
"82823",1136.5215,79.02464,136.62335
"82824",1136.5348,79.009995,136.57822
"82825",1136.5481,78.98314,136.52042
"82826",1136.5614,78.93919,136.44469
"82827",1136.5747,78.88304,136.35538
"82828",1136.588,78.81224,136.24966
"82829",1136.6013,78.73899,136.1393
"82830",1136.6146,78.66819,136.02908
"82831",1136.6279,78.607155,135.92642
"82832",1136.6412,78.551,135.82674
"82833",1136.6545,78.504616,135.73506
"82834",1136.6678,78.46555,135.64926
"82835",1136.6812,78.4387,135.57445
"82836",1136.6945,78.42405,135.511
"82837",1136.7078,78.42649,135.46419
"82838",1136.7211,78.43626,135.42477
"82839",1136.7344,78.45335,135.39299
"82840",1136.7477,78.47532,135.36662
"82841",1136.761,78.502174,135.34583
"82842",1136.7743,78.53391,135.33075
"82843",1136.7876,78.56809,135.3191
"82844",1136.8009,78.59739,135.30365
"82845",1136.8142,78.624245,135.28667
"82846",1136.8275,78.64622,135.26564
"82847",1136.8408,78.66331,135.24042
"82848",1136.8541,78.677956,135.21329
"82849",1136.8674,78.68772,135.18173
"82850",1136.8807,78.695045,135.14804
"82851",1136.894,78.70237,135.11458
"82852",1136.9073,78.70725,135.0789
"82853",1136.9207,78.7219,135.05315
"82854",1136.934,78.746315,135.03761
"82855",1136.9473,78.77562,135.02774
"82856",1136.9606,78.8098,135.02365
"82857",1136.9739,78.86595,135.0426
"82858",1136.9872,79.00755,135.14876
"82859",1137.0005,79.30541,135.4156
"82860",1137.0138,79.818115,135.9066
"82861",1137.0271,80.54566,136.62846
"82862",1137.0404,81.41482,137.51468
"82863",1137.0537,82.2913,138.43538
"82864",1137.067,83.035934,139.25162
"82865",1137.0803,83.543755,139.85431
"82866",1137.0936,83.78302,140.20432
"82867",1137.1069,83.790344,140.32986
"82868",1137.1202,83.64141,140.29938
"82869",1137.1335,83.40215,140.17392
"82870",1137.1469,83.13603,140.01411
"82871",1137.1602,82.87724,139.85333
"82872",1137.1735,82.64042,139.70642
"82873",1137.1868,82.42802,139.57654
"82874",1137.2001,82.2327,139.45709
"82875",1137.2134,82.03494,139.32912
"82876",1137.2267,81.82254,139.18031
"82877",1137.24,81.58083,138.99556
"82878",1137.2533,81.30251,138.76665
"82879",1137.2666,80.99489,138.49973
"82880",1137.2799,80.672615,138.20854
"82881",1137.2932,80.35523,137.91219
"82882",1137.3065,80.059814,137.62787
"82883",1137.3198,79.81323,137.38315
"82884",1137.3331,79.622795,137.18687
"82885",1137.3464,79.483635,137.03592
"82886",1137.3597,79.38598,136.92212
"82887",1137.373,79.3225,136.83945
"82888",1137.3864,79.273674,136.76944
"82889",1137.3997,79.22728,136.70035
"82890",1137.413,79.183334,136.63225
"82891",1137.4263,79.13451,136.55789
"82892",1137.4396,79.080795,136.47713
"82893",1137.4529,79.01976,136.38736
"82894",1137.4662,78.95384,136.2908
"82895",1137.4795,78.88548,136.18974
"82896",1137.4928,78.82201,136.09143
"82897",1137.5061,78.76341,135.99602
"82898",1137.5194,78.712135,135.9061
"82899",1137.5327,78.67063,135.82434
"82900",1137.546,78.63645,135.74861
"82901",1137.5593,78.607155,135.6767
"82902",1137.5726,78.58762,135.61363
"82903",1137.5859,78.5803,135.56216
"82904",1137.5992,78.58274,135.52023
"82905",1137.6125,78.58762,135.48082
"82906",1137.6259,78.59739,135.44644
"82907",1137.6392,78.607155,135.41237
"82908",1137.6525,78.61448,135.37616
"82909",1137.6658,78.6218,135.34018
"82910",1137.6791,78.63645,135.31175
"82911",1137.6924,78.65354,135.28622
"82912",1137.7057,78.675514,135.26611
"82913",1137.719,78.69993,135.24913
"82914",1137.7323,78.7219,135.23047
"82915",1137.7456,78.73655,135.20517
"82916",1137.7589,78.74876,135.17789
"82917",1137.7722,78.75853,135.14856
"82918",1137.7855,78.768295,135.11952
"82919",1137.7988,78.78294,135.09567
"82920",1137.8121,78.802475,135.07716
"82921",1137.8254,78.82445,135.0617
"82922",1137.8387,78.8513,135.05182
"82923",1137.852,78.8806,135.04521
"82924",1137.8654,78.905014,135.03464
"82925",1137.8787,78.92943,135.02483
"82926",1137.892,78.96361,135.02554
"82927",1137.9053,79.03685,135.06639
"82928",1137.9186,79.20775,135.20718
"82929",1137.9319,79.54955,135.52423
"82930",1137.9452,80.09888,136.05948
"82931",1137.9585,80.833755,136.79745
"82932",1137.9718,81.67361,137.66336
"82933",1137.9851,82.496376,138.53844
"82934",1137.9984,83.16533,139.2854
"82935",1138.0117,83.59258,139.81157
"82936",1138.025,83.76349,140.09474
"82937",1138.0383,83.719536,140.1684
"82938",1138.0516,83.53399,140.09909
"82939",1138.065,83.27032,139.94586
"82940",1138.0782,82.98955,139.76729
"82941",1138.0916,82.72343,139.59459
"82942",1138.1049,82.48173,139.438
"82943",1138.1182,82.26444,139.29828
"82944",1138.1315,82.05936,139.16396
"82945",1138.1448,81.85428,139.02324
"82946",1138.1581,81.64431,138.87122
"82947",1138.1714,81.4197,138.698
"82948",1138.1847,81.17311,138.49577
"82949",1138.198,80.90456,138.26389
"82950",1138.2113,80.62867,138.01627
"82951",1138.2246,80.360115,137.76736
"82952",1138.2379,80.12085,137.53935
"82953",1138.2512,79.92554,137.34781
"82954",1138.2645,79.781494,137.20145
"82955",1138.2778,79.68139,137.09451
"82956",1138.2911,79.61303,137.01619
"82957",1138.3044,79.55932,136.95038
"82958",1138.3177,79.51049,136.88777
"82959",1138.331,79.45922,136.8212
"82960",1138.3444,79.40063,136.7457
"82961",1138.3577,79.33227,136.6586
"82962",1138.371,79.2517,136.55716
"82963",1138.3843,79.166245,136.44832
"82964",1138.3976,79.07347,136.32948
"82965",1138.4109,78.98558,136.21263
"82966",1138.4242,78.90257,136.09792
"82967",1138.4375,78.82689,135.98793
"82968",1138.4508,78.75609,135.88046
"82969",1138.4641,78.695045,135.78055
"82970",1138.4774,78.643776,135.68849
"82971",1138.4907,78.59983,135.60216
"82972",1138.504,78.56565,135.52422
"82973",1138.5173,78.54612,135.45985
"82974",1138.5306,78.53391,135.4022
"82975",1138.544,78.53391,135.35638
"82976",1138.5573,78.54124,135.31789
"82977",1138.5706,78.553444,135.2845
"82978",1138.5839,78.57786,135.2637
"82979",1138.5972,78.6096,135.25099
"82980",1138.6105,78.64622,135.24416
"82981",1138.6238,78.6804,135.23602
"82982",1138.6371,78.712135,135.22652
"82983",1138.6504,78.73655,135.21068
"82984",1138.6637,78.746315,135.18095
"82985",1138.677,78.751205,135.14667
"82986",1138.6903,78.75365,135.11008
"82987",1138.7036,78.75853,135.076
"82988",1138.7169,78.76341,135.04208
"82989",1138.7302,78.77318,135.0132
"82990",1138.7435,78.78783,134.9895
"82991",1138.7568,78.802475,134.96626
"82992",1138.7701,78.81224,134.9386
"82993",1138.7834,78.82689,134.91612
"82994",1138.7968,78.84886,134.90143
"82995",1138.81,78.87572,134.8923
"82996",1138.8234,78.905014,134.88646
"82997",1138.8367,78.93675,134.88397
"82998",1138.85,78.98802,134.90201
"82999",1138.8633,79.097885,134.98024
"83000",1138.8766,79.33959,135.19376
"83001",1138.8899,79.77417,135.6077
"83002",1138.9032,80.40894,136.23541
"83003",1138.9165,81.1902,137.02945
"83004",1138.9298,82.01297,137.88942
"83005",1138.9431,82.75273,138.6921
"83006",1138.9564,83.29473,139.32011
"83007",1138.9697,83.60235,139.7307
"83008",1138.983,83.685356,139.92628
"83009",1138.9963,83.59014,139.94624
"83010",1139.0096,83.37774,139.84604
"83011",1139.023,83.11162,139.68547
"83012",1139.0363,82.83086,139.50195
"83013",1139.0496,82.562294,139.32185
"83014",1139.0629,82.31815,139.15779
"83015",1139.0762,82.10086,139.01294
"83016",1139.0895,81.898224,138.87596
"83017",1139.1028,81.69802,138.73508
"83018",1139.1161,81.48562,138.57574
"83019",1139.1294,81.25124,138.3878
"83020",1139.1427,80.99245,138.1681
"83021",1139.156,80.72144,137.92812
"83022",1139.1693,80.45289,137.68211
"83023",1139.1826,80.20386,137.44724
"83024",1139.1959,79.99634,137.2461
"83025",1139.2092,79.83276,137.0824
"83026",1139.2225,79.71313,136.95753
"83027",1139.2358,79.63012,136.86555
"83028",1139.2491,79.56664,136.79051
"83029",1139.2625,79.517815,136.72813
"83030",1139.2758,79.47143,136.66667
"83031",1139.2891,79.42016,136.59888
"83032",1139.3024,79.35912,136.51971
"83033",1139.3157,79.290764,136.43132
"83034",1139.329,79.21507,136.33347
"83035",1139.3423,79.12962,136.22348
"83036",1139.3556,79.044174,136.11082
"83037",1139.3689,78.96605,136.00282
"83038",1139.3822,78.89769,135.90215
"83039",1139.3955,78.84398,135.81398
"83040",1139.4088,78.802475,135.73634
"83041",1139.4221,78.77318,135.66962
"83042",1139.4354,78.76097,135.61906
"83043",1139.4487,78.76341,135.58278
"83044",1139.462,78.77806,135.55878
"83045",1139.4753,78.80003,135.54256
"83046",1139.4886,78.82445,135.52946
"83047",1139.502,78.84154,135.50981
"83048",1139.5153,78.84886,135.48093
"83049",1139.5286,78.84398,135.44006
"83050",1139.5419,78.83177,135.39172
"83051",1139.5552,78.81712,135.34056
"83052",1139.5685,78.802475,135.28894
"83053",1139.5818,78.79759,135.24663
"83054",1139.5951,78.79515,135.2066
"83055",1139.6084,78.80492,135.17871
"83056",1139.6217,78.82201,135.15845
"83057",1139.635,78.836655,135.13628
"83058",1139.6483,78.8513,135.11456
"83059",1139.6616,78.86351,135.09087
"83060",1139.6749,78.873276,135.06511
"83061",1139.6882,78.88304,135.03966
"83062",1139.7015,78.90257,135.02428
"83063",1139.7148,78.92699,135.01439
"83064",1139.7281,78.9514,135.00526
"83065",1139.7415,78.9807,135.00179
"83066",1139.7548,79.00755,134.99678
"83067",1139.7681,79.03685,134.99506
"83068",1139.7814,79.08568,135.01378
"83069",1139.7947,79.21019,135.10971
"83070",1139.808,79.47875,135.35359
"83071",1139.8213,79.940186,135.79874
"83072",1139.8346,80.59205,136.44873
"83073",1139.8479,81.36843,137.24362
"83074",1139.8612,82.15457,138.07253
"83075",1139.8745,82.82109,138.80638
"83076",1139.8878,83.26299,139.33644
"83077",1139.9011,83.458305,139.63373
"83078",1139.9144,83.43389,139.71739
"83079",1139.9277,83.25811,139.64893
"83080",1139.941,82.99931,139.49194
"83081",1139.9543,82.70878,139.29514
"83082",1139.9677,82.4329,139.10391
"83083",1139.981,82.176544,138.92358
"83084",1139.9943,81.95438,138.76944
"83085",1140.0076,81.75418,138.63033
"83086",1140.0209,81.566185,138.49715
"83087",1140.0342,81.3782,138.35811
"83088",1140.0475,81.17799,138.20097
"83089",1140.0608,80.95827,138.01807
"83090",1140.0741,80.726326,137.81607
"83091",1140.0874,80.49195,137.6044
"83092",1140.1007,80.26978,137.39761
"83093",1140.114,80.07202,137.20828
"83094",1140.1273,79.91089,137.04941
"83095",1140.1406,79.781494,136.91724
"83096",1140.1539,79.68383,136.81274
"83097",1140.1672,79.61303,136.73206
"83098",1140.1805,79.56176,136.66869
"83099",1140.1938,79.52514,136.61836
"83100",1140.2072,79.49096,136.56934
"83101",1140.2205,79.4519,136.51436
"83102",1140.2338,79.40307,136.4484
"83103",1140.2471,79.33715,136.36382
"83104",1140.2604,79.2517,136.25764
"83105",1140.2737,79.16136,136.14392
"83106",1140.287,79.06859,136.02493
"83107",1140.3003,78.97826,135.90549
"83108",1140.3136,78.90013,135.79543
"83109",1140.3269,78.83421,135.69513
"83110",1140.3402,78.77806,135.60254
"83111",1140.3535,78.73411,135.5204
"83112",1140.3668,78.70725,135.45398
"83113",1140.3801,78.69016,135.39648
"83114",1140.3934,78.68528,135.35066
"83115",1140.4067,78.692604,135.3169
"83116",1140.42,78.70481,135.28824
"83117",1140.4333,78.72434,135.26729
"83118",1140.4467,78.74387,135.24695
"83119",1140.46,78.765854,135.22968
"83120",1140.4733,78.79271,135.21796
"83121",1140.4866,78.819565,135.20708
"83122",1140.4999,78.84154,135.19215
"83123",1140.5132,78.85863,135.17303
"83124",1140.5265,78.873276,135.15201
"83125",1140.5398,78.890366,135.13388
"83126",1140.5531,78.90257,135.1114
"83127",1140.5664,78.91478,135.08931
"83128",1140.5797,78.92943,135.07004
"83129",1140.593,78.94408,135.05122
"83130",1140.6063,78.958725,135.03287
"83131",1140.6196,78.97093,135.01253
"83132",1140.6329,78.9807,134.99013
"83133",1140.6462,78.992905,134.97047
"83134",1140.6595,79.00511,134.9512
"83135",1140.6729,79.01732,134.93231
"83136",1140.6862,79.029526,134.9138
"83137",1140.6995,79.046616,134.90056
"83138",1140.7128,79.08324,134.90738
"83139",1140.7261,79.18822,134.9837
"83140",1140.7394,79.429924,135.20004
"83141",1140.7527,79.86694,135.61925
"83142",1140.766,80.48707,136.23521
"83143",1140.7793,81.24147,137.00484
"83144",1140.7926,82.020294,137.82246
"83145",1140.8059,82.69413,138.55943
"83146",1140.8192,83.16777,139.11726
"83147",1140.8325,83.404594,139.45308
"83148",1140.8458,83.43145,139.58633
"83149",1140.8591,83.29717,139.5593
"83150",1140.8724,83.06523,139.43039
"83151",1140.8857,82.78447,139.24542
"83152",1140.899,82.50126,139.04922
"83153",1140.9124,82.23514,138.86127
"83154",1140.9257,81.99588,138.69186
"83155",1140.939,81.78348,138.54184
"83156",1140.9523,81.583275,138.39737
"83157",1140.9656,81.38308,138.24666
"83158",1140.9789,81.17067,138.07747
"83159",1140.9922,80.94362,137.88701
"83160",1141.0055,80.71168,137.68456
"83161",1141.0188,80.48951,137.48463
"83162",1141.0321,80.291756,137.30219
"83163",1141.0454,80.130615,137.15016
"83164",1141.0587,80.00122,137.02484
"83165",1141.072,79.903564,136.92722
"83166",1141.0853,79.82788,136.84851
"83167",1141.0986,79.764404,136.77966
"83168",1141.1119,79.708244,136.71614
"83169",1141.1252,79.656975,136.65575
"83170",1141.1385,79.60082,136.58887
"83171",1141.1519,79.53246,136.50803
"83172",1141.1652,79.4519,136.41284
"83173",1141.1785,79.35912,136.30293
"83174",1141.1918,79.259026,136.1828
"83175",1141.2051,79.16136,136.06198
"83176",1141.2184,79.07591,135.95032
"83177",1141.2317,79.012436,135.85796
"83178",1141.245,78.97826,135.79291
"83179",1141.2583,78.9807,135.76341
"83180",1141.2716,79.0222,135.77306
"83181",1141.2849,79.097885,135.81818
"83182",1141.2982,79.20531,135.8974
"83183",1141.3115,79.32006,135.98732
"83184",1141.3248,79.41772,136.06372
"83185",1141.3381,79.47631,136.10411
"83186",1141.3514,79.48852,136.09995
"83187",1141.3647,79.447014,136.04245
"83188",1141.378,79.36889,135.94704
"83189",1141.3914,79.27123,135.82965
"83190",1141.4047,79.17357,135.70921
"83191",1141.418,79.08568,135.59549
"83192",1141.4313,79.01732,135.49855
"83193",1141.4446,78.96849,135.419
"83194",1141.4579,78.93919,135.35747
"83195",1141.4712,78.92943,135.31454
"83196",1141.4845,78.93919,135.29085
"83197",1141.4978,78.96361,135.2821
"83198",1141.5111,79.00023,135.28633
"83199",1141.5244,79.044174,135.29903
"83200",1141.5377,79.08568,135.31065
"83201",1141.551,79.12474,135.32114
"83202",1141.5643,79.15892,135.32796
"83203",1141.5776,79.18822,135.33096
"83204",1141.591,79.20775,135.32512
"83205",1141.6042,79.217514,135.31012
"83206",1141.6176,79.219955,135.2881
"83207",1141.6309,79.217514,135.26128
"83208",1141.6442,79.21263,135.23193
"83209",1141.6575,79.20531,135.2
"83210",1141.6708,79.202866,135.17271
"83211",1141.6841,79.21019,135.15512
"83212",1141.6974,79.217514,135.13776
"83213",1141.7107,79.22484,135.12062
"83214",1141.724,79.23949,135.11104
"83215",1141.7373,79.25414,135.10193
"83216",1141.7506,79.26879,135.09326
"83217",1141.7639,79.28344,135.08505
"83218",1141.7772,79.29565,135.07486
"83219",1141.7905,79.30541,135.0626
"83220",1141.8038,79.31274,135.04822
"83221",1141.8171,79.327385,135.04138
"83222",1141.8304,79.36645,135.05942
"83223",1141.8438,79.48852,135.16168
"83224",1141.857,79.76929,135.42647
"83225",1141.8704,80.26734,135.91731
"83226",1141.8837,80.970474,136.6288
"83227",1141.897,81.80301,137.49167
"83228",1141.9103,82.63798,138.38298
"83229",1141.9236,83.33135,139.1588
"83230",1141.9369,83.77081,139.70236
"83231",1141.9502,83.929504,139.9789
"83232",1141.9635,83.844055,140.01625
"83233",1141.9768,83.595024,139.88734
"83234",1141.9901,83.25323,139.6579
"83235",1142.0034,82.88701,139.39334
"83236",1142.0167,82.533,139.12955
"83237",1142.03,82.210724,138.88643
"83238",1142.0433,81.92996,138.67476
"83239",1142.0566,81.67849,138.4836
"83240",1142.07,81.446556,138.30412
"83241",1142.0833,81.22194,138.12471
"83242",1142.0966,81.00954,137.9505
"83243",1142.1099,80.80446,137.77698
"83244",1142.1232,80.618904,137.61656
"83245",1142.1365,80.45777,137.47478
"83246",1142.1498,80.323494,137.35481
"83247",1142.1631,80.2063,137.24773
"83248",1142.1764,80.113525,137.1614
"83249",1142.1897,80.028076,137.0795
"83250",1142.203,79.957275,137.00958
"83251",1142.2163,79.89136,136.94232
"83252",1142.2296,79.82788,136.87546
"83253",1142.2429,79.75464,136.79684
"83254",1142.2562,79.66674,136.70128
"83255",1142.2695,79.56176,136.58588
"83256",1142.2828,79.4519,136.46231
"83257",1142.2961,79.344475,136.33775
"83258",1142.3094,79.24193,136.21472
"83259",1142.3228,79.15648,136.10558
"83260",1142.336,79.08568,136.0084
"83261",1142.3494,79.02464,135.9188
"83262",1142.3627,78.96849,135.83215
"83263",1142.376,78.92699,135.7584
"83264",1142.3893,78.90013,135.69801
"83265",1142.4026,78.88304,135.64655
"83266",1142.4159,78.87572,135.60431
"83267",1142.4292,78.87572,135.56917
"83268",1142.4425,78.873276,135.53159
"83269",1142.4558,78.873276,135.49637
"83270",1142.4691,78.87572,135.4636
"83271",1142.4824,78.88548,135.43822
"83272",1142.4957,78.905014,135.42291
"83273",1142.509,78.924545,135.40822
"83274",1142.5223,78.94408,135.39413
"83275",1142.5356,78.96361,135.38066
"83276",1142.549,78.97337,135.35803
"83277",1142.5623,78.97337,135.32594
"83278",1142.5756,78.96849,135.28897
"83279",1142.5889,78.958725,135.24696
"83280",1142.6022,78.94408,135.19977
"83281",1142.6155,78.93675,135.15944
"83282",1142.6288,78.93675,135.1262
"83283",1142.6421,78.94652,135.10274
"83284",1142.6554,78.96117,135.08446
"83285",1142.6687,78.9807,135.07152
"83286",1142.682,78.99779,135.05675
"83287",1142.6953,79.012436,135.04007
"83288",1142.7086,79.03441,135.03117
"83289",1142.7219,79.08812,135.0547
"83290",1142.7352,79.23949,135.17757
"83291",1142.7485,79.551994,135.46631
"83292",1142.7618,80.0647,135.96501
"83293",1142.7751,80.75807,136.6604
"83294",1142.7885,81.54665,137.47267
"83295",1142.8018,82.303505,138.27786
"83296",1142.8151,82.9041,138.95044
"83297",1142.8284,83.26055,139.39764
"83298",1142.8417,83.36309,139.60208
"83299",1142.855,83.25567,139.59976
"83300",1142.8683,83.00664,139.45247
"83301",1142.8816,82.67704,139.21683
"83302",1142.8949,82.31815,138.9416
"83303",1142.9082,81.969025,138.66492
"83304",1142.9215,81.64431,138.40173
"83305",1142.9348,81.35134,138.16016
"83306",1142.9481,81.08766,137.9387
"83307",1142.9614,80.84352,137.72856
"83308",1142.9747,80.61158,137.52298
"83309",1142.988,80.394295,137.32481
"83310",1143.0013,80.19653,137.13937
"83311",1143.0146,80.025635,136.97461
"83312",1143.028,79.888916,136.83868
"83313",1143.0413,79.783936,136.73022
"83314",1143.0546,79.71313,136.65266
"83315",1143.0679,79.6643,136.59486
"83316",1143.0812,79.63012,136.55019
"83317",1143.0945,79.605705,136.5142
"83318",1143.1078,79.57885,136.47502
"83319",1143.1211,79.54467,136.42767
"83320",1143.1344,79.50317,136.37193
"83321",1143.1477,79.447014,136.30025
"83322",1143.161,79.37621,136.21216
"83323",1143.1743,79.29809,136.11453
"83324",1143.1876,79.21507,136.00958
"83325",1143.2009,79.132065,135.90204
"83326",1143.2142,79.05638,135.79922
"83327",1143.2275,78.995346,135.7087
"83328",1143.2408,78.94652,135.62846
"83329",1143.2542,78.907455,135.55647
"83330",1143.2675,78.870834,135.4857
"83331",1143.2808,78.84398,135.42355
"83332",1143.2941,78.83177,135.37521
"83333",1143.3074,78.83421,135.34114
"83334",1143.3207,78.84642,135.31691
"83335",1143.334,78.86351,135.29794
"83336",1143.3473,78.87572,135.27463
"83337",1143.3606,78.890366,135.25414
"83338",1143.3739,78.90013,135.22922
"83339",1143.3872,78.9099,135.2046
"83340",1143.4005,78.922104,135.18274
"83341",1143.4138,78.93919,135.16614
"83342",1143.4271,78.9514,135.14519
"83343",1143.4404,78.96117,135.12218
"83344",1143.4537,78.96605,135.09459
"83345",1143.467,78.97093,135.06715
"83346",1143.4803,78.97337,135.03743
"83347",1143.4937,78.97337,135.00534
"83348",1143.507,78.9807,134.98058
"83349",1143.5203,78.99046,134.95848
"83350",1143.5336,79.00511,134.94157
"83351",1143.5469,79.01976,134.92513
"83352",1143.5602,79.03929,134.91402
"83353",1143.5735,79.05638,134.90108
"83354",1143.5868,79.078354,134.89355
"83355",1143.6001,79.10765,134.89404
"83356",1143.6134,79.14183,134.90033
"83357",1143.6267,79.183334,134.91501
"83358",1143.64,79.22972,134.93587
"83359",1143.6533,79.27123,134.95331
"83360",1143.6666,79.30053,134.95982
"83361",1143.6799,79.3225,134.95993
"83362",1143.6932,79.35424,134.97049
"83363",1143.7065,79.43969,135.03575
"83364",1143.7198,79.65453,135.23308
"83365",1143.7332,80.062256,135.63
"83366",1143.7465,80.66773,136.23743
"83367",1143.7598,81.41482,137.00539
"83368",1143.7731,82.20096,137.83574
"83369",1143.7864,82.88701,138.59058
"83370",1143.7997,83.36065,139.15443
"83371",1143.813,83.577934,139.47675
"83372",1143.8263,83.563286,139.57391
"83373",1143.8396,83.372856,139.49484
"83374",1143.8529,83.06523,139.29262
"83375",1143.8662,82.70634,139.02951
"83376",1143.8795,82.337685,138.74544
"83377",1143.8928,81.98367,138.46448
"83378",1143.9061,81.651634,138.19443
"83379",1143.9194,81.35378,137.9482
"83380",1143.9327,81.0901,137.72682
"83381",1143.946,80.85573,137.52652
"83382",1143.9594,80.655525,137.35306
"83383",1143.9727,80.49439,137.21242
"83384",1143.986,80.377205,137.11069
"83385",1143.9993,80.29664,137.04192
"83386",1144.0126,80.24536,136.99991
"83387",1144.0259,80.216064,136.97827
"83388",1144.0392,80.19409,136.96304
"83389",1144.0525,80.177,136.95203
"83390",1144.0658,80.15015,136.9307
"83391",1144.0791,80.111084,136.89633
"83392",1144.0924,80.05493,136.84366
"83393",1144.1057,79.98901,136.77945
"83394",1144.119,79.906006,136.6961
"83395",1144.1323,79.815674,136.60284
"83396",1144.1456,79.72045,136.50186
"83397",1144.1589,79.62768,136.40034
"83398",1144.1722,79.534904,136.29593
"83399",1144.1855,79.447014,136.1935
"83400",1144.1989,79.37133,136.10052
"83401",1144.2122,79.30785,136.0174
"83402",1144.2255,79.259026,135.94693
"83403",1144.2388,79.2224,135.88715
"83404",1144.2521,79.19798,135.83842
"83405",1144.2654,79.18089,135.79626
"83406",1144.2787,79.17601,135.76578
"83407",1144.292,79.17845,135.74246
"83408",1144.3053,79.18822,135.72655
"83409",1144.3186,79.19798,135.71094
"83410",1144.3319,79.21019,135.69807
"83411",1144.3452,79.217514,135.68071
"83412",1144.3585,79.219955,135.65869
"83413",1144.3718,79.219955,135.63431
"83414",1144.3851,79.217514,135.60748
"83415",1144.3984,79.21263,135.57814
"83416",1144.4117,79.20531,135.5462
"83417",1144.425,79.19554,135.5116
"83418",1144.4384,79.183334,135.47424
"83419",1144.4517,79.17357,135.43895
"83420",1144.465,79.1638,135.40335
"83421",1144.4783,79.16136,135.37477
"83422",1144.4916,79.16136,135.34856
"83423",1144.5049,79.1638,135.32478
"83424",1144.5182,79.168686,135.30353
"83425",1144.5315,79.17845,135.28731
"83426",1144.5448,79.18822,135.2714
"83427",1144.5581,79.21019,135.26799
"83428",1144.5714,79.22972,135.26283
"83429",1144.5847,79.256584,135.26562
"83430",1144.598,79.30297,135.28877
"83431",1144.6113,79.41772,135.38173
"83432",1144.6246,79.6643,135.6101
"83433",1144.638,80.096436,136.03175
"83434",1144.6512,80.719,136.65733
"83435",1144.6646,81.46853,137.42934
"83436",1144.6779,82.24979,138.25648
"83437",1144.6912,82.92607,139.00308
"83438",1144.7045,83.39971,139.56816
"83439",1144.7178,83.63653,139.91122
"83440",1144.7311,83.65118,140.03952
"83441",1144.7444,83.49981,140.00226
"83442",1144.7577,83.23857,139.85039
"83443",1144.771,82.930954,139.64398
"83444",1144.7843,82.62333,139.42795
"83445",1144.7976,82.3328,139.2194
"83446",1144.8109,82.074005,139.03351
"83447",1144.8242,81.846954,138.87128
"83448",1144.8375,81.6321,138.71414
"83449",1144.8508,81.4197,138.55275
"83450",1144.8641,81.20241,138.37982
"83451",1144.8774,80.97536,138.19035
"83452",1144.8907,80.743416,137.98889
"83453",1144.904,80.51881,137.78752
"83454",1144.9174,80.308846,137.59378
"83455",1144.9307,80.12573,137.42032
"83456",1144.944,79.96948,137.268
"83457",1144.9573,79.84253,137.1401
"83458",1144.9706,79.742424,137.03508
"83459",1144.9839,79.66186,136.94646
"83460",1144.9972,79.5935,136.86752
"83461",1145.0105,79.53246,136.79378
"83462",1145.0238,79.46899,136.71568
"83463",1145.0371,79.398186,136.62828
"83464",1145.0504,79.3225,136.53378
"83465",1145.0637,79.24681,136.43692
"83466",1145.077,79.17113,136.33769
"83467",1145.0903,79.10277,136.24342
"83468",1145.1036,79.03929,136.1519
"83469",1145.117,78.98314,136.06572
"83470",1145.1302,78.93187,135.98267
"83471",1145.1436,78.88548,135.9029
"83472",1145.1569,78.84154,135.82411
"83473",1145.1702,78.80736,135.75372
"83474",1145.1835,78.7805,135.68959
"83475",1145.1968,78.768295,135.63927
"83476",1145.2101,78.768295,135.60077
"83477",1145.2234,78.78294,135.57692
"83478",1145.2367,78.802475,135.55841
"83479",1145.25,78.82201,135.54051
"83480",1145.2633,78.839096,135.52078
"83481",1145.2766,78.853745,135.49915
"83482",1145.2899,78.86595,135.47552
"83483",1145.3032,78.87572,135.44984
"83484",1145.3165,78.887924,135.42691
"83485",1145.3298,78.89525,135.39948
"83486",1145.3431,78.89769,135.36739
"83487",1145.3564,78.89525,135.33049
"83488",1145.3698,78.887924,135.28864
"83489",1145.383,78.87572,135.24167
"83490",1145.3964,78.86595,135.19676
"83491",1145.4097,78.86107,135.15643
"83492",1145.423,78.86839,135.12816
"83493",1145.4363,78.8806,135.105
"83494",1145.4496,78.90013,135.08954
"83495",1145.4629,78.922104,135.07713
"83496",1145.4762,78.958725,135.08006
"83497",1145.4895,79.04906,135.13785
"83498",1145.5028,79.26635,135.32542
"83499",1145.5161,79.6643,135.70044
"83500",1145.5294,80.257576,136.28322
"83501",1145.5427,80.990005,137.0237
"83502",1145.556,81.77127,137.8359
"83503",1145.5693,82.4622,138.58218
"83504",1145.5826,82.96025,139.15718
"83505",1145.596,83.21416,139.5036
"83506",1145.6093,83.24834,139.63823
"83507",1145.6226,83.11406,139.60547
"83508",1145.6359,82.879684,139.46841
"83509",1145.6492,82.60136,139.28008
"83510",1145.6625,82.32548,139.0855
"83511",1145.6758,82.07156,138.90425
"83512",1145.6891,81.846954,138.74438
"83513",1145.7024,81.64675,138.6019
"83514",1145.7157,81.463646,138.47026
"83515",1145.729,81.2781,138.33046
"83516",1145.7423,81.077896,138.1702
"83517",1145.7556,80.85817,137.98416
"83518",1145.7689,80.62867,137.78148
"83519",1145.7822,80.4065,137.57896
"83520",1145.7955,80.20386,137.38902
"83521",1145.8088,80.03052,137.22205
"83522",1145.8221,79.89624,137.08871
"83523",1145.8354,79.79126,136.9805
"83524",1145.8488,79.71313,136.89584
"83525",1145.862,79.64965,136.8234
"83526",1145.8754,79.59838,136.76117
"83527",1145.8887,79.54467,136.6949
"83528",1145.902,79.49096,136.62695
"83529",1145.9153,79.429924,136.55
"83530",1145.9286,79.36645,136.4687
"83531",1145.9419,79.293205,136.37566
"83532",1145.9552,79.217514,136.27788
"83533",1145.9685,79.13695,136.17285
"83534",1145.9818,79.05638,136.0653
"83535",1145.9951,78.98314,135.96257
"83536",1146.0084,78.922104,135.86975
"83537",1146.0217,78.87572,135.78967
