"","Time..s.","PPG.trace","Preprocessed.PPG"
"7895",133.34273,75.140305,72.56964
"7896",133.35606,74.35172,71.629196
"7897",133.3694,73.670555,70.77152
"7898",133.38274,73.09682,69.99999
"7899",133.39607,72.61097,69.29842
"7900",133.40941,72.198364,68.65491
"7901",133.42274,71.851685,68.06442
"7902",133.43608,71.56603,67.52414
"7903",133.44942,71.34142,67.035965
"7904",133.46275,71.182724,66.60669
"7905",133.47609,71.08751,66.23593
"7906",133.48943,71.04845,65.91835
"7907",133.50276,71.05089,65.64105
"7908",133.5161,71.08263,65.39313
"7909",133.52943,71.11925,65.15108
"7910",133.54277,71.14366,64.897964
"7911",133.5561,71.133896,64.611435
"7912",133.56944,71.07286,64.27333
"7913",133.58278,70.94835,63.869846
"7914",133.59612,70.75304,63.39167
"7915",133.60945,70.52842,62.878086
"7916",133.62279,70.421,62.474678
"7917",133.63612,70.75304,62.507374
"7918",133.64946,71.9884,63.453773
"7919",133.6628,74.53239,65.74739
"7920",133.67613,78.44846,69.49261
"7921",133.68947,83.38262,74.37828
"7922",133.7028,88.64149,79.74285
"7923",133.71614,93.40475,84.77615
"7924",133.72948,96.971695,88.762
"7925",133.74281,99.02983,91.3505
"7926",133.75615,99.664604,92.579956
"7927",133.76949,99.210495,92.740364
"7928",133.78282,98.04837,92.178566
"7929",133.79616,96.53956,91.233765
"7930",133.8095,94.96971,90.18078
"7931",133.82283,93.52926,89.20813
"7932",133.83617,92.28657,88.38823
"7933",133.8495,91.20012,87.68574
"7934",133.86284,90.13321,86.968834
"7935",133.87617,88.92958,86.08187
"7936",133.88951,87.49401,84.925354
"7937",133.90285,85.85092,83.51645
"7938",133.91618,84.14191,81.99027
"7939",133.92952,82.56962,80.54742
"7940",133.94286,81.322044,79.38014
"7941",133.95619,80.499275,78.59869
"7942",133.96953,80.07202,78.187035
"7943",133.98286,79.91333,78.030594
"7944",133.9962,79.86694,77.9815
"7945",134.00954,79.78638,77.896774
"7946",134.02287,79.57641,77.68013
"7947",134.03621,79.18822,77.2787
"7948",134.04955,78.607155,76.67227
"7949",134.06288,77.86008,75.88167
"7950",134.07622,76.99336,74.94808
"7951",134.08955,76.06561,73.92638
"7952",134.10289,75.13542,72.87324
"7953",134.11623,74.27116,71.85696
"7954",134.12956,73.53384,70.94061
"7955",134.1429,72.955215,70.15993
"7956",134.15623,72.567024,69.55159
"7957",134.16957,72.361946,69.11423
"7958",134.1829,72.31556,68.82915
"7959",134.19624,72.37415,68.6476
"7960",134.20958,72.481575,68.51671
"7961",134.22292,72.589,68.389175
"7962",134.23625,72.65247,68.221054
"7963",134.24959,72.65736,67.99632
"7964",134.26292,72.601204,67.71071
"7965",134.27626,72.49622,67.37451
"7966",134.2896,72.36683,67.01062
"7967",134.30293,72.22766,66.63292
"7968",134.31627,72.08606,66.24843
"7969",134.3296,71.95911,65.87416
"7970",134.34294,71.87366,65.53743
"7971",134.35628,71.84924,65.25906
"7972",134.36961,71.95911,65.11421
"7973",134.38295,72.396126,65.29996
"7974",134.39629,73.5021,66.168304
"7975",134.40962,75.64324,68.10639
"7976",134.42296,78.995346,71.32235
"7977",134.4363,83.407036,75.702644
"7978",134.44963,88.38026,80.78233
"7979",134.46297,93.18501,85.84897
"7980",134.4763,97.09865,90.17464
"7981",134.48964,99.63775,93.24807
"7982",134.50298,100.697334,94.92133
"7983",134.51631,100.48249,95.35328
"7984",134.52965,99.335014,94.84588
"7985",134.54298,97.62844,93.74352
"7986",134.55632,95.6997,92.36567
"7987",134.56966,93.81735,90.97394
"7988",134.583,92.13275,89.72113
"7989",134.59633,90.67521,88.64274
"7990",134.60966,89.34707,87.6482
"7991",134.623,88.00183,86.59506
"7992",134.63634,86.522316,85.3656
"7993",134.64967,84.91341,83.96051
"7994",134.66301,83.28008,82.48073
"7995",134.67635,81.815216,81.11836
"7996",134.68968,80.69459,80.05446
"7997",134.70302,80.008545,79.39012
"7998",134.71635,79.72289,79.10474
"7999",134.72969,79.70092,79.074104
"8000",134.74303,79.781494,79.14533
"8001",134.75636,79.818115,79.175125
"8002",134.7697,79.7058,79.05713
"8003",134.78304,79.398186,78.74032
"8004",134.79637,78.89281,78.21613
"8005",134.80971,78.204315,77.49304
"8006",134.82304,77.36935,76.60196
"8007",134.83638,76.439156,75.58956
"8008",134.84972,75.47723,74.51636
"8009",134.86305,74.54459,73.44239
"8010",134.87639,73.70962,72.436935
"8011",134.88972,73.01381,71.544556
"8012",134.90306,72.481575,70.79401
"8013",134.9164,72.10315,70.18063
"8014",134.92973,71.86145,69.692154
"8015",134.94307,71.71984,69.29622
"8016",134.9564,71.64904,68.96666
"8017",134.96974,71.624626,68.681274
"8018",134.98308,71.624626,68.41954
"8019",134.99641,71.62707,68.16025
"8020",135.00975,71.61974,67.891266
"8021",135.02309,71.59045,67.60008
"8022",135.03642,71.536736,67.28357
"8023",135.04976,71.45617,66.93852
"8024",135.0631,71.3341,66.54945
"8025",135.07643,71.17296,66.11751
"8026",135.08977,71.00206,65.67076
"8027",135.1031,70.94835,65.33586
"8028",135.11644,71.31945,65.4241
"8029",135.12978,72.54261,66.37599
"8030",135.14311,74.96208,68.56242
"8031",135.15645,78.61936,72.06227
"8032",135.16978,83.19951,76.59927
"8033",135.18312,88.07263,81.57238
"8034",135.22313,97.59182,92.22589
"8035",135.23647,98.038605,93.22242
"8036",135.2498,97.35012,93.09764
"8037",135.26314,95.89258,92.18229
"8038",135.27647,94.049286,90.83564
"8039",135.28981,92.14252,89.36791
"8040",135.30315,90.38712,87.991974
"8041",135.31648,88.85634,86.78579
"8042",135.32982,87.47448,85.680695
"8043",135.34315,86.065765,84.505554
"8044",135.35649,84.48127,83.11061
"8045",135.36983,82.686806,81.456184
"8046",135.38316,80.80446,79.6578
"8047",135.3965,79.03685,77.91533
"8048",135.40984,77.61837,76.46675
"8049",135.42317,76.71259,75.48655
"8050",135.43651,76.32197,74.993195
"8051",135.44984,76.3122,74.86849
"8052",135.46318,76.50019,74.94124
"8053",135.47652,76.70527,75.03695
"8054",135.48985,76.77608,75.0048
"8055",135.50319,76.627144,74.75512
"8056",135.51653,76.23895,74.26153
"8057",135.52986,75.62859,73.53364
"8058",135.5432,74.844894,72.613335
"8059",135.55653,73.953766,71.56111
"8060",135.56987,73.01625,70.434654
"8061",135.5832,72.0885,69.288666
"8062",135.59654,71.22667,68.179596
"8063",135.60988,70.486916,67.16568
"8064",135.62321,69.910736,66.29221
"8065",135.63655,69.5494,65.615585
"8066",135.64989,69.420006,65.15961
"8067",135.66322,69.5201,64.92908
"8068",135.67656,69.80087,64.88235
"8069",135.6899,70.19638,64.95913
"8070",135.70323,70.63584,65.092224
"8071",135.71657,71.043564,65.20731
"8072",135.7299,71.36584,65.249695
"8073",135.74324,71.56359,65.17763
"8074",135.75658,71.61242,64.962814
"8075",135.76991,71.51232,64.6006
"8076",135.78325,71.32433,64.14737
"8077",135.79659,71.2047,63.75662
"8078",135.80992,71.47814,63.75521
"8079",135.82326,72.57923,64.59
"8080",135.8366,74.879074,66.65794
"8081",135.84993,78.44114,70.05998
"8082",135.86327,82.967575,74.537704
"8083",135.8766,87.84802,79.51089
"8084",135.88994,92.33051,84.23863
"8085",135.90327,95.76074,88.05419
"8086",135.91661,97.80179,90.58776
"8087",135.92995,98.458534,91.80081
"8088",135.94328,97.97269,91.89179
"8089",135.95662,96.69337,91.17412
"8090",135.96996,94.9868,89.98922
"8091",135.98329,93.17769,88.648445
"8092",135.99663,91.49554,87.3781
"8093",136.00996,90.02823,86.27003
"8094",136.0233,88.71229,85.26747
"8095",136.03664,87.411,84.23845
"8096",136.04997,86.00717,83.06621
"8097",136.06331,84.51057,81.757324
"8098",136.07664,83.04326,80.43097
"8099",136.08998,81.79324,79.276054
"8100",136.10332,80.919205,78.45805
"8101",136.11665,80.482185,78.04976
"8102",136.12999,80.4065,77.98914
"8103",136.14333,80.54322,78.138565
"8104",136.15666,80.71168,78.324
"8105",136.17,80.76784,78.4024
"8106",136.18333,80.62379,78.28234
"8107",136.19667,80.23804,77.916084
"8108",136.21,79.61303,77.298515
"8109",136.22334,78.79271,76.4661
"8110",136.23668,77.86252,75.498184
"8111",136.25002,76.90303,74.4719
"8112",136.26335,76.00214,73.47423
"8113",136.27669,75.208664,72.555824
"8114",136.29002,74.5568,71.754234
"8115",136.30336,74.04654,71.073875
"8116",136.3167,73.66323,70.504524
"8117",136.33003,73.3727,70.015976
"8118",136.34337,73.145645,69.58182
"8119",136.3567,72.955215,69.17719
"8120",136.37004,72.781876,68.78371
"8121",136.38338,72.60853,68.384796
"8122",136.39671,72.43275,67.97803
"8123",136.41005,72.26429,67.57309
"8124",136.42339,72.12268,67.18974
"8125",136.43672,72.044556,66.86545
"8126",136.45006,72.10071,66.67299
"8127",136.4634,72.481575,66.80701
"8128",136.47673,73.48989,67.58037
"8129",136.49007,75.43816,69.3252
"8130",136.5034,78.45579,72.20027
"8131",136.51674,82.36942,76.06565
"8132",136.53008,86.6981,80.46837
"8133",136.54341,90.775314,84.7549
"8134",136.55675,93.944305,88.26062
"8135",136.57008,95.782715,90.53479
"8136",136.58342,96.20508,91.45036
"8137",136.59676,95.40429,91.15598
"8138",136.61009,93.72213,89.95521
"8139",136.62343,91.53704,88.19894
"8140",136.63676,89.215225,86.237656
"8141",136.6501,87.03258,84.34299
"8142",136.66344,85.14046,82.67063
"8143",136.67677,83.52178,81.21259
"8144",136.69011,82.04959,79.85046
"8145",136.70345,80.587166,78.45208
"8146",136.71678,79.07591,76.959175
"8147",136.73012,77.58175,75.436134
"8148",136.74345,76.27558,74.0544
"8149",136.75679,75.352715,73.015144
"8150",136.77013,74.91325,72.43046
"8151",136.78346,74.93523,72.29347
"8152",136.7968,75.27459,72.47456
"8153",136.81013,75.736015,72.78832
"8154",136.82347,76.1413,73.060356
"8155",136.8368,76.39277,73.191246
"8156",136.85014,76.44648,73.13223
"8157",136.86348,76.314644,72.88935
"8158",136.87682,76.04364,72.50318
"8159",136.89015,75.69451,72.03042
"8160",136.90349,75.3283,71.52966
"8161",136.91682,75.01091,71.066284
"8162",136.93016,74.79607,70.69553
"8163",136.9435,74.720375,70.45722
"8164",136.95683,74.79851,70.37037
"8165",136.97017,75.00847,70.417786
"8166",136.9835,75.31121,70.564545
"8167",136.99684,75.64568,70.752495
"8168",137.01018,75.93866,70.9094
"8169",137.02351,76.112,70.955826
"8170",137.03685,76.104675,70.827
"8171",137.05019,75.88739,70.48799
"8172",137.06352,75.50164,69.973724
"8173",137.07686,75.10124,69.432755
"8174",137.0902,74.98161,69.16004
"8175",137.10353,75.53094,69.55254
"8176",137.11687,77.07881,70.96076
"8177",137.1302,79.7058,73.49647
"8178",137.14354,83.17265,76.954124
"8179",137.15688,86.9691,80.84972
"8180",137.17021,90.45304,84.55144
"8181",137.18355,93.07515,87.500206
"8182",137.19688,94.53025,89.36391
"8183",137.21022,94.83055,90.11828
"8184",137.22356,94.19089,89.94207
"8185",137.2369,92.91646,89.11111
"8186",137.25023,91.29778,87.89607
"8187",137.26357,89.57656,86.52791
"8188",137.2769,87.869995,85.12061
"8189",137.29024,86.19516,83.69171
"8190",137.30357,84.51301,82.203156
"8191",137.31691,82.81621,80.647385
"8192",137.33025,81.180435,79.09962
"8193",137.34358,79.75708,77.71315
"8194",137.35692,78.70725,76.65573
"8195",137.37025,78.14328,76.05136
"8196",137.38359,78.05051,75.900566
"8197",137.39693,78.30442,76.09356
"8198",137.41026,78.71702,76.45317
"8199",137.4236,79.11742,76.81348
"8200",137.43694,79.37621,77.04469
"8201",137.45027,79.43725,77.086235
"8202",137.46361,79.290764,76.922165
"8203",137.47694,78.95384,76.56308
"8204",137.49028,78.46067,76.03722
"8205",137.50362,77.84299,75.37143
"8206",137.51695,77.15694,74.61797
"8207",137.53029,76.436714,73.80891
"8208",137.54362,75.72625,72.98709
"8209",137.55696,75.04753,72.17482
"8210",137.5703,74.4152,71.387726
"8211",137.58363,73.84146,70.639465
"8212",137.59697,73.32876,69.93431
"8213",137.6103,72.8893,69.28638
"8214",137.62364,72.518196,68.69307
"8215",137.63698,72.22278,68.16385
"8216",137.65031,72.007935,67.70596
"8217",137.66365,71.93469,67.382965
"8218",137.67699,72.17883,67.37506
"8219",137.69032,73.074844,68.02666
"8220",137.70366,74.99626,69.73167
"8221",137.717,78.12375,72.70279
"8222",137.73033,82.2913,76.81171
"8223",137.74367,87.01549,81.6075
"8224",137.757,91.60296,86.4142
"8225",137.77034,95.36523,90.53906
"8226",137.78368,97.8555,93.5095
"8227",137.79701,98.99321,95.20519
"8228",137.81035,98.983444,95.78896
"8229",137.82368,98.16556,95.56431
"8230",137.83702,96.88869,94.85511
"8231",137.85036,95.44579,93.93999
"8232",137.8637,94.04196,93.01884
"8233",137.87703,92.76509,92.18078
"8234",137.89037,91.59075,91.40535
"8235",137.9037,90.39445,90.57126
"8236",137.91704,89.037,89.53864
"8237",137.93037,87.46227,88.24632
"8238",137.94371,85.711754,86.729004
"8239",137.95705,83.94171,85.13745
"8240",137.97038,82.357216,83.67613
"8241",137.98372,81.12428,82.51686
"8242",137.99706,80.306404,81.734116
"8243",138.01039,79.84741,81.2847
"8244",138.02373,79.605705,81.03822
"8245",138.03706,79.42504,80.84524
"8246",138.0504,79.185776,80.588005
"8247",138.06374,78.82201,80.19879
"8248",138.07707,78.31663,79.6566
"8249",138.09041,77.69161,78.97898
"8250",138.10374,76.981155,78.19639
"8251",138.11708,76.23651,77.35741
"8252",138.13042,75.49676,76.500046
"8253",138.14375,74.80827,75.67084
"8254",138.15709,74.19302,74.89335
"8255",138.17043,73.66567,74.18453
"8256",138.18376,73.22377,73.544685
"8257",138.1971,72.85268,72.96184
"8258",138.21043,72.52796,72.41377
"8259",138.22377,72.215454,71.86777
"8260",138.2371,71.89563,71.30467
"8261",138.25044,71.56115,70.716934
"8262",138.26378,71.23888,70.13095
"8263",138.27711,71.04112,69.65941
"8264",138.29045,71.22667,69.56499
"8265",138.30379,72.149536,70.213684
"8266",138.31712,74.09781,71.916626
"8267",138.33046,77.11543,74.74981
"8268",138.3438,80.94362,78.487854
"8269",138.35713,85.06477,82.6385
"8270",138.37047,88.84413,86.576126
"8271",138.3838,91.74456,89.75293
"8272",138.39714,93.51461,91.89
"8273",138.41048,94.205536,93.00326
"8274",138.42381,94.06149,93.30314
"8275",138.43715,93.37545,93.05652
"8276",138.45049,92.42573,92.52478
"8277",138.46382,91.41253,91.89989
"8278",138.47716,90.43595,91.27995
"8279",138.4905,89.50088,90.671005
"8280",138.50383,88.534065,90.0011
"8281",138.51717,87.42809,89.16182
"8282",138.5305,86.0975,88.063354
"8283",138.54384,84.542305,86.6987
"8284",138.55717,82.865036,85.163376
"8285",138.57051,81.23659,83.62446
"8286",138.58385,79.84497,82.271484
"8287",138.59718,78.81712,81.23879
"8288",138.61052,78.167694,80.5524
"8289",138.62386,77.80881,80.13625
"8290",138.63719,77.591515,79.85049
"8291",138.65053,77.38155,79.56526
"8292",138.66386,77.08125,79.183136
"8293",138.6772,76.65156,78.66223
"8294",138.69054,76.09003,77.99606
"8295",138.70387,75.423515,77.20737
"8296",138.71721,74.69596,76.3368
"8297",138.73055,73.95865,75.43374
"8298",138.74388,73.25796,74.54426
"8299",138.75722,72.63294,73.70856
"8300",138.77055,72.11047,72.95587
"8301",138.78389,71.690544,72.2894
"8302",138.79723,71.36584,71.70502
"8303",138.81056,71.114365,71.18373
"8304",138.8239,70.9044,70.69609
"8305",138.83723,70.71397,70.22142
"8306",138.85057,70.52598,69.74324
"8307",138.8639,70.328224,69.24942
"8308",138.87724,70.12558,68.74453
"8309",138.89058,69.95224,68.26261
"8310",138.90392,69.90585,67.90223
"8311",138.91725,70.18417,67.865105
"8312",138.93059,71.09972,68.4739
"8313",138.94392,72.952774,70.04883
"8314",138.95726,75.82147,72.6973
"8315",138.9706,79.500725,76.24598
"8316",138.98393,83.53399,80.26364
"8317",138.99727,87.327995,84.16808
"8318",139.0106,90.33097,87.400055
"8319",139.02394,92.24994,89.64187
"8320",139.03728,93.09712,90.871864
"8321",139.05061,93.10445,91.288475
"8322",139.06395,92.56245,91.15599
"8323",139.07729,91.747,90.73312
"8324",139.09062,90.86565,90.218864
"8325",139.10396,90.01602,89.70879
"8326",139.1173,89.20546,89.211235
"8327",139.13063,88.37293,88.66638
"8328",139.14397,87.42321,87.97832
"8329",139.1573,86.27085,87.05794
"8330",139.17064,84.90608,85.88913
"8331",139.18398,83.41192,84.54828
"8332",139.19731,81.92996,83.17294
"8333",139.21065,80.61158,81.91487
"8334",139.22398,79.57397,80.89637
"8335",139.23732,78.84154,80.15063
"8336",139.25066,78.35325,79.62614
"8337",139.26399,78.00412,79.22555
"8338",139.27733,77.68917,78.84823
"8339",139.29066,77.32784,78.41469
"8340",139.304,76.86641,77.86975
"8341",139.31734,76.280464,77.18588
"8342",139.33067,75.57244,76.361626
"8343",139.34401,74.77409,75.42492
"8344",139.35735,73.953766,74.441284
"8345",139.37068,73.17738,73.47596
"8346",139.38402,72.50111,72.58648
"8347",139.39735,71.95911,71.810135
"8348",139.41069,71.55871,71.15846
"8349",139.42403,71.28527,70.62123
"8350",139.43736,71.12169,70.18532
"8351",139.4507,71.04845,69.834625
"8352",139.46404,71.03868,69.54512
"8353",139.47737,71.05821,69.28461
"8354",139.4907,71.08507,69.03203
"8355",139.50404,71.08507,68.75343
"8356",139.51738,71.03868,68.42845
"8357",139.53072,70.94347,68.05319
"8358",139.54405,70.79942,67.62613
"8359",139.55739,70.608986,67.14818
"8360",139.57072,70.41367,66.65939
"8361",139.58406,70.32334,66.269485
"8362",139.5974,70.59434,66.23808
"8363",139.61073,71.57824,66.928055
"8364",139.62407,73.55337,68.64
"8365",139.6374,76.558784,71.44396
"8366",139.65074,80.31617,75.09381
"8367",139.66408,84.283516,79.07104
"8368",139.67741,87.82117,82.742546
"8369",139.69075,90.44572,85.61151
"8370",139.70409,91.97406,87.466286
"8371",139.71742,92.491646,88.35806
"8372",139.73076,92.23773,88.494514
"8373",139.7441,91.50286,88.142075
"8374",139.75743,90.545815,87.544495
"8375",139.77077,89.530174,86.85841
"8376",139.7841,88.54383,86.16989
"8377",139.79744,87.60143,85.49449
"8378",139.81078,86.63218,84.76279
"8379",139.82411,85.514,83.85186
"8380",139.83745,84.18585,82.69602
"8381",139.85078,82.703896,81.34487
"8382",139.86412,81.214615,79.94009
"8383",139.87746,79.91333,78.67676
"8384",139.8908,78.96849,77.72921
"8385",139.90413,78.44114,77.169624
"8386",139.91747,78.26292,76.94269
"8387",139.9308,78.28489,76.91038
"8388",139.94414,78.34104,76.91293
"8389",139.95747,78.2971,76.81715
"8390",139.97081,78.08469,76.55152
"8391",139.98415,77.68185,76.08883
"8392",139.99748,77.117874,75.452415
"8393",140.01082,76.43427,74.67875
"8394",140.02415,75.67742,73.81047
"8395",140.03749,74.89372,72.89169
"8396",140.05083,74.13687,71.97527
"8397",140.06416,73.445946,71.10113
"8398",140.0775,72.850235,70.300606
"8399",140.09084,72.35706,69.58401
"8400",140.10417,71.96155,68.949646
"8401",140.11751,71.64904,68.38594
"8402",140.13084,71.41955,67.89548
"8403",140.14418,71.255974,67.46376
"8404",140.15752,71.15343,67.08797
"8405",140.17085,71.10948,66.76756
"8406",140.18419,71.11925,66.4995
"8407",140.19753,71.16075,66.26347
"8408",140.21086,71.21446,66.040955
"8409",140.2242,71.26086,65.812805
"8410",140.23753,71.28039,65.559235
"8411",140.25087,71.26574,65.272095
"8412",140.2642,71.23155,64.964966
"8413",140.27754,71.236435,64.69583
"8414",140.29088,71.4342,64.619736
"8415",140.30421,72.10559,65.02345
"8416",140.31755,73.565575,66.23674
"8417",140.33089,75.99237,68.46246
"8418",140.34422,79.290764,71.63562
"8419",140.35756,83.09941,75.422104
"8420",140.3709,86.86412,79.28367
"8421",140.38423,89.99893,82.63298
"8422",140.39757,92.11078,85.0573
"8423",140.4109,93.11665,86.441635
"8424",140.42424,93.17769,86.91257
"8425",140.43758,92.57954,86.72622
"8426",140.45091,91.62249,86.162285
"8427",140.46425,90.5507,85.4537
"8428",140.47758,89.51064,84.743355
"8429",140.49092,88.55848,84.0884
"8430",140.50426,87.63317,83.43054
"8431",140.5176,86.6273,82.66321
"8432",140.53093,85.46029,81.7033
"8433",140.54427,84.12726,80.5409
"8434",140.5576,82.73319,79.27581
"8435",140.57094,81.446556,78.074585
"8436",140.58427,80.430916,77.10415
"8437",140.59761,79.77661,76.46331
"8438",140.61095,79.4641,76.14382
"8439",140.62428,79.38354,76.04651
"8440",140.63762,79.38842,76.03213
"8441",140.65096,79.34936,75.97395
"8442",140.66429,79.20531,75.80957
"8443",140.67763,78.91966,75.49909
"8444",140.69096,78.502174,75.047844
"8445",140.7043,77.98459,74.48345
"8446",140.71764,77.41329,73.849174
"8447",140.73097,76.82002,73.17507
"8448",140.74431,76.23163,72.487305
"8449",140.75764,75.6701,71.808014
"8450",140.77098,75.13786,71.14047
"8451",140.78432,74.64469,70.49536
"8452",140.79765,74.20523,69.88855
"8453",140.81099,73.829254,69.33149
"8454",140.82433,73.52895,68.838356
"8455",140.83766,73.306786,68.41397
"8456",140.851,73.16518,68.0632
"8457",140.86433,73.08461,67.76905
"8458",140.87767,73.05043,67.51877
"8459",140.891,73.03578,67.28695
"8460",140.90434,73.023575,67.05711
"8461",140.91768,72.99428,66.80981
"8462",140.93102,72.938126,66.53473
"8463",140.94435,72.83803,66.21395
"8464",140.95769,72.708626,65.86074
"8465",140.97102,72.57679,65.50105
"8466",140.98436,72.53773,65.23001
"8467",140.9977,72.81117,65.27026
"8468",141.01103,73.72671,65.96115
"8469",141.02437,75.560234,67.59864
"8470",141.0377,78.365456,70.26512
"8471",141.05104,81.90311,73.75169
"8472",141.06438,85.69222,77.60028
"8473",141.07771,89.1371,81.22304
"8474",141.09105,91.71282,84.08429
"8475",141.10439,93.170364,85.90786
"8476",141.11772,93.556114,86.705185
"8477",141.13106,93.11421,86.68691
"8478",141.1444,92.157166,86.13969
"8479",141.15773,90.97063,85.33306
"8480",141.17107,89.78165,84.486916
"8481",141.1844,88.70496,83.71591
"8482",141.19774,87.75281,83.03578
"8483",141.21107,86.82262,82.34787
"8484",141.22441,85.79477,81.533226
"8485",141.23775,84.610664,80.530205
"8486",141.25108,83.31182,79.37544
"8487",141.26442,82.037384,78.2045
"8488",141.27776,80.96315,77.19393
"8489",141.29109,80.22827,76.48915
"8490",141.30443,79.871826,76.13984
"8491",141.31776,79.81323,76.07724
"8492",141.3311,79.89624,76.15441
"8493",141.34444,79.97681,76.231735
"8494",141.35777,79.94507,76.19927
"8495",141.37111,79.75952,76.01201
"8496",141.38445,79.41772,75.66269
"8497",141.39778,78.95384,75.18062
"8498",141.41112,78.4094,74.603485
"8499",141.42445,77.81369,73.95807
"8500",141.43779,77.19112,73.26717
"8501",141.45113,76.54658,72.53486
"8502",141.46446,75.88495,71.76531
"8503",141.4778,75.22575,70.97752
"8504",141.49113,74.598305,70.20088
"8505",141.50447,74.03189,69.46567
"8506",141.5178,73.57046,68.81773
"8507",141.53114,73.24086,68.28722
"8508",141.54448,73.04555,67.880684
"8509",141.55782,72.98207,67.599884
"8510",141.57115,73.03822,67.43673
"8511",141.58449,73.1725,67.353455
"8512",141.59782,73.338524,67.30612
"8513",141.61116,73.48745,67.24688
"8514",141.6245,73.58022,67.13614
"8515",141.63783,73.58999,66.94529
"8516",141.65117,73.52651,66.6815
"8517",141.6645,73.44106,66.39376
"8518",141.67784,73.426414,66.17415
"8519",141.69118,73.67788,66.22019
"8520",141.70451,74.50553,66.85028
"8521",141.71785,76.22186,68.39491
"8522",141.73119,78.958725,71.01371
"8523",141.74452,82.579384,74.60183
"8524",141.75786,86.67124,78.77429
"8525",141.7712,90.65324,82.96476
"8526",141.78453,93.94919,86.59363
"8527",141.79787,96.19531,89.275665
"8528",141.8112,97.3135,90.899956
"8529",141.82454,97.4551,91.5826
"8530",141.83788,96.883804,91.55678
"8531",141.85121,95.87549,91.07608
"8532",141.86455,94.67429,90.370995
"8533",141.87788,93.45846,89.61373
"8534",141.89122,92.30854,88.88439
"8535",141.90456,91.20012,88.160614
"8536",141.9179,90.03311,87.34361
"8537",141.93123,88.724495,86.34853
"8538",141.94456,87.259636,85.15631
"8539",141.9579,85.72152,83.84506
"8540",141.97124,84.2591,82.56144
"8541",141.98457,83.03349,81.468925
"8542",141.99791,82.15701,80.68724
"8543",142.01125,81.619896,80.21753
"8544",142.02458,81.33181,79.980064
"8545",142.03792,81.15602,79.845894
"8546",142.05125,80.955826,79.68182
"8547",142.06459,80.62623,79.382095
"8548",142.07793,80.111084,78.88652
"8549",142.09126,79.40795,78.18686
"8550",142.1046,78.54856,77.30897
"8551",142.11794,77.591515,76.306564
"8552",142.13127,76.60517,75.24496
"8553",142.1446,75.648125,74.18182
"8554",142.15794,74.77409,73.1718
"8555",142.17128,74.00992,72.244316
"8556",142.18462,73.37026,71.41747
"8557",142.19795,72.85756,70.69759
"8558",142.21129,72.464485,70.08132
"8559",142.22462,72.166626,69.54797
"8560",142.23796,71.93713,69.073685
"8561",142.2513,71.75647,68.64105
"8562",142.26463,71.59777,68.22475
"8563",142.27797,71.45129,67.81569
"8564",142.2913,71.29748,67.39473
"8565",142.30464,71.14366,66.96896
"8566",142.31798,70.98741,66.53595
"8567",142.33131,70.81651,66.083405
"8568",142.34465,70.6334,65.61331
"8569",142.35799,70.4625,65.149704
"8570",142.37132,70.38438,64.77353
"8571",142.38466,70.6041,64.692764
"8572",142.398,71.4464,65.24144
"8573",142.41133,73.22865,66.75639
"8574",142.42467,76.06317,69.37931
"8575",142.438,79.77173,72.96484
"8576",142.45134,83.89044,77.07642
"8577",142.46468,87.80408,81.11163
"8578",142.47801,90.92912,84.48056
"8579",142.49135,92.9189,86.811874
"8580",142.50468,93.746544,88.043236
"8581",142.51802,93.60738,88.33366
"8582",142.53136,92.79927,87.950775
"8583",142.5447,91.629814,87.1813
"8584",142.55803,90.3505,86.26542
"8585",142.57137,89.127335,85.36571
"8586",142.5847,88.0238,84.54741
"8587",142.59804,86.99107,83.76543
"8588",142.61137,85.91684,82.90966
"8589",142.62471,84.701,81.878716
"8590",142.63805,83.30938,80.634
"8591",142.65138,81.82742,79.25546
"8592",142.66472,80.411385,77.89653
"8593",142.67805,79.234604,76.732605
"8594",142.69139,78.42893,75.903015
"8595",142.70473,78.00656,75.43155
"8596",142.71806,77.87717,75.23986
"8597",142.7314,77.88205,75.178406
"8598",142.74474,77.88449,75.11466
"8599",142.75807,77.77707,74.94113
"8600",142.77141,77.503624,74.59822
"8601",142.78474,77.049515,74.0661
"8602",142.79808,76.4416,73.36598
"8603",142.81142,75.72869,72.54188
"8604",142.82475,74.95964,71.63935
"8605",142.83809,74.1857,70.7079
"8606",142.85143,73.46548,69.805984
"8607",142.86476,72.8307,68.96701
"8608",142.8781,72.29847,68.21074
"8609",142.89143,71.871216,67.542816
"8610",142.90477,71.53918,66.95676
"8611",142.9181,71.28527,66.438446
"8612",142.93144,71.080185,65.96103
"8613",142.94478,70.91173,65.513824
"8614",142.95811,70.75792,65.076004
"8615",142.97145,70.61387,64.64314
"8616",142.98479,70.47227,64.20822
"8617",142.99812,70.33311,63.77132
"8618",143.01146,70.19638,63.332504
"8619",143.0248,70.066986,62.896748
"8620",143.03813,69.9913,62.51066
"8621",143.05147,70.081635,62.28822
"8622",143.0648,70.60166,62.4983
"8623",143.07814,71.902954,63.505894
"8624",143.09148,74.268715,65.61862
"8625",143.10481,77.713585,68.88439
"8626",143.11815,81.93729,73.036644
"8627",143.13148,86.37339,77.53329
"8628",143.14482,90.34562,81.70468
"8629",143.15816,93.29244,84.97481
"8630",143.1715,94.957504,87.05526
"8631",143.18483,95.40429,87.96947
"8632",143.19817,94.90135,87.947914
"8633",143.2115,93.7905,87.30273
"8634",143.22484,92.39643,86.339615
"8635",143.23817,90.97795,85.308525
"8636",143.25151,89.68398,84.35762
"8637",143.26485,88.55848,83.534744
"8638",143.27818,87.53307,82.776794
"8639",143.29152,86.468605,81.94774
"8640",143.30486,85.25277,80.934044
"8641",143.31819,83.86847,79.71389
"8642",143.33153,82.408485,78.374794
"8643",143.34486,81.041275,77.08285
"8644",143.3582,79.95239,76.026505
"8645",143.37154,79.26391,75.33653
"8646",143.38487,78.97826,75.02788
"8647",143.39821,78.97826,74.99595
"8648",143.41154,79.10033,75.08609
"8649",143.42488,79.18822,75.14587
"8650",143.43822,79.13695,75.06923
"8651",143.45155,78.890366,74.79568
"8652",143.46489,78.44846,74.3191
"8653",143.47823,77.84543,73.66758
"8654",143.49156,77.13252,72.887344
"8655",143.5049,76.3708,72.03601
"8656",143.51823,75.61639,71.16819
"8657",143.53157,74.91325,70.32807
"8658",143.5449,74.30045,69.55631
"8659",143.55824,73.79263,68.870384
"8660",143.57158,73.38247,68.26624
"8661",143.58492,73.04799,67.72497
"8662",143.59825,72.75746,67.21719
"8663",143.61159,72.48402,66.71742
"8664",143.62492,72.20813,66.206665
"8665",143.63826,71.922485,65.67752
"8666",143.6516,71.61974,65.12236
"8667",143.66493,71.31701,64.55774
"8668",143.67827,71.05089,64.02028
"8669",143.6916,70.91905,63.608784
"8670",143.70494,71.13634,63.54229
"8671",143.71828,72.06653,64.195496
"8672",143.73161,74.04166,65.9227
"8673",143.74495,77.19112,68.88596
"8674",143.75829,81.31228,72.91935
"8675",143.77162,85.89731,77.54539
"8676",143.78496,90.26017,82.09254
"8677",143.7983,93.748985,85.901985
"8678",143.81163,95.96826,88.55092
"8679",143.82497,96.8716,89.95326
"8680",143.8383,96.6836,90.2925
"8681",143.85164,95.7412,89.87147
"8682",143.86497,94.383766,89.00594
"8683",143.87831,92.911575,87.983246
"8684",143.89165,91.52239,86.99755
"8685",143.90498,90.29679,86.13203
"8686",143.91832,89.20546,85.36247
"8687",143.93166,88.11902,84.563705
"8688",143.94499,86.90074,83.59915
"8689",143.95833,85.4847,82.39876
"8690",143.97166,83.9173,81.00275
"8691",143.985,82.3621,79.56996
"8692",143.99834,81.02174,78.30342
"8693",144.01167,80.062256,77.37586
"8694",144.02501,79.537346,76.8529
"8695",144.03835,79.378654,76.67975
"8696",144.05168,79.41772,76.699394
"8697",144.06502,79.48608,76.74956
"8698",144.07835,79.45434,76.70176
"8699",144.09169,79.2517,76.48207
"8700",144.10503,78.856186,76.06317
"8701",144.11836,78.28733,75.45857
"8702",144.1317,77.58419,74.70191
"8703",144.14503,76.80049,73.84272
"8704",144.15837,75.98993,72.932175
"8705",144.1717,75.208664,72.0256
"8706",144.18504,74.50553,71.17274
"8707",144.19838,73.90494,70.400444
"8708",144.21172,73.41421,69.719246
"8709",144.22505,73.01869,69.11793
"8710",144.23839,72.69398,68.57505
"8711",144.25172,72.410774,68.06354
"8712",144.26506,72.15442,67.57002
"8713",144.2784,71.91028,67.0807
"8714",144.29173,71.66125,66.57887
"8715",144.30507,71.4049,66.061935
"8716",144.3184,71.1461,65.534546
"8717",144.33174,70.92149,65.03325
"8718",144.34508,70.8629,64.69095
"8719",144.35841,71.255974,64.79849
"8720",144.37175,72.50599,65.77525
"8721",144.38509,74.94011,67.97519
"8722",144.39842,78.60471,71.481674
"8723",144.41176,83.18242,76.01578
"8724",144.4251,88.077515,81.01032
"8725",144.43843,92.560005,85.74524
"8726",144.45177,96.009766,89.5875
"8727",144.4651,98.13138,92.20942
"8728",144.47844,98.99321,93.637856
"8729",144.49178,98.861374,94.099556
"8730",144.50511,98.07034,93.89794
"8731",144.51845,96.9424,93.334694
"8732",144.53178,95.726555,92.6483
"8733",144.54512,94.56931,91.98251
"8734",144.55846,93.51705,91.385544
"8735",144.5718,92.52827,90.81917
"8736",144.58513,91.49554,90.17795
"8737",144.59846,90.29191,89.33356
"8738",144.6118,88.83925,88.20252
"8739",144.62514,87.15953,86.79903
"8740",144.63847,85.382164,85.24539
"8741",144.65181,83.69756,83.72898
"8742",144.66515,82.28397,82.43094
"8743",144.67848,81.24635,81.46469
"8744",144.69182,80.57984,80.83713
"8745",144.70515,80.18677,80.46217
"8746",144.71849,79.91577,80.197014
"8747",144.73183,79.64965,79.92826
"8748",144.74516,79.30053,79.56819
"8749",144.7585,78.82689,79.07269
"8750",144.77184,78.221405,78.43055
"8751",144.78517,77.49874,77.652306
"8752",144.79851,76.69306,76.76846
"8753",144.81184,75.84589,75.81795
"8754",144.82518,74.99626,74.83851
"8755",144.83852,74.18814,73.87402
"8756",144.85185,73.45815,72.96242
"8757",144.86519,72.82826,72.1281
"8758",144.87852,72.308235,71.38396
"8759",144.89186,71.885864,70.72122
"8760",144.9052,71.54894,70.13074
"8761",144.91853,71.275505,69.5932
"8762",144.93187,71.04845,69.093506
"8763",144.9452,70.84581,68.61113
"8764",144.95854,70.657814,68.13707
"8765",144.97188,70.48203,67.66934
"8766",144.98521,70.311134,67.201004
"8767",144.99855,70.13046,66.71755
"8768",145.01189,69.93759,66.216255
"8769",145.02522,69.76181,65.72602
"8770",145.03856,69.70809,65.352356
"8771",145.0519,70.04501,65.36765
"8772",145.06523,71.16075,66.172295
"8773",145.07857,73.40688,68.1422
"8774",145.0919,76.86885,71.39813
"8775",145.10524,81.30007,75.73151
"8776",145.11858,86.14145,80.61351
"8777",145.13191,90.68986,85.353836
"8778",145.14525,94.31541,89.313446
"8779",145.15858,96.69581,92.141205
"8780",145.17192,97.83841,93.80555
"8781",145.18526,97.987335,94.511925
"8782",145.1986,97.4551,94.541794
"8783",145.21193,96.551765,94.18393
"8784",145.22527,95.50439,93.65379
"8785",145.2386,94.45945,93.09337
"8786",145.25194,93.4609,92.54668
"8787",145.26527,92.48432,91.99075
"8788",145.27861,91.441826,91.338394
"8789",145.29195,90.20889,90.46302
"8790",145.30528,88.70252,89.27568
"8791",145.31862,86.91295,87.75806
"8792",145.33195,84.9305,85.99163
"8793",145.34529,82.930954,84.146164
"8794",145.35863,81.126724,82.433525
"8795",145.37196,79.674065,81.016075
"8796",145.3853,78.63889,79.97072
"8797",145.39864,77.96506,79.25435
"8798",145.41197,77.53536,78.76106
"8799",145.42531,77.21309,78.36177
"8800",145.43864,76.87129,77.932884
"8801",145.45198,76.43427,77.398094
"8802",145.46532,75.860535,76.71293
"8803",145.47865,75.140305,75.86334
"8804",145.49199,74.305336,74.87651
"8805",145.50533,73.411766,73.804985
"8806",145.51866,72.52308,72.71042
"8807",145.532,71.69543,71.64911
"8808",145.54533,70.96544,70.65961
"8809",145.55867,70.35508,69.76692
"8810",145.572,69.857025,68.96746
"8811",145.58534,69.46639,68.25986
"8812",145.59868,69.170975,67.63526
"8813",145.61201,68.96101,67.08689
"8814",145.62535,68.81209,66.592995
"8815",145.63869,68.71198,66.143265
"8816",145.65202,68.65339,65.73192
"8817",145.66536,68.63386,65.3578
"8818",145.6787,68.65583,65.02458
"8819",145.69203,68.72663,64.740875
"8820",145.70537,68.83162,64.49357
"8821",145.7187,68.94881,64.26174
"8822",145.73204,69.04402,64.011604
"8823",145.74538,69.09285,63.718056
"8824",145.75871,69.05867,63.343025
"8825",145.77205,68.93416,62.876595
"8826",145.78539,68.74616,62.34279
"8827",145.79872,68.63386,61.8788
"8828",145.81206,68.93172,61.821465
"8829",145.8254,70.12558,62.66944
"8830",145.83873,72.61829,64.85358
"8831",145.85207,76.50263,68.50723
"8832",145.8654,81.44167,73.33698
"8833",145.87874,86.75426,78.69462
"8834",145.89207,91.63714,83.78857
"8835",145.90541,95.433586,87.94868
"8836",145.91875,97.85062,90.84801
"8837",145.93208,98.97856,92.53378
"8838",145.94542,99.125046,93.273346
"8839",145.95876,98.64164,93.387596
"8840",145.97209,97.81888,93.147385
"8841",145.98543,96.87404,92.759384
"8842",145.99876,95.938965,92.35162
"8843",146.0121,95.0576,91.96835
"8844",146.02544,94.17868,91.55998
"8845",146.03877,93.187454,91.01184
"8846",146.05211,91.96185,90.19835
"8847",146.06544,90.426186,89.03649
"8848",146.07878,88.5951,87.53123
"8849",146.09212,86.60288,85.8076
"8850",146.10545,84.65949,84.07055
"8851",146.11879,82.99687,82.553535
"8852",146.13213,81.75662,81.40694
"8853",146.14546,80.96559,80.6708
"8854",146.1588,80.51392,80.249306
"8855",146.17213,80.25025,80.00169
"8856",146.18547,80.01831,79.77757
"8857",146.1988,79.7058,79.46564
"8858",146.21214,79.26635,79.01699
"8859",146.22548,78.68772,78.415436
"8860",146.23882,77.99191,77.67862
"8861",146.25215,77.208206,76.83216
"8862",146.26549,76.37812,75.91483
"8863",146.27882,75.53826,74.96179
"8864",146.29216,74.73258,74.016685
"8865",146.3055,73.99039,73.109886
"8866",146.31883,73.32632,72.25802
"8867",146.33217,72.74525,71.4684
"8868",146.3455,72.24963,70.74608
"8869",146.35884,71.834595,70.08884
"8870",146.37218,71.500114,69.49919
"8871",146.38551,71.22911,68.96257
"8872",146.39885,71.02403,68.4834
"8873",146.41219,70.86534,68.044205
"8874",146.42552,70.745705,67.639114
"8875",146.43886,70.643166,67.247375
"8876",146.4522,70.54307,66.85487
"8877",146.46553,70.42832,66.444595
"8878",146.47887,70.2916,66.00876
"8879",146.4922,70.149994,65.56376
"8880",146.50554,70.07431,65.18026
"8881",146.51888,70.237885,65.03365
"8882",146.53221,70.95079,65.44149
"8883",146.54555,72.56214,66.77005
"8884",146.55888,75.27703,69.2525
"8885",146.57222,79.00511,72.83299
"8886",146.58556,83.372856,77.16965
"8887",146.59889,87.78699,81.68918
"8888",146.61223,91.60052,85.74605
"8889",146.62556,94.35203,88.86008
"8890",146.6389,95.8999,90.85645
"8891",146.65224,96.36378,91.8172
"8892",146.66557,96.024414,91.989204
"8893",146.67891,95.201645,91.6672
"8894",146.69225,94.17868,91.119286
"8895",146.70558,93.15083,90.53452
"8896",146.71892,92.191345,89.986
"8897",146.73225,91.300224,89.47586
"8898",146.74559,90.392006,88.92078
"8899",146.75893,89.32754,88.18106
"8900",146.77226,87.98474,87.12975
"8901",146.7856,86.33921,85.73375
"8902",146.79893,84.471504,84.06414
"8903",146.81227,82.56718,82.299545
"8904",146.8256,80.848404,80.660995
"8905",146.83894,79.50805,79.34715
"8906",146.85228,78.6218,78.44553
"8907",146.86562,78.13107,77.911736
"8908",146.87895,77.88693,77.60919
"8909",146.89229,77.733116,77.38934
"8910",146.90562,77.5378,77.12319
"8911",146.91896,77.21797,76.72642
"8912",146.9323,76.75166,76.17317
"8913",146.94563,76.14862,75.46862
"8914",146.95897,75.43816,74.63781
"8915",146.9723,74.66422,73.72131
"8916",146.98564,73.87564,72.76599
"8917",146.99898,73.111465,71.81043
"8918",147.01231,72.410774,70.89448
"8919",147.02565,71.79553,70.04207
"8920",147.03899,71.28039,69.27054
"8921",147.05232,70.870224,68.58789
"8922",147.06566,70.54551,67.977875
"8923",147.079,70.28672,67.42363
"8924",147.09233,70.081635,66.915
"8925",147.10567,69.925385,66.4488
"8926",147.119,69.820404,66.028984
"8927",147.13234,69.78134,65.67181
"8928",147.14568,69.81796,65.38909
"8929",147.15901,69.92294,65.17588
"8930",147.17235,70.07919,65.01722
"8931",147.18568,70.2501,64.8781
"8932",147.19902,70.39658,64.719894
"8933",147.21236,70.486916,64.51012
"8934",147.2257,70.49668,64.222595
"8935",147.23903,70.41367,63.84261
"8936",147.25237,70.28672,63.416084
"8937",147.2657,70.26231,63.08813
"8938",147.27904,70.67002,63.191544
"8939",147.29237,71.94446,64.174416
"8940",147.30571,74.442055,66.42027
"8941",147.31905,78.21164,70.016174
"8942",147.33238,82.950485,74.699135
"8943",147.34572,88.03845,79.8793
"8944",147.35905,92.72602,84.81807
"8945",147.37239,96.38331,88.87305
"8946",147.38573,98.722206,91.72392
"8947",147.39906,99.8111,93.39788
"8948",147.4124,99.91852,94.1244
"8949",147.42574,99.39605,94.22438
"8950",147.43907,98.563515,93.99797
"8951",147.45241,97.64553,93.660095
"8952",147.46574,96.75685,93.32284
"8953",147.47908,95.91699,93.00663
"8954",147.49242,95.06737,92.65441
"8955",147.50575,94.10788,92.16578
"8956",147.51909,92.92622,91.424995
"8957",147.53242,91.42962,90.33234
"8958",147.54576,89.61562,88.87552
"8959",147.5591,87.56725,87.12764
"8960",147.57243,85.46029,85.25716
"8961",147.58577,83.49981,83.46731
"8962",147.5991,81.85184,81.9287
"8963",147.61244,80.59693,80.73167
"8964",147.62578,79.70092,79.85431
"8965",147.63911,79.05638,79.200424
"8966",147.65245,78.52415,78.6387
"8967",147.66579,78.00168,78.070114
"8968",147.67912,77.42306,77.42905
"8969",147.69246,76.771194,76.696655
"8970",147.7058,76.053406,75.87797
"8971",147.71913,75.301445,75.00268
"8972",147.73247,74.56901,74.12341
"8973",147.7458,73.9147,73.29939
"8974",147.75914,73.39468,72.5892
"8975",147.77248,73.06996,72.058075
"8976",147.78581,72.98695,71.75851
"8977",147.79915,73.15541,71.70781
"8978",147.81248,73.55093,71.889435
"8979",147.82582,74.124664,72.26164
"8980",147.83916,74.79607,72.74944
"8981",147.8525,75.47234,73.2631
"8982",147.86583,76.06317,73.71244
"8983",147.87917,76.49775,74.023994
"8984",147.8925,76.72724,74.14404
"8985",147.90584,76.72236,74.03689
"8986",147.91917,76.48554,73.69765
"8987",147.93251,76.036316,73.138596
"8988",147.94585,75.41375,72.392166
"8989",147.95918,74.68131,71.51641
"8990",147.97252,73.89517,70.564064
"8991",147.98586,73.11391,69.592026
"8992",147.99919,72.42054,68.68347
"8993",148.01253,71.95178,67.97786
"8994",148.02586,71.95422,67.72879
"8995",148.0392,72.762344,68.28548
"8996",148.05254,74.6569,69.95386
"8997",148.06587,77.68917,72.81916
"8998",148.07921,81.61013,76.66791
"8999",148.09254,85.89487,81.00296
"9000",148.10588,89.89395,85.18626
"9001",148.11922,93.04585,88.64735
"9002",148.13255,95.062485,91.07166
"9003",148.14589,95.96338,92.44326
"9004",148.15923,95.98291,92.96165
"9005",148.17256,95.4287,92.906906
"9006",148.1859,94.56687,92.52722
"9007",148.19923,93.59762,92.01318
"9008",148.21257,92.62104,91.46153
"9009",148.2259,91.663994,90.898895
"9010",148.23924,90.6923,90.2917
"9011",148.25258,89.63027,89.56381
"9012",148.26591,88.38026,88.614746
"9013",148.27925,86.86168,87.35805
"9014",148.29259,85.084305,85.7951
"9015",148.30592,83.14824,84.017914
"9016",148.31926,81.253685,82.22174
"9017",148.3326,79.60815,80.61538
"9018",148.34593,78.37034,79.365326
"9019",148.35927,77.58175,78.52581
"9020",148.3726,77.171585,78.04008
"9021",148.38594,77.00313,77.78323
"9022",148.39928,76.93965,77.62611
"9023",148.41261,76.8835,77.47432
"9024",148.42595,76.773636,77.26707
"9025",148.43929,76.595406,76.988014
"9026",148.45262,76.34394,76.63016
"9027",148.46596,76.03143,76.2034
"9028",148.4793,75.67742,75.72537
"9029",148.49263,75.301445,75.21432
"9030",148.50597,74.91325,74.6793
"9031",148.5193,74.52262,74.12971
"9032",148.53264,74.12222,73.55814
"9033",148.54597,73.70229,72.95454
"9034",148.55931,73.255516,72.31096
"9035",148.57265,72.78432,71.629
"9036",148.58598,72.30579,70.92499
"9037",148.59932,71.84924,70.228
"9038",148.61266,71.44152,69.56557
"9039",148.62599,71.114365,68.97096
"9040",148.63933,70.87999,68.45891
"9041",148.65266,70.74082,68.034744
"9042",148.666,70.68467,67.68924
"9043",148.67934,70.68223,67.39569
"9044",148.69267,70.70908,67.13136
"9045",148.70601,70.73106,66.86299
"9046",148.71935,70.72617,66.56845
"9047",148.73268,70.68467,66.23714
"9048",148.74602,70.660255,65.921616
"9049",148.75935,70.784775,65.754265
"9050",148.77269,71.3341,66.01561
"9051",148.78603,72.62562,67.036316
"9052",148.79936,74.87663,69.056885
"9053",148.8127,78.05051,72.070656
"9054",148.82603,81.8201,75.77933
"9055",148.83937,85.6556,79.67171
"9056",148.8527,88.97841,83.17125
"9057",148.86604,91.37347,85.84688
"9058",148.87938,92.7187,87.54753
"9059",148.89272,93.153275,88.37957
"9060",148.90605,92.9604,88.59774
"9061",148.91939,92.437935,88.480286
"9062",148.93272,91.810486,88.24152
"9063",148.94606,91.212326,88.01244
"9064",148.9594,90.67765,87.828156
"9065",148.97273,90.17227,87.656456
"9066",148.98607,89.61562,87.417694
"9067",148.9994,88.8954,86.99796
"9068",149.01274,87.90906,86.2896
"9069",149.02608,86.60288,85.230576
"9070",149.03941,85.0013,83.83533
"9071",149.05275,83.228806,82.219124
"9072",149.06609,81.480736,80.57195
"9073",149.07942,79.95239,79.08988
"9074",149.09276,78.785385,77.92139
"9075",149.1061,77.994354,77.0924
"9076",149.11943,77.50851,76.54388
"9077",149.13277,77.19112,76.14863
"9078",149.1461,76.90791,75.77765
"9079",149.15944,76.56367,75.33678
"9080",149.17278,76.12421,74.78993
"9081",149.18611,75.577324,74.12193
"9082",149.19945,74.932785,73.33919
"9083",149.21278,74.2272,72.47526
"9084",149.22612,73.48989,71.55755
"9085",149.23946,72.75502,70.61924
"9086",149.25279,72.06409,69.701904
"9087",149.26613,71.448845,68.83867
"9088",149.27946,70.92149,68.0441
"9089",149.2928,70.49668,67.33559
"9090",149.30614,70.17685,66.71877
"9091",149.31947,69.94736,66.182304
"9092",149.33281,69.78378,65.70458
"9093",149.34615,69.67635,65.27789
"9094",149.35948,69.60555,64.884476
"9095",149.37282,69.559166,64.51326
"9096",149.38615,69.52499,64.1528
"9097",149.39949,69.488365,63.788837
"9098",149.41283,69.44442,63.416405
"9099",149.42616,69.38094,63.023067
"9100",149.4395,69.29061,62.60089
"9101",149.45284,69.1783,62.15391
"9102",149.46617,69.0782,61.715637
"9103",149.4795,69.085526,61.381653
"9104",149.49284,69.4078,61.362846
"9105",149.50618,70.347755,61.971798
"9106",149.51952,72.17883,63.501244
"9107",149.53285,74.966965,66.04497
"9108",149.54619,78.51682,69.437546
"9109",149.55952,82.388954,73.26333
"9110",149.57286,86.02426,76.97329
"9111",149.5862,88.93202,80.069305
"9112",149.59953,90.86565,82.28206
"9113",149.61287,91.8642,83.62016
"9114",149.6262,92.157166,84.28389
"9115",149.63954,92.04242,84.54906
"9116",149.65288,91.790955,84.67392
"9117",149.66621,91.60296,84.85439
"9118",149.67955,91.56878,85.18281
"9119",149.69289,91.67376,85.649315
"9120",149.70622,91.81293,86.15329
"9121",149.71956,91.82269,86.53221
"9122",149.7329,91.54681,86.625786
"9123",149.74623,90.88762,86.32744
"9124",149.75957,89.85489,85.63495
"9125",149.7729,88.55604,84.644066
"9126",149.78624,87.16441,83.51982
"9127",149.79958,85.86313,82.44242
"9128",149.81291,84.76692,81.529434
"9129",149.82625,83.90753,80.81901
"9130",149.83958,83.23857,80.272156
"9131",149.85292,82.67216,79.806946
"9132",149.86626,82.13016,79.34845
"9133",149.8796,81.54177,78.82663
"9134",149.89293,80.867935,78.20097
"9135",149.90627,80.09888,77.45904
"9136",149.9196,79.24925,76.6125
"9137",149.93294,78.348366,75.688156
"9138",149.94627,77.44747,74.73565
"9139",149.95961,76.59785,73.80626
"9140",149.97295,75.83368,72.935776
"9141",149.98628,75.1696,72.1415
"9142",149.99962,74.59586,71.41682
"9143",150.01295,74.08804,70.74012
"9144",150.02629,73.62173,70.08906
"9145",150.03963,73.17738,69.4454
"9146",150.05296,72.75258,68.80739
"9147",150.0663,72.3473,68.17563
"9148",150.07964,71.96887,67.55806
"9149",150.09297,71.6173,66.95552
"9150",150.10631,71.30236,66.37862
"9151",150.11964,71.05577,65.86023
"9152",150.13298,70.94835,65.4733
"9153",150.14632,71.150986,65.39307
"9154",150.15965,71.91516,65.88071
"9155",150.17299,73.47524,67.18814
"9156",150.18633,75.90692,69.415924
"9157",150.19966,79.0515,72.432594
"9158",150.213,82.530556,75.88201
"9159",150.22633,85.84604,79.27657
"9160",150.23967,88.55604,82.16926
"9161",150.253,90.39445,84.27504
"9162",150.26634,91.3637,85.56912
"9163",150.27968,91.63958,86.20012
"9164",150.29301,91.46868,86.39296
"9165",150.30635,91.06584,86.34852
"9166",150.31969,90.582436,86.21092
"9167",150.33302,90.09659,86.05578
"9168",150.34636,89.61318,85.88789
"9169",150.3597,89.08827,85.6634
"9170",150.37303,88.43641,85.29555
"9171",150.38637,87.56725,84.69003
"9172",150.3997,86.42466,83.78392
"9173",150.41304,85.02083,82.58086
"9174",150.42638,83.45342,81.17035
"9175",150.43971,81.89578,79.72063
"9176",150.45305,80.533455,78.41754
"9177",150.46638,79.48852,77.389275
"9178",150.47972,78.79515,76.679924
"9179",150.49306,78.39475,76.241875
"9180",150.5064,78.167694,75.96465
"9181",150.51973,77.97238,75.71208
"9182",150.53307,77.71847,75.394806
"9183",150.5464,77.366905,74.97195
"9184",150.55974,76.912796,74.435555
"9185",150.57307,76.36103,73.787315
"9186",150.58641,75.736015,73.048584
"9187",150.59975,75.07683,72.25615
"9188",150.61308,74.41032,71.43579
"9189",150.62642,73.763336,70.614136
"9190",150.63976,73.1725,69.82841
"9191",150.65309,72.66956,69.112114
"9192",150.66643,72.26429,68.47777
"9193",150.67976,71.96155,67.93329
"9194",150.6931,71.744255,67.4648
"9195",150.70644,71.59045,67.05299
"9196",150.71977,71.47326,66.673004
"9197",150.73311,71.36584,66.29912
"9198",150.74644,71.24864,65.91211
"9199",150.75978,71.10948,65.499466
"9200",150.77312,70.94591,65.05806
"9201",150.78645,70.78233,64.61154
"9202",150.79979,70.68223,64.22339
"9203",150.81313,70.78966,64.039635
"9204",150.82646,71.363396,64.32555
"9205",150.8398,72.71351,65.40576
"9206",150.85313,75.01091,67.475464
"9207",150.86647,78.18234,70.49099
"9208",150.8798,81.88846,74.140305
"9209",150.89314,85.62142,77.93228
"9210",150.90648,88.83925,81.325775
"9211",150.91982,91.17815,83.9409
"9212",150.93315,92.55024,85.662315
"9213",150.94649,93.11177,86.61604
"9214",150.95982,93.119095,87.03311
"9215",150.97316,92.82124,87.14523
"9216",150.9865,92.403755,87.12841
"9217",150.99983,91.97162,87.08389
"9218",151.01317,91.55413,87.04052
"9219",151.0265,91.11467,86.96213
"9220",151.03984,90.579994,86.77479
"9221",151.05318,89.850006,86.37543
"9222",151.06651,88.85878,85.69202
"9223",151.07985,87.6112,84.72127
"9224",151.09319,86.19028,83.53819
"9225",151.10652,84.73762,82.27898
"9226",151.11986,83.43389,81.1233
"9227",151.1332,82.391396,80.18811
"9228",151.14653,81.651634,79.52308
"9229",151.15987,81.163345,79.0864
"9230",151.1732,80.82155,78.78096
"9231",151.18654,80.516365,78.50145
"9232",151.19987,80.16724,78.16846
"9233",151.21321,79.73754,77.74399
"9234",151.22655,79.217514,77.21576
"9235",151.23988,78.61936,76.593155
"9236",151.25322,77.962616,75.893265
"9237",151.26656,77.27657,75.143555
"9238",151.27989,76.58808,74.36996
"9239",151.29323,75.92645,73.60171
"9240",151.30656,75.31121,72.85917
"9241",151.3199,74.76921,72.17065
"9242",151.33324,74.305336,71.54331
"9243",151.34657,73.9147,70.974724
"9244",151.35991,73.58022,70.45008
"9245",151.37325,73.29214,69.96138
"9246",151.38658,73.01869,69.47832
"9247",151.39992,72.75502,68.99648
"9248",151.41325,72.48402,68.49908
"9249",151.42659,72.20325,67.98343
"9250",151.43993,71.92737,67.4639
"9251",151.45326,71.68322,66.96748
"9252",151.4666,71.52209,66.54645
"9253",151.47993,71.568474,66.327896
"9254",151.49327,72.02991,66.52585
"9255",151.5066,73.16762,67.41449
"9256",151.51994,75.14763,69.18099
"9257",151.53328,77.93088,71.81261
"9258",151.54662,81.24391,75.06098
"9259",151.55995,84.644844,78.500786
"9260",151.57329,87.64538,81.64647
"9261",151.58662,89.884186,84.12419
"9262",151.59996,91.23186,85.78075
"9263",151.6133,91.79828,86.698166
"9264",151.62663,91.80316,87.07175
"9265",151.63997,91.476006,87.11344
"9266",151.6533,90.99992,86.99599
"9267",151.66664,90.494545,86.83436
"9268",151.67998,89.99649,86.66426
"9269",151.69331,89.48623,86.46639
"9270",151.70665,88.89052,86.16713
"9271",151.71999,88.111694,85.66614
"9272",151.73332,87.08385,84.891785
"9273",151.74666,85.81674,83.84605
"9274",151.76,84.41047,82.621544
"9275",151.77333,83.02373,81.37263
"9276",151.78667,81.82254,80.26593
"9277",151.8,80.92653,79.42687
"9278",151.81334,80.34547,78.87476
"9279",151.82668,80.0061,78.546196
"9280",151.84001,79.783936,78.32422
"9281",151.85335,79.5642,78.09773
"9282",151.86668,79.26147,77.78138
"9283",151.88002,78.836655,77.33349
"9284",151.89336,78.28489,76.74537
"9285",151.9067,77.61593,76.02281
"9286",151.92003,76.839554,75.171936
"9287",151.93336,75.98016,74.21378
"9288",151.9467,75.04509,73.15309
"9289",151.96004,74.06363,72.01679
"9290",151.97337,73.060196,70.82785
"9291",151.98671,72.08362,69.63441
"9292",152.00005,71.199814,68.50322
"9293",152.01338,70.46006,67.488464
"9294",152.02672,69.90097,66.63125
"9295",152.04005,69.52499,65.93967
"9296",152.05339,69.30526,65.39259
"9297",152.06673,69.190506,64.94363
"9298",152.08006,69.12215,64.53747
"9299",152.0934,69.05623,64.131615
"9300",152.10674,68.980545,63.713936
"9301",152.12007,68.91463,63.303658
"9302",152.1334,68.89998,62.94259
"9303",152.14674,69.01228,62.708015
"9304",152.16008,69.417564,62.769928
"9305",152.17342,70.35752,63.379185
"9306",152.18675,72.05676,64.7771
"9307",152.20009,74.56901,67.04112
"9308",152.21342,77.71847,70.02087
"9309",152.22676,81.12428,73.355385
"9310",152.2401,84.29084,76.557076
"9311",152.25343,86.766464,79.16679
"9312",152.26677,88.31434,80.92611
"9313",152.2801,88.96376,81.83536
"9314",152.29344,88.91737,82.06909
"9315",152.30678,88.43641,81.86679
"9316",152.32011,87.76013,81.45415
"9317",152.33345,87.05699,80.993515
"9318",152.34679,86.400246,80.5573
"9319",152.36012,85.7728,80.12985
"9320",152.37346,85.08186,79.619316
"9321",152.3868,84.224915,78.92117
"9322",152.40013,83.16777,77.996056
"9323",152.41347,81.988556,76.91583
"9324",152.4268,80.83864,75.82806
"9325",152.44014,79.90845,74.92407
"9326",152.45348,79.33227,74.34503
"9327",152.46681,79.14427,74.13617
"9328",152.48015,79.259026,74.22418
"9329",152.49348,79.517815,74.459816
"9330",152.50682,79.76196,74.688896
"9331",152.52016,79.87671,74.7962
"9332",152.5335,79.80835,74.72399
"9333",152.54683,79.554436,74.46409
"9334",152.56017,79.15648,74.05221
"9335",152.5735,78.66331,73.53268
"9336",152.58684,78.118866,72.946465
"9337",152.60017,77.56222,72.33103
"9338",152.61351,77.02266,71.715294
"9339",152.62685,76.51484,71.11443
"9340",152.64018,76.03876,70.52944
"9341",152.65352,75.59197,69.95887
"9342",152.66685,75.17204,69.40119
"9343",152.68019,74.76921,68.84749
"9344",152.69353,74.37858,68.293396
"9345",152.70686,74.00992,67.74907
"9346",152.7202,73.670555,67.22252
"9347",152.73354,73.39712,66.75129
"9348",152.74687,73.231094,66.37893
"9349",152.76021,73.253075,66.189384
"9350",152.77354,73.61196,66.33743
"9351",152.78688,74.48112,67.006966
"9352",152.80022,75.96796,68.32134
"9353",152.81355,78.0383,70.265686
"9354",152.82689,80.4773,72.64339
"9355",152.84023,82.94316,75.12416
"9356",152.85356,85.06233,77.335304
"9357",152.8669,86.54673,78.9779
"9358",152.88023,87.29626,79.93201
"9359",152.89357,87.39391,80.257675
"9360",152.9069,87.02281,80.11763
"9361",152.92024,86.39048,79.70476
"9362",152.93358,85.660484,79.17446
"9363",152.94691,84.928055,78.61892
"9364",152.96025,84.2005,78.045364
"9365",152.97359,83.4168,77.39293
"9366",152.98692,82.50858,76.591484
"9367",153.00026,81.461205,75.6225
"9368",153.0136,80.35767,74.56463
"9369",153.02693,79.344475,73.56261
"9370",153.04027,78.58274,72.78039
"9371",153.0536,78.167694,72.32105
"9372",153.06694,78.099335,72.195435
"9373",153.08028,78.27024,72.306946
"9374",153.09361,78.52659,72.50924
"9375",153.10695,78.73411,72.670715
"9376",153.12029,78.80492,72.701965
"9377",153.13362,78.70237,72.56207
"9378",153.14696,78.433815,72.25297
"9379",153.1603,78.030975,71.801186
"9380",153.17363,77.54269,71.251366
"9381",153.18697,77.015335,70.647224
"9382",153.2003,76.49531,70.03393
"9383",153.21364,76.016785,69.445885
"9384",153.22697,75.60906,68.91369
"9385",153.24031,75.28191,68.449326
"9386",153.25365,75.03044,68.050415
"9387",153.26698,74.847336,67.71201
"9388",153.28032,74.71061,67.41427
"9389",153.29366,74.59342,67.13179
"9390",153.30699,74.48112,66.85053
"9391",153.32033,74.34928,66.546234
"9392",153.33366,74.19302,66.213394
"9393",153.347,74.002594,65.8415
"9394",153.36034,73.79996,65.45145
"9395",153.37367,73.63882,65.09656
"9396",153.38701,73.65835,64.917305
"9397",153.40034,74.107574,65.16836
"9398",153.41368,75.25994,66.13659
"9399",153.42702,77.264366,67.99289
"9400",153.44035,80.00122,70.64426
"9401",153.45369,83.123825,73.7669
"9402",153.46703,86.14389,76.88458
"9403",153.48036,88.58289,79.51558
"9404",153.4937,90.14053,81.34143
"9405",153.50703,90.80217,82.31996
"9406",153.52037,90.76799,82.62335
"9407",153.5337,90.29923,82.4911
"9408",153.54704,89.63271,82.14643
"9409",153.56038,88.94179,81.75653
"9410",153.57372,88.31678,81.41095
"9411",153.58705,87.7699,81.12396
"9412",153.60039,87.257195,80.854065
"9413",153.61372,86.69077,80.514435
"9414",153.62706,85.9852,80.017944
"9415",153.6404,85.11116,79.33094
"9416",153.65373,84.105286,78.48479
"9417",153.66707,83.08476,77.59255
"9418",153.6804,82.17166,76.77585
"9419",153.69374,81.48318,76.15523
"9420",153.70708,81.06325,75.78165
"9421",153.72041,80.87282,75.62444
"9422",153.73375,80.81178,75.59068
"9423",153.74709,80.77516,75.57943
"9424",153.76042,80.6775,75.50599
"9425",153.77376,80.46754,75.3172
"9426",153.7871,80.128174,74.99245
"9427",153.80043,79.674065,74.54234
"9428",153.81377,79.13695,73.99504
"9429",153.8271,78.55833,73.38945
"9430",153.84044,77.97482,72.760895
"9431",153.85378,77.418175,72.14096
"9432",153.86711,76.92256,71.56467
"9433",153.88045,76.50263,71.04857
"9434",153.89378,76.15839,70.59503
"9435",153.90712,75.88251,70.199104
"9436",153.92046,75.66277,69.8507
"9437",153.93379,75.4699,69.52229
"9438",153.94713,75.28924,69.200066
"9439",153.96046,75.106125,68.86974
"9440",153.9738,74.915695,68.52638
"9441",153.98714,74.71793,68.16974
"9442",154.00047,74.53483,67.82157
"9443",154.01381,74.424965,67.540924
"9444",154.02715,74.529945,67.47169
"9445",154.04048,75.07927,67.850075
"9446",154.05382,76.280464,68.8975
"9447",154.06715,78.19211,70.69291
"9448",154.08049,80.65797,73.10227
"9449",154.09383,83.34112,75.805984
"9450",154.10716,85.81674,78.38602
"9451",154.1205,87.69909,80.450134
"9452",154.13383,88.80995,81.80159
"9453",154.14717,89.178604,82.44556
"9454",154.1605,89.00282,82.55661
"9455",154.17384,88.50721,82.34233
"9456",154.18718,87.88464,81.98561
"9457",154.20052,87.26452,81.61188
"9458",154.21385,86.71519,81.289566
"9459",154.22719,86.2269,81.01112
"9460",154.24052,85.748375,80.72719
"9461",154.25386,85.186844,80.34529
"9462",154.2672,84.47639,79.79692
"9463",154.28053,83.59991,79.060326
"9464",154.29387,82.62577,78.198685
"9465",154.3072,81.65896,77.31393
"9466",154.32054,80.82399,76.5308
"9467",154.33388,80.218506,75.951065
"9468",154.34721,79.85962,75.59901
"9469",154.36055,79.693596,75.4286
"9470",154.37389,79.62768,75.3531
"9471",154.38722,79.569084,75.282875
"9472",154.40056,79.4519,75.15222
"9473",154.4139,79.24193,74.925125
"9474",154.42723,78.93187,74.59138
"9475",154.44057,78.536354,74.16248
"9476",154.4539,78.08469,73.66508
"9477",154.46724,77.60372,73.12426
"9478",154.48058,77.120316,72.56597
"9479",154.49391,76.66865,72.024315
"9480",154.50725,76.263374,71.51494
"9481",154.52058,75.90936,71.04416
"9482",154.53392,75.60174,70.6087
"9483",154.54726,75.33318,70.202705
"9484",154.5606,75.09636,69.820045
"9485",154.57393,74.87663,69.44708
"9486",154.58727,74.666664,69.07701
"9487",154.6006,74.46647,68.71015
"9488",154.61394,74.27604,68.3468
"9489",154.62727,74.10269,67.99458
"9490",154.64061,73.987946,67.69555
"9491",154.65395,74.03433,67.55406
"9492",154.66728,74.43961,67.77292
"9493",154.68062,75.42596,68.5855
"9494",154.69395,77.11299,70.1296
"9495",154.70729,79.4226,72.34899
"9496",154.72063,82.074005,74.98235
"9497",154.73396,84.65705,77.63021
"9498",154.7473,86.76158,79.88027
"9499",154.76064,88.13367,81.46365
"9500",154.77397,88.74891,82.33307
"9501",154.78731,88.76601,82.623566
"9502",154.80064,88.40711,82.538605
"9503",154.81398,87.87976,82.27397
"9504",154.82732,87.33776,81.97821
"9505",154.84065,86.8568,81.72655
"9506",154.85399,86.44175,81.52577
"9507",154.86732,86.03891,81.324234
"9508",154.88066,85.54818,81.02222
"9509",154.894,84.88655,80.533966
"9510",154.90733,84.02716,79.82728
"9511",154.92067,83.03105,78.957016
"9512",154.934,82.022736,78.04342
"9513",154.94734,81.15602,77.239914
"9514",154.96068,80.5481,76.66812
"9515",154.97401,80.22583,76.362976
"9516",154.98735,80.12085,76.26505
"9517",155.00069,80.11841,76.26639
"9518",155.01402,80.10132,76.253
"9519",155.02736,79.98657,76.14142
"9520",155.0407,79.73754,75.89197
"9521",155.05403,79.364006,75.51023
"9522",155.06737,78.89525,75.0216
"9523",155.0807,78.35569,74.44752
"9524",155.09404,77.786835,73.82728
"9525",155.10738,77.22041,73.191696
"9526",155.12071,76.6955,72.579926
"9527",155.13405,76.22919,72.010345
"9528",155.14738,75.83856,71.501884
"9529",155.16072,75.51873,71.05201
"9530",155.17406,75.25994,70.65318
"9531",155.1874,75.037766,70.28288
"9532",155.20073,74.83513,69.92518
"9533",155.21407,74.63004,69.55869
"9534",155.2274,74.41764,69.17848
"9535",155.24074,74.20279,68.789185
"9536",155.25407,74.002594,68.40783
"9537",155.26741,73.863434,68.08125
"9538",155.28075,73.87076,67.89681
"9539",155.29408,74.1857,68.02022
"9540",155.30742,75.02312,68.67594
"9541",155.32076,76.524605,70.021904
"9542",155.33409,78.66575,72.05444
"9543",155.34743,81.214615,74.561615
"9544",155.36076,83.80011,77.18507
"9545",155.3741,86.01938,79.52309
"9546",155.38744,87.56481,81.25662
"9547",155.40077,88.35096,82.279175
"9548",155.41411,88.49012,82.679306
"9549",155.42744,88.18982,82.64432
"9550",155.44078,87.66003,82.37045
"9551",155.45412,87.06676,82.016556
"9552",155.46745,86.51011,81.68074
"9553",155.48079,86.00717,81.38124
"9554",155.49413,85.506676,81.06847
"9555",155.50746,84.91829,80.65216
"9556",155.5208,84.173645,80.06121
"9557",155.53413,83.26055,79.27854
"9558",155.54747,82.252235,78.372116
"9559",155.5608,81.2781,77.46836
"9560",155.57414,80.4773,76.707504
"9561",155.58748,79.9353,76.18042
"9562",155.60081,79.65942,75.90251
"9563",155.61415,79.57397,75.80642
"9564",155.62749,79.57641,75.79555
"9565",155.64082,79.569084,75.77499
"9566",155.65416,79.47631,75.66875
"9567",155.6675,79.26635,75.44242
"9568",155.68083,78.92943,75.08257
"9569",155.69417,78.487526,74.607216
"9570",155.7075,77.96994,74.042366
"9571",155.72084,77.418175,73.42716
"9572",155.73418,76.86641,72.794716
"9573",155.74751,76.34882,72.17921
"9574",155.76085,75.880066,71.59635
"9575",155.77419,75.4699,71.05744
"9576",155.78752,75.11345,70.559425
"9577",155.80086,74.80827,70.10155
"9578",155.8142,74.547035,69.67807
"9579",155.82753,74.32487,69.2855
"9580",155.84087,74.13687,68.92016
"9581",155.8542,73.98306,68.58313
"9582",155.86754,73.85367,68.26571
"9583",155.88087,73.75357,67.97354
"9584",155.89421,73.71206,67.73683
"9585",155.90755,73.82437,67.65265
"9586",155.92088,74.2736,67.90889
"9587",155.93422,75.27947,68.73582
"9588",155.94756,76.96651,70.27534
"9589",155.96089,79.276115,72.49015
"9590",155.97423,81.94217,75.13358
"9591",155.98756,84.5716,77.82371
"9592",156.0009,86.75426,80.14922
"9593",156.01424,88.22888,81.834915
"9594",156.02757,88.94179,82.80498
"9595",156.04091,89.02968,83.1723
"9596",156.05424,88.69764,83.12244
"9597",156.06758,88.148315,82.84491
"9598",156.08092,87.52819,82.479416
"9599",156.09425,86.90318,82.08966
"9600",156.10759,86.26597,81.66817
"9601",156.12093,85.55062,81.14863
"9602",156.13426,84.70832,80.47978
"9603",156.1476,83.74639,79.664986
"9604",156.16093,82.760056,78.79572
"9605",156.17427,81.883575,78.00549
"9606",156.1876,81.24391,77.42469
"9607",156.20094,80.89967,77.11932
"9608",156.21428,80.81911,77.06687
"9609",156.22762,80.89235,77.16571
"9610",156.24095,81.004654,77.3059
"9611",156.25429,81.05104,77.38368
"9612",156.26762,80.97536,77.34084
"9613",156.28096,80.765396,77.16136
"9614",156.2943,80.428474,76.84836
"9615",156.30763,79.9939,76.42717
"9616",156.32097,79.49584,75.928925
"9617",156.3343,78.975815,75.39314
"9618",156.34764,78.470436,74.85576
"9619",156.36098,78.00412,74.341644
"9620",156.37431,77.58663,73.861786
"9621",156.38765,77.22041,73.42015
"9622",156.40099,76.89082,73.0037
"9623",156.41432,76.575874,72.59159
"9624",156.42766,76.25605,72.164764
"9625",156.441,75.928894,71.72061
"9626",156.45433,75.60174,71.266235
"9627",156.46767,75.29656,70.823616
"9628",156.481,75.05974,70.43981
"9629",156.49434,74.9987,70.224396
"9630",156.50768,75.2868,70.3562
"9631",156.52101,76.11932,71.04144
"9632",156.53435,77.61349,72.41434
"9633",156.54768,79.72289,74.449165
"9634",156.56102,82.20828,76.925896
"9635",156.57436,84.71076,79.49738
"9636",156.58769,86.84947,81.7833
"9637",156.60103,88.34852,83.49639
"9638",156.61436,89.1371,84.54587
"9639",156.6277,89.31533,85.00963
"9640",156.64104,89.07118,85.05659
"9641",156.65437,88.59266,84.86154
"9642",156.66771,88.03113,84.56853
"9643",156.68105,87.47204,84.26041
"9644",156.69438,86.922714,83.94458
"9645",156.70772,86.329445,83.56764
"9646",156.72105,85.609215,83.045204
"9647",156.73439,84.71809,82.32936
"9648",156.74773,83.6878,81.44651
"9649",156.76106,82.61845,80.4924
"9650",156.7744,81.654076,79.609856
"9651",156.78773,80.91432,78.92179
"9652",156.80107,80.448006,78.48405
"9653",156.8144,80.218506,78.26855
"9654",156.82774,80.12329,78.18016
"9655",156.84108,80.05249,78.11321
"9656",156.85442,79.90845,77.97081
"9657",156.86775,79.64477,77.70427
"9658",156.88109,79.24925,77.29765
"9659",156.89442,78.73167,76.75661
"9660",156.90776,78.12131,76.10661
"9661",156.9211,77.46456,75.39116
"9662",156.93443,76.80293,74.6503
"9663",156.94777,76.18036,73.92782
"9664",156.9611,75.62615,73.25425
"9665",156.97444,75.15251,72.64393
"9666",156.98778,74.757,72.09694
"9667",157.00111,74.42985,71.60594
"9668",157.01445,74.14908,71.15111
"9669",157.02779,73.89761,70.716805
"9670",157.04112,73.65835,70.28684
"9671",157.05446,73.428856,69.85918
"9672",157.0678,73.21156,69.43654
"9673",157.08113,73.040665,69.053505
"9674",157.09447,72.98695,68.78232
"9675",157.1078,73.199356,68.775566
"9676",157.12114,73.88541,69.2491
"9677",157.13448,75.19646,70.36907
"9678",157.14781,77.14473,72.16724
"9679",157.16115,79.56176,74.49504
"9680",157.17448,82.11795,77.03754
"9681",157.18782,84.43,79.41577
"9682",157.20116,86.18051,81.30472
"9683",157.2145,87.23277,82.55012
"9684",157.22783,87.64294,83.1863
"9685",157.24117,87.5819,83.364105
"9686",157.2545,87.24742,83.266556
"9687",157.26784,86.803085,83.0487
"9688",157.28117,86.34409,82.8023
"9689",157.29451,85.907074,82.56353
"9690",157.30785,85.46761,82.30866
"9691",157.32118,84.95735,81.96926
"9692",157.33452,84.29572,81.46255
"9693",157.34785,83.455864,80.75693
"9694",157.36119,82.47929,79.88834
"9695",157.37453,81.46853,78.95506
"9696",157.38786,80.56275,78.09518
"9697",157.4012,79.88159,77.4316
"9698",157.41454,79.47143,77.01774
"9699",157.42787,79.29565,76.82544
"9700",157.44121,79.24925,76.757034
"9701",157.45454,79.219955,76.70428
"9702",157.46788,79.114975,76.57492
"9703",157.48122,78.8806,76.31289
"9704",157.49455,78.5095,75.90681
"9705",157.50789,78.03586,75.38659
"9706",157.52122,77.49142,74.78077
"9707",157.53456,76.92012,74.13108
"9708",157.5479,76.35859,73.473305
"9709",157.56123,75.84589,72.84681
"9710",157.57457,75.39422,72.26533
"9711",157.5879,75.00847,71.73565
"9712",157.60124,74.683754,71.25495
"9713",157.61458,74.40299,70.80806
"9714",157.62791,74.14664,70.3768
"9715",157.64125,73.89029,69.93754
"9716",157.65459,73.64126,69.49758
"9717",157.66792,73.402,69.059616
"9718",157.68126,73.20424,68.65567
"9719",157.6946,73.077286,68.31635
"9720",157.70793,73.09682,68.11955
"9721",157.72127,73.402,68.209015
"9722",157.7346,74.158844,68.759674
"9723",157.74794,75.4699,69.8882
"9724",157.76128,77.298546,71.57528
"9725",157.77461,79.4519,73.64421
"9726",157.78795,81.619896,75.79508
"9727",157.80128,83.475395,77.7012
"9728",157.81462,84.788895,79.12331
"9729",157.82796,85.51156,79.99562
"9730",157.8413,85.73373,80.39002
"9731",157.85463,85.626305,80.46178
"9732",157.86797,85.34554,80.356834
"9733",157.8813,84.99153,80.16987
"9734",157.89464,84.627754,79.962074
"9735",157.90797,84.263985,79.74292
"9736",157.92131,83.86603,79.47821
"9737",157.93465,83.370415,79.10341
"9738",157.94798,82.74052,78.578835
"9739",157.96132,81.97635,77.90031
"9740",157.97466,81.13893,77.12465
"9741",157.98799,80.33082,76.35213
"9742",158.00133,79.66918,75.70083
"9743",158.01466,79.22728,75.24859
"9744",158.028,79.00511,75.00227
"9745",158.04134,78.941635,74.90771
"9746",158.05467,78.941635,74.87463
"9747",158.06801,78.91966,74.81959
"9748",158.08134,78.81224,74.678406
"9749",158.09468,78.59739,74.42644
"9750",158.10802,78.28245,74.067665
"9751",158.12135,77.88449,73.616035
"9752",158.13469,77.43038,73.09582
"9753",158.14803,76.9543,72.53944
"9754",158.16136,76.49287,71.98283
"9755",158.1747,76.068054,71.44842
"9756",158.18803,75.69695,70.954445
"9757",158.20137,75.386894,70.50992
"9758",158.2147,75.13786,70.11673
"9759",158.22804,74.93523,69.76215
"9760",158.24138,74.77165,69.44031
"9761",158.25471,74.632484,69.13776
"9762",158.26805,74.512856,68.850395
"9763",158.28139,74.40543,68.5715
"9764",158.29472,74.31754,68.308784
"9765",158.30806,74.25895,68.07262
"9766",158.3214,74.26139,67.89565
"9767",158.33473,74.38102,67.83595
"9768",158.34807,74.74723,68.02657
"9769",158.3614,75.511406,68.6266
"9770",158.37474,76.771194,69.746124
"9771",158.38808,78.487526,71.36156
"9772",158.40141,80.482185,73.30895
"9773",158.41475,82.459755,75.30159
"9774",158.42809,84.119934,77.038635
"9775",158.44142,85.25277,78.30022
"9776",158.45476,85.81918,79.03078
"9777",158.4681,85.926605,79.320045
"9778",158.48143,85.750824,79.32947
"9779",158.49477,85.44808,79.206436
"9780",158.5081,85.12825,79.056854
"9781",158.52144,84.84749,78.93635
"9782",158.53477,84.6009,78.84124
"9783",158.54811,84.34455,78.72867
"9784",158.56145,84.00763,78.52751
"9785",158.57478,83.53399,78.17911
"9786",158.58812,82.90898,77.664536
"9787",158.60146,82.176544,77.023
"9788",158.61479,81.42947,76.34394
"9789",158.62813,80.77516,75.73431
"9790",158.64146,80.28687,75.27024
"9791",158.6548,79.98657,74.978905
"9792",158.66814,79.82544,74.81735
"9793",158.68147,79.73266,74.71912
"9794",158.69481,79.63256,74.610664
"9795",158.70815,79.47387,74.44049
"9796",158.72148,79.22728,74.17746
"9797",158.73482,78.89525,73.82128
"9798",158.74815,78.49241,73.38392
"9799",158.76149,78.0383,72.8827
"9800",158.77483,77.56466,72.347755
"9801",158.78816,77.0959,71.802895
"9802",158.8015,76.65888,71.27512
"9803",158.81483,76.265816,70.77765
"9804",158.82817,75.9411,70.33624
"9805",158.8415,75.682304,69.95061
"9806",158.85484,75.48211,69.615486
"9807",158.86818,75.32098,69.31317
"9808",158.88152,75.18425,69.03023
"9809",158.89485,75.054855,68.75034
"9810",158.90819,74.91814,68.45909
"9811",158.92152,74.77409,68.15624
"9812",158.93486,74.62028,67.83912
"9813",158.9482,74.459145,67.50987
"9814",158.96153,74.30045,67.17803
"9815",158.97487,74.16861,66.86808
"9816",158.9882,74.107574,66.62482
"9817",159.00154,74.232086,66.56519
"9818",159.01488,74.69596,66.84882
"9819",159.02821,75.64568,67.6328
"9820",159.04155,77.11543,68.96648
"9821",159.05489,78.98314,70.74404
"9822",159.06822,80.990005,72.71913
"9823",159.08156,82.811325,74.57139
"9824",159.0949,84.1712,76.01912
"9825",159.10823,84.95003,76.92829
"9826",159.12157,85.19173,77.32468
"9827",159.1349,85.050125,77.345314
"9828",159.14824,84.70588,77.15888
"9829",159.16158,84.29328,76.89334
"9830",159.17491,83.90265,76.63687
"9831",159.18825,83.5584,76.41458
"9832",159.20158,83.23613,76.20351
"9833",159.21492,82.86992,75.93842
"9834",159.22826,82.39872,75.55691
"9835",159.2416,81.78592,75.019066
"9836",159.25493,81.07057,74.35953
"9837",159.26826,80.33326,73.65567
"9838",159.2816,79.68383,73.016655
"9839",159.29494,79.21507,72.53802
"9840",159.30827,78.958725,72.25714
"9841",159.32161,78.87816,72.144035
"9842",159.33495,78.887924,72.118744
"9843",159.34828,78.90257,72.09864
"9844",159.36162,78.8513,72.01308
"9845",159.37495,78.70237,71.82825
"9846",159.38829,78.45335,71.53867
"9847",159.40163,78.13107,71.16807
"9848",159.41496,77.76486,70.743454
"9849",159.4283,77.383995,70.29274
"9850",159.44164,77.015335,69.84233
"9851",159.45497,76.680855,69.41458
"9852",159.4683,76.40009,69.0301
"9853",159.48164,76.175476,68.692986
"9854",159.49498,76.00702,68.405014
"9855",159.50832,75.88495,68.158165
"9856",159.52165,75.79462,67.93924
"9857",159.53499,75.718925,67.73213
"9858",159.54832,75.63836,67.517784
"9859",159.56166,75.55291,67.296036
"9860",159.60167,75.22331,66.53999
"9861",159.615,75.0988,66.26621
"9862",159.62834,75.001144,66.015396
"9863",159.64168,74.98894,65.84698
"9864",159.65501,75.18913,65.89058
"9865",159.66835,75.77753,66.328636
"9866",159.68169,76.88838,67.30754
"9867",159.69502,78.521706,68.84363
"9868",159.70836,80.516365,70.79209
"9869",159.7217,82.581825,72.87369
"9870",159.73503,84.38361,74.75616
"9871",159.74837,85.660484,76.17001
"9872",159.7617,86.327,77.01342
"9873",159.77504,86.45396,77.33809
"9874",159.78838,86.21469,77.30051
"9875",159.80171,85.78989,77.06991
"9876",159.81505,85.31869,76.77964
"9877",159.82838,84.8719,76.49906
"9878",159.84172,84.46418,76.24358
"9879",159.85506,84.054016,75.97292
"9880",159.8684,83.57549,75.621086
"9881",159.88173,82.98955,75.14687
"9882",159.89507,82.32548,74.576225
"9883",159.9084,81.651634,73.97505
"9884",159.92174,81.077896,73.45293
"9885",159.93507,80.689705,73.09842
"9886",159.94841,80.52369,72.95396
"9887",159.96175,80.5359,72.98253
"9888",159.97508,80.64332,73.1067
"9889",159.98842,80.74586,73.22934
"9890",160.00175,80.77272,73.27951
"9891",160.01509,80.689705,73.22064
"9892",160.02843,80.49439,73.04688
"9893",160.04176,80.198975,72.766914
"9894",160.0551,79.84009,72.414246
"9895",160.06844,79.43969,72.00885
"9896",160.08177,79.03197,71.58362
"9897",160.09511,78.641335,71.162735
"9898",160.10844,78.28733,70.76627
"9899",160.12178,77.979706,70.40513
"9900",160.13512,77.72335,70.08564
"9901",160.14845,77.51583,69.80698
"9902",160.16179,77.33517,69.54868
"9903",160.17513,77.17891,69.30915
"9904",160.18846,77.04219,69.084274
"9905",160.2018,76.910355,68.86001
"9906",160.21513,76.78584,68.63895
"9907",160.22847,76.66132,68.41399
"9908",160.2418,76.53437,68.1827
"9909",160.25514,76.39521,67.93524
"9910",160.26848,76.241394,67.66878
"9911",160.28181,76.087585,67.397514
"9912",160.29515,75.97284,67.16051
"9913",160.30849,75.982605,67.044426
"9914",160.32182,76.28779,67.22407
"9915",160.33516,77.100784,67.92106
"9916",160.3485,78.538795,69.26847
"9917",160.36183,80.550545,71.23456
"9918",160.37517,82.899216,73.60043
"9919",160.3885,85.22835,76.020164
"9920",160.40184,87.16441,78.11961
"9921",160.41518,88.4535,79.63258
"9922",160.42851,89.05653,80.49979
"9923",160.44185,89.10292,80.82919
"9924",160.45518,88.7953,80.806046
"9925",160.46852,88.326546,80.61214
"9926",160.48186,87.83826,80.38405
"9927",160.4952,87.40856,80.199295
"9928",160.50853,87.047226,80.06947
"9929",160.52187,86.72007,79.96254
"9930",160.5352,86.35142,79.80389
"9931",160.54854,85.86313,79.51408
"9932",160.56187,85.21614,79.05031
"9933",160.57521,84.43244,78.42961
"9934",160.58855,83.597466,77.73315
"9935",160.60188,82.828415,77.076515
"9936",160.61522,82.22537,76.56186
"9937",160.62856,81.82742,76.23345
"9938",160.64189,81.61501,76.07815
"9939",160.65523,81.50759,76.021194
"9940",160.66856,81.4197,75.980415
"9941",160.6819,81.2781,75.88318
"9942",160.69524,81.04616,75.69118
"9943",160.70857,80.719,75.39671
"9944",160.72191,80.30396,75.00414
"9945",160.73524,79.823,74.53268
"9946",160.74858,79.30785,74.012
"9947",160.76192,78.78783,73.470345
"9948",160.77525,78.28733,72.93197
"9949",160.78859,77.823456,72.41457
"9950",160.80193,77.418175,71.94128
"9951",160.81526,77.07637,71.51879
"9952",160.8286,76.79805,71.14911
"9953",160.84193,76.57343,70.82443
"9954",160.85527,76.39033,70.53425
"9955",160.8686,76.22919,70.26031
"9956",160.88194,76.07294,69.98622
"9957",160.89528,75.911804,69.70237
"9958",160.90862,75.74334,69.40615
"9959",160.92195,75.55779,69.087585
"9960",160.93529,75.36492,68.7559
"9961",160.94862,75.17204,68.418175
"9962",160.96196,75.01579,68.11105
"9963",160.9753,74.97673,67.91624
"9964",160.98863,75.21843,68.00096
"9965",161.00197,75.95575,68.58886
"9966",161.0153,77.34493,69.85166
"9967",161.02864,79.35912,71.78288
"9968",161.04198,81.78348,74.18721
"9969",161.05531,84.263985,76.72345
"9970",161.06865,86.40513,78.99784
"9971",161.08199,87.90662,80.699486
"9972",161.09532,88.68299,81.722946
"9973",161.10866,88.83681,82.1481
"9974",161.122,88.56336,82.1508
"9975",161.13533,88.077515,81.932556
"9976",161.14867,87.535515,81.642975
"9977",161.162,87.044785,81.387726
"9978",161.17534,86.62974,81.192825
"9979",161.18867,86.26353,81.03379
"9980",161.20201,85.86801,80.83401
"9981",161.21535,85.350426,80.499794
"9982",161.22868,84.647285,79.96385
"9983",161.24202,83.78058,79.24237
"9984",161.25536,82.828415,78.40835
"9985",161.26869,81.92996,77.59828
"9986",161.28203,81.20729,76.93592
"9987",161.29536,80.740974,76.50733
"9988",161.3087,80.51392,76.30344
"9989",161.32204,80.45045,76.25602
"9990",161.33537,80.44068,76.26033
"9991",161.34871,80.396736,76.230156
"9992",161.36205,80.257576,76.10339
"9993",161.37538,79.99878,75.852646
"9994",161.38872,79.63012,75.48395
"9995",161.40205,79.17845,75.02072
"9996",161.41539,78.675514,74.49211
"9997",161.42873,78.16037,73.93558
"9998",161.44206,77.66964,73.38736
"9999",161.4554,77.22774,72.872635
"10000",161.46873,76.839554,72.39782
"10001",161.48207,76.507515,71.96702
"10002",161.4954,76.21454,71.5649
"10003",161.50874,75.95575,71.18782
"10004",161.52208,75.70916,70.81485
"10005",161.53542,75.47234,70.44395
"10006",161.54875,75.245285,70.0754
"10007",161.56209,75.020676,69.70221
"10008",161.57542,74.79851,69.32444
"10009",161.58876,74.5861,68.949486
"10010",161.6021,74.40299,68.5972
"10011",161.61543,74.31022,68.32952
"10012",161.62877,74.44694,68.28844
"10013",161.6421,75.01091,68.67888
"10014",161.65544,76.19745,69.70951
"10015",161.66878,78.065155,71.45839
"10016",161.68211,80.48463,73.8174
"10017",161.69545,83.158005,76.50592
"10018",161.70879,85.68734,79.13394
"10019",161.72212,87.69909,81.32342
"10020",161.73546,88.98329,82.84822
"10021",161.7488,89.54482,83.690475
"10022",161.76213,89.5375,83.98143
"10023",161.77547,89.17372,83.9157
"10024",161.7888,88.656136,83.6848
"10025",161.80214,88.128784,83.42795
"10026",161.81548,87.66247,83.21565
"10027",161.82881,87.259636,83.05228
"10028",161.84215,86.85924,82.87874
"10029",161.85548,86.36851,82.602356
"10030",161.86882,85.70199,82.13485
"10031",161.88216,84.825516,81.43656
"10032",161.8955,83.78302,80.54486
"10033",161.90883,82.69657,79.57663
"10034",161.92216,81.70779,78.67211
"10035",161.9355,80.94362,77.96131
"10036",161.94884,80.45533,77.50251
"10037",161.96217,80.2063,77.26771
"10038",161.97551,80.10132,77.169174
"10039",161.98885,80.028076,77.0991
"10040",162.00218,79.90845,76.98035
"10041",162.01552,79.68627,76.75531
"10042",162.02885,79.34692,76.40615
"10043",162.04219,78.905014,75.94384
"10044",162.05553,78.382545,75.38715
"10045",162.06886,77.81125,74.76531
"10046",162.0822,77.23262,74.118286
"10047",162.09554,76.6833,73.48248
"10048",162.10887,76.18524,72.88078
"10049",162.12221,75.757996,72.33433
"10050",162.13554,75.3991,71.84287
"10051",162.14888,75.10368,71.40368
"10052",162.16222,74.85954,71.00653
"10053",162.17555,74.649574,70.635925
"10054",162.18889,74.459145,70.2783
"10055",162.20222,74.29069,69.93669
"10056",162.21556,74.13687,69.60446
"10057",162.2289,73.99527,69.27964
"10058",162.24223,73.865875,68.9626
"10059",162.25557,73.741356,68.64639
"10060",162.2689,73.6144,68.32386
"10061",162.28224,73.51919,68.0291
"10062",162.29558,73.56069,67.86808
"10063",162.30891,73.94156,68.04772
"10064",162.32225,74.92058,68.83742
"10065",162.33559,76.67841,70.43652
"10066",162.34892,79.18822,72.84253
"10067",162.36226,82.193634,75.82258
"10068",162.3756,85.28695,78.98444
"10069",162.38893,88.00427,81.86698
"10070",162.40227,90.01358,84.12642
"10071",162.4156,91.20744,85.63321
"10072",162.42894,91.69329,86.46929
"10073",162.44228,91.68597,86.827385
"10074",162.45561,91.39788,86.90449
"10075",162.46895,91.00725,86.87004
"10076",162.48228,90.61173,86.818504
"10077",162.49562,90.245514,86.783905
"10078",162.50896,89.8793,86.73787
"10079",162.5223,89.44717,86.61446
"10080",162.53563,88.85878,86.321304
"10081",162.54897,88.04822,85.78758
"10082",162.5623,86.993515,84.98439
"10083",162.57564,85.74593,83.95535
"10084",162.58897,84.42512,82.814095
"10085",162.60231,83.18486,81.71212
"10086",162.61565,82.144806,80.77159
"10087",162.62898,81.36599,80.0598
"10088",162.64232,80.82155,79.558044
"10089",162.65565,80.44312,79.20529
"10090",162.66899,80.12573,78.90175
"10091",162.68233,79.78882,78.56876
"10092",162.69566,79.39086,78.16421
"10093",162.709,78.91722,77.67153
"10094",162.72234,78.37278,77.093254
"10095",162.73567,77.77219,76.44181
"10096",162.74901,77.14473,75.744736
"10097",162.76234,76.51728,75.02806
"10098",162.77568,75.90692,74.30887
"10099",162.78902,75.33318,73.60722
"10100",162.80235,74.80827,72.93648
"10101",162.81569,74.34196,72.30792
"10102",162.82903,73.92447,71.71362
"10103",162.84236,73.56069,71.15999
"10104",162.8557,73.23842,70.63649
"10105",162.86903,72.95766,70.14443
"10106",162.88237,72.71595,69.682655
"10107",162.8957,72.52308,69.26216
"10108",162.90904,72.38392,68.88934
"10109",162.92238,72.30091,68.56833
"10110",162.93571,72.274055,68.30087
"10111",162.94905,72.28626,68.07164
"10112",162.96239,72.318,67.86232
"10113",162.97572,72.34486,67.64911
"10114",162.98906,72.34974,67.414764
"10115",163.0024,72.31312,67.13907
"10116",163.01573,72.22278,66.80852
"10117",163.02907,72.08606,66.42876
"10118",163.0424,71.956665,66.05205
"10119",163.05574,72.00061,65.844635
"10120",163.06908,72.50355,66.097595
"10121",163.08241,73.78287,67.142654
"10122",163.09575,76.016785,69.18229
"10123",163.10909,79.11986,72.16089
"10124",163.12242,82.74784,75.76137
"10125",163.13576,86.380714,79.48011
"10126",163.1491,89.48379,82.78258
"10127",163.16243,91.71526,85.310425
"10128",163.17577,93.01167,86.97294
"10129",163.1891,93.5317,87.89958
"10130",163.20244,93.5317,88.32245
"10131",163.21577,93.25826,88.47188
"10132",163.22911,92.894485,88.52242
"10133",163.24245,92.540474,88.571365
"10134",163.25578,92.21576,88.63854
"10135",163.26912,91.87396,88.67849
"10136",163.28246,91.44671,88.6223
"10137",163.29579,90.84367,88.376976
"10138",163.30913,89.99405,87.86622
"10139",163.32246,88.8954,87.07989
"10140",163.3358,87.61364,86.07611
"10141",163.34914,86.2855,84.9859
"10142",163.36247,85.067215,83.964035
"10143",163.37581,84.09308,83.14825
"10144",163.38914,83.41192,82.59499
"10145",163.40248,82.984665,82.27436
"10146",163.41582,82.703896,82.08686
"10147",163.42915,82.44999,81.91745
"10148",163.44249,82.125275,81.6693
"10149",163.45583,81.685814,81.29625
"10150",163.46916,81.12428,80.7874
"10151",163.4825,80.465096,80.163345
"10152",163.49583,79.73754,79.450325
"10153",163.50917,78.97337,78.677956
"10154",163.5225,78.20676,77.87926
"10155",163.53584,77.44991,77.066376
"10156",163.54918,76.732124,76.2689
"10157",163.56252,76.05829,75.49294
"10158",163.57585,75.440605,74.75208
"10159",163.58919,74.88884,74.05784
"10160",163.60252,74.40055,73.40983
"10161",163.61586,73.985504,72.8198
"10162",163.6292,73.6437,72.29005
"10163",163.64253,73.3727,71.82042
"10164",163.65587,73.16518,71.40579
"10165",163.6692,73.01137,71.0384
"10166",163.68254,72.89662,70.70526
"10167",163.69588,72.80873,70.39539
"10168",163.70921,72.73304,70.09498
"10169",163.72255,72.66224,69.79709
"10170",163.73589,72.57923,69.48477
"10171",163.74922,72.46937,69.143005
"10172",163.76256,72.31556,68.75386
"10173",163.7759,72.12268,68.32085
"10174",163.78923,71.92737,67.879364
"10175",163.80257,71.88098,67.5807
"10176",163.8159,72.24475,67.69075
"10177",163.82924,73.31655,68.5202
"10178",163.84258,75.28191,70.27671
"10179",163.85591,78.101776,72.949135
"10180",163.86925,81.47585,76.26389
"10181",163.88258,84.92317,79.75733
"10182",163.89592,87.93103,82.91904
"10183",163.90926,90.14053,85.37639
"10184",163.92259,91.45403,87.00678
"10185",163.93593,91.998474,87.909164
"10186",163.94926,92.015564,88.30121
"10187",163.9626,91.747,88.408134
"10188",163.97594,91.38567,88.4139
"10189",163.98927,91.03166,88.415695
"10190",164.00261,90.70695,88.43572
"10191",164.01595,90.36759,88.43096
"10192",164.02928,89.935455,88.322815
"10193",164.04262,89.325096,88.02294
"10194",164.05595,88.45106,87.440315
"10195",164.06929,87.293816,86.547165
"10196",164.08263,85.89487,85.376144
"10197",164.09596,84.36408,84.02957
"10198",164.1093,82.85283,82.65469
"10199",164.12263,81.50759,81.398605
"10200",164.13597,80.43824,80.376366
"10201",164.1493,79.66186,79.61368
"10202",164.16264,79.132065,79.07332
"10203",164.17598,78.75853,78.67266
"10204",164.18932,78.44114,78.316475
"10205",164.20265,78.1091,77.93572
"10206",164.21599,77.71847,77.486
"10207",164.22932,77.24971,76.945946
"10208",164.24266,76.715034,76.325325
"10209",164.256,76.13153,75.63917
"10210",164.26933,75.52117,74.90792
"10211",164.28267,74.90593,74.15272
"10212",164.296,74.305336,73.39294
"10213",164.30934,73.73647,72.64612
"10214",164.32268,73.20912,71.923035
"10215",164.33601,72.73304,71.23474
"10216",164.34935,72.31312,70.58772
"10217",164.36269,71.95911,69.9935
"10218",164.37602,71.67834,69.46146
"10219",164.38936,71.47082,68.99388
"10220",164.4027,71.326775,68.5833
"10221",164.41603,71.24376,68.22925
"10222",164.42937,71.21202,67.923874
"10223",164.4427,71.22911,67.666336
"10224",164.45604,71.28527,67.44841
"10225",164.46938,71.36828,67.25908
"10226",164.48271,71.46105,67.08211
"10227",164.49605,71.54162,66.89583
"10228",164.50938,71.58556,66.675446
"10229",164.52272,71.57824,66.40517
"10230",164.53606,71.50744,66.07118
"10231",164.5494,71.3756,65.67395
"10232",164.56273,71.2047,65.233536
"10233",164.57607,71.1046,64.85858
"10234",164.5894,71.28771,64.76372
"10235",164.60274,72.09338,65.297134
"10236",164.61607,73.79996,66.75662
"10237",164.62941,76.48798,69.2509
"10238",164.64275,79.937744,72.59091
"10239",164.65608,83.70977,76.36099
"10240",164.66942,87.22545,79.9926
"10241",164.68275,89.98428,82.97723
"10242",164.69609,91.74456,85.049515
"10243",164.70943,92.560005,86.23198
"10244",164.72276,92.65278,86.717255
"10245",164.7361,92.30854,86.76842
"10246",164.74944,91.773865,86.618385
"10247",164.76277,91.21477,86.42722
"10248",164.77611,90.69718,86.2601
"10249",164.78944,90.20645,86.10366
"10250",164.80278,89.671776,85.88794
"10251",164.81612,89.00282,85.52123
"10252",164.82945,88.10681,84.906555
"10253",164.84279,86.939804,83.99289
"10254",164.85612,85.52865,82.7986
"10255",164.86946,83.980774,81.42349
"10256",164.8828,82.442665,80.00978
"10257",164.89613,81.075455,78.7189
"10258",164.90947,79.99878,77.675835
"10259",164.9228,79.234604,76.91162
"10260",164.93614,78.729225,76.382324
"10261",164.94948,78.39475,76.00814
"10262",164.96281,78.118866,75.68209
"10263",164.97615,77.823456,75.327896
"10264",164.98949,77.46456,74.900986
"10265",165.00282,77.032425,74.38962
"10266",165.01616,76.52705,73.791504
"10267",165.0295,75.96063,73.11656
"10268",165.04283,75.355156,72.38486
"10269",165.05617,74.7277,71.61225
"10270",165.0695,74.10269,70.82249
"10271",165.08284,73.497215,70.03272
"10272",165.09618,72.938126,69.270424
"10273",165.10951,72.44007,68.55169
"10274",165.12285,72.01282,67.88818
"10275",165.13618,71.65392,67.27969
"10276",165.14952,71.360954,66.72591
"10277",165.16286,71.12657,66.22156
"10278",165.1762,70.95323,65.77092
"10279",165.18953,70.8336,65.368576
"10280",165.20287,70.76036,65.00888
"10281",165.2162,70.73594,64.695724
"10282",165.22954,70.76036,64.43064
"10283",165.24287,70.82384,64.20538
"10284",165.25621,70.91417,64.00896
"10285",165.26955,71.011826,63.82268
"10286",165.28288,71.097275,63.62725
"10287",165.29622,71.148544,63.40031
"10288",165.30956,71.148544,63.123703
"10289",165.32289,71.08751,62.78606
"10290",165.33623,70.98009,62.400124
"10291",165.34956,70.87755,62.015713
"10292",165.3629,70.93126,61.784348
"10293",165.37624,71.43908,62.00877
"10294",165.38957,72.764786,63.066948
"10295",165.40291,75.15007,65.226135
"10296",165.41624,78.57053,68.49504
"10297",165.42958,82.68925,72.569084
"10298",165.44292,86.93248,76.896355
"10299",165.45625,90.650795,80.83131
"10300",165.46959,93.37057,83.88392
"10301",165.48293,94.91844,85.849625
"10302",165.49626,95.4165,86.81388
"10303",165.5096,95.14061,87.01976
"10304",165.52293,94.417946,86.77024
"10305",165.53627,93.51705,86.31991
"10306",165.5496,92.62592,85.85119
"10307",165.56294,91.82025,85.44008
"10308",165.57628,91.07561,85.06482
"10309",165.58961,90.28947,84.624794
"10310",165.60295,89.34951,84.006386
"10311",165.61629,88.18005,83.129105
"10312",165.62962,86.803085,82.00777
"10313",165.64296,85.33822,80.75549
"10314",165.6563,83.95392,79.53801
"10315",165.66963,82.80888,78.51653
"10316",165.68297,82.003204,77.79863
"10317",165.6963,81.53445,77.39247
"10318",165.70964,81.304955,77.21093
"10319",165.72298,81.1902,77.136955
"10320",165.73631,81.07057,77.05452
"10321",165.74965,80.85573,76.87313
"10322",165.76299,80.5066,76.55074
"10323",165.77632,80.02319,76.08317
"10324",165.78966,79.42016,75.48086
"10325",165.803,78.73899,74.78157
"10326",165.81633,78.030975,74.03415
"10327",165.82967,77.347374,73.28902
"10328",165.843,76.72968,72.58843
"10329",165.85634,76.209656,71.96621
"10330",165.86967,75.792175,71.43028
"10331",165.88301,75.46014,70.96675
"10332",165.89635,75.18913,70.55388
"10333",165.90968,74.95476,70.16917
"10334",165.92302,74.74235,69.799095
"10335",165.93636,74.53727,69.42972
"10336",165.94969,74.34684,69.06858
"10337",165.96303,74.17105,68.71613
"10338",165.97636,74.0148,68.37773
"10339",165.9897,73.88052,68.05642
"10340",166.00304,73.760895,67.74556
"10341",166.01637,73.6437,67.433395
"10342",166.02971,73.50942,67.10049
"10343",166.04305,73.34829,66.73653
"10344",166.05638,73.15785,66.33823
"10345",166.06972,72.989395,65.955956
"10346",166.08305,73.00893,65.75641
"10347",166.09639,73.51919,66.0482
"10348",166.10973,74.87663,67.203125
"10349",166.12306,77.29366,69.46005
"10350",166.1364,80.69947,72.78129
"10351",166.14973,84.73029,76.83397
"10352",166.16307,88.80507,81.056564
"10353",166.1764,92.29389,84.82054
"10354",166.18974,94.75487,87.6657
"10355",166.20308,96.05859,89.43052
"10356",166.21642,96.344246,90.218
"10357",166.22975,95.89502,90.27953
"10358",166.24309,95.01854,89.89977
"10359",166.25642,93.978485,89.32905
"10360",166.26976,92.95552,88.74291
"10361",166.2831,92.03265,88.22491
"10362",166.29643,91.192795,87.76107
"10363",166.30977,90.355385,87.27344
"10364",166.3231,89.41299,86.65465
"10365",166.33644,88.27039,85.80621
"10366",166.34978,86.908066,84.70233
"10367",166.36311,85.401695,83.411835
"10368",166.37645,83.895325,82.074265
"10369",166.38979,82.55741,80.85808
"10370",166.40312,81.51736,79.89794
"10371",166.41646,80.82155,79.24955
"10372",166.4298,80.413826,78.8675
"10373",166.44313,80.18677,78.65337
"10374",166.45647,80.01343,78.48587
"10375",166.4698,79.79126,78.26412
"10376",166.48314,79.4641,77.93044
"10377",166.49648,79.00755,77.457146
"10378",166.50981,78.42893,76.84751
"10379",166.52315,77.75754,76.12702
"10380",166.53648,77.02998,75.32939
"10381",166.54982,76.28535,74.49194
"10382",166.56316,75.560234,73.65075
"10383",166.57649,74.8864,72.83817
"10384",166.58983,74.27848,72.07046
"10385",166.60316,73.74868,71.36186
"10386",166.6165,73.29458,70.71241
"10387",166.62984,72.90639,70.11468
"10388",166.64317,72.584114,69.57073
"10389",166.65651,72.308235,69.06311
"10390",166.66985,72.07141,68.58592
"10391",166.68318,71.85657,68.12331
"10392",166.70985,71.468376,67.21997
"10393",166.72319,71.28527,66.77025
"10394",166.73653,71.11192,66.32457
"10395",166.74986,70.95079,65.88568
"10396",166.7632,70.801865,65.453964
"10397",166.77654,70.69199,65.056656
"10398",166.78987,70.68711,64.760895
"10399",166.8032,70.98009,64.76284
"10400",166.81654,71.89807,65.39896
"10401",166.82988,73.780426,67.02812
"10402",166.84322,76.773636,69.82697
"10403",166.85655,80.73365,73.686165
"10404",166.86989,85.206375,78.181816
"10405",166.88322,89.55459,82.692726
"10406",166.89656,93.14351,86.58023
"10407",166.9099,95.56786,89.41532
"10408",166.92323,96.75441,91.08836
"10409",166.93657,96.89357,91.7511
"10410",166.9499,96.3003,91.68575
"10411",166.96324,95.29687,91.1917
"10412",166.97658,94.16647,90.53934
"10413",166.98991,93.07515,89.89072
"10414",167.00325,92.09613,89.3203
"10415",167.01659,91.192795,88.79497
"10416",167.02992,90.27482,88.22677
"10417",167.04326,89.22499,87.49803
"10418",167.0566,87.98474,86.54607
"10419",167.06993,86.55894,85.36978
"10420",167.08327,85.03792,84.05373
"10421",167.0966,83.563286,82.73653
"10422",167.10994,82.28397,81.568565
"10423",167.12328,81.29763,80.653595
"10424",167.13661,80.61646,80.01298
"10425",167.14995,80.17456,79.59034
"10426",167.16328,79.8645,79.285736
"10427",167.17662,79.571526,78.988525
"10428",167.18996,79.20775,78.61136
"10429",167.2033,78.72678,78.10564
"10430",167.21663,78.12863,77.4677
"10431",167.22997,77.437706,76.71829
"10432",167.2433,76.69306,75.89358
"10433",167.25664,75.95087,75.04804
"10434",167.26997,75.25262,74.22326
"10435",167.28331,74.634926,73.457214
"10436",167.29665,74.124664,72.7793
"10437",167.30998,73.71694,72.18797
"10438",167.32332,73.39956,71.67425
"10439",167.33665,73.13832,71.20675
"10440",167.34999,72.90883,70.76283
"10441",167.36333,72.68665,70.31906
"10442",167.37666,72.46693,69.87079
"10443",167.39,72.26185,69.4303
"10444",167.40334,72.08606,69.012695
"10445",167.41667,71.94934,68.62866
"10446",167.43001,71.85657,68.2843
"10447",167.44334,71.79797,67.97122
"10448",167.45668,71.75159,67.66852
"10449",167.47002,71.69787,67.35704
"10450",167.48335,71.6173,67.01703
"10451",167.49669,71.49767,66.63544
"10452",167.51003,71.34875,66.22081
"10453",167.52336,71.26086,65.862564
"10454",167.5367,71.45129,65.77989
"10455",167.55003,72.27894,66.34039
"10456",167.56337,74.090485,67.91066
"10457",167.5767,77.02754,70.66305
"10458",167.59004,80.90456,74.447174
"10459",167.60338,85.240555,78.81144
"10460",167.61671,89.376366,83.111015
"10461",167.63005,92.6894,86.717064
"10462",167.64339,94.80614,89.23035
"10463",167.65672,95.68749,90.574394
"10464",167.67006,95.55566,90.93279
"10465",167.6834,94.728004,90.591255
"10466",167.69673,93.5317,89.8552
"10467",167.71007,92.24017,88.98654
"10468",167.7234,91.036545,88.16542
"10469",167.73674,89.969635,87.443405
"10470",167.75008,88.99306,86.77838
"10471",167.76341,87.99451,86.06087
"10472",167.77675,86.8568,85.17299
"10473",167.79008,85.521324,84.05179
"10474",167.80342,84.0296,82.732605
"10475",167.81676,82.511024,81.33995
"10476",167.8301,81.13161,80.039
"10477",167.84343,80.03296,78.975716
"10478",167.85677,79.26635,78.21014
"10479",167.8701,78.79271,77.71357
"10480",167.88344,78.49973,77.382866
"10481",167.89677,78.26536,77.10161
"10482",167.91011,77.994354,76.7764
"10483",167.92345,77.61837,76.33774
"10484",167.93678,77.12276,75.7677
"10485",167.95012,76.507515,75.062546
"10486",167.96346,75.792175,74.23807
"10487",167.97679,75.01579,73.33019
"10488",167.99013,74.215,72.37364
"10489",168.00346,73.426414,71.40428
"10490",168.0168,72.689095,70.46154
"10491",168.03014,72.03235,69.576324
"10492",168.04347,71.45861,68.7536
"10493",168.05681,70.96788,67.99596
"10494",168.07014,70.55772,67.30354
"10495",168.08348,70.21347,66.66422
"10496",168.09682,69.93271,66.07763
"10497",168.11015,69.71786,65.54817
"10498",168.12349,69.56161,65.0706
"10499",168.13683,69.46395,64.64674
"10500",168.15016,69.41268,64.26622
"10501",168.1635,69.39803,63.92072
"10502",168.17683,69.42245,63.613823
"10503",168.19017,69.48104,63.34187
"10504",168.2035,69.57137,63.103485
"10505",168.21684,69.68368,62.889896
"10506",168.23018,69.81064,62.694473
"10507",168.24352,69.944916,62.510334
"10508",168.25685,70.15732,62.408516
"10509",168.27019,70.65293,62.596546
"10510",168.28352,71.8053,63.456818
"10511",168.29686,74.022125,65.41756
"10512",168.3102,77.50118,68.70981
"10513",168.32353,82.08377,73.21431
"10514",168.33687,87.2694,78.46506
"10515",168.3502,92.318306,83.741135
"10516",168.36354,96.47852,88.2863
"10517",168.37688,99.247116,91.56985
"10518",168.39021,100.509346,93.43355
"10519",168.40355,100.44587,94.01099
"10520",168.41689,99.40826,93.612305
"10521",168.43022,97.77249,92.583046
"10522",168.44356,95.90723,91.27317
"10523",168.4569,94.066376,89.92942
"10524",168.47023,92.39399,88.69661
"10525",168.48357,90.8925,87.582436
"10526",168.4969,89.481346,86.51167
"10527",168.51024,88.079956,85.40658
"10528",168.52357,86.66636,84.24548
"10529",168.53691,85.3016,83.08904
"10530",168.55025,84.09552,82.04864
"10531",168.56358,83.15556,81.236664
"10532",168.57692,82.528114,80.707825
"10533",168.59026,82.18143,80.44014
"10534",168.60359,82.005646,80.33253
"10535",168.61693,81.87625,80.26581
"10536",168.63026,81.69802,80.14621
"10537",168.6436,81.40017,79.90142
"10538",168.65694,80.9485,79.49351
"10539",168.67027,80.34058,78.91523
"10540",168.68361,79.59838,78.18367
"10541",168.69695,78.75609,77.32883
"10542",168.71028,77.86008,76.39394
"10543",168.72362,76.95918,75.42618
"10544",168.73695,76.104675,74.47665
"10545",168.75029,75.338066,73.58831
"10546",168.76363,74.69352,72.79808
"10547",168.77696,74.1857,72.124435
"10548",168.7903,73.80972,71.566765
"10549",168.80363,73.548485,71.11208
"10550",168.81697,73.36294,70.72493
"10551",168.8303,73.233536,70.38812
"10552",168.84364,73.128555,70.07169
"10553",168.85698,73.02113,69.74954
"10554",168.87032,72.901505,69.41183
"10555",168.88365,72.76967,69.05817
"10556",168.89699,72.62562,68.68817
"10557",168.91032,72.46937,68.30147
"10558",168.92366,72.291145,67.88791
"10559",168.937,72.09094,67.44681
"10560",168.95033,71.89319,67.00189
"10561",168.96367,71.81995,66.67531
"10562",168.977,72.1593,66.75903
"10563",168.99034,73.29702,67.65173
"10564",169.00368,75.53582,69.68107
"10565",169.01701,78.90013,72.905876
"10566",169.03035,83.08232,77.053696
"10567",169.04369,87.49157,81.559265
"10568",169.05702,91.42962,85.73143
"10569",169.07036,94.3325,88.991486
"10570",169.0837,95.96094,91.06782
"10571",169.09703,96.393074,91.99873
"10572",169.11037,95.91699,92.034935
"10573",169.1237,94.87694,91.49229
"10574",169.13704,93.592735,90.67299
"10575",169.15038,92.298775,89.8038
"10576",169.16371,91.12688,89.01624
"10577",169.17705,90.09415,88.33123
"10578",169.19038,89.11757,87.6701
"10579",169.20372,88.07507,86.91252
"10580",169.21706,86.873886,85.963684
"10581",169.2304,85.49691,84.80151
"10582",169.24373,84.03204,83.50842
"10583",169.25706,82.633095,82.23547
"10584",169.2704,81.44167,81.126335
"10585",169.28374,80.550545,80.28026
"10586",169.29707,79.95972,79.706635
"10587",169.31041,79.58129,79.32695
"10588",169.32375,79.29565,79.02822
"10589",169.33708,79.012436,78.723
"10590",169.35042,78.67063,78.350334
"10591",169.36375,78.24826,77.88642
"10592",169.37709,77.74044,77.32386
"10593",169.39043,77.1667,76.67951
"10594",169.40376,76.544136,75.96841
"10595",169.4171,75.88983,75.20611
"10596",169.43044,75.22087,74.40871
"10597",169.44377,74.56901,73.6075
"10598",169.4571,73.94888,72.81766
"10599",169.47044,73.38979,72.06947
"10600",169.48378,72.90639,71.3795
"10601",169.49712,72.52064,70.77208
"10602",169.51045,72.234985,70.2527
"10603",169.52379,72.042114,69.81717
"10604",169.53712,71.92737,69.453735
"10605",169.55046,71.86389,69.137985
"10606",169.5638,71.82727,68.84711
"10607",169.57713,71.79065,68.555084
"10608",169.59047,71.727165,68.23506
"10609",169.6038,71.624626,67.87399
"10610",169.61714,71.500114,67.48775
"10611",169.63048,71.448845,67.17085
"10612",169.64381,71.70275,67.15753
"10613",169.65715,72.63538,67.83087
"10614",169.67049,74.57877,69.54411
"10615",169.68382,77.6379,72.43383
"10616",169.69716,81.59304,76.315155
"10617",169.7105,85.94125,80.71315
"10618",169.72383,90.020905,84.97846
"10619",169.73717,93.2314,88.50211
"10620",169.7505,95.24559,90.92979
"10621",169.76384,96.0708,92.23142
"10622",169.77718,95.94629,92.60912
"10623",169.79051,95.184555,92.34571
"10624",169.80385,94.11032,91.745995
"10625",169.81718,92.96529,91.04191
"10626",169.83052,91.90082,90.38261
"10627",169.84386,90.951096,89.80479
"10628",169.8572,90.05997,89.25588
"10629",169.87053,89.11513,88.62542
"10630",169.88387,88.01892,87.81406
"10631",169.8972,86.744484,86.79021
"10632",169.91054,85.350426,85.60691
"10633",169.92387,83.97101,84.39469
"10634",169.93721,82.76494,83.31271
"10635",169.95055,81.85428,82.48846
"10636",169.96388,81.26833,81.96046
"10637",169.97722,80.9485,81.68026
"10638",169.99055,80.76784,81.529236
"10639",170.00389,80.601814,81.38721
"10640",170.01723,80.35035,81.15455
"10641",170.03056,79.9646,80.77975
"10642",170.0439,79.4226,80.23664
"10643",170.05724,78.74876,79.544754
"10644",170.07057,77.977264,78.73416
"10645",170.08391,77.154495,77.84818
"10646",170.09724,76.32929,76.93406
"10647",170.11058,75.53826,76.02832
"10648",170.12392,74.8156,75.16623
"10649",170.13725,74.175934,74.364555
"10650",170.15059,73.63149,73.638115
"10651",170.16393,73.16762,72.97523
"10652",170.17726,72.77211,72.36621
"10653",170.1906,72.42054,71.78877
"10654",170.20393,72.09827,71.229645
"10655",170.21727,71.78821,70.67265
"10656",170.2306,71.49523,70.12306
"10657",170.24394,71.22667,69.58873
"10658",170.25728,71.02403,69.11192
"10659",170.27061,70.960556,68.767944
"10660",170.28395,71.199814,68.72472
"10661",170.29729,72.0177,69.26759
"10662",170.31062,73.6852,70.68565
"10663",170.32396,76.314644,73.11776
"10664",170.3373,79.77417,76.46212
"10665",170.35063,83.685356,80.36625
"10666",170.36397,87.49401,84.29007
"10667",170.3773,90.64591,87.67616
"10668",170.39064,92.78462,90.14756
"10669",170.40398,93.82712,91.58958
"10670",170.41731,93.927216,92.12177
"10671",170.43065,93.351036,91.98082
"10672",170.44398,92.386665,91.43367
"10673",170.45732,91.283134,90.717224
"10674",170.47066,90.20157,89.98826
"10675",170.484,89.198135,89.30363
"10676",170.49733,88.24109,88.63402
"10677",170.51067,87.22545,87.875916
"10678",170.524,86.065765,86.942024
"10679",170.53734,84.732735,85.798546
"10680",170.55067,83.29717,84.51088
"10681",170.56401,81.90555,83.22229
"10682",170.57735,80.72144,82.09773
"10683",170.59068,79.852295,81.25113
"10684",170.60402,79.31518,80.7094
"10685",170.61736,79.03197,80.404785
"10686",170.63069,78.87572,80.218285
"10687",170.64403,78.7219,80.029335
"10688",170.65736,78.49241,79.7599
"10689",170.6707,78.150604,79.37099
"10690",170.68404,77.68917,78.85176
"10691",170.69737,77.12764,78.21802
"10692",170.71071,76.49531,77.495926
"10693",170.72404,75.83124,76.722336
"10694",170.73738,75.18181,75.942635
"10695",170.75072,74.59586,75.20612
"10696",170.76405,74.10513,74.54652
"10697",170.77739,73.71694,73.97411
"10698",170.79073,73.41665,73.47748
"10699",170.80406,73.17006,73.02516
"10700",170.8174,72.935684,72.577354
"10701",170.83073,72.67933,72.10024
"10702",170.84407,72.37415,71.5663
"10703",170.8574,72.042114,70.99596
"10704",170.87074,71.71496,70.42012
"10705",170.88408,71.45373,69.89998
"10706",170.89742,71.329216,69.50839
"10707",170.91075,71.4757,69.38391
"10708",170.92409,72.10071,69.74254
"10709",170.93742,73.4313,70.82628
"10710",170.95076,75.58465,72.77436
"10711",170.9641,78.47288,75.52461
"10712",170.97743,81.80301,78.80702
"10713",170.99077,85.11116,82.17152
"10714",171.0041,87.90662,85.12669
"10715",171.01744,89.847565,87.31473
"10716",171.03078,90.83635,88.61125
"10717",171.04411,90.99016,89.1037
"10718",171.05745,90.55314,89.010124
"10719",171.07079,89.77188,88.558655
"10720",171.08412,88.86366,87.95581
"10721",171.09746,87.955444,87.324585
"10722",171.1108,87.09117,86.70892
"10723",171.12413,86.21713,86.05648
"10724",171.13747,85.24544,85.27907
"10725",171.1508,84.10773,84.305275
"10726",171.16414,82.81621,83.14212
"10727",171.17747,81.461205,81.87512
"10728",171.19081,80.19165,80.65123
"10729",171.20415,79.15404,79.619606
"10730",171.21748,78.42893,78.868065
"10731",171.23082,78.00412,78.39416
"10732",171.24416,77.79172,78.119385
"10733",171.25749,77.679405,77.938065
"10734",171.27083,77.55489,77.741035
"10735",171.28416,77.3547,77.46443
"10736",171.2975,77.04219,77.06926
"10737",171.31084,76.62226,76.5569
"10738",171.32417,76.112,75.941086
"10739",171.33751,75.55047,75.25806
"10740",171.35085,74.97185,74.54039
"10741",171.36418,74.40299,73.81441
"10742",171.37752,73.85367,73.09018
"10743",171.39085,73.31899,72.363434
"10744",171.40419,72.76723,71.60289
"10745",171.41753,72.1593,70.76894
"10746",171.43086,71.45617,69.820786
"10747",171.4442,70.64805,68.74567
"10748",171.45753,69.752045,67.55741
"10749",171.47087,68.82674,66.31185
"10750",171.4842,67.94293,65.07888
"10751",171.49754,67.18608,63.945244
"10752",171.51088,66.62943,62.98816
"10753",171.52422,66.33402,62.274918
"10754",171.53755,66.41947,61.933304
"10755",171.55089,67.09331,62.182747
"10756",171.56422,68.58747,63.273575
"10757",171.57756,71.02159,65.35105
"10758",171.5909,74.29069,68.33957
"10759",171.60423,78.04562,71.91609
"10760",171.61757,81.77127,75.580666
"10761",171.6309,84.928055,78.7928
"10762",171.64424,87.14,81.158745
"10763",171.65758,88.309456,82.55132
"10764",171.67091,88.57069,83.07222
"10765",171.68425,88.17761,82.946976
"10766",171.69759,87.40368,82.42859
"10767",171.71092,86.49058,81.74686
"10768",171.72426,85.59457,81.05367
"10769",171.7376,84.77669,80.41062
"10770",171.75093,83.99298,79.776184
"10771",171.76427,83.16289,79.07087
"10772",171.7776,82.22537,78.23219
"10773",171.79094,81.18288,77.25924
"10774",171.80428,80.13306,76.24638
"10775",171.81761,79.23216,75.34965
"10776",171.83095,78.6218,74.715294
"10777",171.84428,78.37766,74.428085
"10778",171.85762,78.44846,74.44819
"10779",171.87096,78.695045,74.646286
"10780",171.8843,78.9514,74.86186
"10781",171.89763,79.078354,74.95605
"10782",171.91096,78.99046,74.839355
"10783",171.9243,78.677956,74.4953
"10784",171.93764,78.187225,73.96326
"10785",171.95097,77.59884,73.31822
"10786",171.96431,76.9836,72.627945
"10787",171.97765,76.41474,71.96483
"10788",171.99098,75.92401,71.36206
"10789",172.00432,75.52117,70.83185
"10790",172.01765,75.191574,70.36229
"10791",172.03099,74.91814,69.93859
"10792",172.04433,74.669106,69.530754
"10793",172.05766,74.42741,69.12247
"10794",172.071,74.1857,68.70662
"10795",172.08434,73.94644,68.28567
"10796",172.09767,73.73159,67.881645
"10797",172.11101,73.6144,67.56857
"10798",172.12434,73.73647,67.4911
"10799",172.13768,74.31022,67.86911
"10800",172.15102,75.50408,68.88517
"10801",172.16435,77.37179,70.61238
"10802",172.17769,79.764404,72.92287
"10803",172.19102,82.371864,75.522964
"10804",172.20436,84.791336,78.016556
"10805",172.2177,86.67368,80.04863
"10806",172.23103,87.818726,81.40222
"10807",172.24437,88.24109,82.068924
"10808",172.2577,88.08728,82.17265
"10809",172.27104,87.55993,81.898026
"10810",172.28438,86.84947,81.42381
"10811",172.29771,86.09262,80.881004
"10812",172.31105,85.350426,80.3292
"10813",172.32439,84.596016,79.74199
"10814",172.33772,83.75372,79.04332
"10815",172.35106,82.76494,78.17184
"10816",172.3644,81.64431,77.13761
"10817",172.37773,80.48463,76.02931
"10818",172.39107,79.429924,74.98975
"10819",172.4044,78.624245,74.16626
"10820",172.41774,78.150604,73.64963
"10821",172.43108,77.977264,73.418495
"10822",172.44441,77.994354,73.372375
"10823",172.45775,78.07736,73.39271
"10824",172.47108,78.12375,73.37901
"10825",172.48442,78.0676,73.26423
"10826",172.49776,77.89426,73.0305
"10827",172.5111,77.625694,72.69614
"10828",172.52443,77.29122,72.28747
"10829",172.53777,76.925,71.8366
"10830",172.5511,76.56855,71.384056
"10831",172.56444,76.243835,70.95211
"10832",172.57777,75.965515,70.55641
"10833",172.59111,75.733574,70.198395
"10834",172.60445,75.5407,69.8722
"10835",172.61778,75.36736,69.55951
"10836",172.63112,75.19646,69.243835
"10837",172.64445,75.02556,68.92283
"10838",172.65779,74.844894,68.586716
"10839",172.67113,74.652016,68.23274
"10840",172.68446,74.46403,67.87763
"10841",172.6978,74.33219,67.5728
"10842",172.71114,74.38102,67.44451
"10843",172.72447,74.84001,67.72791
"10844",172.73781,75.93866,68.66531
"10845",172.75114,77.77951,70.37925
"10846",172.76448,80.272224,72.802574
"10847",172.77782,83.12627,75.66512
"10848",172.79115,85.93149,78.56804
"10849",172.80449,88.272835,81.09474
"10850",172.81783,89.898834,82.97926
"10851",172.83116,90.775314,84.165085
"10852",172.8445,91.0341,84.760605
"10853",172.85783,90.87541,84.94673
"10854",172.87117,90.4921,84.90328
"10855",172.8845,90.02823,84.76729
"10856",172.89784,89.566795,84.61924
"10857",172.91118,89.112686,84.464096
"10858",172.92451,88.63172,84.2679
"10859",172.93785,88.0531,83.959015
"10860",172.95119,87.31579,83.47336
"10861",172.96452,86.39048,82.77667
"10862",172.97786,85.31869,81.90458
"10863",172.9912,84.19318,80.945274
"10864",173.00453,83.14336,80.02649
"10865",173.01787,82.27421,79.25557
"10866",173.0312,81.63943,78.69186
"10867",173.04454,81.22438,78.32804
"10868",173.05788,80.9485,78.09042
"10869",173.07121,80.71656,77.88812
"10870",173.08455,80.46021,77.65417
"10871",173.09789,80.13306,77.34139
"10872",173.11122,79.710686,76.92318
"10873",173.12456,79.20531,76.40876
"10874",173.1379,78.643776,75.822395
"10875",173.15123,78.06027,75.19651
"10876",173.16457,77.4963,74.57192
"10877",173.1779,76.981155,73.97854
"10878",173.19124,76.53437,73.437416
"10879",173.20457,76.15106,72.94581
"10880",173.21791,75.81415,72.48862
"10881",173.23125,75.50164,72.0453
"10882",173.24458,75.19646,71.59955
"10883",173.25792,74.90593,71.15891
"10884",173.27126,74.632484,70.72628
"10885",173.28459,74.38346,70.309525
"10886",173.29793,74.16861,69.91916
"10887",173.31126,74.002594,69.570915
"10888",173.3246,73.95621,69.33711
"10889",173.33794,74.178375,69.370415
"10890",173.35127,74.879074,69.88919
"10891",173.36461,76.20477,71.05486
"10892",173.37794,78.16037,72.89186
"10893",173.39128,80.5481,75.22211
"10894",173.40462,83.02373,77.71486
"10895",173.41795,85.20882,79.99444
"10896",173.43129,86.82506,81.77345
"10897",173.44463,87.782104,82.94378
"10898",173.45796,88.165405,83.57027
"10899",173.4713,88.15808,83.818115
"10900",173.48463,87.93103,83.84601
"10901",173.49797,87.61364,83.77646
"10902",173.5113,87.274284,83.67503
"10903",173.52464,86.93492,83.56299
"10904",173.53798,86.56626,83.41104
"10905",173.55132,86.11459,83.164566
"10906",173.56465,85.51888,82.75993
"10907",173.57799,84.74006,82.15357
"10908",173.59132,83.80255,81.36419
"10909",173.60466,82.777145,80.45761
"10910",173.618,81.78836,79.55561
"10911",173.63133,80.95094,78.77408
"10912",173.64467,80.33326,78.18611
"10913",173.658,79.93042,77.793686
"10914",173.67134,79.68871,77.549805
"10915",173.68468,79.5227,77.37406
"10916",173.69801,79.35424,77.19069
"10917",173.71135,79.132065,76.94833
"10918",173.72469,78.839096,76.62824
"10919",173.73802,78.470436,76.223305
"10920",173.75136,78.04074,75.74581
"10921",173.7647,77.56466,75.2085
"10922",173.77803,77.069046,74.63679
"10923",173.79137,76.578316,74.05447
"10924",173.8047,76.10956,73.47878
"10925",173.81804,75.67742,72.92507
"10926",173.83138,75.29656,72.409134
"10927",173.84471,74.9572,71.92279
"10928",173.85805,74.649574,71.45758
"10929",173.87138,74.36393,71.00474
"10930",173.88472,74.08316,70.547844
"10931",173.89806,73.79996,70.07974
"10932",173.91139,73.50698,69.59302
"10933",173.92473,73.21156,69.094696
"10934",173.93806,72.92592,68.59692
"10935",173.9514,72.689095,68.13903
"10936",173.96474,72.58167,67.80315
"10937",173.97807,72.77455,67.764206
"10938",173.99141,73.47524,68.239105
"10939",174.00475,74.83269,69.392654
"10940",174.01808,76.83223,71.23072
"10941",174.03142,79.276115,73.575615
"10942",174.04475,81.81766,76.094536
"10943",174.05809,84.068665,78.40234
"10944",174.07143,85.72884,80.18967
"10945",174.08476,86.695656,81.3355
"10946",174.0981,87.05211,81.90119
"10947",174.11143,86.9691,82.03856
"10948",174.12477,86.64439,81.931625
"10949",174.1381,86.2269,81.72177
"10950",174.15144,85.80942,81.49888
"10951",174.16478,85.42367,81.29467
"10952",174.17812,85.03792,81.07841
"10953",174.19145,84.576485,80.77441
"10954",174.20479,83.96857,80.3095
"10955",174.21812,83.175095,79.640045
"10956",174.23146,82.22537,78.78954
"10957",174.2448,81.21217,77.84589
"10958",174.25813,80.26002,76.93161
"10959",174.27147,79.483635,76.16335
"10960",174.2848,78.93187,75.59545
"10961",174.29814,78.59251,75.22271
"10962",174.31148,78.39231,74.97853
"10963",174.32481,78.24338,74.77936
"10964",174.33815,78.07248,74.553566
"10965",174.35149,77.84299,74.26384
"10966",174.36482,77.53292,73.88637
"10967",174.37816,77.154495,73.43085
"10968",174.3915,76.7248,72.91223
"10969",174.40483,76.26826,72.35334
"10970",174.41817,75.80194,71.77041
"10971",174.4315,75.352715,71.189995
"10972",174.44484,74.93767,70.62972
"10973",174.45818,74.57389,70.10775
"10974",174.47151,74.26627,69.63057
"10975",174.48485,74.0148,69.19992
"10976",174.49818,73.81705,68.81513
"10977",174.51152,73.66079,68.46566
"10978",174.52486,73.53384,68.14061
"10979",174.5382,73.426414,67.83112
"10980",174.55153,73.31899,67.51828
"10981",174.56487,73.2018,67.19231
"10982",174.5782,73.06508,66.84315
"10983",174.59154,72.90639,66.46774
"10984",174.60487,72.73304,66.07272
"10985",174.61821,72.57435,65.686935
"10986",174.63155,72.48402,65.36455
"10987",174.64488,72.58167,65.227325
"10988",174.65822,73.060196,65.47403
"10989",174.67155,74.124664,66.32163
"10990",174.68489,75.8703,67.88367
"10991",174.69823,78.19943,70.08375
"10992",174.71156,80.831314,72.65936
"10993",174.7249,83.370415,75.22444
"10994",174.73824,85.42855,77.3879
"10995",174.75157,86.76158,78.89057
"10996",174.76491,87.34997,79.690254
"10997",174.77824,87.345085,79.915054
"10998",174.79158,86.959335,79.758835
"10999",174.80492,86.39536,79.41234
"11000",174.81825,85.80698,79.0238
"11001",174.83159,85.27718,78.675476
"11002",174.84492,84.8011,78.3643
"11003",174.85826,84.32258,78.03581
"11004",174.8716,83.756165,77.60448
"11005",174.88493,83.05058,77.01627
"11006",174.89827,82.210724,76.27174
"11007",174.9116,81.32693,75.45703
"11008",174.92494,80.53101,74.70258
"11009",174.93828,79.93286,74.121025
"11010",174.95161,79.58129,73.76736
"11011",174.96495,79.44457,73.61755
"11012",174.97829,79.43481,73.59043
"11013",174.99162,79.43969,73.57765
"11014",175.00496,79.38598,73.50643
"11015",175.0183,79.24193,73.34319
"11016",175.03163,79.012436,73.09001
"11017",175.04497,78.71702,72.76373
"11018",175.0583,78.39475,72.401375
"11019",175.07164,78.101776,72.058235
"11020",175.08498,77.89426,71.7914
"11021",175.09831,77.77951,71.61085
"11022",175.11165,77.74288,71.50483
"11023",175.12498,77.76242,71.453835
"11024",175.13832,77.81369,71.43518
"11025",175.15166,77.86252,71.41569
"11026",175.165,77.89426,71.38063
"11027",175.17833,77.89426,71.31483
"11028",175.19167,77.85275,71.20752
"11029",175.205,77.733116,71.02078
"11030",175.21834,77.51827,70.7351
"11031",175.23167,77.208206,70.34748
"11032",175.24501,76.82735,69.87938
"11033",175.25835,76.402534,69.35542
"11034",175.27168,75.98505,68.825516
"11035",175.28502,75.67254,68.38754
"11036",175.29836,75.631035,68.21081
"11037",175.31169,76.0827,68.52595
"11038",175.32503,77.19844,69.51927
"11039",175.33836,78.995346,71.22863
"11040",175.3517,81.28542,73.48731
"11041",175.36504,83.72442,75.96648
"11042",175.37837,85.91684,78.27528
"11043",175.39171,87.53307,80.076416
"11044",175.40504,88.43641,81.215164
"11045",175.41838,88.68543,81.72783
"11046",175.43172,88.45106,81.76488
"11047",175.44505,87.938354,81.516266
"11048",175.45839,87.31579,81.14177
"11049",175.47173,86.70298,80.75758
"11050",175.48506,86.153656,80.417725
"11051",175.4984,85.65072,80.107086
"11052",175.51173,85.12581,79.75876
"11053",175.52507,84.49836,79.29149
"11054",175.5384,83.74151,78.67521
"11055",175.55174,82.89433,77.944954
"11056",175.56508,82.06424,77.20531
"11057",175.57841,81.3782,76.58377
"11058",175.59175,80.93385,76.182495
"11059",175.60509,80.73853,76.01636
"11060",175.63176,80.782486,76.10601
"11061",175.6451,80.799576,76.14755
"11062",175.65843,80.70435,76.07732
"11063",175.67177,80.46754,75.86251
"11064",175.6851,80.096436,75.50602
"11065",175.69844,79.61547,75.02807
"11066",175.71178,79.06615,74.46673
"11067",175.72511,78.487526,73.858925
"11068",175.73845,77.91623,73.240364
"11069",175.75179,77.383995,72.64301
"11070",175.76512,76.91768,72.09495
"11071",175.77846,76.544136,71.625084
"11072",175.7918,76.282906,71.25586
"11073",175.80513,76.155945,71.01274
"11074",175.81847,76.19501,70.93168
"11075",175.8318,76.40742,71.025185
"11076",175.84514,76.788284,71.293785
"11077",175.85847,77.298546,71.70368
"11078",175.87181,77.86984,72.19056
"11079",175.88515,78.41917,72.67332
"11080",175.89848,78.873276,73.078026
"11081",175.91182,79.18822,73.35776
"11082",175.92516,79.34936,73.49353
"11083",175.93849,79.40307,73.52691
"11084",175.95183,79.43725,73.542435
"11085",175.96516,79.635,73.7226
"11086",175.9785,80.218506,74.2947
"11087",175.99184,81.358665,75.44169
"11088",176.00517,83.09209,77.21757
"11089",176.01851,85.28451,79.506615
"11090",176.03185,87.65514,82.04239
"11091",176.04518,89.847565,84.47403
"11092",176.05852,91.57122,86.505424
"11093",176.07185,92.69428,87.99009
"11094",176.08519,93.24849,88.940994
"11095",176.09853,93.35348,89.46
"11096",176.11186,93.1606,89.68442
"11097",176.1252,92.79683,89.73192
"11098",176.13853,92.332954,89.667946
"11099",176.15187,91.79828,89.51868
"11100",176.1652,91.175705,89.2648
"11101",176.17854,90.4213,88.85964
"11102",176.19188,89.47646,88.24047
"11103",176.20522,88.28748,87.34763
"11104",176.21855,86.820175,86.13931
"11105",176.23189,85.09895,84.63122
"11106",176.24522,83.18486,82.876465
"11107",176.25856,81.1902,80.98133
"11108",176.2719,79.2517,79.080025
"11109",176.28523,77.488976,77.293915
"11110",176.29857,75.99237,75.71884
"11111",176.3119,74.79851,74.39974
"11112",176.32524,73.89761,73.3363
"11113",176.33858,73.253075,72.50107
"11114",176.35191,72.796524,71.83368
"11115",176.36525,72.47181,71.28386
"11116",176.37859,72.2301,70.8069
"11117",176.39192,72.044556,70.37854
"11118",176.40526,71.91272,69.99809
"11119",176.4186,71.84924,69.681885
"11120",176.43193,71.89075,69.46867
"11121",176.44527,72.059204,69.38371
"11122",176.4586,72.36927,69.44563
"11123",176.47194,72.80141,69.63931
"11124",176.48528,73.30923,69.92218
"11125",176.49861,73.831696,70.235565
"11126",176.51195,74.29801,70.509125
"11127",176.52528,74.6569,70.68983
"11128",176.53862,74.87175,70.73771
"11129",176.55196,74.92546,70.631165
"11130",176.56529,74.82292,70.37005
"11131",176.57863,74.5861,69.97144
"11132",176.59196,74.24185,69.458015
"11133",176.6053,73.846344,68.88257
"11134",176.61864,73.4728,68.31673
"11135",176.63197,73.25796,67.89791
"11136",176.64531,73.392235,67.8215
"11137",176.65865,74.10025,68.32303
"11138",176.67198,75.494316,69.53273
"11139",176.68532,77.523155,71.42077
"11140",176.69865,79.94751,73.76772
"11141",176.71199,82.39872,76.21729
"11142",176.72533,84.48615,78.379684
"11143",176.73866,85.92905,79.96277
"11144",176.752,86.659035,80.87804
"11145",176.76534,86.77623,81.20332
"11146",176.77867,86.47105,81.10989
"11147",176.792,85.95346,80.794525
"11148",176.80534,85.38705,80.414154
"11149",176.81868,84.876785,80.072235
"11150",176.83202,84.44709,79.79494
"11151",176.84535,84.054016,79.54083
"11152",176.85869,83.617,79.2305
"11153",176.87202,83.055466,78.782
"11154",176.88536,82.32304,78.14505
"11155",176.8987,81.44167,77.33628
"11156",176.91203,80.50172,76.441376
"11157",176.92537,79.61791,75.57325
"11158",176.9387,78.88548,74.82888
"11159",176.95204,78.35325,74.26182
"11160",176.96538,78.009,73.86611
"11161",176.97871,77.79172,73.58661
"11162",176.99205,77.628136,73.35402
"11163",177.00539,77.46212,73.113884
"11164",177.01872,77.25704,72.8295
"11165",177.03206,76.995804,72.482544
"11166",177.0454,76.67353,72.06639
"11167",177.05873,76.29511,71.58402
"11168",177.07207,75.87518,71.04832
"11169",177.0854,75.44549,70.48972
"11170",177.09874,75.035324,69.93723
"11171",177.11208,74.67155,69.41831
"11172",177.12541,74.37614,68.95639
"11173",177.13875,74.158844,68.563354
"11174",177.15208,74.019684,68.24166
"11175",177.16542,73.951324,67.98642
"11176",177.17876,73.934235,67.78031
"11177",177.1921,73.96109,67.617615
"11178",177.20543,74.00992,67.47773
"11179",177.21877,74.06607,67.346695
"11180",177.2321,74.107574,67.20277
"11181",177.24544,74.11978,67.03084
