"","Time..s.","PPG.trace","Preprocessed.PPG"
"30273",426.7521,87.08385,135.62352
"30274",426.76544,85.99985,134.7609
"30275",426.77878,84.89876,133.8473
"30276",426.7921,83.88556,132.9872
"30277",426.80545,83.038376,132.26144
"30278",426.8188,82.38651,131.70453
"30279",426.83212,81.900665,131.29326
"30280",426.84546,81.5198,130.97179
"30281",426.8588,81.18532,130.6848
"30282",426.87213,80.83864,130.37517
"30283",426.88547,80.44068,130.00342
"30284",426.8988,79.98657,129.56308
"30285",426.91214,79.483635,129.05972
"30286",426.92548,78.93187,128.49182
"30287",426.9388,78.36057,127.887146
"30288",426.95215,77.786835,127.26218
"30289",426.96548,77.23262,126.6388
"30290",426.97882,76.71992,126.03962
"30291",426.99216,76.25849,125.47569
"30292",427.0055,75.84833,124.94861
"30293",427.01883,75.494316,124.46486
"30294",427.03217,75.174484,124.00423
"30295",427.0455,74.8864,123.565346
"30296",427.05884,74.62028,123.13943
"30297",427.07217,74.38346,122.7345
"30298",427.0855,74.18082,122.35634
"30299",427.09885,74.022125,122.0158
"30300",427.11218,73.900055,121.706924
"30301",427.12552,73.812164,121.42841
"30302",427.13885,73.7438,121.16668
"30303",427.1522,73.69253,120.91991
"30304",427.16553,73.64614,120.676414
"30305",427.17886,73.60464,120.436356
"30306",427.1922,73.55825,120.19012
"30307",427.20554,73.51919,119.94975
"30308",427.21887,73.48501,119.71305
"30309",427.2322,73.45571,119.48016
"30310",427.24554,73.443504,119.26345
"30311",427.25888,73.44839,119.063446
"30312",427.27222,73.46792,118.87824
"30313",427.28555,73.494774,118.70097
"30314",427.2989,73.53384,118.53675
"30315",427.31223,73.568016,118.368866
"30316",427.32556,73.59731,118.19717
"30317",427.3389,73.60708,118.00685
"30318",427.35223,73.58999,117.789986
"30319",427.36557,73.53872,117.53841
"30320",427.3789,73.46548,117.26325
"30321",427.39224,73.445946,117.03952
"30322",427.40558,73.64614,117.034904
"30323",427.4189,74.32487,117.515076
"30324",427.43225,75.72137,118.73423
"30325",427.4456,77.925995,120.80515
"30326",427.45892,80.814224,123.62857
"30327",427.47226,84.07355,126.91334
"30328",427.4856,87.259636,130.22673
"30329",427.49893,89.95499,133.14894
"30330",427.51227,91.9057,135.41075
"30331",427.5256,93.07515,136.95226
"30332",427.53894,93.56832,137.85402
"30333",427.55228,93.575645,138.28535
"30334",427.5656,93.28756,138.42151
"30335",427.57895,92.87984,138.42902
"30336",427.5923,92.46235,138.41402
"30337",427.60562,92.086365,138.42747
"30338",427.61896,91.74212,138.46092
"30339",427.6323,91.39788,138.48363
"30340",427.64563,90.9926,138.43452
"30341",427.65897,90.46281,138.24825
"30342",427.6723,89.75723,137.86963
"30343",427.68564,88.851456,137.26877
"30344",427.69897,87.77234,136.46626
"30345",427.7123,86.590675,135.52748
"30346",427.72565,85.4139,134.55667
"30347",427.73898,84.34455,133.65651
"30348",427.75232,83.458305,132.90604
"30349",427.76566,82.774704,132.3305
"30350",427.779,82.25956,131.90207
"30351",427.79233,81.85184,131.56496
"30352",427.80566,81.48562,131.2566
"30353",427.819,81.09987,130.91728
"30354",427.83234,80.66529,130.51707
"30355",427.84567,80.17212,130.0447
"30356",427.859,79.62768,129.50563
"30357",427.87234,79.044174,128.91049
"30358",427.88568,78.44114,128.27759
"30359",427.89902,77.840546,127.62828
"30360",427.91235,77.25704,126.977295
"30361",427.9257,76.70527,126.339806
"30362",427.93903,76.19745,125.72903
"30363",427.95236,75.736015,125.148766
"30364",427.9657,75.3283,124.6078
"30365",427.97903,74.966965,124.10048
"30366",427.99237,74.64713,123.62337
"30367",428.0057,74.36637,123.17533
"30368",428.01904,74.12222,122.755135
"30369",428.03238,73.90982,122.359055
"30370",428.04572,73.72671,121.98563
"30371",428.05905,73.5729,121.63578
"30372",428.0724,73.45327,121.31531
"30373",428.08572,73.358055,121.01551
"30374",428.09906,73.29214,120.742035
"30375",428.1124,73.248184,120.488464
"30376",428.12573,73.21889,120.24818
"30377",428.13907,73.18959,120.00697
"30378",428.1524,73.16518,119.76974
"30379",428.16574,73.13344,119.524414
"30380",428.17908,73.109024,119.28542
"30381",428.1924,73.094376,119.055435
"30382",428.20575,73.09682,118.84208
"30383",428.2191,73.10414,118.63368
"30384",428.23242,73.11879,118.43284
"30385",428.24576,73.126114,118.22513
"30386",428.2591,73.11635,118.00056
"30387",428.27243,73.074844,117.74394
"30388",428.28577,72.99916,117.45185
"30389",428.2991,72.8893,117.123215
"30390",428.31244,72.7892,116.80091
"30391",428.32578,72.833145,116.61952
"30392",428.3391,73.26528,116.8277
"30393",428.35245,74.35905,117.711006
"30394",428.36578,76.28535,119.46103
"30395",428.37912,79.012436,122.07204
"30396",428.39246,82.27909,125.30783
"30397",428.4058,85.662926,128.7629
"30398",428.41913,88.6952,131.97214
"30399",428.43246,91.02434,134.573
"30400",428.4458,92.52094,136.41411
"30401",428.45914,93.23872,137.52316
"30402",428.47247,93.33883,138.03697
"30403",428.4858,93.031204,138.14618
"30404",428.49915,92.508736,138.03093
"30405",428.51248,91.92523,137.83832
"30406",428.52582,91.36858,137.65433
"30407",428.53915,90.880295,137.5213
"30408",428.5525,90.43595,137.41696
"30409",428.56583,89.98428,137.29141
"30410",428.57916,89.44717,137.0663
"30411",428.5925,88.75868,136.67303
"30412",428.60583,87.8822,136.07027
"30413",428.61917,86.837265,135.27165
"30414",428.6325,85.69955,134.3476
"30415",428.64584,84.576485,133.40265
"30416",428.65918,83.57549,132.54468
"30417",428.67252,82.76982,131.85074
"30418",428.68585,82.176544,131.34402
"30419",428.6992,81.75662,130.99213
"30420",428.71252,81.44167,130.73207
"30421",428.72586,81.15846,130.49391
"30422",428.7392,80.84596,130.21762
"30423",428.75253,80.465096,129.86319
"30424",428.76587,80.00366,129.41629
"30425",428.7792,79.466545,128.87929
"30426",428.79254,78.87816,128.27423
"30427",428.80588,78.25559,127.61661
"30428",428.8192,77.63058,126.93708
"30429",428.83255,77.01778,126.25024
"30430",428.8459,76.4416,125.580864
"30431",428.85922,75.914246,124.942314
"30432",428.87256,75.44305,124.34344
"30433",428.8859,75.028,123.78599
"30434",428.89923,74.669106,123.27172
"30435",428.91257,74.35172,122.78775
"30436",428.9259,74.075836,122.33536
"30437",428.93924,73.829254,121.90365
"30438",428.95258,73.6144,121.495964
"30439",428.9659,73.43374,121.11575
"30440",428.97925,73.287254,120.76408
"30441",428.99258,73.17494,120.44199
"30442",429.00592,73.091934,120.145706
"30443",429.01926,73.03578,119.87368
"30444",429.0326,72.99672,119.61699
"30445",429.04593,72.969864,119.371284
"30446",429.05927,72.94789,119.12962
"30447",429.0726,72.92592,118.887276
"30448",429.08594,72.90883,118.649124
"30449",429.09927,72.903946,118.422646
"30450",429.1126,72.91371,118.21066
"30451",429.12595,72.935684,118.01119
"30452",429.13928,72.96254,117.81729
"30453",429.15262,72.98695,117.62179
"30454",429.16595,72.99428,117.40996
"30455",429.1793,72.97475,117.1715
"30456",429.19263,72.91615,116.89337
"30457",429.20596,72.813614,116.569466
"30458",429.2193,72.674446,116.20573
"30459",429.23264,72.535286,115.83765
"30460",429.24597,72.52796,115.597046
"30461",429.2593,72.91127,115.74686
"30462",429.27264,74.005035,116.6191
"30463",429.28598,76.02411,118.450836
"30464",429.29932,78.95384,121.256325
"30465",429.31265,82.52323,124.79302
"30466",429.326,86.25376,128.6024
"30467",429.33932,89.60586,132.14993
"30468",429.35266,92.16693,135.01118
"30469",429.366,93.770966,136.99544
"30470",429.37933,94.466774,138.12158
"30471",429.39267,94.4448,138.5517
"30472",429.406,93.9321,138.49039
"30473",429.41934,93.14839,138.14206
"30474",429.43268,92.27924,137.68379
"30475",429.446,91.45159,137.23987
"30476",429.45935,90.719154,136.8653
"30477",429.4727,90.07706,136.55817
"30478",429.48602,89.461815,136.25783
"30479",429.49936,88.78554,135.87723
"30480",429.5127,87.972534,135.33878
"30481",429.52603,87.00084,134.61623
"30482",429.53937,85.9144,133.74857
"30483",429.5527,84.80354,132.82254
"30484",429.56604,83.792786,131.9619
"30485",429.57938,82.97246,131.2601
"30486",429.5927,82.391396,130.77193
"30487",429.60605,82.02518,130.48044
"30488",429.6194,81.812775,130.33133
"30489",429.63272,81.66628,130.24149
"30490",429.64606,81.50759,130.13487
"30491",429.6594,81.270775,129.94518
"30492",429.67273,80.92409,129.6382
"30493",429.68607,80.46754,129.21053
"30494",429.6994,79.906006,128.6636
"30495",429.71274,79.26879,128.02345
"30496",429.72607,78.59495,127.32676
"30497",429.7394,77.92111,126.60902
"30498",429.75275,77.27657,125.89951
"30499",429.76608,76.680855,125.21869
"30500",429.77942,76.14374,124.57785
"30501",429.79276,75.667656,123.98126
"30502",429.8061,75.250175,123.4284
"30503",429.81943,74.879074,122.90887
"30504",429.83276,74.547035,122.4168
"30505",429.8461,74.25407,121.95343
"30506",429.85944,73.99771,121.51752
"30507",429.87277,73.77066,121.1029
"30508",429.8861,73.585106,120.72268
"30509",429.89944,73.443504,120.380615
"30510",429.91278,73.34585,120.07807
"30511",429.92612,73.287254,119.81154
"30512",429.93945,73.26284,119.577354
"30513",429.9528,73.2604,119.36438
"30514",429.96613,73.26528,119.15865
"30515",429.97946,73.2604,118.94331
"30516",429.9928,73.231094,118.7034
"30517",430.00613,73.17006,118.43084
"30518",430.01947,73.06264,118.109985
"30519",430.0328,72.90883,117.73939
"30520",430.04614,72.7013,117.310265
"30521",430.05948,72.45472,116.8356
"30522",430.0728,72.22766,116.37276
"30523",430.08615,72.17395,116.07616
"30524",430.0995,72.57923,116.23688
"30525",430.11282,73.75601,117.18176
"30526",430.12616,75.88495,119.11558
"30527",430.1395,78.90257,122.00461
"30528",430.15283,82.493935,125.561676
"30529",430.16617,86.1561,129.30177
"30530",430.1795,89.35195,132.69
"30531",430.19284,91.700615,135.33092
"30532",430.20618,93.07271,137.06865
"30533",430.2195,93.54635,137.9508
"30534",430.23285,93.314415,138.1422
"30535",430.2462,92.60883,137.85269
"30536",430.25952,91.649345,137.28723
"30537",430.27286,90.62638,136.62831
"30538",430.2862,89.66689,136.0009
"30539",430.29953,88.82704,135.46313
"30540",430.31287,88.09216,135.0041
"30541",430.3262,87.39147,134.55629
"30542",430.33954,86.6273,134.0231
"30543",430.35287,85.73861,133.34152
"30544",430.3662,84.735176,132.51743
"30545",430.37955,83.682915,131.61314
"30546",430.39288,82.70634,130.75166
"30547",430.40622,81.91531,130.04521
"30548",430.41956,81.38308,129.57283
"30549",430.4329,81.09987,129.33284
"30550",430.44623,81.00954,129.27689
"30551",430.45956,81.01442,129.31332
"30552",430.4729,81.02174,129.35236
"30553",430.48624,80.95094,129.31349
"30554",430.49957,80.75075,129.14302
"30555",430.5129,80.40162,128.81735
"30556",430.52625,79.91577,128.34406
"30557",430.53958,79.3225,127.74815
"30558",430.55292,78.66575,127.07023
"30559",430.56625,77.99191,126.3547
"30560",430.5796,77.33761,125.63764
"30561",430.59293,76.72236,124.93919
"30562",430.60626,76.16083,124.27524
"30563",430.6196,75.66277,123.65721
"30564",430.63293,75.22575,123.084656
"30565",430.64627,74.84978,122.55949
"30566",430.6596,74.52262,122.07139
"30567",430.67294,74.249176,121.62678
"30568",430.68628,74.01724,121.21513
"30569",430.69962,73.83414,120.84507
"30570",430.71295,73.69985,120.518105
"30571",430.7263,73.61196,120.23334
"30572",430.73962,73.565575,119.98733
"30573",430.75296,73.53384,119.75452
"30574",430.7663,73.494774,119.51339
"30575",430.77963,73.42153,119.23686
"30576",430.79297,73.304344,118.9141
"30577",430.8063,73.128555,118.529076
"30578",430.81964,72.921036,118.10683
"30579",430.83298,72.76967,117.734245
"30580",430.8463,72.87709,117.61572
"30581",430.85965,73.55337,118.06941
"30582",430.873,75.06706,119.38165
"30583",430.88632,77.51095,121.67139
"30584",430.89966,80.72144,124.8041
"30585",430.913,84.30793,128.41313
"30586",430.92633,87.75037,131.99019
"30587",430.93967,90.57023,135.05225
"30588",430.953,92.489204,137.30154
"30589",430.96634,93.47311,138.67574
"30590",430.97968,93.64889,139.27255
"30591",430.993,93.224075,139.27426
"30592",431.00635,92.42817,138.8916
"30593",431.01968,91.46868,138.3205
"30594",431.03302,90.50431,137.71452
"30595",431.04636,89.635155,137.17363
"30596",431.0597,88.87587,136.71544
"30597",431.07303,88.18738,136.30432
"30598",431.08636,87.47204,135.84483
"30599",431.0997,86.64439,135.25069
"30600",431.11304,85.660484,134.47443
"30601",431.12637,84.54719,133.53802
"30602",431.1397,83.39727,132.53021
"30603",431.15305,82.34501,131.58412
"30604",431.16638,81.512474,130.82487
"30605",431.17972,80.95827,130.31793
"30606",431.19305,80.66529,130.0549
"30607",431.2064,80.56519,129.9756
"30608",431.21973,80.550545,129.97862
"30609",431.23306,80.52125,129.96654
"30610",431.2464,80.39918,129.86076
"30611",431.25974,80.13794,129.612
"30612",431.27307,79.725334,129.2037
"30613",431.2864,79.18089,128.65068
"30614",431.29974,78.53147,127.97566
"30615",431.31308,77.83078,127.22908
"30616",431.32642,77.1252,126.45571
"30617",431.33975,76.45136,125.69204
"30618",431.3531,75.841,124.97079
"30619",431.36642,75.30389,124.3037
"30620",431.37976,74.83513,123.688194
"30621",431.3931,74.42252,123.11419
"30622",431.40643,74.05875,122.57612
"30623",431.41977,73.738914,122.070625
"30624",431.4331,73.45815,121.59421
"30625",431.44644,73.22621,121.15784
"30626",431.45978,73.04555,120.765495
"30627",431.4731,72.92592,120.42854
"30628",431.48645,72.86,120.14156
"30629",431.4998,72.83803,119.89647
"30630",431.51312,72.84535,119.679985
"30631",431.52646,72.85512,119.46617
"30632",431.5398,72.83559,119.223366
"30633",431.55313,72.76967,118.93356
"30634",431.56647,72.64027,118.57822
"30635",431.5798,72.481575,118.18953
"30636",431.59314,72.42298,117.89598
"30637",431.60648,72.72816,117.96437
"30638",431.6198,73.741356,118.75032
"30639",431.63315,75.716484,120.52987
"30640",431.64648,78.66575,123.345276
"30641",431.65982,82.32304,126.96087
"30642",431.67316,86.20737,130.9178
"30643",431.6865,89.75479,134.65921
"30644",431.69983,92.508736,137.71799
"30645",431.71317,94.27146,139.87161
"30646",431.7265,95.0869,141.13303
"30647",431.73984,95.13573,141.65332
"30648",431.75317,94.65232,141.64291
"30649",431.7665,93.87839,141.32686
"30650",431.77985,92.999466,140.88164
"30651",431.79318,92.14984,140.43825
"30652",431.80652,91.388115,140.0562
"30653",431.81985,90.71427,139.73824
"30654",431.8332,90.06729,139.42607
"30655",431.84653,89.356834,139.03021
"30656",431.85986,88.499886,138.46567
"30657",431.8732,87.45983,137.69124
"30658",431.88654,86.25376,136.71829
"30659",431.89987,84.972,135.63196
"30660",431.9132,83.74883,134.56416
"30661",431.92654,82.71122,133.6437
"30662",431.93988,81.92752,132.94473
"30663",431.95322,81.392845,132.47029
"30664",431.96655,81.058365,132.17934
"30665",431.9799,80.83864,131.99269
"30666",431.99323,80.638435,131.8187
"30667",432.00656,80.39185,131.59207
"30668",432.0199,80.05005,131.26251
"30669",432.03323,79.59594,130.80997
"30670",432.04657,79.027084,130.22849
"30671",432.0599,78.37278,129.54378
"30672",432.07324,77.6672,128.78734
"30673",432.08658,76.946976,127.99422
"30674",432.0999,76.24872,127.200554
"30675",432.11325,75.596855,126.431465
"30676",432.1266,75.00847,125.70548
"30677",432.13992,74.486,125.02703
"30678",432.15326,74.02457,124.39329
"30679",432.1666,73.619286,123.80128
"30680",432.17993,73.2604,123.243
"30681",432.19327,72.94057,122.712555
"30682",432.2066,72.66224,122.21362
"30683",432.21994,72.43519,121.75726
"30684",432.23328,72.26429,121.34996
"30685",432.2466,72.147095,120.99103
"30686",432.25995,72.078735,120.67726
"30687",432.2733,72.05432,120.405304
"30688",432.28662,72.05432,120.157
"30689",432.29996,72.061646,119.916016
"30690",432.3133,72.06653,119.67282
"30691",432.32663,72.03967,119.39804
"30692",432.33997,71.96887,119.078476
"30693",432.3533,71.84192,118.70055
"30694",432.36664,71.66613,118.26982
"30695",432.37997,71.50988,117.853134
"30696",432.3933,71.57336,117.65129
"30697",432.40665,72.19104,118.005646
"30698",432.41998,73.69741,119.26799
"30699",432.43332,76.25605,121.62968
"30700",432.44666,79.75952,125.01615
"30701",432.46,83.81476,129.06387
"30702",432.47333,87.850464,133.2188
"30703",432.48666,91.302666,136.91632
"30704",432.5,93.805145,139.772
"30705",432.51334,95.277336,141.6756
"30706",432.52667,95.84375,142.71942
"30707",432.54,95.73388,143.10468
"30708",432.55334,95.201645,143.06412
"30709",432.56668,94.46433,142.80185
"30710",432.58002,93.69039,142.47992
"30711",432.59335,92.97017,142.18752
"30712",432.6067,92.32319,141.94585
"30713",432.62003,91.717705,141.72546
"30714",432.63336,91.08537,141.4593
"30715",432.6467,90.338295,141.05864
"30716",432.66003,89.40566,140.44908
"30717",432.67337,88.26551,139.60286
"30718",432.6867,86.95201,138.54765
"30719",432.70004,85.56283,137.37572
"30720",432.71338,84.224915,136.21164
"30721",432.7267,83.055466,135.17422
"30722",432.74005,82.1326,134.34685
"30723",432.7534,81.463646,133.74454
"30724",432.76672,80.99733,133.32396
"30725",432.78006,80.65308,133.01088
"30726",432.7934,80.33814,132.71635
"30727",432.80673,79.9939,132.38268
"30728",432.82007,79.57397,131.96255
"30729",432.8334,79.063705,131.43898
"30730",432.84674,78.470436,130.81645
"30731",432.86008,77.81613,130.11435
"30732",432.8734,77.117874,129.34784
"30733",432.88675,76.40742,128.54732
"30734",432.9001,75.70916,127.73679
"30735",432.91342,75.04997,126.94352
"30736",432.92676,74.44694,126.1858
"30737",432.9401,73.90982,125.47515
"30738",432.95343,73.43374,124.808754
"30739",432.96677,73.01625,124.18607
"30740",432.9801,72.65736,123.60894
"30741",432.99344,72.33997,123.0621
"30742",433.00677,72.07141,122.55417
"30743",433.0201,71.84924,122.08423
"30744",433.03345,71.67834,121.658615
"30745",433.04678,71.56115,121.28137
"30746",433.06012,71.49279,120.949295
"30747",433.07346,71.465935,120.656586
"30748",433.0868,71.465935,120.38989
"30749",433.10013,71.48058,120.13785
"30750",433.11346,71.49035,119.88138
"30751",433.1268,71.48058,119.60568
"30752",433.14014,71.4342,119.29306
"30753",433.15347,71.33654,118.92772
"30754",433.1668,71.18028,118.50073
"30755",433.18015,70.98741,118.03224
"30756",433.19348,70.84581,117.60899
"30757",433.20682,70.98497,117.46208
"30758",433.22015,71.7467,117.94209
"30759",433.2335,73.443504,119.38098
"30760",433.24683,76.192566,121.925156
"30761",433.26016,79.823,125.43661
"30762",433.2735,83.90509,129.51317
"30763",433.28683,87.86511,133.59523
"30764",433.30017,91.16594,137.14185
"30765",433.3135,93.49996,139.8248
"30766",433.32684,94.82567,141.57237
"30767",433.34018,95.29931,142.50931
"30768",433.35352,95.15282,142.84091
"30769",433.36685,94.63035,142.79196
"30770",433.3802,93.944305,142.56311
"30771",433.39352,93.23872,142.29329
"30772",433.40686,92.59174,142.06001
"30773",433.4202,92.01312,141.87488
"30774",433.43353,91.45159,141.68875
"30775",433.44687,90.829025,141.42404
"30776",433.4602,90.05997,140.9934
"30777",433.47354,89.07851,140.32631
"30778",433.48688,87.87732,139.40883
"30779",433.5002,86.51743,138.2951
"30780",433.51355,85.11116,137.0925
"30781",433.5269,83.79523,135.9363
"30782",433.54022,82.684364,134.94403
"30783",433.55356,81.832306,134.17586
"30784",433.5669,81.22682,133.62764
"30785",433.58023,80.799576,133.23874
"30786",433.59357,80.462654,132.9268
"30787",433.6069,80.13794,132.61655
"30788",433.62024,79.764404,132.24731
"30789",433.63358,79.31762,131.79317
"30790",433.6469,78.78783,131.24205
"30791",433.66025,78.184784,130.60112
"30792",433.67358,77.53048,129.89009
"30793",433.68692,76.84688,129.12932
"30794",433.70026,76.16815,128.35205
"30795",433.7136,75.51873,127.582886
"30796",433.72693,74.91814,126.842255
"30797",433.74026,74.37858,126.14389
"30798",433.7536,73.90494,125.49458
"30799",433.76694,73.48989,124.88907
"30800",433.78027,73.126114,124.32185
"30801",433.7936,72.81117,123.79211
"30802",433.80695,72.53773,123.294014
"30803",433.82028,72.29847,122.82156
"30804",433.83362,72.09094,122.37337
"30805",433.84695,71.922485,121.95775
"30806",433.8603,71.78577,121.5686
"30807",433.87363,71.690544,121.21669
"30808",433.88696,71.639275,120.90575
"30809",433.9003,71.622185,120.62738
"30810",433.91364,71.63683,120.38022
"30811",433.92697,71.67101,120.153046
"30812",433.9403,71.70275,119.9245
"30813",433.95364,71.72228,119.68474
"30814",433.96698,71.710075,119.41385
"30815",433.98032,71.656364,119.101074
"30816",433.99365,71.55627,118.740234
"30817",434.007,71.40978,118.32988
"30818",434.02032,71.23155,117.88321
"30819",434.03366,71.09239,117.47003
"30820",434.047,71.17784,117.277115
"30821",434.06033,71.800415,117.62399
"30822",434.07367,73.27749,118.84483
"30823",434.087,75.757996,121.115265
"30824",434.10034,79.11742,124.342125
"30825",434.11368,82.97978,128.17691
"30826",434.127,86.80797,132.09822
"30827",434.14035,90.06485,135.56786
"30828",434.1537,92.40131,138.21884
"30829",434.16702,93.751434,139.9565
"30830",434.18036,94.24216,140.87695
"30831",434.1937,94.09567,141.17554
"30832",434.20703,93.556114,141.07646
"30833",434.22037,92.83589,140.77986
"30834",434.2337,92.09613,140.44122
"30835",434.24704,91.41497,140.13806
"30836",434.26038,90.80217,139.88197
"30837",434.2737,90.211334,139.62871
"30838",434.28705,89.566795,139.30327
"30839",434.30038,88.79042,138.82585
"30840",434.31372,87.82361,138.13374
"30841",434.32706,86.676125,137.23074
"30842",434.3404,85.418785,136.18204
"30843",434.35373,84.16632,135.0989
"30844",434.36707,83.038376,134.10117
"30845",434.3804,82.127716,133.28546
"30846",434.39374,81.463646,132.68788
"30847",434.40707,81.00954,132.27951
"30848",434.4204,80.689705,131.99123
"30849",434.43375,80.41627,131.73935
"30850",434.44708,80.12085,131.45694
"30851",434.46042,79.75708,131.09695
"30852",434.47375,79.30785,130.64014
"30853",434.4871,78.7805,130.09116
"30854",434.50043,78.19455,129.46709
"30855",434.51376,77.5671,128.78322
"30856",434.5271,76.927444,128.06754
"30857",434.54044,76.30244,127.34651
"30858",434.55377,75.716484,126.64501
"30859",434.5671,75.18181,125.97648
"30860",434.58044,74.70573,125.34983
"30861",434.59378,74.29313,124.77179
"30862",434.60712,73.936676,124.237
"30863",434.62045,73.62905,123.7399
"30864",434.6338,73.35317,123.26493
"30865",434.64713,73.111465,122.81551
"30866",434.66046,72.89662,122.38541
"30867",434.6738,72.708626,121.97543
"30868",434.68713,72.549934,121.58888
"30869",434.70047,72.42542,121.23155
"30870",434.7138,72.33753,120.90695
"30871",434.72714,72.28382,120.613785
"30872",434.74048,72.26429,120.35312
"30873",434.7538,72.274055,120.12114
"30874",434.76715,72.30335,119.909
"30875",434.7805,72.33509,119.70021
"30876",434.79382,72.361946,119.48753
"30877",434.80716,72.36927,119.256165
"30878",434.8205,72.3473,118.99573
"30879",434.83383,72.288704,118.69798
"30880",434.84717,72.18616,118.35446
"30881",434.8605,72.047,117.971115
"30882",434.87384,71.88098,117.556564
"30883",434.88718,71.74181,117.16368
"30884",434.9005,71.783325,116.94713
"30885",434.91385,72.28626,117.1933
"30886",434.9272,73.53872,118.2047
"30887",434.94052,75.67986,120.14393
"30888",434.95386,78.61692,122.945984
"30889",434.9672,82.01785,126.303696
"30890",434.98053,85.40414,129.75304
"30891",434.99387,88.272835,132.79062
"30892",435.0072,90.309,135.08531
"30893",435.02054,91.439384,136.53786
"30894",435.03387,91.78363,137.23958
"30895",435.0472,91.54925,137.37343
"30896",435.06055,90.968185,137.15327
"30897",435.07388,90.24307,136.77092
"30898",435.08722,89.52529,136.37323
"30899",435.10056,88.88808,136.03368
"30900",435.1139,88.33875,135.7621
"30901",435.12723,87.82849,135.51242
"30902",435.14056,87.27184,135.20041
"30903",435.1539,86.59556,134.75137
"30904",435.16724,85.75571,134.11763
"30905",435.18057,84.771805,133.3136
"30906",435.1939,83.72442,132.41533
"30907",435.20724,82.720985,131.52829
"30908",435.22058,81.87625,130.76859
"30909",435.23392,81.25857,130.20953
"30910",435.24725,80.86305,129.85335
"30911",435.2606,80.635994,129.65326
"30912",435.27393,80.49439,129.53154
"30913",435.28726,80.35279,129.4054
"30914",435.3006,80.14526,129.2089
"30915",435.31393,79.84741,128.91559
"30916",435.32727,79.449455,128.51286
"30917",435.3406,78.97337,128.01958
"30918",435.35394,78.4387,127.45282
"30919",435.36728,77.87961,126.84494
"30920",435.3806,77.32296,126.22203
"30921",435.39395,76.80049,125.615906
"30922",435.4073,76.32929,125.04472
"30923",435.42062,75.914246,124.51497
"30924",435.43396,75.55047,124.02351
"30925",435.4473,75.23552,123.56952
"30926",435.46063,74.95476,123.13987
"30927",435.47397,74.70573,122.73318
"30928",435.4873,74.48112,122.343124
"30929",435.50064,74.28092,121.97047
"30930",435.51398,74.110016,121.62084
"30931",435.5273,73.968414,121.29518
"30932",435.54065,73.85123,120.98951
"30933",435.554,73.76822,120.714355
"30934",435.56732,73.71206,120.463455
"30935",435.58066,73.687645,120.242546
"30936",435.594,73.687645,120.04529
"30937",435.60733,73.69985,119.86024
"30938",435.62067,73.70718,119.670685
"30939",435.634,73.70229,119.469154
"30940",435.64734,73.66567,119.23573
"30941",435.66068,73.59487,118.96699
"30942",435.674,73.48745,118.65941
"30943",435.68735,73.34341,118.31185
"30944",435.70068,73.1725,117.93293
"30945",435.71402,73.03334,117.580414
"30946",435.72736,73.07973,117.409096
"30947",435.7407,73.568016,117.68113
"30948",435.75403,74.759445,118.67156
"30949",435.76736,76.76875,120.517105
"30950",435.7807,79.47875,123.12613
"30951",435.79404,82.547646,126.178734
"30952",435.80737,85.523766,129.23447
"30953",435.8207,87.95056,131.83388
"30954",435.83405,89.55703,133.6888
"30955",435.84738,90.31388,134.74431
"30956",435.86072,90.36271,135.11545
"30957",435.87405,89.9086,134.98517
"30958",435.8874,89.17616,134.56238
"30959",435.90073,88.3534,134.02637
"30960",435.91406,87.57458,133.50859
"30961",435.9274,86.908066,133.07878
"30962",435.94073,86.3563,132.74289
"30963",435.95407,85.858246,132.44347
"30964",435.9674,85.32845,132.09674
"30965",435.98074,84.69611,131.63092
"30966",435.99408,83.93683,131.01839
"30967",436.00742,83.09941,130.304
"30968",436.02075,82.27421,129.57565
"30969",436.0341,81.57595,128.94847
"30970",436.04742,81.08766,128.50943
"30971",436.06076,80.82887,128.28464
"30972",436.0741,80.74586,128.22752
"30973",436.08743,80.76051,128.26549
"30974",436.10077,80.7776,128.30635
"30975",436.1141,80.726326,128.27937
"30976",436.12744,80.56275,128.1385
"30977",436.14078,80.274666,127.868004
"30978",436.1541,79.88159,127.48351
"30979",436.16745,79.40795,127.00617
"30980",436.1808,78.89769,126.47741
"30981",436.19412,78.38499,125.93026
"30982",436.20746,77.90402,125.39883
"30983",436.2208,77.471886,124.90119
"30984",436.23413,77.09102,124.44132
"30985",436.24747,76.75899,124.01839
"30986",436.2608,76.473335,123.631454
"30987",436.27414,76.22919,123.2771
"30988",436.28748,76.019226,122.9493
"30989",436.3008,75.841,122.64668
"30990",436.31415,75.69451,122.370224
"30991",436.32748,75.577324,122.11849
"30992",436.34082,75.48455,121.88751
"30993",436.35416,75.40887,121.67072
"30994",436.3675,75.34295,121.461334
"30995",436.38083,75.27215,121.245
"30996",436.39417,75.18913,121.014244
"30997",436.4075,75.07683,120.7516
"30998",436.42084,74.93767,120.458595
"30999",436.43417,74.7863,120.14903
"31000",436.4475,74.65934,119.859146
"31001",436.46085,74.649574,119.68249
"31002",436.47418,74.93767,119.80338
"31003",436.48752,75.72869,120.43621
"31004",436.50085,77.152054,121.7261
"31005",436.5142,79.168686,123.65373
"31006",436.52753,81.566185,126.02525
"31007",436.54086,84.000305,128.50832
"31008",436.5542,86.08774,130.72076
"31009",436.56754,87.55016,132.37343
"31010",436.58087,88.29481,133.35402
"31011",436.5942,88.39246,133.71089
"31012",436.60754,88.009155,133.58984
"31013",436.62088,87.33044,133.1614
"31014",436.63422,86.536964,132.59702
"31015",436.64755,85.76303,132.02736
"31016",436.6609,85.07942,131.52385
"31017",436.67422,84.49348,131.09663
"31018",436.68756,83.95392,130.6975
"31019",436.7009,83.387505,130.25464
"31020",436.71423,82.74052,129.71352
"31021",436.72757,82.01541,129.07405
"31022",436.7409,81.27322,128.39484
"31023",436.75424,80.61158,127.77299
"31024",436.76758,80.13794,127.31846
"31025",436.7809,79.90112,127.08595
"31026",436.79425,79.87671,127.05845
"31027",436.8076,79.9939,127.17178
"31028",436.82092,80.16235,127.34005
"31029",436.83426,80.28199,127.46476
"31030",436.8476,80.2942,127.48578
"31031",436.86093,80.16724,127.36801
"31032",436.87427,79.90845,127.11445
"31033",436.8876,79.54223,126.74537
"31034",436.90094,79.10765,126.296486
"31035",436.91428,78.641335,125.802284
"31036",436.9276,78.184784,125.303276
"31037",436.94095,77.75998,124.82175
"31038",436.95428,77.383995,124.37576
"31039",436.96762,77.05684,123.96686
"31040",436.98096,76.7834,123.60145
"31041",436.9943,76.55634,123.27387
"31042",437.00763,76.3708,122.98071
"31043",437.02097,76.22186,122.71837
"31044",437.0343,76.102234,122.480675
"31045",437.04764,76.00946,122.2661
"31046",437.06097,75.931335,122.06327
"31047",437.0743,75.860535,121.865326
"31048",437.08765,75.789734,121.66517
"31049",437.10098,75.70916,121.453026
"31050",437.11432,75.60906,121.21884
"31051",437.12766,75.4992,120.97176
"31052",437.141,75.41375,120.74567
"31053",437.15433,75.43816,120.62676
"31054",437.16766,75.74578,120.791824
"31055",437.181,76.52949,121.44259
"31056",437.19434,77.90646,122.71111
"31057",437.20767,79.83276,124.57199
"31058",437.221,82.11307,126.84707
"31059",437.23434,84.422676,129.22272
"31060",437.24768,86.40757,131.34583
"31061",437.26102,87.8114,132.94989
"31062",437.27435,88.551155,133.93375
"31063",437.2877,88.687874,134.33769
"31064",437.30103,88.37293,134.29425
"31065",437.31436,87.77966,133.96263
"31066",437.3277,87.08385,133.50993
"31067",437.34103,86.41978,133.06723
"31068",437.35437,85.85336,132.70143
"31069",437.3677,85.39437,132.42535
"31070",437.38104,85.0013,132.20085
"31071",437.39438,84.58625,131.9421
"31072",437.4077,84.06378,131.56294
"31073",437.42105,83.40215,131.0283
"31074",437.4344,82.633095,130.36557
"31075",437.44772,81.85672,129.67148
"31076",437.46106,81.180435,129.05322
"31077",437.4744,80.70435,128.61403
"31078",437.48773,80.462654,128.39435
"31079",437.50107,80.42115,128.36731
"31080",437.5144,80.49195,128.45128
"31081",437.52774,80.584724,128.55943
"31082",437.54108,80.61402,128.60701
"31083",437.5544,80.52613,128.53831
"31084",437.56775,80.308846,128.33748
"31085",437.5811,79.974365,128.01265
"31086",437.59442,79.54955,127.587036
"31087",437.60776,79.07591,127.09932
"31088",437.6211,78.59251,126.587036
"31089",437.63443,78.135956,126.0865
"31090",437.64777,77.72335,125.61565
"31091",437.6611,77.36446,125.185616
"31092",437.67444,77.06172,124.800514
"31093",437.68777,76.81026,124.45723
"31094",437.7011,76.595406,124.1427
"31095",437.71445,76.41474,123.855644
"31096",437.72778,76.25849,123.58736
"31097",437.74112,76.11688,123.32883
"31098",437.75446,75.97772,123.06832
"31099",437.7678,75.841,122.80591
"31100",437.78113,75.69695,122.53189
"31101",437.79446,75.53826,122.23873
"31102",437.8078,75.36004,121.92108
"31103",437.82114,75.16472,121.580765
"31104",437.83447,74.97673,121.24168
"31105",437.8478,74.8571,120.96507
"31106",437.86115,74.92302,120.87028
"31107",437.87448,75.36736,121.15597
"31108",437.88782,76.36347,122.00731
"31109",437.90115,77.96506,123.495255
"31110",437.9145,80.07202,125.53863
"31111",437.92783,82.43778,127.90664
"31112",437.94116,84.715645,130.26068
"31113",437.9545,86.590675,132.28308
"31114",437.96783,87.86267,133.76103
"31115",437.98117,88.50477,134.64883
"31116",437.9945,88.62684,135.03668
"31117",438.00784,88.39246,135.0719
"31118",438.02118,87.96521,134.9069
"31119",438.03452,87.49889,134.6895
"31120",438.04785,87.08385,134.50879
"31121",438.0612,86.74937,134.39568
"31122",438.07452,86.47105,134.32828
"31123",438.08786,86.20004,134.25949
"31124",438.1012,85.858246,134.11145
"31125",438.11453,85.36263,133.7989
"31126",438.12787,84.67414,133.278
"31127",438.1412,83.8172,132.56712
"31128",438.15454,82.8748,131.74402
"31129",438.16788,81.96658,130.92564
"31130",438.1812,81.21706,130.23758
"31131",438.19455,80.69459,129.75314
"31132",438.2079,80.40406,129.48433
"31133",438.22122,80.27711,129.37001
"31134",438.23456,80.218506,129.32007
"31135",438.2479,80.1355,129.2439
"31136",438.26123,79.971924,129.08456
"31137",438.27457,79.70336,128.81512
"31138",438.2879,79.33959,128.44208
"31139",438.30124,78.907455,127.9893
"31140",438.31458,78.4387,127.486404
"31141",438.3279,77.962616,126.96153
"31142",438.34125,77.503624,126.43887
"31143",438.35458,77.07881,125.93605
"31144",438.36792,76.700386,125.46634
"31145",438.38126,76.37568,125.03852
"31146",438.3946,76.104675,124.65426
"31147",438.40793,75.877625,124.30548
"31148",438.42126,75.684746,123.98378
"31149",438.4346,75.52117,123.685356
"31150",438.44794,75.37713,123.40135
"31151",438.46127,75.25262,123.13238
"31152",438.4746,75.15251,122.88392
"31153",438.48795,75.08171,122.66164
"31154",438.50128,75.04021,122.46644
"31155",438.51462,75.020676,122.291916
"31156",438.52795,75.018234,122.13387
"31157",438.5413,75.01335,121.97331
"31158",438.55463,74.98894,121.79307
"31159",438.56796,74.93034,121.57788
"31160",438.5813,74.82536,121.314476
"31161",438.59464,74.67887,121.00628
"31162",438.60797,74.51774,120.67886
"31163",438.6213,74.41276,120.402565
"31164",438.63464,74.51774,120.33295
"31165",438.64798,75.04265,120.68654
"31166",438.66132,76.17059,121.65957
"31167",438.67465,77.960175,123.32948
"31168",438.688,80.289314,125.59488
"31169",438.70132,82.882126,128.19673
"31170",438.71466,85.367516,130.77219
"31171",438.728,87.40856,132.98097
"31172",438.74133,88.80995,134.61388
"31173",438.75467,89.56191,135.64114
"31174",438.768,89.76944,136.14748
"31175",438.78134,89.61318,136.29651
"31176",438.79468,89.2665,136.25024
"31177",438.808,88.88075,136.15407
"31178",438.82135,88.54139,136.09222
"31179",438.8347,88.26795,136.08571
"31180",438.84802,88.04089,136.11702
"31181",438.86136,87.79675,136.12416
"31182",438.8747,87.45739,136.02844
"31183",438.88803,86.95201,135.7561
"31184",438.90137,86.24155,135.2629
"31185",438.9147,85.3431,134.5595
"31186",438.92804,84.32258,133.70595
"31187",438.94138,83.299614,132.81807
"31188",438.9547,82.39628,132.01785
"31189",438.96805,81.705345,131.40181
"31190",438.98138,81.24635,130.99611
"31191",438.99472,80.97536,130.76407
"31192",439.00806,80.80934,130.62854
"31193",439.0214,80.65797,130.50246
"31194",439.03473,80.45533,130.32039
"31195",439.04807,80.164795,130.04408
"31196",439.0614,79.78638,129.6708
"31197",439.07474,79.33715,129.2149
"31198",439.08807,78.83421,128.69125
"31199",439.1014,78.30442,128.12503
"31200",439.11475,77.769745,127.53737
"31201",439.12808,77.25216,126.95009
"31202",439.14142,76.77608,126.38814
"31203",439.15475,76.35371,125.86502
"31204",439.1681,75.98016,125.37753
"31205",439.18143,75.66033,124.93208
"31206",439.19476,75.37713,124.51327
"31207",439.2081,75.123215,124.11489
"31208",439.22144,74.8864,123.72568
"31209",439.23477,74.67643,123.35591
"31210",439.2481,74.493324,123.00645
"31211",439.26144,74.337074,122.678116
"31212",439.27478,74.215,122.379074
"31213",439.28812,74.127106,122.110405
"31214",439.30145,74.06119,121.86096
"31215",439.3148,74.01236,121.62655
"31216",439.32812,73.9733,121.400375
"31217",439.34146,73.94156,121.180305
"31218",439.3548,73.90982,120.95924
"31219",439.36813,73.88541,120.744514
"31220",439.38147,73.86832,120.53635
"31221",439.3948,73.85855,120.33497
"31222",439.40814,73.85367,120.13817
"31223",439.42148,73.848785,119.941216
"31224",439.4348,73.83414,119.734344
"31225",439.44815,73.79996,119.507484
"31226",439.4615,73.73403,119.24781
"31227",439.47482,73.62905,118.94702
"31228",439.48816,73.50454,118.62342
"31229",439.5015,73.41665,118.33255
"31230",439.51483,73.50942,118.2196
"31231",439.52817,74.01236,118.51971
"31232",439.5415,75.15495,119.47519
"31233",439.55484,77.02754,121.19637
"31234",439.56818,79.54223,123.61817
"31235",439.5815,82.42802,126.489655
"31236",439.59485,85.28451,129.42203
"31237",439.6082,87.71374,132.0164
"31238",439.62152,89.46914,134.01286
"31239",439.63486,90.49943,135.33907
"31240",439.6482,90.90471,136.07245
"31241",439.66153,90.86565,136.37416
"31242",439.67487,90.579994,136.42805
"31243",439.6882,90.213776,136.39246
"31244",439.70154,89.87198,136.36984
"31245",439.71487,89.59853,136.40489
"31246",439.7282,89.37881,136.48512
"31247",439.74155,89.1664,136.5658
"31248",439.75488,88.8954,136.58125
"31249",439.76822,88.497444,136.46127
"31250",439.78156,87.9115,136.14087
"31251",439.7949,87.12535,135.60196
"31252",439.80823,86.17563,134.87491
"31253",439.82156,85.15022,134.0425
"31254",439.8349,84.16144,133.21466
"31255",439.84824,83.31182,132.49509
"31256",439.86157,82.66239,131.94916
"31257",439.8749,82.20828,131.57825
"31258",439.88824,81.8909,131.32988
"31259",439.90158,81.634544,131.13261
"31260",439.91492,81.36843,130.91759
"31261",439.92822,81.0486,130.64052
"31262",439.9416,80.655525,130.28021
"31263",439.9549,80.19653,129.8417
"31264",439.96826,79.68871,129.34003
"31265",439.98157,79.15648,128.79807
"31266",439.99493,78.6218,128.23703
"31267",440.00824,78.10666,127.67882
"31268",440.0216,77.628136,127.14113
"31269",440.0349,77.196,126.63487
"31270",440.04828,76.81514,126.16639
"31271",440.06158,76.48554,125.73727
"31272",440.07495,76.20233,125.34423
"31273",440.08826,75.965515,124.98874
"31274",440.10162,75.76776,124.66491
"31275",440.11493,75.61639,124.38128
"31276",440.1283,75.4992,124.127106
"31277",440.1416,75.403984,123.89124
"31278",440.15497,75.318535,123.66217
"31279",440.16827,75.23796,123.4353
"31280",440.18164,75.15495,123.20348
"31281",440.19495,75.0695,122.96663
"31282",440.2083,74.986496,122.729546
"31283",440.22162,74.90593,122.49231
"31284",440.235,74.82292,122.250114
"31285",440.2483,74.737465,122.00288
"31286",440.26166,74.64469,121.74565
"31287",440.27496,74.55192,121.48553
"31288",440.28833,74.461586,121.224945
"31289",440.30164,74.37858,120.968864
"31290",440.315,74.31022,120.72484
"31291",440.3283,74.26139,120.49821
"31292",440.34167,74.22476,120.28225
"31293",440.35498,74.20523,120.082245
"31294",440.36835,74.195465,119.891396
"31295",440.38165,74.18814,119.70268
"31296",440.39502,74.16373,119.49665
"31297",440.40833,74.12222,119.272766
"31298",440.4217,74.056305,119.02317
"31299",440.435,73.968414,118.74954
"31300",440.44836,73.88541,118.47805
"31301",440.46167,73.90738,118.308945
"31302",440.47504,74.21011,118.42129
"31303",440.48834,75.02312,119.05336
"31304",440.5017,76.5124,120.387115
"31305",440.515,78.68284,122.44857
"31306",440.52838,81.339134,125.063705
"31307",440.5417,84.14191,127.908325
"31308",440.55505,86.68833,130.58418
"31309",440.56836,88.64881,132.75368
"31310",440.58173,89.884186,134.25932
"31311",440.59503,90.443275,135.12729
"31312",440.6084,90.47501,135.48538
"31313",440.6217,90.17471,135.51242
"31314",440.63507,89.73525,135.39091
"31315",440.64838,89.2958,135.25569
"31316",440.66174,88.93935,135.18973
"31317",440.67505,88.690315,135.22005
"31318",440.68842,88.51942,135.32072
"31319",440.70172,88.36805,135.4356
"31320",440.7151,88.15564,135.48468
"31321",440.7284,87.80896,135.39287
"31322",440.74176,87.26208,135.09001
"31323",440.75507,86.51255,134.56743
"31324",440.76843,85.6141,133.8725
"31325",440.78174,84.664375,133.09822
"31326",440.7951,83.775696,132.3553
"31327",440.8084,83.038376,131.73598
"31328",440.82178,82.49149,131.28404
"31329",440.83508,82.11307,130.98347
"31330",440.84845,81.84451,130.78096
"31331",440.86176,81.61257,130.60666
"31332",440.87512,81.36111,130.4056
"31333",440.88843,81.04616,130.13318
"31334",440.9018,80.66041,129.78012
"31335",440.9151,80.2063,129.34665
"31336",440.92847,79.69848,128.84528
"31337",440.94177,79.1638,128.30118
"31338",440.95514,78.6218,127.73305
"31339",440.96844,78.101776,127.16995
"31340",440.9818,77.61349,126.622345
"31341",440.99512,77.1667,126.10098
"31342",441.00848,76.76143,125.60717
"31343",441.0218,76.40009,125.14463
"31344",441.03516,76.070496,124.70254
"31345",441.04846,75.7702,124.27945
"31346",441.06183,75.49676,123.873825
"31347",441.07513,75.25506,123.4914
"31348",441.0885,75.04509,123.133156
"31349",441.1018,74.86687,122.800095
"31350",441.11517,74.72282,122.495636
"31351",441.12848,74.60807,122.21598
"31352",441.14185,74.5153,121.95471
"31353",441.15515,74.43473,121.70275
"31354",441.16852,74.36393,121.45804
"31355",441.18182,74.29557,121.213554
"31356",441.1952,74.229645,120.96937
"31357",441.2085,74.16373,120.72313
"31358",441.22186,74.10025,120.47727
"31359",441.23517,74.04898,120.24164
"31360",441.24854,74.005035,120.01173
"31361",441.26184,73.970856,119.79021
"31362",441.2752,73.94644,119.577385
"31363",441.2885,73.92691,119.36868
"31364",441.30188,73.91226,119.16425
"31365",441.3152,73.900055,118.96181
"31366",441.32855,73.88541,118.75654
"31367",441.34186,73.85611,118.53616
"31368",441.35522,73.80484,118.2929
"31369",441.36853,73.72671,118.02117
"31370",441.3819,73.64126,117.739685
"31371",441.3952,73.60952,117.50924
"31372",441.40857,73.79996,117.49998
"31373",441.42188,74.444496,117.95077
"31374",441.43524,75.75067,119.083336
"31375",441.44855,77.77463,120.9745
"31376",441.4619,80.377205,123.50754
"31377",441.47522,83.250786,126.39291
"31378",441.4886,85.9852,129.22891
"31379",441.5019,88.20447,131.63522
"31380",441.51526,89.71084,133.39798
"31381",441.52856,90.49943,134.49004
"31382",441.54193,90.6923,135.01102
"31383",441.55524,90.48722,135.14008
"31384",441.5686,90.05997,135.04054
"31385",441.5819,89.57656,134.8715
"31386",441.59528,89.129776,134.72398
"31387",441.60858,88.77333,134.65285
"31388",441.62195,88.497444,134.65112
"31389",441.63525,88.26307,134.6823
"31390",441.64862,88.0116,134.68904
"31391",441.66193,87.67223,134.60004
"31392",441.6753,87.17906,134.34662
"31393",441.6886,86.51499,133.90689
"31394",441.70197,85.68734,133.28284
"31395",441.71527,84.76204,132.53526
"31396",441.72864,83.83429,131.75633
"31397",441.74194,82.99687,131.03874
"31398",441.7553,82.31571,130.45123
"31399",441.76862,81.812775,130.02066
"31400",441.78198,81.461205,129.72574
"31401",441.7953,81.20241,129.5126
"31402",441.80865,80.97536,129.32314
"31403",441.82196,80.726326,129.10458
"31404",441.83533,80.42115,128.82211
"31405",441.84863,80.05493,128.46906
"31406",441.862,79.63012,128.04596
"31407",441.8753,79.1638,127.568085
"31408",441.88867,78.67063,127.04878
"31409",441.90198,78.17258,126.509186
"31410",441.91534,77.69161,125.971115
"31411",441.92865,77.24727,125.454636
"31412",441.94202,76.84688,124.96822
"31413",441.95532,76.49531,124.51812
"31414",441.9687,76.18524,124.09853
"31415",441.982,75.90936,123.703445
"31416",441.99536,75.66033,123.326584
"31417",442.00867,75.43816,122.9688
"31418",442.02203,75.23796,122.626045
"31419",442.03534,75.05974,122.29901
"31420",442.0487,74.898605,121.9835
"31421",442.062,74.757,121.68248
"31422",442.07538,74.63004,121.39168
"31423",442.08868,74.52018,121.114006
"31424",442.10205,74.43717,120.85976
"31425",442.11536,74.373695,120.622444
"31426",442.12872,74.32487,120.3978
"31427",442.14203,74.28336,120.17895
"31428",442.1554,74.249176,119.96612
"31429",442.1687,74.212555,119.74979
"31430",442.18207,74.1857,119.542076
"31431",442.19537,74.17105,119.34573
"31432",442.20874,74.16373,119.15626
"31433",442.22205,74.161285,118.971436
"31434",442.2354,74.15396,118.781654
"31435",442.24872,74.124664,118.56967
"31436",442.2621,74.06607,118.32748
"31437",442.2754,73.9733,118.04927
"31438",442.28876,73.85855,117.74619
"31439",442.30206,73.75357,117.449295
"31440",442.31543,73.74868,117.24921
"31441",442.32874,74.039215,117.34439
"31442",442.3421,74.86931,117.98821
"31443",442.3554,76.41474,119.373314
"31444",442.36877,78.68772,121.534256
"31445",442.38208,81.48806,124.29359
"31446",442.39545,84.4593,127.311325
"31447",442.40875,87.1815,130.17288
"31448",442.42212,89.30801,132.5238
"31449",442.43542,90.687416,134.19409
"31450",442.4488,91.36126,135.20192
"31451",442.4621,91.48333,135.67903
"31452",442.47546,91.23918,135.79373
"31453",442.48877,90.811935,135.71771
"31454",442.50214,90.34318,135.58682
"31455",442.51544,89.92813,135.495
"31456",442.5288,89.59121,135.46832
"31457",442.5421,89.322655,135.4995
"31458",442.55548,89.08339,135.55156
"31459",442.5688,88.81239,135.56442
"31460",442.58215,88.431526,135.45894
"31461",442.59546,87.88953,135.18042
"31462",442.60883,87.15953,134.69698
"31463",442.62213,86.26353,134.0247
"31464",442.6355,85.26986,133.22678
"31465",442.6488,84.283516,132.40512
"31466",442.66217,83.39727,131.65274
"31467",442.67548,82.68192,131.04356
"31468",442.68884,82.14969,130.59514
"31469",442.70215,81.76639,130.27902
"31470",442.7155,81.47585,130.04369
"31471",442.72882,81.21217,129.82613
"31472",442.7422,80.921646,129.57349
"31473",442.7555,80.584724,129.26537
"31474",442.76886,80.18921,128.88812
"31475",442.78217,79.74975,128.45457
"31476",442.79553,79.273674,127.97068
"31477",442.80884,78.77806,127.45237
"31478",442.8222,78.28489,126.92101
"31479",442.8355,77.80881,126.391335
"31480",442.84888,77.366905,125.88096
"31481",442.86218,76.96651,125.39828
"31482",442.87555,76.612495,124.94947
"31483",442.88885,76.30244,124.533554
"31484",442.90222,76.02411,124.13968
"31485",442.91553,75.772644,123.76397
"31486",442.9289,75.54803,123.40725
"31487",442.9422,75.34539,123.06549
"31488",442.95557,75.16472,122.739365
"31489",442.96887,75.00603,122.42957
"31490",442.98224,74.86931,122.136795
"31491",442.99554,74.757,121.86416
"31492",443.0089,74.666664,121.60998
"31493",443.03558,74.54948,121.157326
"31494",443.0489,74.50309,120.94061
"31495",443.06226,74.46403,120.729774
"31496",443.07556,74.424965,120.517715
"31497",443.08893,74.390785,120.30932
"31498",443.10223,74.36393,120.10718
"31499",443.1156,74.3444,119.91152
"31500",443.1289,74.32731,119.7177
"31501",443.14227,74.30778,119.5209
"31502",443.15558,74.26627,119.30151
"31503",443.16895,74.19058,119.046646
"31504",443.18225,74.08072,118.75524
"31505",443.19562,73.936676,118.42622
"31506",443.20892,73.795074,118.095146
"31507",443.2223,73.75113,117.8573
"31508",443.2356,74.01236,117.923256
"31509",443.24896,74.827805,118.55159
"31510",443.26227,76.383,119.94516
"31511",443.27563,78.68528,122.13441
"31512",443.28894,81.53933,124.94737
"31513",443.3023,84.5716,128.02776
"31514",443.3156,87.34753,130.94655
"31515",443.32898,89.51064,133.33928
"31516",443.3423,90.90471,135.03055
"31517",443.35565,91.57122,136.03783
"31518",443.36896,91.663994,136.4922
"31519",443.38232,91.37591,136.56862
"31520",443.39563,90.90715,136.45535
"31521",443.409,90.39933,136.28838
"31522",443.4223,89.94278,136.1568
"31523",443.43567,89.56924,136.09396
"31524",443.44897,89.254295,136.07806
"31525",443.46234,88.956436,136.0694
"31526",443.47565,88.59998,135.99283
"31527",443.489,88.1239,135.78549
"31528",443.50232,87.47204,135.3875
"31529",443.5157,86.641945,134.79091
"31530",443.529,85.680016,134.03654
"31531",443.54236,84.681465,133.2155
"31532",443.55566,83.74639,132.42673
"31533",443.56903,82.967575,131.76498
"31534",443.58234,82.38651,131.27666
"31535",443.5957,81.98367,130.9484
"31536",443.609,81.70779,130.7345
"31537",443.62238,81.478294,130.55838
"31538",443.63568,81.23659,130.36287
"31539",443.64905,80.936295,130.10123
"31540",443.66235,80.56031,129.7545
"31541",443.67572,80.111084,129.32278
"31542",443.68903,79.605705,128.82088
"31543",443.7024,79.061264,128.26411
"31544",443.7157,78.49973,127.67325
"31545",443.72906,77.94797,127.0746
"31546",443.74237,77.420616,126.48312
"31547",443.75574,76.93477,125.91667
"31548",443.76904,76.49531,125.381424
"31549",443.7824,76.10956,124.886154
"31550",443.79572,75.76776,124.42278
"31551",443.80908,75.46258,123.985344
"31552",443.8224,75.18669,123.567665
"31553",443.83575,74.94011,123.17067
"31554",443.84906,74.72282,122.79526
"31555",443.86243,74.53727,122.4448
"31556",443.87573,74.3859,122.12273
"31557",443.8891,74.26627,121.82766
"31558",443.9024,74.17105,121.55326
"31559",443.91577,74.09537,121.295425
"31560",443.92908,74.03189,121.04743
"31561",443.94244,73.97818,120.80722
"31562",443.95575,73.93912,120.57998
"31563",443.96912,73.9147,120.366165
"31564",443.98242,73.900055,120.161354
"31565",443.9958,73.88785,119.95853
"31566",444.0091,73.87076,119.750435
"31567",444.02246,73.83414,119.52228
"31568",444.03577,73.763336,119.2588
"31569",444.04913,73.6437,118.94427
"31570",444.06244,73.47036,118.572296
"31571",444.0758,73.25063,118.14852
"31572",444.0891,73.01137,117.69834
"31573",444.10248,72.84047,117.30905
"31574",444.11578,72.9308,117.17565
"31575",444.12915,73.568016,117.59196
"31576",444.14246,74.984055,118.807
"31577",444.15582,77.23506,120.90126
"31578",444.16913,80.15015,123.72994
"31579",444.1825,83.35088,126.93537
"31580",444.1958,86.37339,130.06259
"31581",444.20917,88.80507,132.69344
"31582",444.22247,90.43351,134.59703
"31583",444.23584,91.268486,135.75806
"31584",444.24915,91.46868,136.3104
"31585",444.2625,91.226974,136.42708
"31586",444.27582,90.74113,136.29207
"31587",444.28918,90.18204,136.06863
"31588",444.3025,89.65713,135.86191
"31589",444.31586,89.21034,135.7169
"31590",444.32916,88.83925,135.63364
"31591",444.34253,88.49256,135.56317
"31592",444.35583,88.10437,135.44037
"31593",444.3692,87.60143,135.19069
"31594",444.3825,86.939804,134.7666
"31595",444.39587,86.10971,134.15338
"31596",444.40918,85.17464,133.40924
"31597",444.42255,84.22003,132.61635
"31598",444.43585,83.353325,131.88152
"31599",444.44922,82.65507,131.28806
"31600",444.46252,82.15701,130.87297
"31601",444.4759,81.82254,130.60591
"31602",444.4892,81.5906,130.43092
"31603",444.50256,81.38552,130.27556
"31604",444.51587,81.146255,130.07959
"31605",444.52924,80.8362,129.80536
"31606",444.54254,80.45289,129.44818
"31607",444.5559,79.9939,129.00334
"31608",444.5692,79.47875,128.488
"31609",444.58258,78.93187,127.924835
"31610",444.5959,78.37522,127.33481
"31611",444.60925,77.83322,126.742035
"31612",444.62256,77.32296,126.16406
"31613",444.63593,76.85664,125.61409
"31614",444.64923,76.439156,125.09837
"31615",444.6626,76.07294,124.62088
"31616",444.6759,75.74822,124.17345
"31617",444.68927,75.46258,123.75494
"31618",444.70258,75.21355,123.36411
"31619",444.71594,74.986496,122.98749
"31620",444.72925,74.78386,122.62818
"31621",444.7426,74.60563,122.28695
"31622",444.75592,74.45182,121.96457
"31623",444.7693,74.32487,121.66424
"31624",444.7826,74.2272,121.38923
"31625",444.79596,74.158844,121.14047
"31626",444.80927,74.11734,120.916435
"31627",444.82263,74.09781,120.71307
"31628",444.83594,74.09537,120.52619
"31629",444.8493,74.10269,120.349
"31630",444.8626,74.107574,120.16959
"31631",444.87598,74.10513,119.98302
"31632",444.88928,74.090485,119.78416
"31633",444.90265,74.056305,119.56531
"31634",444.91595,73.99527,119.318535
"31635",444.92932,73.89761,119.03323
"31636",444.94263,73.76578,118.7107
"31637",444.956,73.599754,118.34986
"31638",444.9693,73.445946,117.99605
"31639",444.98267,73.41665,117.76194
"31640",444.99597,73.738914,117.87848
"31641",445.00934,74.68864,118.632545
"31642",445.02264,76.439156,120.21709
"31643",445.036,78.96605,122.632706
"31644",445.04932,82.03494,125.66929
"31645",445.06268,85.240555,128.93849
"31646",445.076,88.11658,131.97829
"31647",445.08936,90.30656,134.4219
"31648",445.10266,91.66888,136.10631
"31649",445.11603,92.25727,137.05936
"31650",445.12933,92.23285,137.41797
"31651",445.1427,91.810486,137.37788
"31652",445.156,91.18547,137.12195
"31653",445.16937,90.5214,136.80742
"31654",445.18268,89.915924,136.53073
"31655",445.19604,89.3959,136.32057
"31656",445.20935,88.93935,136.15764
"31657",445.22272,88.482796,135.98044
"31658",445.23602,87.940796,135.70352
"31659",445.2494,87.24986,135.26074
"31660",445.2627,86.38804,134.62547
"31661",445.27606,85.399254,133.83632
"31662",445.28937,84.37385,132.97964
"31663",445.30273,83.42657,132.16905
"31664",445.31604,82.64774,131.49731
"31665",445.3294,82.07889,131.0112
"31666",445.3427,81.70046,130.69774
"31667",445.35608,81.446556,130.49698
"31668",445.3694,81.23659,130.33221
"31669",445.38275,81.01442,130.1487
"31670",445.39606,80.73121,129.89719
"31671",445.40942,80.36744,129.55627
"31672",445.42273,79.92798,129.1283
"31673",445.4361,79.429924,128.62799
"31674",445.4494,78.890366,128.07062
"31675",445.46277,78.331276,127.47685
"31676",445.47607,77.77707,126.8705
"31677",445.48944,77.25216,126.27612
"31678",445.50275,76.771194,125.70929
"31679",445.5161,76.33906,125.176254
"31680",445.52942,75.95819,124.680984
"31681",445.5428,75.62371,124.2202
"31682",445.5561,75.33074,123.790474
"31683",445.56946,75.0695,123.38332
"31684",445.58276,74.83757,122.997314
"31685",445.59613,74.63004,122.62846
"31686",445.60944,74.44938,122.27999
"31687",445.6228,74.29069,121.947845
"31688",445.6361,74.158844,121.63759
"31689",445.64948,74.05386,121.350075
"31690",445.66278,73.987946,121.09834
"31691",445.67615,73.951324,120.87385
"31692",445.68945,73.944,120.677505
"31693",445.70282,73.951324,120.49558
"31694",445.71613,73.96597,120.32121
"31695",445.7295,73.96597,120.13265
"31696",445.7428,73.93912,119.91724
"31697",445.75616,73.87564,119.66436
"31698",445.76947,73.76578,119.36311
"31699",445.78284,73.60708,119.0096
"31700",445.79614,73.40444,118.607185
"31701",445.8095,73.18959,118.186226
"31702",445.8228,73.057755,117.84157
"31703",445.83618,73.20912,117.77599
"31704",445.8495,73.92203,118.27669
"31705",445.86285,75.42596,119.59068
"31706",445.87616,77.75998,121.78177
"31707",445.88953,80.73853,124.69032
"31708",445.90283,83.99054,127.96541
"31709",445.9162,87.04234,131.14192
"31710",445.9295,89.47646,133.79611
"31711",445.94287,91.08293,135.69872
"31712",445.95618,91.86908,136.8312
"31713",445.96954,91.9765,137.30954
"31714",445.98285,91.60052,137.30782
"31715",445.99622,90.948654,137.01846
"31716",446.00952,90.19913,136.61108
"31717",446.0229,89.47402,136.2047
"31718",446.0362,88.83925,135.86598
"31719",446.04956,88.28748,135.59044
"31720",446.06287,87.765015,135.32695
"31721",446.07623,87.186386,134.99098
"31722",446.08954,86.47837,134.50754
"31723",446.1029,85.61166,133.84328
"31724",446.1162,84.62287,133.02986
"31725",446.12958,83.60723,132.15869
"31726",446.14288,82.67704,131.34123
"31727",446.15625,81.92996,130.67781
"31728",446.16956,81.409935,130.2181
"31729",446.18292,81.09743,129.94965
"31730",446.19623,80.921646,129.80817
"31731",446.2096,80.79225,129.70758
"31732",446.2229,80.63355,129.57364
"31733",446.23627,80.38941,129.3493
"31734",446.24957,80.0354,129.00746
"31735",446.26294,79.569084,128.54225
"31736",446.27625,79.01488,127.97458
"31737",446.2896,78.40208,127.33099
"31738",446.30292,77.76486,126.643845
"31739",446.31628,77.14473,125.953865
"31740",446.3296,76.56611,125.28602
"31741",446.34296,76.05585,124.66845
"31742",446.35626,75.61883,124.10818
"31743",446.36963,75.24284,123.59528
"31744",446.38293,74.91814,123.12192
"31745",446.3963,74.634926,122.6799
"31746",446.4096,74.37858,122.2559
"31747",446.42297,74.15152,121.85317
"31748",446.43628,73.95865,121.47754
"31749",446.44965,73.80484,121.13494
"31750",446.46295,73.69253,120.82903
"31751",446.47632,73.62173,120.56113
"31752",446.48962,73.59731,120.337395
"31753",446.503,73.60464,120.14464
"31754",446.5163,73.62905,119.9692
"31755",446.52966,73.65835,119.79941
"31756",446.54297,73.68032,119.62321
"31757",446.55634,73.670555,119.415955
"31758",446.56964,73.616844,119.16445
"31759",446.583,73.50942,118.85756
"31760",446.5963,73.34829,118.4936
"31761",446.60968,73.145645,118.08309
"31762",446.623,72.95766,117.68091
"31763",446.63635,72.9308,117.43398
"31764",446.64966,73.323875,117.60615
"31765",446.66302,74.4152,118.488846
"31766",446.67633,76.35859,120.25771
"31767",446.6897,79.080795,122.86613
"31768",446.703,82.2913,126.047905
"31769",446.71637,85.53353,129.36174
"31770",446.72968,88.32899,132.33012
"31771",446.74304,90.34074,134.60216
"31772",446.75635,91.4638,136.04837
"31773",446.7697,91.776306,136.71912
"31774",446.78302,91.46136,136.77217
"31775",446.7964,90.7338,136.40279
"31776",446.8097,89.80606,135.81047
"31777",446.82306,88.8539,135.16475
"31778",446.83636,87.98718,134.57472
"31779",446.84973,87.2401,134.07724
"31780",446.86304,86.58335,133.64674
"31781",446.8764,85.92172,133.19084
"31782",446.8897,85.1844,132.63858
"31783",446.90308,84.32014,131.93633
"31784",446.91638,83.370415,131.12161
"31785",446.92975,82.425575,130.2821
"31786",446.94305,81.60769,129.54002
"31787",446.95642,81.01442,128.997
"31788",446.96973,80.67994,128.69421
"31789",446.9831,80.55787,128.5934
"31790",446.9964,80.56275,128.61572
"31791",447.00977,80.59449,128.66505
"31792",447.02307,80.56275,128.6519
"31793",447.03644,80.42115,128.5279
"31794",447.04974,80.15015,128.27005
"31795",447.0631,79.75464,127.879234
"31796",447.07642,79.256584,127.37351
"31797",447.08978,78.69016,126.78386
"31798",447.1031,78.08469,126.13745
"31799",447.11646,77.48409,125.477005
"31800",447.12976,76.910355,124.824646
"31801",447.14313,76.387886,124.20563
"31802",447.15643,75.91913,123.62399
"31803",447.1698,75.511406,123.088745
"31804",447.1831,75.15495,122.592026
"31805",447.19647,74.84001,122.12568
"31806",447.20978,74.56168,121.686104
"31807",447.22314,74.322426,121.2769
"31808",447.23645,74.11978,120.896835
"31809",447.24982,73.951324,120.544624
"31810",447.26312,73.814606,120.21889
"31811",447.2765,73.69497,119.90596
"31812",447.2898,73.57046,119.58442
"31813",447.30316,73.4313,119.24434
"31814",447.31647,73.272606,118.88038
"31815",447.32983,73.13832,118.535866
"31816",447.34314,73.13832,118.32144
"31817",447.3565,73.48257,118.45126
"31818",447.3698,74.42252,119.18755
"31819",447.38318,76.12909,120.719826
"31820",447.39648,78.57786,123.04763
"31821",447.40985,81.532005,125.95734
"31822",447.42316,84.60578,129.079
"31823",447.43652,87.35729,131.97444
"31824",447.44983,89.43496,134.28203
"31825",447.4632,90.687416,135.82933
"31826",447.4765,91.14641,136.6223
"31827",447.48987,90.9633,136.78752
"31828",447.50317,90.33097,136.49779
"31829",447.51654,89.44961,135.93927
"31830",447.52985,88.50233,135.2873
"31831",447.5432,87.6112,134.66187
"31832",447.55652,86.82262,134.11113
"31833",447.5699,86.11459,133.61632
"31834",447.5832,85.40414,133.09694
"31835",447.59656,84.60822,132.46991
"31836",447.60986,83.69512,131.70082
"31837",447.62323,82.703896,130.82507
"31838",447.63654,81.74929,129.95497
"31839",447.6499,80.955826,129.21617
"31840",447.6632,80.42603,128.71625
"31841",447.67657,80.184326,128.48785
"31842",447.68988,80.17212,128.48141
"31843",447.70325,80.289314,128.60399
"31844",447.71655,80.41871,128.74243
"31845",447.72992,80.46998,128.8068
"31846",447.74323,80.38209,128.7336
"31847",447.7566,80.13794,128.50139
"31848",447.7699,79.742424,128.11018
"31849",447.78326,79.22484,127.58455
"31850",447.79657,78.624245,126.95973
"31851",447.80994,77.98459,126.277084
"31852",447.82324,77.347374,125.57689
"31853",447.8366,76.73945,124.88607
"31854",447.8499,76.190125,124.234856
"31855",447.86328,75.70428,123.62995
"31856",447.8766,75.2868,123.07823
"31857",447.88995,74.93767,122.58182
"31858",447.90326,74.65446,122.14041
"31859",447.91663,74.42985,121.74876
"31860",447.92993,74.25895,121.40379
"31861",447.9433,74.13443,121.09987
"31862",447.9566,74.039215,120.82136
"31863",447.96997,73.95865,120.55452
"31864",447.98328,73.86832,120.2754
"31865",447.99664,73.75601,119.97148
"31866",448.00995,73.62905,119.6494
"31867",448.02332,73.55093,119.372185
"31868",448.03662,73.68276,119.30249
"31869",448.05,74.288246,119.71056
"31870",448.0633,75.613945,120.85777
"31871",448.07666,77.76242,122.86919
"31872",448.08997,80.61158,125.64842
"31873",448.10333,83.83673,128.89268
"31874",448.11664,86.993515,132.16937
"31875",448.13,89.64492,135.03932
"31876",448.1433,91.51263,137.20844
"31877",448.15668,92.53071,138.58629
"31878",448.16998,92.806595,139.25375
"31879",448.18335,92.51118,139.35854
"31880",448.19666,91.85443,139.09276
"31881",448.21002,91.0341,138.64288
"31882",448.22333,90.211334,138.16493
"31883",448.2367,89.46914,137.74184
"31884",448.25,88.82704,137.39565
"31885",448.26337,88.23132,137.07578
"31886",448.27667,87.59167,136.69334
"31887",448.29004,86.81041,136.14932
"31888",448.30334,85.838715,135.39046
"31889",448.3167,84.70344,134.43764
"31890",448.33002,83.49737,133.37856
"31891",448.34338,82.36454,132.35503
"31892",448.3567,81.43435,131.49873
"31893",448.37006,80.78981,130.89902
"31894",448.38336,80.428474,130.56236
"31895",448.39673,80.27711,130.4244
"31896",448.41003,80.23804,130.39398
"31897",448.4234,80.19653,130.35992
"31898",448.4367,80.07202,130.24155
"31899",448.45007,79.82056,129.99234
"31900",448.46338,79.429924,129.5961
"31901",448.47675,78.91478,129.06314
"31902",448.49005,78.30686,128.42131
"31903",448.50342,77.645226,127.706764
"31904",448.51672,76.97139,126.95934
"31905",448.5301,76.32685,126.22016
"31906",448.5434,75.736015,125.51454
"31907",448.55676,75.22087,124.86615
"31908",448.57007,74.78386,124.27979
"31909",448.58344,74.424965,123.7579
"31910",448.59674,74.13199,123.2907
"31911",448.6101,73.900055,122.8754
"31912",448.6234,73.71694,122.50166
"31913",448.63678,73.58022,122.1686
"31914",448.6501,73.47036,121.85812
"31915",448.66345,73.375145,121.55886
"31916",448.67676,73.26772,121.244415
"31917",448.69012,73.13832,120.90463
"31918",448.70343,72.97963,120.53152
"31919",448.7168,72.84535,120.17786
"31920",448.7301,72.86488,119.97381
"31921",448.74347,73.27749,120.163445
"31922",448.75677,74.34928,121.02516
"31923",448.77014,76.23895,122.73825
"31924",448.78345,78.89525,125.277016
"31925",448.7968,82.074005,128.42125
"31926",448.81012,85.36019,131.77225
"31927",448.8235,88.31434,134.8939
"31928",448.8368,90.58488,137.42427
"31929",448.85016,92.04242,139.21259
"31930",448.86346,92.72114,140.26762
"31931",448.87683,92.77486,140.71887
"31932",448.89014,92.403755,140.74698
"31933",448.9035,91.81293,140.54376
"31934",448.9168,91.15373,140.25372
"31935",448.93018,90.531166,139.9797
"31936",448.94348,89.969635,139.74727
"31937",448.95685,89.43496,139.52414
"31938",448.97015,88.86122,139.24524
"31939",448.98352,88.162964,138.8239
"31940",448.99683,87.25475,138.17078
"31941",449.0102,86.117035,137.25977
"31942",449.0235,84.79378,136.12767
"31943",449.03687,83.40948,134.89317
"31944",449.05017,82.11551,133.70575
"31945",449.06354,81.05592,132.71228
"31946",449.07684,80.29908,131.98843
"31947",449.0902,79.82788,131.52658
"31948",449.10352,79.55688,131.2502
"31949",449.11688,79.381096,131.06056
"31950",449.1302,79.19798,130.85811
"31951",449.14355,78.93919,130.57425
"31952",449.15686,78.572975,130.17488
"31953",449.17023,78.09201,129.64932
"31954",449.18353,77.51095,129.00864
"31955",449.1969,76.86641,128.28632
"31956",449.2102,76.19501,127.51699
"31957",449.22357,75.53338,126.73646
"31958",449.23688,74.915695,125.979195
"31959",449.25024,74.36637,125.27099
"31960",449.26355,73.89273,124.6213
"31961",449.27692,73.494774,124.03249
"31962",449.29022,73.1725,123.506935
"31963",449.3036,72.91371,123.03479
"31964",449.3169,72.71595,122.615585
"31965",449.33026,72.569466,122.24147
"31966",449.34357,72.47425,121.91405
"31967",449.35693,72.42542,121.630035
"31968",449.37024,72.42054,121.38844
"31969",449.3836,72.44251,121.17355
"31970",449.3969,72.47669,120.97156
"31971",449.41028,72.498665,120.75842
"31972",449.42358,72.49134,120.51668
"31973",449.43695,72.42542,120.21611
"31974",449.45026,72.29359,119.847565
"31975",449.46362,72.112915,119.42607
"31976",449.47693,71.9469,119.01358
"31977",449.4903,71.95911,118.774124
"31978",449.5036,72.430305,118.99405
"31979",449.51697,73.64858,119.97577
"31980",449.53027,75.76044,121.889145
"31981",449.54364,78.695045,124.69127
"31982",449.55695,82.159454,128.1149
"31983",449.5703,85.68734,131.71027
"31984",449.58362,88.7953,134.99596
"31985",449.597,91.13664,137.61215
"31986",449.6103,92.60395,139.42747
"31987",449.62366,93.26559,140.48299
"31988",449.63696,93.30709,140.93904
"31989",449.65033,92.95064,140.99843
"31990",449.66364,92.403755,140.85625
"31991",449.677,91.825134,140.66524
"31992",449.6903,91.28802,140.49765
"31993",449.70367,90.809494,140.37187
"31994",449.71698,90.338295,140.23846
"31995",449.73035,89.796295,140.01953
"31996",449.74365,89.08827,139.61765
"31997",449.75702,88.14099,138.95438
"31998",449.77032,86.94957,138.01736
"31999",449.7837,85.57259,136.85756
"32000",449.797,84.139465,135.59857
"32001",449.81036,82.80644,134.39491
"32002",449.82367,81.71023,133.3864
"32003",449.83704,80.91188,132.6415
"32004",449.85034,80.39185,132.14996
"32005",449.8637,80.06714,131.8375
"32006",449.877,79.823,131.59546
"32007",449.89038,79.56176,131.32869
"32008",449.9037,79.219955,130.97319
"32009",449.91705,78.77806,130.50691
"32010",449.93036,78.238495,129.92915
"32011",449.94373,77.625694,129.2613
"32012",449.95703,76.97383,128.53525
"32013",449.9704,76.30488,127.77173
"32014",449.9837,75.64568,126.99706
"32015",449.99707,75.02556,126.24087
"32016",450.01038,74.45426,125.51412
"32017",450.02374,73.94644,124.833
"32018",450.03705,73.50942,124.20681
"32019",450.0504,73.13588,123.63044
"32020",450.06372,72.82338,123.10344
"32021",450.0771,72.569466,122.62526
"32022",450.0904,72.36683,122.190414
"32023",450.10376,72.20813,121.79318
"32024",450.11707,72.09338,121.43494
"32025",450.13043,72.010376,121.10484
"32026",450.14374,71.956665,120.80145
"32027",450.1571,71.922485,120.515915
"32028",450.1704,71.902954,120.24396
"32029",450.18378,71.89807,119.98604
"32030",450.19708,71.89807,119.73285
"32031",450.21045,71.89563,119.47722
"32032",450.22375,71.888306,119.21663
"32033",450.23712,71.8761,118.95093
"32034",450.25043,71.85901,118.67996
"32035",450.2638,71.8468,118.413345
"32036",450.2771,71.84436,118.15611
"32037",450.29047,71.85657,117.91345
"32038",450.30377,71.888306,117.690704
"32039",450.31714,71.939575,117.48848
"32040",450.33044,72.00549,117.302505
"32041",450.3438,72.08606,117.13324
"32042",450.35712,72.166626,116.96649
"32043",450.37048,72.234985,116.790054
"32044",450.3838,72.26673,116.57915
"32045",450.39716,72.25208,116.32283
"32046",450.41046,72.19348,116.02211
"32047",450.42383,72.1593,115.74397
"32048",450.43713,72.33753,115.677185
"32049",450.4505,73.057755,116.15796
"32050",450.4638,74.634926,117.51819
"32051",450.47717,77.20088,119.91649
"32052",450.49048,80.59937,123.22751
"32053",450.50385,84.437325,127.08419
"32054",450.51715,88.17029,130.95583
"32055",450.53052,91.27093,134.31178
"32056",450.54382,93.434044,136.82712
"32057",450.5572,94.63767,138.45056
"32058",450.5705,95.03807,139.30838
"32059",450.58386,94.86229,139.60254
"32060",450.59717,94.3447,139.54941
"32061",450.61053,93.68795,139.34093
"32062",450.62384,93.03853,139.11925
"32063",450.6372,92.457466,138.94563
"32064",450.6505,91.949646,138.8271
"32065",450.66388,91.47112,138.722
"32066",450.6772,90.948654,138.558
"32067",450.69055,90.29191,138.2434
"32068",450.70386,89.44717,137.72028
"32069",450.71722,88.38758,136.95592
"32070",450.73053,87.15709,135.98753
"32071",450.7439,85.86069,134.9148
"32072",450.7572,84.62531,133.86256
"32073",450.77057,83.56817,132.94997
"32074",450.78387,82.75273,132.24603
"32075",450.79724,82.1741,131.75343
"32076",450.81055,81.76639,131.41367
"32077",450.8239,81.43679,131.13927
"32078",450.83722,81.10719,130.85457
"32079",450.8506,80.723885,130.50586
"32080",450.8639,80.26246,130.06706
"32081",450.87726,79.73022,129.54303
"32082",450.89056,79.14183,128.94621
"32083",450.90393,78.519264,128.29683
"32084",450.91724,77.87961,127.6109
"32085",450.9306,77.2546,126.91963
"32086",450.9439,76.65644,126.23568
"32087",450.95728,76.10712,125.58187
"32088",450.97058,75.613945,124.96705
"32089",450.98395,75.191574,124.407616
"32090",450.99725,74.82292,123.8887
"32091",451.01062,74.50553,123.40953
"32092",451.02393,74.229645,122.961945
"32093",451.0373,73.985504,122.53748
"32094",451.0506,73.77066,122.13469
"32095",451.06396,73.58755,121.75691
"32096",451.07727,73.43862,121.4076
"32097",451.09064,73.32632,121.090256
"32098",451.10394,73.2433,120.79869
"32099",451.1173,73.179825,120.52407
"32100",451.1306,73.13344,120.26456
"32101",451.14398,73.094376,120.01092
"32102",451.1573,73.05043,119.751175
"32103",451.17065,72.99916,119.482735
"32104",451.18396,72.94057,119.20537
"32105",451.19733,72.87953,118.92373
"32106",451.21063,72.816055,118.63774
"32107",451.224,72.762344,118.359535
"32108",451.2373,72.723274,118.09429
"32109",451.25067,72.708626,117.85225
"32110",451.26398,72.71351,117.62927
"32111",451.27734,72.740364,117.42842
"32112",451.29065,72.78432,117.245514
"32113",451.30402,72.83559,117.0713
"32114",451.31732,72.884415,116.89624
"32115",451.3307,72.918594,116.70806
"32116",451.344,72.92592,116.494095
"32117",451.35736,72.89418,116.241295
"32118",451.37067,72.82338,115.94844
"32119",451.38403,72.73548,115.63628
"32120",451.39734,72.723274,115.39705
"32121",451.4107,73.00404,115.450424
"32122",451.424,73.87808,116.10584
"32123",451.43738,75.57,117.60645
"32124",451.45068,78.10422,120.002235
"32125",451.46405,81.24635,123.08513
"32126",451.47736,84.578926,126.45665
"32127",451.49072,87.60143,129.62225
"32128",451.50403,89.901276,132.15964
"32129",451.5174,91.317314,133.88509
"32130",451.5307,91.91547,134.8369
"32131",451.54407,91.89838,135.19217
"32132",451.55737,91.490654,135.15627
"32133",451.57074,90.897385,134.92207
"32134",451.58405,90.2797,134.64493
"32135",451.5974,89.73525,134.42172
"32136",451.61072,89.28359,134.27429
"32137",451.62408,88.91249,134.1933
"32138",451.6374,88.57801,134.13733
"32139",451.65076,88.21423,134.04161
"32140",451.66406,87.75769,133.84177
"32141",451.67743,87.15221,133.47871
"32142",451.69073,86.37827,132.92828
"32143",451.7041,85.472496,132.22183
"32144",451.7174,84.50324,131.4236
"32145",451.73077,83.56817,130.62926
"32146",451.74408,82.76738,129.93997
"32147",451.75745,82.159454,129.41853
"32148",451.77075,81.74197,129.06853
"32149",451.78412,81.47341,128.85442
"32150",451.79742,81.28298,128.71004
"32151",451.8108,81.09987,128.56702
"32152",451.8241,80.87038,128.3719
"32153",451.83746,80.56519,128.09392
"32154",451.85077,80.18677,127.733154
"32155",451.86414,79.744865,127.29709
"32156",451.87744,79.26391,126.80816
"32157",451.8908,78.77074,126.291985
"32158",451.9041,78.28733,125.770164
"32159",451.91748,77.83566,125.26498
"32160",451.9308,77.42794,124.78962
"32161",451.94415,77.069046,124.35035
"32162",451.95746,76.76143,123.95114
"32163",451.97083,76.49775,123.58626
"32164",451.98413,76.263374,123.24244
"32165",451.9975,76.050964,122.91326
"32166",452.0108,75.862976,122.60187
"32167",452.02417,75.69451,122.30412
"32168",452.03748,75.54803,122.023094
"32169",452.05084,75.4284,121.76434
"32170",452.06415,75.33318,121.52627
"32171",452.0775,75.25506,121.30231
"32172",452.09082,75.194016,121.09299
"32173",452.1042,75.14519,120.893974
"32174",452.1175,75.10857,120.70564
"32175",452.13086,75.07683,120.52105
"32176",452.14417,75.04509,120.335464
"32177",452.15753,75.01091,120.14645
"32178",452.17084,74.97429,119.95392
"32179",452.1842,74.93523,119.757805
"32180",452.1975,74.90105,119.56535
"32181",452.21088,74.87419,119.37916
"32182",452.22418,74.85954,119.20433
"32183",452.23755,74.85466,119.03881
"32184",452.25085,74.861984,118.885345
"32185",452.26422,74.879074,118.741875
"32186",452.27753,74.90349,118.60626
"32187",452.2909,74.93034,118.473854
"32188",452.3042,74.949875,118.33496
"32189",452.31757,74.94499,118.172264
"32190",452.33087,74.91325,117.98256
"32191",452.34424,74.847336,117.75768
"32192",452.35754,74.757,117.50633
"32193",452.3709,74.70573,117.291214
"32194",452.38422,74.87175,117.291794
"32195",452.39758,75.53094,117.790726
"32196",452.4109,76.92256,119.042694
"32197",452.42426,79.114975,121.13894
"32198",452.43756,81.93729,123.93359
"32199",452.45093,85.01106,127.06791
"32200",452.46423,87.85535,130.06879
"32201",452.4776,90.0502,132.50912
"32202",452.4909,91.38567,134.15866
"32203",452.50427,91.913025,135.04181
"32204",452.51758,91.81537,135.31644
"32205",452.53094,91.32708,135.19737
"32206",452.54425,90.64835,134.87262
"32207",452.55762,89.952545,134.50957
"32208",452.57092,89.33486,134.2029
"32209",452.5843,88.83681,133.99655
"32210",452.5976,88.44373,133.87962
"32211",452.61096,88.11658,133.81633
"32212",452.62427,87.79675,133.75015
"32213",452.63763,87.41833,133.61537
"32214",452.65094,86.922714,133.35158
"32215",452.6643,86.278175,132.92337
"32216",452.6776,85.504234,132.34563
"32217",452.69098,84.647285,131.66069
"32218",452.70428,83.78546,130.94409
"32219",452.71765,83.0164,130.29333
"32220",452.73096,82.40116,129.77235
"32221",452.74432,81.96658,129.41281
"32222",452.75763,81.685814,129.1935
"32223",452.771,81.50271,129.06308
"32224",452.7843,81.34646,128.9538
"32225",452.79767,81.17067,128.82008
"32226",452.81097,80.93141,128.61742
"32227",452.82434,80.621346,128.33646
"32228",452.83765,80.24536,127.97989
"32229",452.851,79.815674,127.55787
"32230",452.86432,79.34692,127.08335
"32231",452.8777,78.86107,126.577095
"32232",452.891,78.365456,126.04589
"32233",452.90436,77.874725,125.50408
"32234",452.91766,77.401085,124.96403
"32235",452.93103,76.964066,124.44579
"32236",452.94434,76.57343,123.96029
"32237",452.9577,76.23895,123.51873
"32238",452.971,75.97528,123.13753
"32239",452.98438,75.775085,122.81156
"32240",452.99768,75.63836,122.54281
"32241",453.01105,75.562675,122.330826
"32242",453.02435,75.53826,122.16775
"32243",453.03772,75.55047,122.04053
"32244",453.05103,75.58709,121.9381
"32245",453.0644,75.631035,121.84415
"32246",453.0777,75.67498,121.751564
"32247",453.09106,75.71404,121.65547
"32248",453.10437,75.75067,121.55817
"32249",453.11774,75.79462,121.46932
"32250",453.13104,75.83612,121.37941
"32251",453.1444,75.87518,121.28835
"32252",453.1577,75.911804,121.196075
"32253",453.17108,75.93866,121.09518
"32254",453.1844,75.95575,120.98535
"32255",453.19775,75.9704,120.87362
"32256",453.21106,75.97528,120.75258
"32257",453.22443,75.97772,120.62925
"32258",453.23773,75.965515,120.49135
"32259",453.2511,75.93866,120.33842
"32260",453.2644,75.88739,120.16023
"32261",453.27777,75.81171,119.95603
"32262",453.29108,75.70916,119.7226
"32263",453.30444,75.60418,119.483536
"32264",453.31775,75.56512,119.307106
"32265",453.33112,75.757996,119.3614
"32266",453.34442,76.419624,119.890465
"32267",453.3578,77.747765,121.10672
"32268",453.3711,79.77173,123.0603
"32269",453.38446,82.31815,125.599594
"32270",453.39777,85.03792,128.3918
"32271",453.41113,87.50378,131.01509
"32272",453.42444,89.34951,133.09532
"32273",453.4378,90.41154,134.44952
"32274",453.4511,90.74113,135.10448
"32275",453.46448,90.50675,135.20576
"32276",453.47778,89.92569,134.95303
"32277",453.49115,89.18837,134.5259
"32278",453.50446,88.446175,134.07083
"32279",453.51782,87.784546,133.67314
"32280",453.53113,87.23277,133.36464
"32281",453.5445,86.77867,133.13657
"32282",453.5578,86.380714,132.95044
"32283",453.57117,85.98276,132.75188
"32284",453.58447,85.52865,132.48473
"32285",453.59784,84.964676,132.09352
"32286",453.61115,84.28596,131.56995
"32287",453.6245,83.51446,130.93239
"32288",453.63782,82.72343,130.25119
"32289",453.65118,81.99344,129.60631
"32290",453.6645,81.40261,129.07777
"32291",453.67786,80.98512,128.70412
"32292",453.69116,80.726326,128.4761
"32293",453.70453,80.570076,128.34256
"32294",453.71783,80.46021,128.25052
"32295",453.7312,80.33814,128.14284
"32296",453.7445,80.16724,127.9825
"32297",453.75787,79.9353,127.75579
"32298",453.77118,79.64233,127.46079
"32299",453.78455,79.30297,127.11026
"32300",453.79785,78.93431,126.71982
"32301",453.81122,78.551,126.30321
"32302",453.82452,78.170135,125.87706
"32303",453.8379,77.81125,125.46099
"32304",453.8512,77.48165,125.062996
"32305",453.86456,77.19356,124.696205
"32306",453.87787,76.94942,124.364365
"32307",453.89124,76.73701,124.056625
"32308",453.90454,76.55146,123.76911
"32309",453.9179,76.383,123.49289
"32310",453.9312,76.22919,123.22604
"32311",453.94458,76.09003,122.96905
"32312",453.9579,75.97284,122.729675
"32313",453.97125,75.88251,122.5135
"32314",453.98456,75.81415,122.31647
"32315",453.99792,75.76044,122.13195
"32316",454.01123,75.72625,121.96528
"32317",454.0246,75.70672,121.812195
"32318",454.0379,75.70428,121.67559
"32319",454.05127,75.71404,121.55112
"32320",454.06458,75.72869,121.43183
"32321",454.07794,75.73846,121.30812
"32322",454.09125,75.72625,121.16274
"32323",454.1046,75.69451,120.99745
"32324",454.11792,75.63836,120.806755
"32325",454.1313,75.560234,120.59233
"32326",454.1446,75.457695,120.35105
"32327",454.15796,75.34051,120.09192
"32328",454.17126,75.24284,119.84865
"32329",454.18463,75.264824,119.72197
"32330",454.19794,75.58953,119.898705
"32331",454.2113,76.42451,120.595856
"32332",454.2246,77.8967,121.956314
"32333",454.23798,79.94751,123.9414
"32334",454.25128,82.34745,126.3397
"32335",454.26465,84.735176,128.80078
"32336",454.27795,86.73716,130.95074
"32337",454.29132,88.097046,132.52116
"32338",454.30463,88.744026,133.42117
"32339",454.318,88.780655,133.73105
"32340",454.3313,88.39002,133.6148
"32341",454.34467,87.765015,133.25198
"32342",454.35797,87.0692,132.79883
"32343",454.37134,86.4271,132.37764
"32344",454.38464,85.892426,132.04381
"32345",454.398,85.47494,131.81046
"32346",454.41132,85.14046,131.64706
"32347",454.42468,84.823074,131.49033
"32348",454.438,84.456856,131.27483
"32349",454.45135,83.99298,130.95023
"32350",454.46466,83.421684,130.50371
"32351",454.47803,82.78203,129.97098
"32352",454.49133,82.14969,129.42558
"32353",454.5047,81.59792,128.941
"32354",454.518,81.19508,128.58809
"32355",454.53137,80.95094,128.3813
"32356",454.54468,80.84352,128.3036
"32357",454.55804,80.814224,128.30067
"32358",454.57135,80.8069,128.3188
"32359",454.58472,80.75807,128.2952
"32360",454.59802,80.63355,128.19437
"32361",454.6114,80.42359,128.00421
"32362",454.6247,80.13306,127.72691
"32363",454.63806,79.781494,127.37951
"32364",454.65137,79.395744,126.98693
"32365",454.66473,79.00511,126.577415
"32366",454.67804,78.63401,126.175224
"32367",454.6914,78.2971,125.79562
"32368",454.7047,77.99924,125.44455
"32369",454.71808,77.74532,125.12811
"32370",454.73138,77.5256,124.83793
"32371",454.74475,77.332726,124.56773
"32372",454.75806,77.16914,124.3208
"32373",454.77142,77.02754,124.09074
"32374",454.78473,76.90791,123.87822
"32375",454.7981,76.81026,123.68394
"32376",454.8114,76.732124,123.50613
"32377",454.82477,76.66865,123.34053
"32378",454.83807,76.61738,123.18516
"32379",454.85144,76.57099,123.033066
"32380",454.86475,76.51972,122.87464
"32381",454.8781,76.45136,122.697525
"32382",454.89142,76.36103,122.4963
"32383",454.9048,76.23163,122.25318
"32384",454.9181,76.068054,121.97185
"32385",454.93146,75.880066,121.66099
"32386",454.94476,75.70672,121.358894
"32387",454.95813,75.61639,121.1344
"32388",454.97144,75.75311,121.13414
"32389",454.9848,76.299995,121.54831
"32390",454.9981,77.38888,122.52157
"32391",455.01147,79.012436,124.06353
"32392",455.02478,81.0193,126.039536
"32393",455.03815,83.13115,128.18324
"32394",455.05145,85.015945,130.1659
"32395",455.06482,86.414894,131.72159
"32396",455.07812,87.20592,132.71307
"32397",455.0915,87.430534,133.16287
"32398",455.1048,87.220566,133.1851
"32399",455.11816,86.74204,132.93222
"32400",455.13147,86.1561,132.55696
"32401",455.14484,85.57992,132.17316
"32402",455.15814,85.09407,131.86168
"32403",455.1715,84.7132,131.64
"32404",455.1848,84.41291,131.487
"32405",455.19818,84.13214,131.34413
"32406",455.2115,83.80255,131.14368
"32407",455.22485,83.36797,130.82793
"32408",455.23816,82.82109,130.38629
"32409",455.25153,82.20096,129.85432
"32410",455.26483,81.59304,129.31519
"32411",455.2782,81.08034,128.85226
"32412",455.2915,80.73365,128.53934
"32413",455.30487,80.552986,128.3816
"32414",455.31818,80.50416,128.35007
"32415",455.33154,80.52125,128.38292
"32416",455.34485,80.533455,128.41142
"32417",455.35822,80.48707,128.38171
"32418",455.37152,80.360115,128.26999
"32419",455.3849,80.14526,128.06639
"32420",455.3982,79.85718,127.782845
"32421",455.41156,79.520256,127.44146
"32422",455.42487,79.15648,127.06269
"32423",455.43823,78.79027,126.67012
"32424",455.45154,78.44114,126.28319
"32425",455.4649,78.116425,125.90976
"32426",455.4782,77.823456,125.55793
"32427",455.49158,77.56466,125.23112
"32428",455.50488,77.34005,124.930405
"32429",455.51825,77.14473,124.65196
"32430",455.53156,76.978714,124.39672
"32431",455.54492,76.839554,124.16315
"32432",455.55823,76.72724,123.95207
"32433",455.5716,76.627144,123.7497
"32434",455.5849,76.54658,123.563736
"32435",455.59827,76.46601,123.37525
"32436",455.61157,76.385445,123.18425
"32437",455.62494,76.297554,122.983406
"32438",455.63824,76.19989,122.77004
"32439",455.6516,76.0827,122.5341
"32440",455.66492,75.95087,122.279854
"32441",455.67828,75.809265,122.01172
"32442",455.6916,75.68963,121.76112
"32443",455.70496,75.67498,121.61178
"32444",455.71826,75.92157,121.72321
"32445",455.73163,76.612495,122.28669
"32446",455.74493,77.85031,123.41865
"32447",455.7583,79.60815,125.10931
"32448",455.7716,81.71023,127.19914
"32449",455.78497,83.86603,129.40839
"32450",455.79828,85.74593,131.4091
"32451",455.81165,87.115585,132.95831
"32452",455.82495,87.87732,133.94241
"32453",455.83832,88.097046,134.40831
"32454",455.85162,87.89929,134.4636
"32455",455.865,87.450066,134.26122
"32456",455.8783,86.90074,133.9447
"32457",455.89166,86.366066,133.62567
"32458",455.90497,85.91196,133.3705
"32459",455.91833,85.5433,133.18658
"32460",455.93164,85.22591,133.04242
"32461",455.945,84.88899,132.86882
"32462",455.9583,84.46418,132.59679
"32463",455.97168,83.914856,132.18697
"32464",455.985,83.267876,131.66232
"32465",455.99835,82.58915,131.08572
"32466",456.01166,81.96414,130.54163
"32467",456.02502,81.478294,130.11716
"32468",456.03833,81.16579,129.85085
"32469",456.0517,81.007095,129.72859
"32470",456.065,80.94362,129.6966
"32471",456.07837,80.91188,129.69435
"32472",456.09167,80.85817,129.66914
"32473",456.10504,80.73121,129.569
"32474",456.11835,80.516365,129.37701
"32475",456.1317,80.22095,129.09773
"32476",456.14502,79.85474,128.73843
"32477",456.1584,79.43969,128.31885
"32478",456.1717,79.00267,127.86432
"32479",456.18506,78.56809,127.398575
"32480",456.19836,78.16037,126.946106
"32481",456.21173,77.79416,126.52241
"32482",456.22504,77.469444,126.12876
"32483",456.2384,77.18623,125.76647
"32484",456.2517,76.94209,125.4344
"32485",456.26508,76.72968,125.126434
"32486",456.27838,76.54658,124.84113
"32487",456.29175,76.385445,124.57208
"32488",456.30505,76.25361,124.32729
"32489",456.31842,76.14374,124.10035
"32490",456.33173,76.050964,123.88707
"32491",456.3451,75.965515,123.678215
"32492",456.3584,75.88251,123.46913
"32493",456.37177,75.79462,123.25257
"32494",456.38507,75.69451,123.02105
"32495",456.39844,75.577324,122.76932
"32496",456.41174,75.44793,122.50172
"32497",456.4251,75.32098,122.23251
"32498",456.43842,75.245285,122.010605
"32499",456.45178,75.335625,121.95236
"32500",456.4651,75.772644,122.24362
"32501",456.47845,76.72236,123.06123
"32502",456.49176,78.25803,124.494484
"32503",456.50513,80.291756,126.47377
"32504",456.51843,82.58915,128.78029
"32505",456.5318,84.82063,131.09268
"32506",456.5451,86.6688,133.09149
"32507",456.55847,87.938354,134.56944
"32508",456.57178,88.585335,135.4645
"32509",456.58514,88.70496,135.85242
"32510",456.59845,88.448616,135.8681
"32511",456.61182,87.98718,135.67068
"32512",456.62512,87.46227,135.39537
"32513",456.6385,86.98131,135.1476
"32514",456.6518,86.573586,134.95804
"32515",456.66516,86.23178,134.82166
"32516",456.67847,85.88754,134.67216
"32517",456.69183,85.46517,134.43378
"32518",456.70514,84.90608,134.04547
"32519",456.7185,84.21271,133.50542
"32520",456.7318,83.43389,132.85825
"32521",456.74518,82.66239,132.19406
"32522",456.75848,82.003204,131.61807
"32523",456.77185,81.52224,131.1997
"32524",456.78516,81.21706,130.9421
"32525",456.79852,81.05104,130.81412
"32526",456.81183,80.953384,130.74931
"32527",456.8252,80.85817,130.6839
"32528",456.8385,80.709236,130.56178
"32529",456.85187,80.479744,130.35446
"32530",456.86517,80.164795,130.0545
"32531",456.87854,79.77173,129.6666
"32532",456.89185,79.32006,129.2078
"32533",456.9052,78.836655,128.70314
"32534",456.91852,78.35569,128.18582
"32535",456.9319,77.89426,127.673004
"32536",456.9452,77.467,127.17995
"32537",456.95856,77.08125,126.71504
"32538",456.97186,76.734566,126.277145
"32539",456.98523,76.42939,125.86993
"32540",456.99854,76.16327,125.492226
"32541",457.0119,75.93866,125.14772
"32542",457.0252,75.74822,124.83037
"32543",457.03857,75.58465,124.53393
"32544",457.05188,75.44549,124.25679
"32545",457.06525,75.32098,123.98995
"32546",457.07855,75.20622,123.72898
"32547",457.09192,75.09392,123.46687
"32548",457.10522,74.986496,123.20614
"32549",457.1186,74.86931,122.93228
"32550",457.1319,74.74479,122.64743
"32551",457.14526,74.61051,122.34893
"32552",457.15857,74.486,122.056
"32553",457.17194,74.42985,121.82754
"32554",457.18524,74.56901,121.79263
"32555",457.1986,75.08659,122.1405
"32556",457.2119,76.14374,123.044106
"32557",457.22528,77.79416,124.57402
"32558",457.2386,79.92798,126.63891
"32559",457.25195,82.30595,129.01462
"32560",457.26526,84.58869,131.36943
"32561",457.27863,86.46616,133.3903
"32562",457.29193,87.75037,134.87657
"32563",457.3053,88.40955,135.77795
"32564",457.3186,88.52918,136.16039
"32565",457.33197,88.275276,136.17302
"32566",457.34528,87.816284,135.97263
"32567",457.35864,87.2987,135.6993
"32568",457.37195,86.81285,135.44153
"32569",457.3853,86.397804,135.23938
"32570",457.39862,86.02426,135.06577
"32571",457.412,85.62142,134.85118
"32572",457.4253,85.10872,134.51414
"32573",457.43866,84.44709,134.01216
"32574",457.45197,83.648735,133.35278
"32575",457.46533,82.78203,132.6001
"32576",457.47864,81.95926,131.86427
"32577",457.492,81.28054,131.24678
"32578",457.5053,80.80202,130.80827
"32579",457.51868,80.50904,130.54036
"32580",457.53198,80.343025,130.39026
"32581",457.54535,80.22827,130.28622
"32582",457.55865,80.09155,130.15665
"32583",457.57202,79.888916,129.95688
"32584",457.58533,79.59838,129.66287
"32585",457.5987,79.219955,129.2719
"32586",457.612,78.77318,128.80074
"32587",457.62537,78.28245,128.27167
"32588",457.63867,77.77707,127.712616
"32589",457.65204,77.279015,127.145096
"32590",457.66534,76.81758,126.59863
"32591",457.6787,76.402534,126.08414
"32592",457.69202,76.036316,125.6055
"32593",457.70538,75.716484,125.161804
"32594",457.7187,75.44305,124.75451
"32595",457.73206,75.208664,124.37772
"32596",457.74536,75.00847,124.0278
"32597",457.75873,74.84001,123.70336
"32598",457.77203,74.6984,123.400505
"32599",457.7854,74.57877,123.115204
"32600",457.7987,74.47135,122.83837
"32601",457.81207,74.38102,122.57527
"32602",457.82538,74.30045,122.319115
"32603",457.83875,74.22232,122.062874
"32604",457.85205,74.13687,121.796875
"32605",457.86542,74.039215,121.516
"32606",457.87872,73.917145,121.20766
"32607",457.8921,73.780426,120.88085
"32608",457.9054,73.65591,120.56197
"32609",457.91876,73.63149,120.33931
"32610",457.93207,73.8732,120.382
"32611",457.94543,74.59586,120.91321
"32612",457.95874,75.94354,122.09201
"32613",457.9721,77.93088,123.95258
"32614",457.9854,80.394295,126.35134
"32615",457.99878,83.03349,129.00287
"32616",458.0121,85.46517,131.52934
"32617",458.02545,87.36706,133.60202
"32618",458.03876,88.58289,135.04808
"32619",458.05212,89.127335,135.86073
"32620",458.06543,89.12245,136.14108
"32621",458.0788,88.74647,136.05017
"32622",458.0921,88.18982,135.76685
"32623",458.10547,87.59655,135.4295
"32624",458.11877,87.047226,135.11757
"32625",458.13214,86.55894,134.8495
"32626",458.14545,86.0975,134.59303
"32627",458.1588,85.58968,134.27576
"32628",458.17212,84.962234,133.82298
"32629",458.1855,84.18585,133.20168
"32630",458.1988,83.28741,132.43404
"32631",458.21216,82.357216,131.60658
"32632",458.22546,81.50515,130.82819
"32633",458.23883,80.82643,130.1965
"32634",458.25214,80.36744,129.76334
"32635",458.2655,80.10376,129.51114
"32636",458.2788,79.9646,129.37521
"32637",458.29218,79.86206,129.27158
"32638",458.30548,79.73022,129.13542
"32639",458.31885,79.5227,128.91946
"32640",458.33215,79.2224,128.60425
"32641",458.34552,78.83421,128.19176
"32642",458.35883,78.37766,127.69878
"32643",458.3722,77.874725,127.14514
"32644",458.3855,77.36202,126.566025
"32645",458.39886,76.8542,125.97577
"32646",458.41217,76.383,125.406265
"32647",458.42554,75.95819,124.86842
"32648",458.43884,75.59441,124.37834
"32649",458.4522,75.28191,123.92817
"32650",458.4655,75.018234,123.51705
"32651",458.47888,74.79607,123.139206
"32652",458.4922,74.60807,122.78859
"32653",458.50555,74.444496,122.45652
"32654",458.51886,74.29557,122.13399
"32655",458.53223,74.14908,121.809235
"32656",458.54553,74.00748,121.484795
"32657",458.5589,73.86832,121.15837
"32658",458.5722,73.73403,120.83247
"32659",458.58557,73.60708,120.50971
"32660",458.59888,73.49233,120.19519
"32661",458.61224,73.38247,119.881966
"32662",458.62555,73.27993,119.57263
"32663",458.63892,73.19203,119.274734
"32664",458.65222,73.18959,119.05955
"32665",458.6656,73.42153,119.07867
"32666",458.6789,74.09781,119.54937
"32667",458.69226,75.38201,120.64913
"32668",458.70557,77.3254,122.44821
"32669",458.71893,79.801025,124.840256
"32670",458.73224,82.52567,127.558685
"32671",458.7456,85.1136,130.22554
"32672",458.7589,87.220566,132.49231
"32673",458.77228,88.64637,134.14375
"32674",458.78558,89.359276,135.12686
"32675",458.79895,89.461815,135.52188
"32676",458.81226,89.12489,135.48064
"32677",458.82562,88.53651,135.1774
"32678",458.83893,87.86755,134.7752
"32679",458.8523,87.22789,134.38141
"32680",458.8656,86.659035,134.03842
"32681",458.87897,86.1268,133.71428
"32682",458.89227,85.55306,133.332
"32683",458.90564,84.86702,132.81949
"32684",458.91895,84.02716,132.13173
"32685",458.9323,83.06523,131.29565
"32686",458.94562,82.08865,130.41487
"32687",458.95898,81.2195,129.611
"32688",458.9723,80.56031,128.98991
"32689",458.98566,80.15015,128.59726
"32690",458.99896,79.96948,128.4213
"32691",459.01233,79.92554,128.3764
"32692",459.02563,79.92554,128.37408
"32693",459.039,79.888916,128.33514
"32694",459.0523,79.75952,128.20227
"32695",459.06567,79.517815,127.95305
"32696",459.07898,79.17601,127.596176
"32697",459.09235,78.75609,127.150505
"32698",459.10565,78.29221,126.64776
"32699",459.11902,77.81857,126.12075
"32700",459.13232,77.36202,125.59603
"32701",459.1457,76.94209,125.093666
"32702",459.159,76.56611,124.62212
"32703",459.17236,76.23895,124.18766
"32704",459.18567,75.95819,123.78937
"32705",459.19904,75.718925,123.4238
"32706",459.21234,75.50652,123.077614
"32707",459.2257,75.32098,122.75165
"32708",459.239,75.15251,122.436966
"32709",459.25238,74.99626,122.129234
"32710",459.2657,74.85222,121.82883
"32711",459.27905,74.720375,121.53612
"32712",459.29236,74.59098,121.24174
"32713",459.30573,74.461586,120.94331
"32714",459.31903,74.319984,120.62864
"32715",459.3324,74.18326,120.314415
"32716",459.3457,74.08804,120.03743
"32717",459.35907,74.144196,119.90884
"32718",459.37238,74.54459,120.12624
"32719",459.38574,75.47967,120.89084
"32720",459.39905,77.04707,122.316986
"32721",459.4124,79.20775,124.38538
"32722",459.42572,81.74685,126.89973
"32723",459.4391,84.32502,129.53249
"32724",459.4524,86.57603,131.91866
"32725",459.46576,88.23132,133.77945
"32726",459.47906,89.17616,134.98152
"32727",459.49243,89.45693,135.54904
"32728",459.50574,89.21767,135.6053
"32729",459.5191,88.65858,135.33426
"32730",459.5324,87.96033,134.90659
"32731",459.54578,87.2694,134.46442
"32732",459.55908,86.65171,134.0739
"32733",459.57245,86.11215,133.7422
"32734",459.58575,85.58236,133.40341
"32735",459.59912,84.97688,132.97238
"32736",459.61243,84.2298,132.38083
"32737",459.6258,83.336235,131.61945
"32738",459.6391,82.35966,130.74713
"32739",459.65247,81.42214,129.88336
"32740",459.66577,80.64576,129.15143
"32741",459.67914,80.111084,128.63693
"32742",459.69244,79.83032,128.35965
"32743",459.7058,79.7351,128.25912
"32744",459.71912,79.73266,128.2484
"32745",459.73248,79.727776,128.23515
"32746",459.7458,79.64477,128.14363
"32747",459.75916,79.447014,127.93478
"32748",459.77246,79.12962,127.600105
"32749",459.78583,78.70725,127.150536
"32750",459.79913,78.21652,126.61941
"32751",459.8125,77.68917,126.03632
"32752",459.8258,77.16914,125.444084
"32753",459.83917,76.67841,124.86489
"32754",459.85248,76.241394,124.32407
"32755",459.86584,75.860535,123.82576
"32756",459.87915,75.5407,123.37657
"32757",459.89252,75.27459,122.97111
"32758",459.90582,75.054855,122.60371
"32759",459.9192,74.87419,122.26851
"32760",459.9325,74.71793,121.95207
"32761",459.94586,74.58366,121.65273
"32762",459.95917,74.46403,121.363846
"32763",459.97253,74.356606,121.08343
"32764",459.98584,74.25407,120.804535
"32765",459.9992,74.14664,120.51755
"32766",460.0125,74.02457,120.21256
"32767",460.02588,73.89517,119.89644
"32768",460.03918,73.80728,119.617775
"32769",460.05255,73.88541,119.50238
"32770",460.06586,74.337074,119.76297
"32771",460.07922,75.38201,120.63094
"32772",460.09253,77.13008,122.2347
"32773",460.1059,79.5227,124.537636
"32774",460.1192,82.31571,127.315735
"32775",460.13257,85.14046,130.21284
"32776",460.14587,87.59411,132.82713
"32777",460.15924,89.40078,134.87112
"32778",460.17255,90.4506,136.21472
"32779",460.1859,90.80705,136.89775
"32780",460.19922,90.616615,137.04503
"32781",460.2126,90.08682,136.847
"32782",460.2259,89.40566,136.48105
"32783",460.23926,88.71717,136.08649
"32784",460.25256,88.097046,135.73877
"32785",460.26593,87.56237,135.45712
"32786",460.27924,87.05455,135.18562
"32787",460.2926,86.48814,134.83966
"32788",460.3059,85.77524,134.32951
"32789",460.31927,84.87923,133.61398
"32790",460.33258,83.81476,132.702
"32791",460.34595,82.686806,131.69325
"32792",460.35925,81.634544,130.72496
"32793",460.37262,80.780045,129.92154
"32794",460.38593,80.19409,129.35997
"32795",460.3993,79.86694,129.03888
"32796",460.4126,79.727776,128.89555
"32797",460.42596,79.66918,128.82845
"32798",460.43927,79.59594,128.74486
"32799",460.45264,79.44213,128.57841
"32800",460.46594,79.17357,128.29242
"32801",460.4793,78.78783,127.88085
"32802",460.4926,78.30442,127.359566
"32803",460.50598,77.7551,126.757256
"32804",460.5193,77.17891,126.110916
"32805",460.53265,76.61494,125.458786
"32806",460.54596,76.09491,124.83298
"32807",460.55933,75.63592,124.25195
"32808",460.57263,75.25262,123.73228
"32809",460.586,74.94499,123.2763
"32810",460.5993,74.6984,122.87174
"32811",460.61267,74.50309,122.51076
"32812",460.62598,74.354164,122.190056
"32813",460.63934,74.24185,121.90131
"32814",460.65265,74.16617,121.64569
"32815",460.66602,74.11978,121.417
"32816",460.67932,74.11246,121.22592
"32817",460.6927,74.11734,121.04682
"32818",460.706,74.10513,120.850784
"32819",460.71936,74.04166,120.603096
"32820",460.73267,73.917145,120.29239
"32821",460.74603,73.75113,119.93629
"32822",460.75934,73.64858,119.638466
"32823",460.7727,73.82193,119.613335
"32824",460.786,74.53971,120.138054
"32825",460.79938,75.99237,121.42008
"32826",460.81268,78.204315,123.50679
"32827",460.82605,81.00221,126.24857
"32828",460.83936,84.03937,129.31705
"32829",460.85272,86.888535,132.29245
"32830",460.86603,89.181046,134.80023
"32831",460.8794,90.72648,136.63257
"32832",460.8927,91.51751,137.7588
"32833",460.90607,91.67132,138.27254
"32834",460.91937,91.37835,138.3443
"32835",460.93274,90.83879,138.16031
"32836",460.94604,90.22598,137.88622
"32837",460.9594,89.64248,137.62227
"32838",460.97272,89.12489,137.406
"32839",460.98608,88.65858,137.22484
"32840",460.9994,88.182495,137.01933
"32841",461.01276,87.59411,136.68665
"32842",461.02606,86.81529,136.14514
"32843",461.03943,85.79965,135.34248
"32844",461.05273,84.58869,134.31276
"32845",461.0661,83.27764,133.14511
"32846",461.0794,82.01785,131.98775
"32847",461.09277,80.94606,130.97902
"32848",461.10608,80.15503,130.21756
"32849",461.11945,79.64477,129.71214
"32850",461.13275,79.3518,129.40807
"32851",461.14612,79.17601,129.21202
"32852",461.15942,79.01976,129.03001
"32853",461.1728,78.8098,128.78941
"32854",461.1861,78.502174,128.4446
"32855",461.19946,78.08713,127.98274
"32856",461.21277,77.576866,127.412704
"32857",461.22614,76.998245,126.75836
"32858",461.23944,76.385445,126.05176
"32859",461.2528,75.772644,125.326004
"32860",461.2661,75.1989,124.620155
"32861",461.27948,74.69108,123.9623
"32862",461.2928,74.25407,123.35939
"32863",461.30615,73.882965,122.80873
"32864",461.31946,73.57534,122.30995
"32865",461.33282,73.31655,121.850395
"32866",461.34613,73.094376,121.419365
"32867",461.3595,72.921036,121.03023
"32868",461.3728,72.796524,120.6845
"32869",461.38617,72.725716,120.38859
"32870",461.39948,72.706184,120.14174
"32871",461.41284,72.725716,119.933334
"32872",461.42615,72.764786,119.74509
"32873",461.4395,72.80385,119.55805
"32874",461.45282,72.813614,119.34294
"32875",461.4662,72.779434,119.08419
"32876",461.4795,72.68421,118.76333
"32877",461.49286,72.54017,118.39067
"32878",461.50616,72.3888,118.00618
"32879",461.51953,72.376595,117.75612
"32880",461.53284,72.742805,117.884094
"32881",461.5462,73.78287,118.69737
"32882",461.5595,75.67254,120.39276
"32883",461.57288,78.382545,122.96754
"32884",461.58618,81.668724,126.20317
"32885",461.59955,85.10628,129.69287
"32886",461.61285,88.21179,132.95796
"32887",461.62622,90.616615,135.6194
"32888",461.63953,92.16937,137.50392
"32889",461.6529,92.91402,138.62886
"32890",461.6662,93.016556,139.13496
"32891",461.67957,92.696724,139.2219
"32892",461.69287,92.16937,139.09131
"32893",461.70624,91.598076,138.9003
"32894",461.71954,91.07805,138.7427
"32895",461.7329,90.6215,138.63234
"32896",461.74622,90.18692,138.52968
"32897",461.75958,89.703514,138.36461
"32898",461.7729,89.076065,138.04039
"32899",461.78625,88.23132,137.47928
"32900",461.79956,87.13756,136.64275
"32901",461.81293,85.82895,135.55719
"32902",461.82623,84.41047,134.32086
"32903",461.8396,83.018845,133.06706
"32904",461.8529,81.80301,131.94557
"32905",461.86627,80.85817,131.05708
"32906",461.87958,80.2063,130.43204
"32907",461.89294,79.79614,130.02832
"32908",461.90625,79.53002,129.75583
"32909",461.91962,79.30297,129.51408
"32910",461.93292,79.03441,129.22374
"32911",461.9463,78.677956,128.83711
"32912",461.9596,78.22385,128.34169
"32913",461.97296,77.68429,127.74663
"32914",461.98627,77.08125,127.07123
"32915",461.99963,76.45136,126.35013
"32916",462.01294,75.81903,125.6069
"32917",462.0263,75.22087,124.87809
"32918",462.0396,74.68131,124.189186
"32919",462.05298,74.21011,123.55178
"32920",462.06628,73.80484,122.965576
"32921",462.07965,73.45815,122.42529
"32922",462.09296,73.15541,121.91812
"32923",462.10632,72.884415,121.433235
"32924",462.11963,72.64759,120.97405
"32925",462.133,72.44984,120.54654
"32926",462.1463,72.29603,120.156784
"32927",462.15967,72.19104,119.81105
"32928",462.17297,72.12512,119.5011
"32929",462.18634,72.095825,119.22571
"32930",462.19965,72.09827,118.98114
"32931",462.213,72.12268,118.75862
"32932",462.22632,72.164185,118.553955
"32933",462.2397,72.215454,118.36035
"32934",462.253,72.26673,118.168365
"32935",462.26636,72.31068,117.97064
"32936",462.27966,72.33753,117.7572
"32937",462.29303,72.342415,117.52263
"32938",462.30634,72.308235,117.249146
"32939",462.3197,72.22766,116.92821
"32940",462.333,72.0885,116.54616
"32941",462.34637,71.92493,116.135345
"32942",462.35968,71.83948,115.79755
"32943",462.37305,72.09338,115.79643
"32944",462.38635,73.040665,116.49663
"32945",462.39972,74.94743,118.18592
"32946",462.41302,77.857635,120.93823
"32947",462.4264,81.549095,124.562744
"32948",462.4397,85.56039,128.62245
"32949",462.45306,89.31777,132.5536
"32950",462.46637,92.32807,135.85509
"32951",462.47974,94.364235,138.2765
"32952",462.49304,95.44091,139.80206
"32953",462.5064,95.73388,140.57756
"32954",462.5197,95.484856,140.82022
"32955",462.53308,94.93797,140.75723
"32956",462.5464,94.28855,140.57462
"32957",462.55975,93.663536,140.39612
"32958",462.57306,93.10445,140.264
"32959",462.58643,92.58442,140.15349
"32960",462.59973,92.04486,140.00719
"32961",462.6131,91.39788,139.7366
"32962",462.6264,90.562904,139.25781
"32963",462.63977,89.48623,138.51123
"32964",462.65308,88.16785,137.48929
"32965",462.66644,86.68101,136.25769
"32966",462.67975,85.14778,134.93324
"32967",462.6931,83.70733,133.65366
"32968",462.70642,82.48661,132.5488
"32969",462.7198,81.54421,131.68411
"32970",462.7331,80.867935,131.05609
"32971",462.74646,80.38941,130.60469
"32972",462.75977,80.01831,130.24576
"32973",462.77313,79.66918,129.8972
"32974",462.78644,79.28344,129.50111
"32975",462.7998,78.82933,129.02461
"32976",462.8131,78.29954,128.45824
"32977",462.82648,77.70138,127.80694
"32978",462.83978,77.04707,127.0808
"32979",462.85315,76.36347,126.304924
"32980",462.86646,75.684746,125.51256
"32981",462.87982,75.03288,124.725845
"32982",462.89313,74.43229,123.97003
"32983",462.9065,73.9025,123.26625
"32984",462.9198,73.44106,122.61427
"32985",462.93317,73.043106,122.01135
"32986",462.94647,72.7013,121.45215
"32987",462.95984,72.40589,120.92865
"32988",462.97314,72.15686,120.44231
"32989",462.9865,71.95178,119.99213
"32990",462.99982,71.77844,119.567276
"32991",463.01318,71.641716,119.17363
"32992",463.0265,71.54162,118.81233
"32993",463.03986,71.47082,118.4772
"32994",463.05316,71.42199,118.161835
"32995",463.06653,71.39269,117.86447
"32996",463.07983,71.3756,117.5784
"32997",463.0932,71.37316,117.30644
"32998",463.1065,71.38537,117.04906
"32999",463.11987,71.414665,116.80914
"33000",463.13318,71.46105,116.587234
"33001",463.14655,71.517204,116.37654
"33002",463.15985,71.570915,116.16516
"33003",463.17322,71.61486,115.945694
"33004",463.18652,71.64416,115.71295
"33005",463.1999,71.656364,115.464035
"33006",463.2132,71.639275,115.1862
"33007",463.22656,71.57824,114.86389
"33008",463.23987,71.4757,114.49817
"33009",463.25323,71.35607,114.11215
"33010",463.26654,71.35363,113.839584
"33011",463.2799,71.76868,113.984436
"33012",463.2932,73.006485,114.96501
"33013",463.30658,75.34539,117.08537
"33014",463.3199,78.79027,120.384796
"33015",463.33325,83.02373,124.58045
"33016",463.34656,87.49889,129.15012
"33017",463.35992,91.57122,133.45679
"33018",463.37323,94.730446,136.97762
"33019",463.3866,96.77638,139.48387
"33020",463.3999,97.78958,141.02133
"33021",463.41327,97.99222,141.77989
"33022",463.42657,97.63821,141.98813
"33023",463.43994,96.988785,141.8899
"33024",463.45325,96.25147,141.68347
"33025",463.4666,95.55566,141.49551
"33026",463.47992,94.95506,141.38104
"33027",463.4933,94.42771,141.32104
"33028",463.5066,93.91501,141.2592
"33029",463.51996,93.31686,141.09589
"33030",463.53326,92.540474,140.73566
"33031",463.54663,91.51507,140.10214
"33032",463.55994,90.22354,139.17046
"33033",463.5733,88.724495,137.99089
"33034",463.5866,87.13756,136.67659
"33035",463.59998,85.60189,135.36397
"33036",463.61328,84.2591,134.19624
"33037",463.62665,83.18242,133.25266
"33038",463.63995,82.37919,132.54887
"33039",463.65332,81.79813,132.04216
"33040",463.66663,81.34646,131.64668
"33041",463.68,80.938736,131.28104
"33042",463.6933,80.499275,130.87091
"33043",463.70667,79.991455,130.3787
"33044",463.71997,79.40551,129.79248
"33045",463.73334,78.74876,129.11714
"33046",463.74664,78.03342,128.3627
"33047",463.76,77.29122,127.55905
"33048",463.77332,76.54658,126.72976
"33049",463.78668,75.82391,125.89918
"33050",463.8,75.15251,125.097275
"33051",463.81335,74.547035,124.34032
"33052",463.82666,74.01236,123.63524
"33053",463.84003,73.55093,122.986694
"33054",463.85333,73.15053,122.384766
"33055",463.8667,72.79408,121.81428
"33056",463.88,72.481575,121.27659
"33057",463.89337,72.20813,120.76819
"33058",463.90668,71.96887,120.28543
"33059",463.92004,71.77112,119.8367
"33060",463.93335,71.61486,119.423294
"33061",463.94672,71.49279,119.039185
"33062",463.96002,71.40734,118.68788
"33063",463.9734,71.35363,118.36565
"33064",463.9867,71.32189,118.063705
"33065",464.00006,71.31457,117.78519
"33066",464.01337,71.32433,117.52353
"33067",464.02673,71.34142,117.2695
"33068",464.04004,71.36828,117.02577
"33069",464.0534,71.4049,116.79265
"33070",464.0667,71.4464,116.56555
"33071",464.08008,71.485466,116.33731
"33072",464.09338,71.51232,116.09808
"33073",464.10675,71.51232,115.83284
"33074",464.12006,71.4757,115.530975
"33075",464.13342,71.38293,115.171814
"33076",464.14673,71.23155,114.75116
"33077",464.1601,71.046005,114.291595
"33078",464.1734,70.93614,113.90192
"33079",464.18677,71.18028,113.86281
"33080",464.20007,72.200806,114.60771
"33081",464.21344,74.3444,116.50758
"33082",464.22675,77.6672,119.65365
"33083",464.2401,81.900665,123.81422
"33084",464.25342,86.49058,128.46353
"33085",464.26678,90.760666,132.93645
"33086",464.2801,94.12985,136.6419
"33087",464.29346,96.33936,139.29297
"33088",464.30676,97.44045,140.90466
"33089",464.32013,97.66506,141.67429
"33090",464.33344,97.28176,141.84302
"33091",464.3468,96.55909,141.6604
"33092",464.3601,95.726555,141.34534
"33093",464.37347,94.93065,141.0409
"33094",464.38678,94.22751,140.80434
"33095",464.40015,93.609825,140.63126
"33096",464.41345,93.019,140.46573
"33097",464.42682,92.36225,140.21582
"33098",464.44012,91.544365,139.78426
"33099",464.4535,90.49699,139.09764
"33100",464.4668,89.21278,138.14146
"33101",464.48016,87.75525,136.97183
"33102",464.49347,86.24155,135.70049
"33103",464.50684,84.825516,134.4795
"33104",464.52014,83.62432,133.42911
"33105",464.5335,82.703896,132.62195
"33106",464.5468,82.05203,132.05458
"33107",464.56018,81.59304,131.65971
"33108",464.5735,81.234146,131.3506
"33109",464.58685,80.89723,131.05226
"33110",464.60016,80.516365,130.69943
"33111",464.61353,80.05249,130.2517
"33112",464.62683,79.500725,129.70157
"33113",464.6402,78.86107,129.04631
"33114",464.6535,78.153046,128.30269
"33115",464.66687,77.40353,127.49545
"33116",464.68018,76.646675,126.65746
"33117",464.69354,75.91669,125.822685
"33118",464.70685,75.24284,125.02124
"33119",464.7202,74.63981,124.26955
"33120",464.73352,74.110016,123.57225
"33121",464.7469,73.651024,122.9292
"33122",464.7602,73.24574,122.325516
"33123",464.77356,72.88197,121.75068
"33124",464.78687,72.55726,121.20353
"33125",464.80023,72.26917,120.68286
"33126",464.81354,72.02258,120.19469
"33127",464.8269,71.82239,119.74519
"33128",464.8402,71.673454,119.34071
"33129",464.85358,71.570915,118.97797
"33130",464.86688,71.51232,118.65596
"33131",464.88025,71.485466,118.36386
"33132",464.89355,71.485466,118.09778
"33133",464.90692,71.505,117.85123
"33134",464.92023,71.53918,117.619934
"33135",464.9336,71.5758,117.39215
"33136",464.9469,71.605095,117.15819
"33137",464.96027,71.61486,116.90561
"33138",464.97357,71.58556,116.61427
"33139",464.98694,71.50988,116.275635
"33140",465.00024,71.36828,115.86871
"33141",465.0136,71.168076,115.39877
"33142",465.02692,70.9337,114.8884
"33143",465.04028,70.784775,114.45615
"33144",465.0536,70.994736,114.37813
"33145",465.06696,71.9762,115.07817
"33146",465.08026,74.075836,116.92706
"33147",465.09363,77.35226,120.01836
"33148",465.10693,81.52224,124.1056
"33149",465.1203,86.03891,128.66985
"33150",465.1336,90.23331,133.05296
"33151",465.14697,93.52682,136.66626
"33152",465.16028,95.64843,139.21059
"33153",465.17365,96.6421,140.69327
"33154",465.18695,96.73731,141.30855
"33155",465.20032,96.20264,141.2969
"33156",465.21362,95.30175,140.90234
"33157",465.227,94.26902,140.3478
"33158",465.2403,93.27047,139.79515
"33159",465.25366,92.39155,139.33093
"33160",465.26697,91.6347,138.96132
"33161",465.28033,90.92912,138.61932
"33162",465.29364,90.17227,138.20401
"33163",465.307,89.26894,137.61856
"33164",465.3203,88.165405,136.80467
"33165",465.33368,86.88609,135.78053
"33166",465.347,85.521324,134.63095
"33167",465.36035,84.207825,133.48999
"33168",465.37366,83.070114,132.48378
"33169",465.38702,82.193634,131.70325
"33170",465.40033,81.58816,131.16632
"33171",465.4137,81.20485,130.83264
"33172",465.427,80.96071,130.62616
"33173",465.44037,80.75563,130.45111
"33174",465.45367,80.50416,130.22325
"33175",465.46704,80.15747,129.89232
"33176",465.48035,79.691154,129.43092
"33177",465.4937,79.11253,128.84265
"33178",465.50702,78.44602,128.1484
"33179",465.5204,77.72091,127.37473
"33180",465.5337,76.97627,126.558876
"33181",465.54706,76.24628,125.73439
"33182",465.56036,75.560234,124.931046
"33183",465.57373,74.93523,124.1673
"33184",465.58704,74.38102,123.45482
"33185",465.6004,73.89517,122.79338
"33186",465.6137,73.4728,122.18024
"33187",465.62708,73.10414,121.607605
"33188",465.64038,72.77699,121.064964
"33189",465.65375,72.48402,120.54627
"33190",465.66705,72.22766,120.05504
"33191",465.68042,72.007935,119.59242
"33192",465.69373,71.837036,119.17177
"33193",465.7071,71.71984,118.799484
"33194",465.7204,71.658806,118.47969
"33195",465.73376,71.64904,118.20926
"33196",465.74707,71.67101,117.97026
"33197",465.76044,71.70519,117.744156
"33198",465.77374,71.74181,117.52156
"33199",465.7871,71.763794,117.28548
"33200",465.8004,71.74914,117.01344
"33201",465.81378,71.692986,116.69945
"33202",465.8271,71.58068,116.327545
"33203",465.84045,71.40734,115.8911
"33204",465.85376,71.17784,115.39308
"33205",465.86713,70.95567,114.89522
"33206",465.88043,70.92149,114.5784
"33207",465.8938,71.42931,114.80252
"33208",465.9071,72.901505,116.00688
"33209",465.92047,75.577324,118.46088
"33210",465.93378,79.3518,122.097145
"33211",465.94714,83.79767,126.52276
"33212",465.96045,88.28016,131.12393
"33213",465.97382,92.122986,135.22551
"33214",465.98712,94.85985,138.34122
"33215",466.0005,96.378426,140.32416
"33216",466.0138,96.84718,141.30475
"33217",466.02716,96.517586,141.50162
"33218",466.04047,95.66796,141.16817
"33219",466.05383,94.557106,140.54694
"33220",466.06714,93.39742,139.84216
"33221",466.0805,92.32075,139.18416
"33222",466.0938,91.38323,138.63167
"33223",466.10718,90.548256,138.15242
"33224",466.12048,89.73037,137.66417
"33225",466.13385,88.82216,137.06003
"33226",466.14716,87.75281,136.26637
"33227",466.16052,86.519875,135.27571
"33228",466.17383,85.19905,134.15863
"33229",466.1872,83.91974,133.0418
"33230",466.2005,82.81865,132.0632
"33231",466.21387,81.988556,131.3212
"33232",466.22717,81.446556,130.84134
"33233",466.24054,81.13649,130.57648
"33234",466.25385,80.96803,130.44354
"33235",466.2672,80.83864,130.3444
"33236",466.28052,80.655525,130.1875
"33237",466.29388,80.365,129.91747
"33238",466.3072,79.940186,129.50406
"33239",466.32056,79.38598,128.94798
"33240",466.33386,78.72678,128.26959
"33241",466.34723,77.99191,127.494934
"33242",466.36053,77.22774,126.66801
"33243",466.3739,76.46845,125.82209
"33244",466.3872,75.75311,124.99639
"33245",466.40057,75.10124,124.21181
"33246",466.41388,74.53239,123.48987
"33247",466.42725,74.03677,122.823395
"33248",466.44055,73.61196,122.212234
"33249",466.45392,73.2433,121.64395
"33250",466.46722,72.91615,121.10566
"33251",466.4806,72.62562,120.59376
"33252",466.4939,72.37171,120.109406
"33253",466.50726,72.1593,119.658615
"33254",466.52057,71.993286,119.247574
"33255",466.53394,71.88342,118.8875
"33256",466.54724,71.82727,118.5777
"33257",466.5606,71.81995,118.31497
"33258",466.5739,71.84436,118.083755
"33259",466.58728,71.87854,117.86307
"33260",466.6006,71.89807,117.6288
"33261",466.61395,71.885864,117.3634
"33262",466.62726,71.81995,117.043915
"33263",466.64062,71.690544,116.65889
"33264",466.65393,71.49035,116.19902
"33265",466.6673,71.25353,115.69627
"33266",466.6806,71.08507,115.254486
"33267",466.69397,71.25353,115.14436
"33268",466.70728,72.17883,115.79634
"33269",466.72064,74.2272,117.600296
"33270",466.73395,77.47433,120.66702
"33271",466.7473,81.64187,124.75564
"33272",466.76062,86.17319,129.33827
"33273",466.774,90.3798,133.7378
"33274",466.7873,93.661095,137.34346
"33275",466.80066,95.72411,139.83339
"33276",466.81396,96.61768,141.21834
"33277",466.82733,96.57374,141.6937
"33278",466.84064,95.870605,141.50848
"33279",466.854,94.77684,140.91068
"33280",466.8673,93.541466,140.13708
"33281",466.88068,92.335396,139.35419
"33282",466.89398,91.25628,138.66055
"33283",466.90735,90.31632,138.07236
"33284",466.92065,89.44717,137.52559
"33285",466.93402,88.54139,136.91504
"33286",466.94733,87.51598,136.15656
"33287",466.9607,86.346535,135.22198
"33288",466.974,85.08186,134.15564
"33289",466.98737,83.83673,133.06932
"33290",467.00067,82.75517,132.10767
"33291",467.01404,81.94217,131.38077
"33292",467.02734,81.42947,130.92876
"33293",467.0407,81.17067,130.71463
"33294",467.05402,81.06813,130.64868
"33295",467.06738,81.004654,130.61859
"33296",467.0807,80.88014,130.52548
"33297",467.09406,80.63355,130.3064
"33298",467.10736,80.23071,129.92336
"33299",467.12073,79.68871,129.38857
"33300",467.13403,79.027084,128.71721
"33301",467.1474,78.28733,127.94705
"33302",467.1607,77.50851,127.11471
"33303",467.17407,76.72968,126.258026
"33304",467.18738,75.98749,125.413635
"33305",467.20074,75.30877,124.60953
"33306",467.21405,74.70573,123.859886
"33307",467.22742,74.1857,123.174416
"33308",467.24072,73.7438,122.55082
"33309",467.2541,73.37026,121.98178
"33310",467.2674,73.05287,121.457214
"33311",467.28076,72.781876,120.969124
"33312",467.29407,72.552376,120.51406
"33313",467.30743,72.36439,120.09334
"33314",467.32074,72.215454,119.705795
"33315",467.3341,72.10315,119.35022
"33316",467.3474,72.02014,119.02043
"33317",467.36078,71.95422,118.70514
"33318",467.37408,71.885864,118.385345
"33319",467.38745,71.79553,118.04144
"33320",467.40076,71.656364,117.64589
"33321",467.41412,71.465935,117.19472
"33322",467.42743,71.24864,116.71074
"33323",467.4408,71.11925,116.30786
"33324",467.4541,71.343864,116.25496
"33325",467.46747,72.32044,116.96103
"33326",467.48077,74.373695,118.77429
"33327",467.49414,77.54757,121.77235
"33328",467.50745,81.55886,125.707
"33329",467.5208,85.86801,130.06487
"33330",467.53412,89.81827,134.1985
"33331",467.5475,92.85298,137.54004
"33332",467.5608,94.713356,139.80206
"33333",467.57416,95.46288,141.01138
"33334",467.58746,95.32372,141.35544
"33335",467.60083,94.56199,141.07257
"33336",467.61414,93.436485,140.40213
"33337",467.6275,92.18402,139.56955
"33338",467.6408,90.968185,138.73447
"33339",467.65417,89.87686,137.9859
"33340",467.66748,88.90761,137.3253
"33341",467.68085,87.992065,136.68813
"33342",467.69415,87.030136,135.97595
"33343",467.70752,85.9559,135.12141
"33344",467.72083,84.76448,134.11612
"33345",467.7342,83.53399,133.03452
"33346",467.7475,82.39628,132.00725
"33347",467.76086,81.480736,131.1666
"33348",467.77417,80.867935,130.60007
"33349",467.78754,80.5481,130.30736
"33350",467.80084,80.44312,130.21951
"33351",467.8142,80.44068,130.23093
"33352",467.8275,80.43336,130.23738
"33353",467.84088,80.323494,130.14107
"33354",467.8542,80.07202,129.8997
"33355",467.86755,79.66674,129.49667
"33356",467.88086,79.1223,128.94182
"33357",467.89423,78.47776,128.26985
"33358",467.90753,77.77463,127.51915
"33359",467.9209,77.06416,126.73914
"33360",467.9342,76.37812,125.96136
"33361",467.94757,75.74334,125.213394
"33362",467.96088,75.1696,124.50664
"33363",467.97424,74.6569,123.84299
"33364",467.98755,74.18814,123.20726
"33365",468.00092,73.75357,122.59107
"33366",468.01422,73.33608,121.978386
"33367",468.0276,72.93324,121.3673
"33368",468.0409,72.54261,120.75584
"33369",468.05426,72.17639,120.15657
"33370",468.06757,71.83215,119.56784
"33371",468.08093,71.51232,118.99277
"33372",468.09424,71.22423,118.43944
"33373",468.1076,70.97276,117.91373
"33374",468.1209,70.76524,117.4241
"33375",468.13428,70.591896,116.96217
"33376",468.14758,70.46494,116.541214
"33377",468.16095,70.421,116.199295
"33378",468.17426,70.61387,116.09282
"33379",468.18762,71.35119,116.53682
"33380",468.20093,72.98695,117.90231
"33381",468.2143,75.69695,120.39316
"33382",468.2276,79.35668,123.91842
"33383",468.24097,83.543755,128.08539
"33384",468.25427,87.66735,132.31973
"33385",468.26764,91.12688,136.01886
"33386",468.28094,93.52682,138.76651
"33387",468.2943,94.77928,140.44168
"33388",468.30762,95.03807,141.16232
"33389",468.32098,94.540016,141.13422
"33390",468.3343,93.541466,140.59004
"33391",468.34766,92.28657,139.75832
"33392",468.36096,90.98039,138.83609
"33393",468.37433,89.7499,137.94873
"33394",468.38763,88.63416,137.13768
"33395",468.401,87.59411,136.36745
"33396",468.4143,86.536964,135.54762
"33397",468.42767,85.39193,134.60687
"33398",468.44098,84.15411,133.53755
"33399",468.45435,82.899216,132.41248
"33400",468.46765,81.761505,131.36537
"33401",468.48102,80.88014,130.53906
"33402",468.49432,80.343025,130.02945
"33403",468.5077,80.1355,129.83264
"33404",468.521,80.17456,129.87595
"33405",468.53436,80.31373,130.02057
"33406",468.54767,80.428474,130.14513
"33407",468.56104,80.41871,130.14876
"33408",468.57434,80.23071,129.97385
"33409",468.5877,79.84253,129.59286
"33410",468.601,79.27856,129.02397
"33411",468.61438,78.58274,128.3056
"33412",468.6277,77.81613,127.494705
"33413",468.64105,77.04707,126.6574
"33414",468.65436,76.33906,125.85711
"33415",468.66772,75.72869,125.13234
"33416",468.68103,75.22331,124.493484
"33417",468.6944,74.8156,123.9365
"33418",468.7077,74.476234,123.43513
"33419",468.72107,74.17349,122.95977
"33420",468.73438,73.882965,122.48717
"33421",468.74774,73.599754,122.0128
"33422",468.76105,73.31411,121.52715
"33423",468.7744,73.01869,121.022804
"33424",468.78772,72.71595,120.5019
"33425",468.8011,72.42542,119.98375
"33426",468.8144,72.20569,119.52731
"33427",468.82776,72.215454,119.2935
"33428",468.84106,72.740364,119.57515
"33429",468.85443,74.06851,120.67644
"33430",468.86774,76.33662,122.759186
"33431",468.8811,79.42748,125.73557
"33432",468.8944,83.001755,129.29195
"33433",468.90778,86.56382,132.94781
"33434",468.92108,89.6083,136.19742
"33435",468.93445,91.790955,138.68033
"33436",468.94775,93.019,140.27684
"33437",468.96112,93.385216,141.0499
"33438",468.97443,93.0605,141.14346
"33439",468.9878,92.25727,140.74837
"33440",469.0011,91.20012,140.07425
"33441",469.01447,90.08194,139.30608
"33442",469.02777,89.022354,138.56155
