"","Time..s.","PPG.trace","Preprocessed.PPG"
"952",21.428131,76.52705,76.31339
"953",21.441467,76.541695,76.21951
"954",21.454803,76.558784,76.12853
"955",21.46814,76.578316,76.04053
"956",21.481476,76.63203,75.98731
"957",21.494781,76.76875,76.01879
"958",21.508118,77.06172,76.210785
"959",21.521454,77.58907,76.64632
"960",21.53479,78.40696,77.38886
"961",21.548126,79.635,78.56712
"962",21.561462,81.41238,80.33309
"963",21.574799,83.67559,82.64044
"964",21.588135,86.082855,85.16257
"965",21.60147,88.18738,87.45718
"966",21.614807,89.59121,89.11687
"967",21.628113,90.06241,89.887794
"968",21.641449,89.61562,89.75546
"969",21.654785,88.55848,88.99881
"970",21.668121,87.31335,88.02113
"971",21.681458,86.13901,87.07533
"972",21.694794,85.09895,86.22712
"973",21.70813,84.18097,85.468475
"974",21.721466,83.34844,84.7666
"975",21.734802,82.5745,84.0973
"976",21.748138,81.85672,83.45997
"977",21.761475,81.20729,82.86856
"978",21.77478,80.64088,82.339874
"979",21.788116,80.17456,81.893585
"980",21.801453,79.823,81.54748
"981",21.814789,79.57641,81.29536
"982",21.828125,79.415276,81.12099
"983",21.841461,79.30541,80.99285
"984",21.854797,79.219955,80.88569
"985",21.868134,79.12962,80.77098
"986",21.88147,79.01488,80.629036
"987",21.894806,78.86839,80.45177
"988",21.908112,78.68772,80.23573
"989",21.921448,78.4802,79.987206
"990",21.934784,78.25315,79.71266
"991",21.94812,78.02121,79.42613
"992",21.961456,77.79416,79.137245
"993",21.974792,77.58419,78.858345
"994",21.988129,77.38644,78.5851
"995",22.001465,77.21553,78.33252
"996",22.014801,77.06416,78.09414
"997",22.028137,76.93477,77.873
"998",22.041473,76.824905,77.66735
"999",22.05478,76.734566,77.47779
"1000",22.068115,76.65888,77.300064
"1001",22.081451,76.595406,77.13218
"1002",22.094788,76.53925,76.969635
"1003",22.108124,76.49287,76.8151
"1004",22.12146,76.45869,76.671326
"1005",22.134796,76.43427,76.53625
"1006",22.148132,76.41718,76.40773
"1007",22.161469,76.42451,76.30309
"1008",22.174805,76.50019,76.267044
"1009",22.18814,76.70771,76.3652
"1010",22.201447,77.11543,76.67004
"1011",22.214783,77.77951,77.24397
"1012",22.228119,78.75365,78.14872
"1013",22.241455,80.13794,79.494064
"1014",22.254791,81.97391,81.33434
"1015",22.268127,84.10773,83.52985
"1016",22.281464,86.185394,85.73588
"1017",22.2948,87.833374,87.57715
"1018",22.308136,88.77089,88.75946
"1019",22.321472,88.87099,89.13365
"1020",22.334808,88.24597,88.78586
"1021",22.348114,87.22789,88.02547
"1022",22.36145,86.14633,87.16978
"1023",22.374786,85.16487,86.38039
"1024",22.388123,84.30793,85.684845
"1025",22.401459,83.546196,85.05773
"1026",22.414795,82.84062,84.462975
"1027",22.428131,82.16678,83.8779
"1028",22.441467,81.52468,83.30351
"1029",22.454803,80.93141,82.75789
"1030",22.46814,80.41627,82.27185
"1031",22.481445,80.00122,81.86981
"1032",22.494781,79.693596,81.562225
"1033",22.508118,79.49096,81.35001
"1034",22.521454,79.364006,81.20715
"1035",22.53479,79.27856,81.10183
"1036",22.548126,79.20531,81.006035
"1037",22.561462,79.114975,80.89087
"1038",22.574799,78.995346,80.74358
"1039",22.588135,78.84154,80.55838
"1040",22.60147,78.658424,80.339066
"1041",22.614807,78.45579,80.094505
"1042",22.628113,78.24582,79.83628
"1043",22.641449,78.028534,79.56418
"1044",22.654785,77.81613,79.29017
"1045",22.668121,77.61349,79.01928
"1046",22.681458,77.4255,78.756714
"1047",22.694794,77.25216,78.50292
"1048",22.70813,77.09834,78.26324
"1049",22.721466,76.961624,78.03584
"1050",22.734802,76.84688,77.82615
"1051",22.748138,76.749214,77.62995
"1052",22.761444,76.67353,77.45268
"1053",22.77478,76.612495,77.2877
"1054",22.788116,76.561226,77.13057
"1055",22.801453,76.51728,76.979164
"1056",22.814789,76.4831,76.83615
"1057",22.828125,76.45869,76.701836
"1058",22.841461,76.456245,76.58873
"1059",22.854797,76.5124,76.53414
"1060",22.868134,76.69306,76.60582
"1061",22.88147,77.07393,76.88335
"1062",22.894806,77.730675,77.448654
"1063",22.908112,78.79515,78.442215
"1064",22.921448,80.50904,80.118454
"1065",22.934784,82.97978,82.6051
"1066",22.94812,85.94858,85.667015
"1067",22.961456,88.89296,88.79729
"1068",22.974792,91.27581,91.45804
"1069",22.988129,92.65278,93.18738
"1070",23.001465,92.823685,93.753685
"1071",23.014801,91.98871,93.31945
"1072",23.028137,90.633705,92.339096
"1073",23.041473,89.19325,91.23095
"1074",23.05478,87.86023,90.18521
"1075",23.068115,86.69077,89.26138
"1076",23.081451,85.66537,88.44506
"1077",23.094788,84.73029,87.68703
"1078",23.108124,83.8465,86.95105
"1079",23.12146,82.98711,86.21186
"1080",23.134796,82.16434,85.48244
"1081",23.148132,81.39529,84.78102
"1082",23.161469,80.719,84.14834
"1083",23.174805,80.15503,83.606834
"1084",23.18814,79.71557,83.17222
"1085",23.201447,79.38354,82.8313
"1086",23.214783,79.132065,82.56056
"1087",23.228119,78.93431,82.335686
"1088",23.241455,78.76341,82.131485
"1089",23.254791,78.590065,81.919495
"1090",23.268127,78.399635,81.685005
"1091",23.281464,78.184784,81.42014
"1092",23.2948,77.93576,81.114395
"1093",23.308136,77.662315,80.77644
"1094",23.321472,77.36935,80.41042
"1095",23.334778,77.07881,80.03768
"1096",23.348114,76.81026,79.67784
"1097",23.36145,76.56611,79.334015
"1098",23.374786,76.35615,79.01675
"1099",23.388123,76.1828,78.72953
"1100",23.401459,76.036316,78.46376
"1101",23.414795,75.90936,78.212944
"1102",23.428131,75.7995,77.97525
"1103",23.441467,75.70916,77.75365
"1104",23.454803,75.63348,77.54388
"1105",23.46814,75.57244,77.34639
"1106",23.481445,75.52117,77.15676
"1107",23.494781,75.47723,76.972855
"1108",23.508118,75.43328,76.787575
"1109",23.521454,75.40154,76.61313
"1110",23.53479,75.39178,76.45966
"1111",23.548126,75.44305,76.36693
"1112",23.561462,75.62615,76.40763
"1113",23.574799,76.02411,76.66891
"1114",23.588135,76.71992,77.24047
"1115",23.60147,77.89914,78.31719
"1116",23.614777,79.84009,80.19249
"1117",23.628113,82.61356,82.96097
"1118",23.641449,85.907074,86.33615
"1119",23.654785,89.161514,89.775185
"1120",23.668121,91.78851,92.68848
"1121",23.681458,93.30709,94.57545
"1122",23.694794,93.52926,95.21346
"1123",23.70813,92.70649,94.813484
"1124",23.721466,91.353935,93.85801
"1125",23.734802,89.89151,92.7504
"1126",23.748138,88.52186,91.68986
"1127",23.761444,87.30358,90.737885
"1128",23.77478,86.22446,89.88699
"1129",23.788116,85.23567,89.09272
"1130",23.801453,84.283516,88.30418
"1131",23.814789,83.34112,87.495636
"1132",23.828125,82.408485,86.66741
"1133",23.841461,81.50271,85.8369
"1134",23.854797,80.66529,85.04644
"1135",23.868134,79.93042,84.33236
"1136",23.88147,79.31762,83.717384
"1137",23.894806,78.82689,83.20533
"1138",23.908112,78.4387,82.78048
"1139",23.921448,78.12375,82.41674
"1140",23.934784,77.855194,82.089554
"1141",23.94812,77.60616,81.7735
"1142",23.961456,77.35714,81.44967
"1143",23.974792,77.09102,81.10096
"1144",23.988129,76.80293,80.72197
"1145",24.001465,76.50019,80.31932
"1146",24.014801,76.192566,79.90233
"1147",24.028137,75.88983,79.48061
"1148",24.041473,75.6115,79.073845
"1149",24.05478,75.36004,78.68524
"1150",24.068115,75.140305,78.32051
"1151",24.081451,74.94499,77.973335
"1152",24.094788,74.776535,77.64691
"1153",24.108124,74.634926,77.34207
"1154",24.12146,74.52262,77.06211
"1155",24.134796,74.42985,76.79817
"1156",24.148132,74.36149,76.55575
"1157",24.161469,74.322426,76.340485
"1158",24.174805,74.30045,76.14109
"1159",24.18811,74.29801,75.96054
"1160",24.201447,74.31022,75.79456
"1161",24.214783,74.33463,75.641174
"1162",24.228119,74.35905,75.48855
"1163",24.241455,74.3859,75.33913
"1164",24.254791,74.40299,75.18078
"1165",24.268127,74.4152,75.01808
"1166",24.281464,74.43229,74.86065
"1167",24.2948,74.48112,74.73549
"1168",24.308136,74.62272,74.70463
"1169",24.321472,74.93767,74.85154
"1170",24.334778,75.51629,75.271965
"1171",24.348114,76.419624,76.03519
"1172",24.36145,77.69894,77.202614
"1173",24.374786,79.432365,78.864136
"1174",24.388123,81.59304,81.00707
"1175",24.401459,83.95636,83.42017
"1176",24.414795,86.153656,85.741104
"1177",24.428131,87.84802,87.62777
"1178",24.441467,88.82704,88.852036
"1179",24.454803,89.03456,89.3354
"1180",24.46811,88.636604,89.21977
"1181",24.481445,87.953,88.80606
"1182",24.494781,87.24254,88.34413
"1183",24.508118,86.598,87.92592
"1184",24.521454,86.00961,87.54372
"1185",24.53479,85.4432,87.1651
"1186",24.548126,84.86214,86.754135
"1187",24.561462,84.24689,86.290825
"1188",24.574799,83.58526,85.76191
"1189",24.588135,82.89189,85.18058
"1190",24.60147,82.19119,84.57025
"1191",24.614777,81.5198,83.96733
"1192",24.628113,80.91188,83.406906
"1193",24.641449,80.394295,82.917816
"1194",24.654785,79.95972,82.49556
"1195",24.668121,79.605705,82.14029
"1196",24.681458,79.31274,81.835
"1197",24.694794,79.061264,81.56205
"1198",24.70813,78.82689,81.29834
"1199",24.721466,78.59495,81.02974
"1200",24.734802,78.35325,80.74413
"1201",24.748138,78.09445,80.433876
"1202",24.761444,77.81125,80.091125
"1203",24.77478,77.51583,79.72731
"1204",24.788116,77.21797,79.35182
"1205",24.801453,76.929886,78.9768
"1206",24.814789,76.65156,78.60253
"1207",24.828125,76.40009,78.24643
"1208",24.841461,76.17059,77.904434
"1209",24.854797,75.96796,77.58213
"1210",24.868134,75.79462,77.28279
"1211",24.88147,75.650566,77.007324
"1212",24.894806,75.53338,76.75422
"1213",24.908142,75.440605,76.521866
"1214",24.921478,75.369804,76.308586
"1215",24.934814,75.31365,76.10774
"1216",24.94815,75.27459,75.92223
"1217",24.961456,75.24773,75.7477
"1218",24.974792,75.23796,75.58943
"1219",24.988129,75.2404,75.44306
"1220",25.001465,75.25506,75.30898
"1221",25.014801,75.27947,75.18512
"1222",25.028137,75.31121,75.06934
"1223",25.041473,75.34539,74.957
"1224",25.05481,75.38201,74.84817
"1225",25.068146,75.421074,74.74292
"1226",25.081482,75.46258,74.641335
"1227",25.094818,75.51873,74.555695
"1228",25.108154,75.5993,74.49622
"1229",25.12149,75.74822,74.50763
"1230",25.134827,76.0412,74.66774
"1231",25.148163,76.575874,75.078705
"1232",25.161499,77.45968,75.85551
"1233",25.174835,78.86595,77.182396
"1234",25.18814,81.02174,79.30275
"1235",25.201477,83.95148,82.26441
"1236",25.214813,87.31823,85.75465
"1237",25.22815,90.57511,89.24022
"1238",25.241486,93.21675,92.21233
"1239",25.254822,94.8452,94.25381
"1240",25.268158,95.33105,95.20357
"1241",25.281494,94.90379,95.25541
"1242",25.29483,94.01755,94.83491
"1243",25.308167,93.01167,94.26708
"1244",25.321503,92.018005,93.68003
"1245",25.334839,91.07805,93.11564
"1246",25.348175,90.18448,92.56826
"1247",25.361511,89.29336,91.99541
"1248",25.374847,88.37293,91.3654
"1249",25.388153,87.398796,90.65292
"1250",25.40149,86.37095,89.85629
"1251",25.414825,85.31869,89.00312
"1252",25.428162,84.2884,88.13904
"1253",25.441498,83.32647,87.31112
"1254",25.454834,82.46952,86.55812
"1255",25.46817,81.7322,85.89797
"1256",25.481506,81.10719,85.327095
"1257",25.494843,80.5774,84.8319
"1258",25.508179,80.13306,84.4056
"1259",25.521515,79.742424,84.01913
"1260",25.534851,79.3933,83.66196
"1261",25.548187,79.063705,83.3134
"1262",25.561523,78.74387,82.96431
"1263",25.57486,78.41917,82.60035
"1264",25.588196,78.08957,82.22135
"1265",25.601532,77.7551,81.82718
"1266",25.614838,77.42794,81.42987
"1267",25.628174,77.11299,81.034546
"1268",25.64151,76.82002,80.65136
"1269",25.654846,76.54658,80.27854
"1270",25.668182,76.297554,79.9216
"1271",25.681519,76.06561,79.57396
"1272",25.694855,75.85809,79.24349
"1273",25.70819,75.6701,78.92606
"1274",25.721527,75.50652,78.62718
"1275",25.734863,75.36492,78.34516
"1276",25.7482,75.25262,78.08801
"1277",25.761536,75.159836,77.84688
"1278",25.774872,75.09636,77.63215
"1279",25.788208,75.05974,77.44229
"1280",25.801544,75.04509,77.27326
"1281",25.81485,75.052414,77.12575
"1282",25.828186,75.07439,76.99311
"1283",25.841522,75.106125,76.870926
"1284",25.854858,75.142746,76.754616
"1285",25.868195,75.176926,76.63701
"1286",25.88153,75.211105,76.52047
"1287",25.894867,75.23796,76.397675
"1288",25.908203,75.25994,76.27084
"1289",25.92154,75.27947,76.14225
"1290",25.934875,75.299,76.01427
"1291",25.948212,75.34051,75.90887
"1292",25.961548,75.457695,75.88045
"1293",25.974884,75.72869,76.0095
"1294",25.98822,76.23407,76.3814
"1295",26.001556,77.05928,77.08893
"1296",26.014893,78.41428,78.352036
"1297",26.028229,80.5359,80.424095
"1298",26.041534,83.407036,83.31198
"1299",26.05487,86.659035,86.67045
"1300",26.068207,89.74258,89.96208
"1301",26.081543,92.10834,92.6323
"1302",26.09488,93.348595,94.250946
"1303",26.108215,93.37057,94.69006
"1304",26.121552,92.48432,94.22165
"1305",26.134888,91.175705,93.30317
"1306",26.148224,89.78165,92.258354
"1307",26.16156,88.4535,91.235886
"1308",26.174896,87.22789,90.274445
"1309",26.188232,86.09262,89.36504
"1310",26.201569,85.015945,88.47876
"1311",26.214905,83.97345,87.59301
"1312",26.228241,82.96025,86.70398
"1313",26.241547,81.98367,85.81991
"1314",26.254883,81.05348,84.951706
"1315",26.268219,80.20874,84.139885
"1316",26.281555,79.466545,83.40421
"1317",26.294891,78.84154,82.762535
"1318",26.308228,78.33372,82.21851
"1319",26.321564,77.9382,81.77093
"1320",26.3349,77.63058,81.39887
"1321",26.348236,77.39132,81.08557
"1322",26.361572,77.188675,80.80141
"1323",26.374908,77.00313,80.52801
"1324",26.388245,76.8127,80.24393
"1325",26.40158,76.612495,79.94412
"1326",26.414917,76.40009,79.62586
"1327",26.428253,76.175476,79.28875
"1328",26.44159,75.945984,78.93974
"1329",26.454926,75.716484,78.58356
"1330",26.468231,75.49676,78.22997
"1331",26.481567,75.299,77.891495
"1332",26.494904,75.125656,77.57124
"1333",26.50824,74.98161,77.27488
"1334",26.521576,74.85954,76.99599
"1335",26.534912,74.757,76.73281
"1336",26.548248,74.669106,76.48107
"1337",26.561584,74.59586,76.24124
"1338",26.57492,74.53727,76.01377
"1339",26.588257,74.50065,75.80644
"1340",26.601593,74.48356,75.6175
"1341",26.61493,74.48356,75.445114
"1342",26.628265,74.495766,75.284935
"1343",26.641602,74.510414,75.12758
"1344",26.654938,74.52506,74.97068
"1345",26.668243,74.53727,74.8118
"1346",26.68158,74.54948,74.6533
"1347",26.694916,74.55924,74.49274
"1348",26.708252,74.57389,74.337364
"1349",26.721588,74.60319,74.1971
"1350",26.734924,74.69352,74.11878
"1351",26.74826,74.91325,74.17269
"1352",26.761597,75.36004,74.46052
"1353",26.774933,76.207214,75.1627
"1354",26.788269,77.86496,76.70192
"1355",26.801605,80.726326,79.49657
"1356",26.814941,84.78401,83.57695
"1357",26.828278,89.564354,88.50679
"1358",26.841614,94.35447,93.595795
"1359",26.85495,98.35111,98.041016
"1360",26.868286,100.84383,101.1072
"1361",26.881622,101.58602,102.50076
"1362",26.894928,100.88777,102.47707
"1363",26.908264,99.29107,101.53311
"1364",26.9216,97.21095,100.05584
"1365",26.934937,94.97948,98.362206
"1366",26.948273,92.81392,96.66476
"1367",26.961609,90.78752,95.038795
"1368",26.974945,88.885635,93.47402
"1369",26.988281,87.064316,91.930374
"1370",27.001617,85.28207,90.36888
"1371",27.014954,83.543755,88.79563
"1372",27.02829,81.88602,87.248634
"1373",27.041626,80.37476,85.79632
"1374",27.054962,79.061264,84.49453
"1375",27.068298,77.977264,83.381195
"1376",27.081635,77.11299,82.45371
"1377",27.09494,76.439156,81.68966
"1378",27.108276,75.914246,81.053474
"1379",27.121613,75.50408,80.51563
"1380",27.134949,75.176926,80.04798
"1381",27.148285,74.898605,79.61894
"1382",27.161621,74.652016,79.21294
"1383",27.174957,74.41032,78.804115
"1384",27.188293,74.16373,78.38285
"1385",27.20163,73.900055,77.9368
"1386",27.214966,73.633934,77.48006
"1387",27.228302,73.37759,77.02477
"1388",27.241638,73.14076,76.581
"1389",27.254974,72.92348,76.14937
"1390",27.26831,72.7306,75.73535
"1391",27.281647,72.55726,75.33484
"1392",27.294983,72.40101,74.946
"1393",27.30832,72.271614,74.57913
"1394",27.321625,72.166626,74.232635
"1395",27.33496,72.095825,73.91704
"1396",27.348297,72.05676,73.63097
"1397",27.361633,72.04944,73.37541
"1398",27.37497,72.061646,73.13916
"1399",27.388306,72.095825,72.92526
"1400",27.401642,72.14465,72.72708
"1401",27.414978,72.20813,72.545074
"1402",27.428314,72.2765,72.36995
"1403",27.44165,72.35706,72.20915
"1404",27.454987,72.45716,72.070404
"1405",27.468323,72.60609,71.98361
"1406",27.481659,72.86977,72.016235
"1407",27.494995,73.35073,72.27438
"1408",27.508331,74.1564,72.87227
"1409",27.521637,75.55535,74.08861
"1410",27.534973,77.8674,76.261765
"1411",27.54831,81.13649,79.46421
"1412",27.561646,84.947586,83.31082
"1413",27.574982,88.65858,87.17642
"1414",27.588318,91.60784,90.39627
"1415",27.601654,93.25094,92.402115
"1416",27.61499,93.41451,92.97978
"1417",27.628326,92.41108,92.39555
"1418",27.641663,90.81926,91.19158
"1419",27.654999,89.08095,89.791374
"1420",27.668335,87.42809,88.4223
"1421",27.681671,85.960785,87.18712
"1422",27.695007,84.69123,86.103836
"1423",27.708344,83.57549,85.1347
"1424",27.72168,82.55985,84.23079
"1425",27.735016,81.61013,83.36106
"1426",27.748322,80.71168,82.512924
"1427",27.761658,79.886475,81.70996
"1428",27.774994,79.15648,80.97642
"1429",27.78833,78.54856,80.34214
"1430",27.801666,78.0676,79.81582
"1431",27.815002,77.70138,79.38921
"1432",27.828339,77.43282,79.04883
"1433",27.841675,77.225296,78.76108
"1434",27.855011,77.049515,78.49859
"1435",27.868347,76.89082,78.247696
"1436",27.881683,76.732124,77.99184
"1437",27.89502,76.561226,77.71882
"1438",27.908356,76.37568,77.42581
"1439",27.921692,76.175476,77.11235
"1440",27.935028,75.965515,76.782875
"1441",27.948334,75.75311,76.4444
"1442",27.96167,75.55047,76.10904
"1443",27.975006,75.36736,75.78689
"1444",27.988342,75.211105,75.48586
"1445",28.001678,75.08171,75.20682
"1446",28.015015,74.97917,74.950584
"1447",28.02835,74.896164,74.71068
"1448",28.041687,74.830246,74.48527
"1449",28.055023,74.78386,74.27733
"1450",28.06836,74.757,74.08747
"1451",28.081696,74.74479,73.911415
"1452",28.095032,74.74967,73.752075
"1453",28.108368,74.77165,73.609985
"1454",28.121704,74.79851,73.47346
"1455",28.13504,74.83757,73.349976
"1456",28.148376,74.8864,73.23748
"1457",28.161713,74.966965,73.15825
"1458",28.175018,75.123215,73.15722
"1459",28.188354,75.43816,73.31977
"1460",28.20169,76.00946,73.74851
"1461",28.215027,76.95186,74.56621
"1462",28.228363,78.52659,76.045685
"1463",28.2417,80.94118,78.41423
"1464",28.255035,84.06378,81.566246
"1465",28.268372,87.38659,85.016045
"1466",28.281708,90.29679,88.157074
"1467",28.295044,92.25483,90.43689
"1468",28.30838,92.92134,91.48637
"1469",28.321716,92.34516,91.31398
"1470",28.335052,90.97795,90.33256
"1471",28.348389,89.36172,89.05939
"1472",28.361725,87.79675,87.78698
"1473",28.37503,86.400246,86.634125
"1474",28.388367,85.19173,85.62561
"1475",28.401703,84.13458,84.730705
"1476",28.41504,83.17998,83.905304
"1477",28.428375,82.29374,83.11844
"1478",28.441711,81.463646,82.36002
"1479",28.455048,80.69215,81.63426
"1480",28.468384,80.00122,80.964966
"1481",28.48172,79.412834,80.37662
"1482",28.495056,78.93431,79.879745
"1483",28.508392,78.56321,79.47534
"1484",28.521729,78.28245,79.14968
"1485",28.535065,78.0676,78.88116
"1486",28.5484,77.88693,78.64011
"1487",28.561737,77.71847,78.40561
"1488",28.575073,77.540245,78.15609
"1489",28.58841,77.34493,77.88391
"1490",28.601715,77.13008,77.58609
"1491",28.615051,76.90059,77.266914
"1492",28.628387,76.66621,76.93568
"1493",28.641724,76.4416,76.60689
"1494",28.65506,76.22919,76.28328
"1495",28.668396,76.033875,75.97013
"1496",28.681732,75.862976,75.67529
"1497",28.695068,75.718925,75.40196
"1498",28.708405,75.5993,75.14855
"1499",28.72174,75.50652,74.91826
"1500",28.735077,75.43084,74.702156
"1501",28.748413,75.38201,74.510544
"1502",28.76175,75.35027,74.334496
"1503",28.775085,75.335625,74.174545
"1504",28.788422,75.34051,74.03367
"1505",28.801727,75.36004,73.90759
"1506",28.815063,75.386894,73.78945
"1507",28.8284,75.41863,73.67703
"1508",28.841736,75.44793,73.56316
"1509",28.855072,75.48455,73.457535
"1510",28.868408,75.55291,73.38479
"1511",28.881744,75.699394,73.3923
"1512",28.89508,76.00458,73.563095
"1513",28.908417,76.558784,73.99245
"1514",28.921753,77.4255,74.751625
"1515",28.93509,78.67063,75.916306
"1516",28.948425,80.36988,77.57401
"1517",28.961761,82.47929,79.69498
"1518",28.975098,84.72297,82.016136
"1519",28.988434,86.70054,84.1413
"1520",29.00177,88.06287,85.71301
"1521",29.015106,88.61463,86.51674
"1522",29.028412,88.343636,86.51495
"1523",29.041748,87.47936,85.91142
"1524",29.055084,86.37827,85.04407
"1525",29.06842,85.32845,84.193565
"1526",29.081757,84.41291,83.444534
"1527",29.095093,83.62188,82.791405
"1528",29.108429,82.91142,82.19413
"1529",29.121765,82.25468,81.628365
"1530",29.135101,81.634544,81.07869
"1531",29.148438,81.0486,80.54382
"1532",29.161774,80.51148,80.039474
"1533",29.17511,80.045166,79.58914
"1534",29.188446,79.67162,79.21701
"1535",29.201782,79.38842,78.923546
"1536",29.215118,79.1931,78.709114
"1537",29.228424,79.06615,78.556946
"1538",29.24176,78.98314,78.444756
"1539",29.255096,78.91478,78.34462
"1540",29.268433,78.84642,78.24235
"1541",29.281769,78.75853,78.11841
"1542",29.295105,78.64622,77.9673
"1543",29.308441,78.5095,77.78828
"1544",29.321777,78.35569,77.58789
"1545",29.335114,78.18967,77.37048
"1546",29.34845,78.02121,77.145454
"1547",29.361786,77.86008,76.922485
"1548",29.375122,77.70626,76.7018
"1549",29.388458,77.56954,76.4934
"1550",29.401794,77.45724,76.305145
"1551",29.41513,77.36202,76.13047
"1552",29.428467,77.2839,75.96991
"1553",29.441803,77.22041,75.82155
"1554",29.455109,77.16914,75.68342
"1555",29.468445,77.12764,75.55345
"1556",29.481781,77.100784,75.43684
"1557",29.495117,77.083694,75.32915
"1558",29.508453,77.07637,75.23069
"1559",29.52179,77.07149,75.134445
"1560",29.535126,77.07393,75.04537
"1561",29.548462,77.086136,74.96614
"1562",29.561798,77.11055,74.8995
"1563",29.575134,77.17647,74.87512
"1564",29.58847,77.33517,74.94559
"1565",29.601807,77.66476,75.1919
"1566",29.615143,78.238495,75.692665
"1567",29.628479,79.10521,76.50433
"1568",29.641815,80.26002,77.63118
"1569",29.65512,81.66628,79.04557
"1570",29.668457,83.22148,80.65284
"1571",29.681793,84.754715,82.28674
"1572",29.69513,86.065765,83.746376
"1573",29.708466,86.976425,84.84659
"1574",29.721802,87.40124,85.48941
"1575",29.735138,87.33532,85.654785
"1576",29.748474,86.87633,85.42502
"1577",29.76181,86.19272,84.95629
"1578",29.775146,85.44564,84.40273
"1579",29.788483,84.72297,83.850235
"1580",29.801819,84.054016,83.32887
"1581",29.815155,83.43145,82.83299
"1582",29.828491,82.845505,82.35428
"1583",29.841827,82.2913,81.88899
"1584",29.855164,81.778595,81.44789
"1585",29.8685,81.3196,81.04448
"1586",29.881805,80.93141,80.697525
"1587",29.895142,80.62623,80.42145
"1588",29.908478,80.4065,80.22129
"1589",29.921814,80.255135,80.08263
"1590",29.93515,80.147705,79.98317
"1591",29.948486,80.0647,79.90478
"1592",29.961823,79.98657,79.828674
"1593",29.975159,79.89624,79.73792
"1594",29.988495,79.781494,79.619934
"1595",30.001831,79.635,79.46661
"1596",30.015167,79.4641,79.28431
"1597",30.028503,79.273674,79.07713
"1598",30.04184,79.06859,78.84935
"1599",30.055176,78.86595,78.61761
"1600",30.068512,78.67307,78.38929
"1601",30.081818,78.49241,78.16716
"1602",30.095154,78.32639,77.95403
"1603",30.10849,78.17502,77.75036
"1604",30.121826,78.04562,77.563934
"1605",30.135162,77.93576,77.393
"1606",30.148499,77.84543,77.23816
"1607",30.161835,77.769745,77.095146
"1608",30.17517,77.70382,76.959526
"1609",30.188507,77.65011,76.83406
"1610",30.201843,77.60128,76.7118
"1611",30.21518,77.55245,76.58801
"1612",30.228516,77.51827,76.47735
"1613",30.241852,77.503624,76.38515
"1614",30.255188,77.53048,76.33399
"1615",30.268524,77.65255,76.37889
"1616",30.28186,77.94797,76.60095
"1617",30.295197,78.485085,77.073944
"1618",30.308502,79.30785,77.84937
"1619",30.321838,80.413826,78.933716
"1620",30.335175,81.74929,80.28211
"1621",30.34851,83.22148,81.80897
"1622",30.361847,84.67414,83.3623
"1623",30.375183,85.926605,84.760826
"1624",30.38852,86.82506,85.84448
"1625",30.401855,87.28161,86.51431
"1626",30.415192,87.28649,86.74675
"1627",30.428528,86.91295,86.60091
"1628",30.441864,86.30747,86.21146
"1629",30.4552,85.60677,85.70786
"1630",30.468536,84.910965,85.18726
"1631",30.481873,84.25178,84.68154
"1632",30.495209,83.62676,84.18939
"1633",30.508514,83.02373,83.69969
"1634",30.52185,82.43534,83.205795
"1635",30.535187,81.87137,82.717926
"1636",30.548523,81.35134,82.25638
"1637",30.56186,80.89479,81.84206
"1638",30.575195,80.52125,81.496475
"1639",30.588531,80.22583,81.21735
"1640",30.601868,80.00366,81.002235
"1641",30.615204,79.83276,80.83145
"1642",30.62854,79.691154,80.684616
"1643",30.641876,79.55932,80.54313
"1644",30.655212,79.42504,80.39508
"1645",30.668549,79.27123,80.223305
"1646",30.681885,79.097885,80.02718
"1647",30.69522,78.905014,79.80612
"1648",30.708557,78.69993,79.56682
"1649",30.721893,78.487526,79.31379
"1650",30.735199,78.2678,79.0468
"1651",30.748535,78.05295,78.77782
"1652",30.761871,77.84543,78.50945
"1653",30.775208,77.65499,78.251686
"1654",30.788544,77.48165,78.005066
"1655",30.80188,77.330284,77.775
"1656",30.815216,77.20332,77.56461
"1657",30.828552,77.100784,77.37468
"1658",30.841888,77.01289,77.19619
"1659",30.855225,76.93965,77.0296
"1660",30.86856,76.87862,76.87293
"1661",30.881897,76.81758,76.714355
"1662",30.895233,76.75899,76.55631
"1663",30.90857,76.715034,76.41108
"1664",30.921906,76.69062,76.28401
"1665",30.935211,76.7248,76.214775
"1666",30.948547,76.88838,76.27601
"1667",30.961884,77.25216,76.54255
"1668",30.97522,77.874725,77.07925
"1669",30.988556,78.785385,77.92349
"1670",31.001892,79.96216,79.06231
"1671",31.015228,81.31716,80.41613
"1672",31.028564,82.738075,81.878204
"1673",31.0419,84.08331,83.309006
"1674",31.055237,85.21126,84.56455
"1675",31.068573,86.00229,85.51843
"1676",31.08191,86.41001,86.11372
"1677",31.095245,86.43931,86.34333
"1678",31.108582,86.16098,86.26623
"1679",31.121918,85.68734,85.985115
"1680",31.135254,85.13069,85.60619
"1681",31.14859,84.56428,85.20011
"1682",31.161896,84.00519,84.78365
"1683",31.175232,83.46075,84.36437
"1684",31.188568,82.916306,83.92808
"1685",31.201904,82.36942,83.47233
"1686",31.21524,81.83475,83.011696
"1687",31.228577,81.32937,82.56365
"1688",31.241913,80.87526,82.151085
"1689",31.255249,80.49439,81.79757
"1690",31.268585,80.198975,81.5176
"1691",31.281921,79.97925,81.30409
"1692",31.295258,79.82056,81.14475
"1693",31.308594,79.693596,81.012184
"1694",31.32193,79.57641,80.88542
"1695",31.335266,79.44457,80.74035
"1696",31.348602,79.293205,80.571625
"1697",31.361908,79.114975,80.37131
"1698",31.375244,78.91478,80.143456
"1699",31.38858,78.69749,79.89225
"1700",31.401917,78.47288,79.62694
"1701",31.415253,78.25315,79.35949
"1702",31.428589,78.0383,79.09005
"1703",31.441925,77.838104,78.82855
"1704",31.455261,77.65743,78.58032
"1705",31.468597,77.4963,78.345985
"1706",31.481934,77.35226,78.1237
"1707",31.49527,77.22774,77.91644
"1708",31.508606,77.12764,77.72971
"1709",31.521942,77.04707,77.55939
"1710",31.535278,76.9836,77.40363
"1711",31.548615,76.93477,77.260544
"1712",31.56195,76.893265,77.12325
"1713",31.575287,76.85176,76.984665
"1714",31.588593,76.805374,76.8399
"1715",31.601929,76.76387,76.69856
"1716",31.615265,76.74189,76.575455
"1717",31.628601,76.77852,76.51027
"1718",31.641937,76.93721,76.56829
"1719",31.655273,77.298546,76.833916
"1720",31.66861,77.9382,77.38915
"1721",31.681946,78.89525,78.28177
"1722",31.695282,80.19653,79.54853
"1723",31.708618,81.829865,81.188
"1724",31.721954,83.69268,83.108
"1725",31.73529,85.53109,85.061806
"1726",31.748627,87.05211,86.75567
"1727",31.761963,88.026245,87.95018
"1728",31.7753,88.358284,88.533035
"1729",31.788605,88.08728,88.523224
"1730",31.80194,87.40856,88.09723
"1731",31.815277,86.588234,87.50842
"1732",31.828613,85.80942,86.935486
"1733",31.84195,85.12581,86.43342
"1734",31.855286,84.52033,85.98812
"1735",31.868622,83.9588,85.56785
"1736",31.881958,83.407036,85.13979
"1737",31.895294,82.847946,84.68717
"1738",31.90863,82.27909,84.20731
"1739",31.921967,81.71999,83.71944
"1740",31.935303,81.19508,83.248276
"1741",31.948639,80.72877,82.819305
"1742",31.961975,80.3357,82.44901
"1743",31.975311,80.02075,82.144554
"1744",31.988647,79.77173,81.89618
"1745",32.001984,79.571526,81.68884
"1746",32.01529,79.40307,81.506996
"1747",32.028625,79.24925,81.334526
"1748",32.04196,79.093,81.154816
"1749",32.055298,78.922104,80.955574
"1750",32.068634,78.73411,80.733894
"1751",32.08197,78.521706,80.48193
"1752",32.095306,78.2971,80.21113
"1753",32.108643,78.065155,79.92597
"1754",32.12198,77.83078,79.631134
"1755",32.135315,77.59884,79.331406
"1756",32.14865,77.38644,79.04397
"1757",32.161987,77.188675,78.764534
"1758",32.175323,77.00313,78.491135
"1759",32.18866,76.83467,78.22903
"1760",32.201996,76.68818,77.98362
"1761",32.2153,76.56611,77.75806
"1762",32.228638,76.46357,77.54821
"1763",32.241974,76.383,77.35713
"1764",32.25531,76.32441,77.18551
"1765",32.268646,76.28535,77.031586
"1766",32.281982,76.26093,76.89109
"1767",32.29532,76.24872,76.76203
"1768",32.308655,76.24872,76.644806
"1769",32.32199,76.25117,76.53003
"1770",32.335327,76.25117,76.41288
"1771",32.348663,76.24872,76.29328
"1772",32.362,76.24872,76.176056
"1773",32.375336,76.263374,76.07349
"1774",32.38867,76.3415,76.03484
"1775",32.402008,76.5539,76.13292
"1776",32.415344,76.998245,76.469574
"1777",32.42868,77.7551,77.13262
"1778",32.441986,78.96605,78.27342
"1779",32.455322,80.82399,80.09905
"1780",32.46866,83.36065,82.66146
"1781",32.481995,86.27085,85.67668
"1782",32.49533,89.03212,88.63391
"1783",32.508667,91.14397,91.028015
"1784",32.522003,92.24994,92.48224
"1785",32.53534,92.245056,92.86017
"1786",32.548676,91.37835,92.37612
"1787",32.56201,90.10635,91.4597
"1788",32.575348,88.80751,90.476685
"1789",32.588684,87.6527,89.59711
"1790",32.60202,86.68589,88.869446
"1791",32.615356,85.892426,88.28491
"1792",32.628693,85.23079,87.80741
"1793",32.642,84.64973,87.38981
"1794",32.655334,84.09552,86.9809
"1795",32.66867,83.529106,86.54247
"1796",32.682007,82.94072,86.06437
"1797",32.695343,82.36454,85.580086
"1798",32.70868,81.83719,85.126625
"1799",32.722015,81.373314,84.72016
"1800",32.73535,80.987564,84.37733
"1801",32.748688,80.67017,84.0908
"1802",32.762024,80.40162,83.843185
"1803",32.77536,80.16235,83.61647
"1804",32.788696,79.93042,83.38961
"1805",32.802032,79.693596,83.15061
"1806",32.81537,79.43969,82.88713
"1807",32.828705,79.17357,82.6035
"1808",32.84204,78.89525,82.299355
"1809",32.855377,78.60471,81.9743
"1810",32.868683,78.30686,81.63284
"1811",32.88202,78.009,81.282074
"1812",32.895355,77.71847,80.92932
"1813",32.90869,77.44015,80.579704
"1814",32.922028,77.18379,80.243355
"1815",32.935364,76.94942,79.920975
"1816",32.9487,76.732124,79.60835
"1817",32.962036,76.53437,79.30848
"1818",32.975372,76.35371,79.019516
"1819",32.98871,76.192566,78.74443
"1820",33.002045,76.050964,78.48385
"1821",33.01538,75.928894,78.23837
"1822",33.028717,75.83124,78.0135
"1823",33.042053,75.755554,77.80754
"1824",33.05539,75.69451,77.61386
"1825",33.068695,75.64568,77.43049
"1826",33.08203,75.60906,77.2578
"1827",33.095367,75.579765,77.091286
"1828",33.108704,75.560234,76.933624
"1829",33.12204,75.54803,76.78268
"1830",33.135376,75.543144,76.63867
"1831",33.148712,75.53826,76.494514
"1832",33.16205,75.528496,76.34532
"1833",33.175385,75.526054,76.20315
"1834",33.18872,75.55291,76.090195
"1835",33.202057,75.67254,76.070854
"1836",33.215393,75.97284,76.23592
"1837",33.22873,76.56367,76.700905
"1838",33.242065,77.58907,77.61893
"1839",33.2554,79.32006,79.274574
"1840",33.268738,81.9324,81.86567
"1841",33.282074,85.243,85.23665
"1842",33.29538,88.707405,88.8649
"1843",33.308716,91.70306,92.13266
"1844",33.322052,93.7026,94.497925
"1845",33.33539,94.39353,95.617065
"1846",33.348724,93.88083,95.55416
"1847",33.36206,92.63569,94.7428
"1848",33.375397,91.16838,93.67036
"1849",33.388733,89.7499,92.60089
"1850",33.40207,88.48524,91.640915
"1851",33.415405,87.38415,90.80499
"1852",33.42874,86.40269,90.05429
"1853",33.442078,85.49447,89.34615
"1854",33.455414,84.613106,88.63649
"1855",33.46875,83.734184,87.901726
"1856",33.482086,82.865036,87.14927
"1857",33.49539,82.02762,86.40138
"1858",33.508728,81.24635,85.68348
"1859",33.522064,80.5481,85.02418
"1860",33.5354,79.94751,84.44071
"1861",33.548737,79.43725,83.92881
"1862",33.562073,79.00755,83.48153
"1863",33.57541,78.63889,83.081856
"1864",33.588745,78.314186,82.714615
"1865",33.60208,78.00656,82.35431
"1866",33.615417,77.7087,81.994156
"1867",33.628754,77.40597,81.61982
"1868",33.64209,77.09346,81.22625
"1869",33.655426,76.76875,80.810715
"1870",33.668762,76.44404,80.385025
"1871",33.6821,76.121765,79.95163
"1872",33.695435,75.81415,79.52282
"1873",33.70877,75.526054,79.10392
"1874",33.722076,75.27215,78.710205
"1875",33.735413,75.04753,78.337845
"1876",33.74875,74.85466,77.99021
"1877",33.762085,74.68864,77.6634
"1878",33.77542,74.54948,77.35826
"1879",33.788757,74.42985,77.068306
"1880",33.802094,74.337074,76.80147
"1881",33.81543,74.25895,76.54638
"1882",33.828766,74.20035,76.30837
"1883",33.842102,74.1564,76.08319
"1884",33.85544,74.12955,75.873726
"1885",33.868774,74.11246,75.67319
"1886",33.88211,74.11246,75.489204
"1887",33.895447,74.12955,75.32231
"1888",33.908783,74.158844,75.16816
"1889",33.92209,74.195465,75.02225
"1890",33.935425,74.246735,74.89213
"1891",33.94876,74.302895,74.7685
"1892",33.962097,74.36637,74.653946
"1893",33.975433,74.43473,74.54626
"1894",33.98877,74.510414,74.44803
"1895",34.002106,74.5861,74.352165
"1896",34.01544,74.66178,74.25867
"1897",34.028778,74.73258,74.16265
"1898",34.042114,74.813156,74.07862
"1899",34.05545,74.92546,74.02884
"1900",34.068787,75.13298,74.07778
"1901",34.082123,75.52117,74.31388
"1902",34.09546,76.192566,74.845314
"1903",34.108795,77.26925,75.80302
"1904",34.12213,78.96117,77.4096
"1905",34.135468,81.41726,79.83323
"1906",34.148773,84.44953,82.90979
"1907",34.16211,87.56237,86.161674
"1908",34.175446,90.18204,89.01767
"1909",34.18878,91.85199,91.00581
"1910",34.202118,92.32319,91.84739
"1911",34.215454,91.720146,91.62945
"1912",34.22879,90.49699,90.772545
"1913",34.242126,89.13954,89.74313
"1914",34.255463,87.89441,88.783615
"1915",34.2688,86.82994,87.96585
"1916",34.282135,85.91928,87.26862
"1917",34.29547,85.11604,86.65036
"1918",34.308807,84.3592,86.05339
"1919",34.322144,83.62432,85.454735
"1920",34.33548,82.899216,84.84289
"1921",34.348785,82.19852,84.23279
"1922",34.36212,81.53933,83.6423
"1923",34.375458,80.9485,83.09958
"1924",34.388794,80.44312,82.62384
"1925",34.40213,80.025635,82.2202
"1926",34.415466,79.68871,81.88408
"1927",34.428802,79.41039,81.59603
"1928",34.44214,79.17113,81.33834
"1929",34.455475,78.95384,81.09515
"1930",34.46881,78.74143,80.85005
"1931",34.482147,78.521706,80.590996
"1932",34.495483,78.29221,80.31531
"1933",34.50882,78.05051,80.02023
"1934",34.522156,77.80148,79.71029
"1935",34.535492,77.54269,79.38279
"1936",34.54883,77.28634,79.04965
"1937",34.562164,77.03975,78.71826
"1938",34.57547,76.8127,78.398705
"1939",34.588806,76.60517,78.091576
"1940",34.602142,76.422066,77.80238
"1941",34.61548,76.26093,77.52944
"1942",34.628815,76.121765,77.27343
"1943",34.64215,76.00214,77.03261
"1944",34.655487,75.897156,76.8027
"1945",34.668823,75.81171,76.589035
"1946",34.68216,75.73846,76.3849
"1947",34.695496,75.68719,76.20046
"1948",34.70883,75.65301,76.03151
"1949",34.722168,75.63592,75.87858
"1950",34.735504,75.631035,75.73732
"1951",34.74884,75.64324,75.613
"1952",34.762177,75.66277,75.49638
"1953",34.775482,75.68719,75.38526
"1954",34.78882,75.716484,75.279785
"1955",34.802155,75.75311,75.182556
"1956",34.81549,75.79462,75.09135
"1957",34.828827,75.84589,75.0112
"1958",34.842163,75.90448,74.93998
"1959",34.8555,75.96796,74.87547
"1960",34.868835,76.03143,74.81295
"1961",34.88217,76.09003,74.74753
"1962",34.895508,76.14374,74.679054
"1963",34.908844,76.19745,74.61226
"1964",34.92218,76.26093,74.556915
"1965",34.935516,76.36347,74.54261
"1966",34.948853,76.56367,74.629166
"1967",34.96219,76.946976,74.90509
"1968",34.975525,77.5964,75.45911
"1969",34.98886,78.6218,76.4094
"1970",35.002167,80.21362,77.95815
"1971",35.015503,82.496376,80.24758
"1972",35.02884,85.3016,83.13081
"1973",35.042175,88.14343,86.13832
"1974",35.05551,90.47501,88.72438
"1975",35.068848,91.87152,90.448235
"1976",35.082184,92.13275,91.08045
"1977",35.09552,91.39056,90.71741
"1978",35.108856,90.091705,89.77451
"1979",35.122192,88.71473,88.712906
"1980",35.13553,87.49157,87.762085
"1981",35.148865,86.45884,86.96347
"1982",35.1622,85.57748,86.28394
"1983",35.175537,84.78645,85.66721
"1984",35.188873,84.04425,85.074585
"1985",35.20218,83.32647,84.483185
"1986",35.215515,82.63065,83.89132
"1987",35.22885,81.971466,83.31434
"1988",35.242188,81.3782,82.78268
"1989",35.255524,80.87038,82.317924
"1990",35.26886,80.45289,81.927635
"1991",35.282196,80.11841,81.60731
"1992",35.295532,79.85718,81.34978
"1993",35.30887,79.64477,81.132904
"1994",35.322205,79.466545,80.94358
"1995",35.33554,79.29809,80.75845
"1996",35.348877,79.12474,80.56317
"1997",35.362213,78.93431,80.34539
"1998",35.37555,78.72434,80.10212
"1999",35.388885,78.49241,79.83032
"2000",35.40222,78.24826,79.53906
"2001",35.415558,78.00168,79.23774
"2002",35.428864,77.752655,78.92627
"2003",35.4422,77.51339,78.616776
"2004",35.455536,77.29122,78.3169
"2005",35.468872,77.08858,78.02961
"2006",35.48221,76.91768,77.76773
"2007",35.495544,76.771194,77.524925
"2008",35.50888,76.65156,77.30439
"2009",35.522217,76.541695,77.08989
"2010",35.535553,76.44892,76.889046
"2011",35.54889,76.36591,76.69507
"2012",35.562225,76.299995,76.51559
"2013",35.57556,76.243835,76.3438
"2014",35.588898,76.20477,76.18736
"2015",35.602234,76.18524,76.04923
"2016",35.61557,76.175476,75.92026
"2017",35.628876,76.18036,75.805626
"2018",35.642212,76.19745,75.703354
"2019",35.65555,76.22919,75.616264
"2020",35.668884,76.26826,75.5375
"2021",35.68222,76.3122,75.46483
"2022",35.695557,76.35859,75.39597
"2023",35.708893,76.40986,75.33345
"2024",35.72223,76.46113,75.27253
"2025",35.735565,76.51484,75.21565
"2026",35.7489,76.57343,75.16534
"2027",35.762238,76.629585,75.11441
"2028",35.775574,76.68574,75.06524
"2029",35.78891,76.76631,75.042244
"2030",35.802246,76.92012,75.095
"2031",35.815582,77.222855,75.30149
"2032",35.82892,77.747765,75.73962
"2033",35.842255,78.56077,76.48224
"2034",35.85556,79.68871,77.56521
"2035",35.868896,81.12184,78.98861
"2036",35.882233,82.78691,80.688736
"2037",35.89557,84.52766,82.51657
"2038",35.908905,86.11459,84.244995
"2039",35.92224,87.31335,85.63483
"2040",35.935577,87.97742,86.527435
"2041",35.948914,88.07263,86.87195
"2042",35.96225,87.68932,86.740906
"2043",35.975586,87.010605,86.302475
"2044",35.988922,86.22934,85.74029
"2045",36.00226,85.472496,85.17811
"2046",36.015594,84.77913,84.655754
"2047",36.02893,84.14435,84.17032
"2048",36.042267,83.54864,83.70412
"2049",36.055573,82.98222,83.2486
"2050",36.06891,82.43778,82.79735
"2051",36.082245,81.92752,82.363266
"2052",36.09558,81.478294,81.97427
"2053",36.108917,81.10231,81.644485
"2054",36.122253,80.8069,81.38352
"2055",36.13559,80.587166,81.189
"2056",36.148926,80.430916,81.0511
"2057",36.162262,80.306404,80.940056
"2058",36.1756,80.19409,80.83732
"2059",36.20227,79.937744,80.58944
"2060",36.215607,79.76929,80.41904
"2061",36.228943,79.57397,80.21651
"2062",36.24228,79.35668,79.98591
"2063",36.255615,79.12962,79.73875
"2064",36.26895,78.90013,79.482056
"2065",36.282257,78.677956,79.22551
"2066",36.295593,78.46311,78.96935
"2067",36.30893,78.2678,78.72601
"2068",36.322266,78.08713,78.49121
"2069",36.3356,77.925995,78.2703
"2070",36.348938,77.78439,78.06389
"2071",36.362274,77.66476,77.875015
"2072",36.37561,77.55978,77.69706
"2073",36.388947,77.469444,77.53047
"2074",36.402283,77.39132,77.37327
"2075",36.41562,77.3254,77.22583
"2076",36.428955,77.27169,77.08854
"2077",36.44229,77.23506,76.96665
"2078",36.455627,77.21553,76.86072
"2079",36.468964,77.21553,76.773705
"2080",36.48227,77.225296,76.69646
"2081",36.495605,77.24483,76.62928
"2082",36.50894,77.264366,76.56272
"2083",36.522278,77.281456,76.49432
"2084",36.535614,77.298546,76.42646
"2085",36.54895,77.31808,76.36157
"2086",36.562286,77.33761,76.297295
"2087",36.575623,77.36202,76.23851
"2088",36.58896,77.39864,76.192696
"2089",36.602295,77.469444,76.182205
"2090",36.61563,77.628136,76.26182
"2091",36.628967,77.943085,76.50265
"2092",36.642303,78.470436,76.96572
"2093",36.65564,79.2517,77.69919
"2094",36.668976,80.274666,78.69877
"2095",36.682312,81.461205,79.89389
"2096",36.69565,82.66239,81.14074
"2097",36.708954,83.736626,82.29817
"2098",36.72229,84.5716,83.249916
"2099",36.735626,85.10628,83.92745
"2100",36.748962,85.34066,84.3214
"2101",36.7623,85.33822,84.485855
"2102",36.775635,85.169754,84.48421
"2103",36.78897,84.893875,84.36988
"2104",36.802307,84.559395,84.18833
"2105",36.815643,84.18341,83.95483
"2106",36.82898,83.78302,83.685165
"2107",36.842316,83.36065,83.38101
"2108",36.85565,82.92363,83.04901
"2109",36.868988,82.48417,82.70091
"2110",36.882324,82.056915,82.35129
"2111",36.89566,81.671165,82.029816
"2112",36.908966,81.33669,81.74757
"2113",36.922302,81.075455,81.5281
"2114",36.93564,80.88747,81.37372
"2115",36.948975,80.75563,81.269615
"2116",36.96231,80.66529,81.20289
"2117",36.975647,80.59205,81.15044
"2118",36.988983,80.51392,81.09081
"2119",37.00232,80.41627,81.00922
"2120",37.015656,80.28443,80.89039
"2121",37.02899,80.11597,80.73081
"2122",37.042328,79.923096,80.541565
"2123",37.055664,79.71313,80.32919
"2124",37.069,79.4934,80.1005
"2125",37.082336,79.276115,79.867386
"2126",37.095673,79.06615,79.634796
"2127",37.10901,78.86595,79.40542
"2128",37.122345,78.677956,79.181984
"2129",37.13565,78.50706,78.96977
"2130",37.148987,78.35569,78.77175
"2131",37.162323,78.22385,78.588524
"2132",37.17566,78.11154,78.420715
"2133",37.188995,78.013885,78.264046
"2134",37.20233,77.93332,78.121414
"2135",37.215668,77.86252,77.98603
"2136",37.229004,77.803925,77.86064
"2137",37.24234,77.76242,77.75051
"2138",37.255676,77.733116,77.65128
"2139",37.269012,77.71847,77.565796
"2140",37.28235,77.7087,77.48473
"2141",37.295685,77.70382,77.40825
"2142",37.30902,77.69405,77.32673
"2143",37.322357,77.68673,77.247345
"2144",37.335663,77.68429,77.172615
"2145",37.349,77.72579,77.141754
"2146",37.362335,77.855194,77.20009
"2147",37.37567,78.1384,77.41627
"2148",37.389008,78.63401,77.85371
"2149",37.402344,79.381096,78.558105
"2150",37.41568,80.36744,79.52511
"2151",37.429016,81.5198,80.68895
"2152",37.442352,82.703896,81.92054
"2153",37.45569,83.78302,83.08416
"2154",37.469025,84.644844,84.0642
"2155",37.48236,85.22591,84.79041
"2156",37.495697,85.514,85.24181
"2157",37.509033,85.555504,85.45563
"2158",37.52237,85.41146,85.48519
"2159",37.535706,85.1429,85.385735
"2160",37.54904,84.79622,85.19977
"2161",37.562347,84.4007,84.95413
"2162",37.575684,83.96857,84.659515
"2163",37.58902,83.51202,84.32698
"2164",37.602356,83.038376,83.96309
"2165",37.615692,82.55741,83.57707
"2166",37.62903,82.09354,83.193115
"2167",37.642365,81.67605,82.84105
"2168",37.6557,81.324486,82.54186
"2169",37.669037,81.05104,82.30981
"2170",37.682373,80.85329,82.1449
"2171",37.69571,80.71412,82.032394
"2172",37.709045,80.61402,81.95461
"2173",37.72238,80.53834,81.89812
"2174",37.735718,80.45045,81.82705
"2175",37.749054,80.33814,81.72882
"2176",37.76236,80.19409,81.59534
"2177",37.775696,80.01343,81.42074
"2178",37.789032,79.801025,81.208755
"2179",37.80237,79.57397,80.97548
"2180",37.815704,79.33471,80.72291
"2181",37.82904,79.097885,80.465294
"2182",37.842377,78.86839,80.20761
"2183",37.855713,78.65598,79.95984
"2184",37.86905,78.45335,79.7152
"2185",37.882385,78.27268,79.486206
"2186",37.89572,78.11154,79.27109
"2187",37.909058,77.97238,79.072914
"2188",37.922394,77.855194,78.892365
"2189",37.93573,77.75754,78.727684
"2190",37.949066,77.679405,78.579475
"2191",37.962402,77.61593,78.44348
"2192",37.97574,77.56222,78.31527
"2193",37.989044,77.52071,78.197586
"2194",38.00238,77.488976,78.08837
"2195",38.015717,77.45724,77.978165
"2196",38.029053,77.43038,77.87185
"2197",38.04239,77.40597,77.767136
"2198",38.055725,77.401085,77.68119
"2199",38.06906,77.45724,77.65613
"2200",38.082397,77.64034,77.75977
"2201",38.095734,78.01633,78.06202
"2202",38.10907,78.65354,78.637245
"2203",38.122406,79.588615,79.53024
"2204",38.135742,80.8069,80.73567
"2205",38.14908,82.269325,82.22331
"2206",38.162415,83.87091,83.89581
"2207",38.17575,85.42611,85.571976
"2208",38.189056,86.70542,87.02085
"2209",38.202393,87.5404,88.06537
"2210",38.21573,87.84314,88.603745
"2211",38.229065,87.65026,88.65596
"2212",38.2424,87.08385,88.32861
"2213",38.255737,86.34165,87.807785
"2214",38.269073,85.5848,87.24911
"2215",38.28241,84.87923,86.718056
"2216",38.295746,84.2298,86.2211
"2217",38.309082,83.617,85.74048
"2218",38.32242,83.021286,85.2578
"2219",38.335754,82.43778,84.76871
"2220",38.34909,81.883575,84.29068
"2221",38.362427,81.38308,83.849045
"2222",38.375763,80.95827,83.46745
"2223",38.3891,80.62867,83.1678
"2224",38.402435,80.38941,82.94819
"2225",38.41574,80.216064,82.78701
"2226",38.429077,80.08667,82.66437
"2227",38.442413,79.97681,82.55721
"2228",38.45575,79.85962,82.4393
"2229",38.469086,79.725334,82.30063
"2230",38.48242,79.5642,82.13091
"2231",38.495758,79.37377,81.926865
"2232",38.509094,79.15404,81.68756
"2233",38.52243,78.91478,81.42187
"2234",38.535767,78.66575,81.13892
"2235",38.549103,78.41917,80.85065
"2236",38.56244,78.18234,80.56442
"2237",38.575775,77.962616,80.287895
"2238",38.58911,77.76486,80.026474
"2239",38.602448,77.58907,79.78084
"2240",38.615753,77.43282,79.54925
"2241",38.62909,77.296104,79.332306
"2242",38.642426,77.17891,79.130615
"2243",38.65576,77.07881,78.94236
"2244",38.669098,76.99092,78.76318
"2245",38.682434,76.912796,78.59103
"2246",38.69577,76.84932,78.431076
"2247",38.709106,76.79317,78.27647
"2248",38.722443,76.74677,78.12986
"2249",38.73578,76.71259,77.99402
"2250",38.749115,76.680855,77.85955
"2251",38.76245,76.663765,77.73874
"2252",38.775787,76.6955,77.66622
"2253",38.789124,76.83711,77.70457
"2254",38.80246,77.16914,77.93776
"2255",38.815796,77.769745,78.4499
"2256",38.829132,78.69993,79.31039
"2257",38.842438,80.02319,80.593025
"2258",38.855774,81.78592,82.356476
"2259",38.86911,83.88068,84.50704
"2260",38.882446,86.00961,86.75725
"2261",38.895782,87.801636,88.73707
"2262",38.90912,88.9662,90.14543
"2263",38.922455,89.34707,90.80649
"2264",38.93579,88.9955,90.74702
"2265",38.949127,88.162964,90.19559
"2266",38.962463,87.1815,89.46922
"2267",38.9758,86.261086,88.773224
"2268",38.989136,85.46273,88.170525
"2269",39.002472,84.7596,87.6381
"2270",39.01581,84.11017,87.137405
"2271",39.029144,83.47784,86.633514
"2272",39.04245,82.847946,86.112305
"2273",39.055786,82.21561,85.56896
"2274",39.069122,81.60769,85.03028
"2275",39.08246,81.05104,84.52387
"2276",39.095795,80.57984,84.08552
"2277",39.10913,80.201416,83.72521
"2278",39.122467,79.91577,83.44586
"2279",39.135803,79.69848,83.22594
"2280",39.14914,79.53246,83.0505
"2281",39.162476,79.38598,82.889404
"2282",39.17581,79.237045,82.72128
"2283",39.189148,79.06859,82.528984
"2284",39.202484,78.87572,82.30701
"2285",39.21582,78.65598,82.05214
"2286",39.229156,78.41428,81.76844
"2287",39.242493,78.16037,81.46497
"2288",39.25583,77.90646,81.15358
"2289",39.269135,77.65743,80.83913
"2290",39.28247,77.42306,80.53155
"2291",39.295807,77.205765,80.23373
"2292",39.309143,77.01045,79.951096
"2293",39.32248,76.83223,79.67945
"2294",39.335815,76.67597,79.4242
"2295",39.34915,76.541695,79.18605
"2296",39.362488,76.43183,78.96812
"2297",39.375824,76.33662,78.7614
"2298",39.38916,76.265816,78.57612
"2299",39.402496,76.21698,78.41059
"2300",39.415833,76.17792,78.25331
"2301",39.42917,76.14374,78.09969
"2302",39.442505,76.112,77.94745
"2303",39.45584,76.07782,77.79177
"2304",39.469147,76.04364,77.635025
"2305",39.482483,76.019226,77.48698
"2306",39.49582,76.036316,77.37967
"2307",39.509155,76.1535,77.37299
"2308",39.52249,76.453804,77.55309
"2309",39.535828,77.03731,78.02578
"2310",39.549164,78.07736,78.97325
"2311",39.5625,79.89624,80.73205
"2312",39.575836,82.686806,83.51937
"2313",39.589172,86.24643,87.16296
"2314",39.60251,90.037994,91.14972
"2315",39.615845,93.42916,94.854576
"2316",39.62918,95.83154,97.67662
"2317",39.642517,96.87892,99.218735
"2318",39.655853,96.6421,99.50938
"2319",39.66919,95.57275,98.96009
"2320",39.682526,94.16403,98.038025
"2321",39.69583,92.696724,97.01334
"2322",39.709167,91.32464,96.03803
"2323",39.722504,90.08438,95.15167
"2324",39.73584,88.93935,94.32178
"2325",39.749176,87.816284,93.47807
"2326",39.762512,86.65415,92.560196
"2327",39.77585,85.42855,91.542534
"2328",39.789185,84.16876,90.452385
"2329",39.80252,82.933395,89.34729
"2330",39.815857,81.795685,88.30125
"2331",39.829193,80.80446,87.366135
"2332",39.84253,79.98169,86.568504
"2333",39.855865,79.310295,85.89654
"2334",39.8692,78.76097,85.32566
"2335",39.882538,78.2971,84.82307
"2336",39.895844,77.88449,84.35725
"2337",39.90918,77.49874,83.90539
"2338",39.922516,77.117874,83.44636
"2339",39.935852,76.734566,82.972984
"2340",39.94919,76.34394,82.480316
"2341",39.962524,75.95087,81.97299
"2342",39.97586,75.560234,81.455826
"2343",39.989197,75.18181,80.93866
"2344",40.002533,74.827805,80.43409
"2345",40.01587,74.50065,79.945305
"2346",40.029205,74.20523,79.478035
"2347",40.04254,73.94156,79.03328
"2348",40.055878,73.70962,78.612015
"2349",40.069214,73.514305,78.22013
"2350",40.08255,73.35073,77.85388
"2351",40.095886,73.21889,77.51425
"2352",40.109222,73.11635,77.19981
"2353",40.122528,73.040665,76.90901
"2354",40.135864,72.989395,76.64027
"2355",40.1492,72.96254,76.39433
"2356",40.162537,72.952774,76.16465
"2357",40.175873,72.96498,75.956635
"2358",40.18921,72.99184,75.76365
"2359",40.202545,73.0309,75.58371
"2360",40.21588,73.0724,75.40743
"2361",40.229218,73.12123,75.23978
"2362",40.242554,73.16762,75.071205
"2363",40.25589,73.214005,74.90408
"2364",40.269226,73.26284,74.74086
"2365",40.282562,73.3312,74.59869
"2366",40.2959,73.460594,74.519684
"2367",40.309235,73.71694,74.57168
"2368",40.32254,74.20767,74.866066
"2369",40.335876,75.07683,75.554214
"2370",40.349213,76.67597,76.99951
"2371",40.36255,79.364006,79.58367
"2372",40.375885,83.16289,83.36268
"2373",40.38922,87.62829,87.92692
"2374",40.402557,92.10834,92.645355
"2375",40.415894,95.90967,96.82507
"2376",40.42923,98.42191,99.834496
"2377",40.442566,99.42779,101.41605
"2378",40.455902,99.21538,101.81076
"2379",40.46924,98.29984,101.495705
"2380",40.482574,97.03761,100.80534
"2381",40.49591,95.66308,99.963234
"2382",40.509247,94.30808,99.09771
"2383",40.522583,92.982376,98.21913
"2384",40.53592,91.62249,97.264946
"2385",40.549225,90.14053,96.146194
"2386",40.56256,88.48768,94.810234
"2387",40.575897,86.676125,93.263916
"2388",40.589233,84.79378,91.590195
"2389",40.60257,82.95781,89.90403
"2390",40.615906,81.28054,88.31919
"2391",40.629242,79.835205,86.91387
"2392",40.64258,78.63889,85.71241
"2393",40.655914,77.67696,84.70795
"2394",40.66925,76.91524,83.87363
"2395",40.682587,76.30976,83.17175
"2396",40.695923,75.81171,82.55838
"2397",40.70926,75.38201,81.9978
"2398",40.722595,74.986496,81.45798
"2399",40.73593,74.60807,80.92288
"2400",40.749237,74.23941,80.38573
"2401",40.762573,73.88052,79.846825
"2402",40.77591,73.53384,79.30891
"2403",40.789246,73.20668,78.779686
"2404",40.80258,72.903946,78.26466
"2405",40.815918,72.6305,77.76947
"2406",40.829254,72.393684,77.30235
"2407",40.84259,72.1886,76.85957
"2408",40.855927,72.0177,76.444565
"2409",40.869232,71.87854,76.055954
"2410",40.88257,71.76868,75.69229
"2411",40.895905,71.6881,75.35449
"2412",40.90924,71.63195,75.03859
"2413",40.922577,71.60265,74.74779
"2414",40.935913,71.59533,74.47804
"2415",40.94925,71.60998,74.23004
"2416",40.962555,71.64904,74.00691
"2417",40.97589,71.70275,73.79965
"2418",40.989227,71.77844,73.61606
"2419",41.002563,71.86633,73.44702
"2420",41.0159,71.95911,73.285614
"2421",41.029236,72.06409,73.13931
"2422",41.042572,72.17883,73.00606
"2423",41.05591,72.308235,72.89105
"2424",41.069244,72.44251,72.78496
"2425",41.08255,72.586555,72.692825
"2426",41.095886,72.7306,72.605194
"2427",41.109222,72.86977,72.5172
"2428",41.12256,73.0016,72.426216
"2429",41.135895,73.131,72.336914
"2430",41.14923,73.255516,72.24678
"2431",41.162567,73.38247,72.16297
"2432",41.175873,73.53384,72.107544
"2433",41.18921,73.75113,72.12277
"2434",41.202545,74.11734,72.29371
"2435",41.21588,74.73991,72.732445
"2436",41.229218,75.78729,73.615456
"2437",41.242554,77.66476,75.361275
"2438",41.25589,80.71168,78.33522
"2439",41.269226,84.857254,82.50304
"2440",41.282562,89.58633,87.383896
"2441",41.295868,94.21774,92.31489
"2442",41.309204,98.03128,96.57273
"2443",41.32254,100.44831,99.55324
"2444",41.335876,101.337,101.08093
"2445",41.349213,101.06111,101.471825
"2446",41.36255,100.138245,101.207115
"2447",41.375885,98.90044,100.598625
"2448",41.38919,97.57473,99.863556
"2449",41.402527,96.28809,99.12613
"2450",41.415863,95.045395,98.39243
"2451",41.4292,93.768524,97.58573
"2452",41.442535,92.33784,96.58531
"2453",41.45587,90.67277,95.3058
"2454",41.469208,88.780655,93.747215
"2455",41.482544,86.74937,91.990326
"2456",41.49588,84.7132,90.16508
"2457",41.509186,82.81865,88.41781
"2458",41.522522,81.17311,86.86035
"2459",41.53586,79.81323,85.53713
"2460",41.549194,78.7219,84.439964
"2461",41.56253,77.857635,83.53576
"2462",41.575867,77.16426,82.77544
"2463",41.589203,76.595406,82.117966
"2464",41.60251,76.104675,81.52084
"2465",41.615845,75.65789,80.95233
"2466",41.62918,75.23552,80.39427
"2467",41.642517,74.83513,79.84499
"2468",41.655853,74.45182,79.300285
"2469",41.66919,74.0856,78.76069
"2470",41.682526,73.74624,78.2365
"2471",41.69586,73.43618,77.73102
"2472",41.709198,73.15541,77.24513
"2473",41.722504,72.901505,76.777336
"2474",41.73584,72.68421,76.33822
"2475",41.749176,72.49622,75.921616
"2476",41.762512,72.342415,75.53331
"2477",41.77585,72.217896,75.169495
"2478",41.789185,72.130005,74.83841
"2479",41.80252,72.06897,74.53143
"2480",41.815826,72.03479,74.249405
"2481",41.829163,72.027466,73.993164
"2482",41.8425,72.047,73.76355
"2483",41.855835,72.08118,73.549194
"2484",41.86917,72.12756,73.348114
"2485",41.882507,72.19104,73.16557
"2486",41.895844,72.26917,72.99968
"2487",41.90918,72.361946,72.85086
"2488",41.922516,72.47181,72.72203
"2489",41.93582,72.59632,72.61128
"2490",41.949158,72.7306,72.51419
"2491",41.962494,72.86488,72.42131
"2492",41.97583,72.99672,72.33018
"2493",41.989166,73.131,72.245605
"2494",42.002502,73.26528,72.16524
"2495",42.01584,73.39468,72.084175
"2496",42.029144,73.52163,72.004715
"2497",42.04248,73.64126,71.9219
"2498",42.055817,73.760895,71.84283
"2499",42.069153,73.882965,71.76993
"2500",42.08249,74.03677,71.73258
"2501",42.095825,74.2736,71.78306
"2502",42.10916,74.67399,72.0045
"2503",42.122498,75.34051,72.504585
"2504",42.135834,76.40986,73.42833
"2505",42.14914,78.19211,75.09839
"2506",42.162476,80.96071,77.81049
"2507",42.17581,84.62043,81.50024
"2508",42.189148,88.673225,85.69742
"2509",42.202484,92.46235,89.75758
"2510",42.21582,95.362785,93.04747
"2511",42.229156,96.91066,95.07543
"2512",42.242462,97.059586,95.752815
"2513",42.2558,96.21484,95.441185
"2514",42.269135,94.923325,94.65638
"2515",42.28247,93.521935,93.721344
"2516",42.295807,92.18158,92.80355
"2517",42.309143,90.98039,91.98304
"2518",42.32248,89.88663,91.232414
"2519",42.335815,88.83681,90.491554
"2520",42.34915,87.76013,89.691025
"2521",42.362457,86.61753,88.790924
"2522",42.375793,85.41146,87.79165
"2523",42.38913,84.19562,86.74491
"2524",42.402466,83.02861,85.709015
"2525",42.415802,81.98123,84.75628
"2526",42.42914,81.08278,83.91974
"2527",42.442474,80.34058,83.21138
"2528",42.45578,79.73022,82.61166
"2529",42.469116,79.219955,82.092964
"2530",42.482452,78.7805,81.629135
"2531",42.49579,78.382545,81.19307
"2532",42.509125,78.009,80.76898
"2533",42.52246,77.64767,80.34543
"2534",42.535797,77.29122,79.915474
"2535",42.549133,76.93477,79.47437
"2536",42.56247,76.57343,79.01725
"2537",42.575775,76.209656,78.546394
"2538",42.58911,75.85565,78.073944
"2539",42.602448,75.52361,77.6124
"2540",42.615784,75.22331,77.17221
"2541",42.62912,74.95964,76.75927
"2542",42.642456,74.737465,76.379585
"2543",42.655792,74.547035,76.024704
"2544",42.669098,74.38834,75.69561
"2545",42.682434,74.251625,75.38353
"2546",42.69577,74.13931,75.09158
"2547",42.709106,74.05142,74.82055
"2548",42.722443,73.985504,74.56874
"2549",42.73578,73.94156,74.336845
"2550",42.749115,73.917145,74.12311
"2551",42.76245,73.91226,73.92814
"2552",42.775787,73.92203,73.747665
"2553",42.789093,73.944,73.579704
"2554",42.80243,73.97574,73.422195
"2555",42.815765,74.019684,73.277885
"2556",42.8291,74.07095,73.14227
"2557",42.842438,74.12955,73.01559
"2558",42.855774,74.20035,72.90294
"2559",42.86911,74.27848,72.799835
"2560",42.882416,74.36149,72.70405
"2561",42.895752,74.45182,72.61818
"2562",42.90909,74.547035,72.540016
"2563",42.922424,74.649574,72.47215
"2564",42.93576,74.757,72.412384
"2565",42.949097,74.87175,72.36329
"2566",42.962433,74.984055,72.31534
"2567",42.97577,75.0988,72.27334
"2568",42.989105,75.211105,72.23248
"2569",43.00241,75.32342,72.195145
"2570",43.015747,75.46502,72.190605
"2571",43.029083,75.69451,72.27838
"2572",43.04242,76.09491,72.544235
"2573",43.055756,76.76143,73.08872
"2574",43.06909,77.77463,74.00072
"2575",43.082428,79.21263,75.36918
"2576",43.095734,81.180435,77.31238
"2577",43.10907,83.64385,79.81268
"2578",43.122406,86.3148,82.597496
"2579",43.135742,88.73426,85.214294
"2580",43.14908,90.49943,87.25241
"2581",43.162415,91.35882,88.43991
"2582",43.17575,91.27093,88.706985
"2583",43.189087,90.47501,88.26329
"2584",43.202423,89.38125,87.49687
"2585",43.21573,88.31434,86.72313
"2586",43.229065,87.38659,86.05521
"2587",43.2424,86.60288,85.502335
"2588",43.255737,85.9144,85.02019
"2589",43.269073,85.27474,84.56535
"2590",43.28241,84.644844,84.10029
"2591",43.295746,84.00763,83.60822
"2592",43.30905,83.35577,83.0816
"2593",43.322388,82.7161,82.5468
"2594",43.335724,82.12039,82.035965
"2595",43.34906,81.59548,81.57732
"2596",43.362396,81.16579,81.19748
"2597",43.375732,80.82399,80.89211
"2598",43.38907,80.54078,80.63465
"2599",43.402405,80.28443,80.3952
"2600",43.41574,80.042725,80.162384
"2601",43.429047,79.82544,79.946434
"2602",43.442383,79.64477,79.76031
"2603",43.45572,79.500725,79.60516
"2604",43.469055,79.40063,79.48946
"2605",43.48239,79.31762,79.387726
"2606",43.495728,79.22728,79.27606
"2607",43.509064,79.11009,79.13473
"2608",43.52237,78.97337,78.9702
"2609",43.535706,78.82445,78.78919
"2610",43.54904,78.675514,78.60352
"2611",43.562378,78.53147,78.41809
"2612",43.575714,78.39475,78.23548
"2613",43.58905,78.26536,78.05592
"2614",43.602386,78.14328,77.87964
"2615",43.615723,78.030975,77.70931
"2616",43.62906,77.92844,77.54524
"2617",43.642365,77.83566,77.38773
"2618",43.6557,77.75754,77.241974
"2619",43.669037,77.69405,77.10841
"2620",43.682373,77.64034,76.98264
"2621",43.69571,77.60128,76.86984
"2622",43.709045,77.5671,76.760704
"2623",43.72238,77.54269,76.66026
"2624",43.735687,77.52804,76.568825
"2625",43.749023,77.51583,76.47937
"2626",43.76236,77.50851,76.39442
"2627",43.775696,77.503624,76.311676
"2628",43.789032,77.503624,76.233665
"2629",43.80237,77.50851,76.16054
"2630",43.815704,77.51827,76.092445
"2631",43.82904,77.53536,76.03198
"2632",43.842377,77.55489,75.974495
"2633",43.855682,77.576866,75.92006
"2634",43.86902,77.591515,75.858986
"2635",43.882355,77.59884,75.791046
"2636",43.89569,77.60372,75.720894
"2637",43.909027,77.60372,75.64601
"2638",43.922363,77.59884,75.566246
"2639",43.9357,77.60128,75.49365
"2640",43.949005,77.628136,75.44555
"2641",43.96234,77.72579,75.469086
"2642",43.975677,77.97238,75.64461
"2643",43.989014,78.44602,76.054886
"2644",44.00235,79.22728,76.78758
"2645",44.015686,80.36988,77.90604
"2646",44.029022,81.898224,79.44594
"2647",44.04236,83.80011,81.40714
"2648",44.055695,85.93149,83.65727
"2649",44.069,88.00427,85.91541
"2650",44.082336,89.68154,87.84282
"2651",44.095673,90.719154,89.18298
"2652",44.10901,91.01701,89.81582
"2653",44.122345,90.64591,89.789
"2654",44.13568,89.8378,89.313576
"2655",44.149017,88.885635,88.668846
"2656",44.162323,87.972534,88.03342
"2657",44.17566,87.15953,87.46956
"2658",44.188995,86.42954,86.9633
"2659",44.20233,85.753265,86.487946
"2660",44.215668,85.09407,86.00854
"2661",44.229004,84.439766,85.51342
"2662",44.24234,83.78302,84.995415
"2663",44.255676,83.15312,84.483734
"2664",44.269012,82.56962,83.998764
"2665",44.28232,82.06424,83.573685
"2666",44.295654,81.64187,83.21582
"2667",44.30899,81.304955,82.930214
"2668",44.322327,81.03639,82.70243
"2669",44.335663,80.81178,82.51021
"2670",44.349,80.6067,82.33049
"2671",44.362335,80.39918,82.14193
"2672",44.37564,80.17944,81.93467
"2673",44.388977,79.93286,81.693695
"2674",44.402313,79.66186,81.42059
"2675",44.41565,79.37377,81.12194
"2676",44.428986,79.06615,80.79475
"2677",44.44232,78.74876,80.44817
"2678",44.455658,78.43626,80.09657
"2679",44.468994,78.133514,79.744965
"2680",44.48233,77.85031,79.403435
"2681",44.495636,77.593956,79.0799
"2682",44.508972,77.36935,78.780106
"2683",44.52231,77.1667,78.495255
"2684",44.535645,76.9836,78.22361
"2685",44.54898,76.82735,77.9731
"2686",44.562317,76.6955,77.74211
"2687",44.575653,76.59052,77.53387
"2688",44.58896,76.5124,77.3492
"2689",44.602295,76.45869,77.1865
"2690",44.61563,76.422066,77.039215
"2691",44.628967,76.40009,76.90543
"2692",44.642303,76.39033,76.78317
"2693",44.65564,76.39033,76.67037
"2694",44.668976,76.404976,76.57222
"2695",44.682312,76.42695,76.48185
"2696",44.69565,76.453804,76.39705
"2697",44.708954,76.48066,76.31309
"2698",44.72229,76.5124,76.23485
"2699",44.735626,76.541695,76.15516
"2700",44.748962,76.56367,76.06906
"2701",44.7623,76.58076,75.97877
"2702",44.775635,76.595406,75.886566
"2703",44.78897,76.60517,75.78994
"2704",44.802277,76.61494,75.69362
"2705",44.815613,76.63935,75.61225
"2706",44.82895,76.70283,75.57071
"2707",44.842285,76.85176,75.61661
"2708",44.85562,77.14961,75.81608
"2709",44.868958,77.65499,76.23238
"2710",44.882294,78.41428,76.918396
"2711",44.89563,79.42748,77.88204
"2712",44.908966,80.61402,79.05069
"2713",44.92227,81.832306,80.28816
"2714",44.935608,82.93828,81.45139
"2715",44.948944,83.809875,82.41481
"2716",44.96228,84.386055,83.11005
"2717",44.975616,84.661934,83.52299
"2718",44.988953,84.698555,83.70529
"2719",45.00229,84.56428,83.71784
"2720",45.015594,84.334785,83.63098
"2721",45.02893,84.04181,83.473465
"2722",45.042267,83.72686,83.28482
"2723",45.055603,83.39727,83.07169
"2724",45.06894,83.06035,82.840935
"2725",45.082275,82.69657,82.57279
"2726",45.09561,82.31815,82.27864
"2727",45.108948,81.92264,81.95557
"2728",45.122284,81.53933,81.63234
"2729",45.13559,81.1902,81.331314
"2730",45.148926,80.90944,81.087746
"2731",45.162262,80.70191,80.90864
"2732",45.1756,80.567635,80.796295
"2733",45.188934,80.48463,80.731026
"2734",45.20227,80.430916,80.69246
"2735",45.215607,80.38209,80.6571
"2736",45.228912,80.32105,80.608
"2737",45.24225,80.23071,80.527695
"2738",45.255585,80.10864,80.412834
"2739",45.26892,79.957275,80.26486
"2740",45.282257,79.77905,80.085304
"2741",45.295593,79.58373,79.88308
"2742",45.30893,79.38354,79.669876
"2743",45.322266,79.185776,79.45285
"2744",45.3356,78.995346,79.23698
"2745",45.348907,78.8098,79.020035
"2746",45.362244,78.63889,78.811935
"2747",45.37558,78.4802,78.61071
"2748",45.388916,78.34104,78.42406
"2749",45.402252,78.21652,78.247696
"2750",45.41559,78.11398,78.089424
"2751",45.428925,78.028534,77.94504
"2752",45.44223,77.95773,77.81263
"2753",45.455566,77.89426,77.68533
"2754",45.468903,77.840546,77.56582
"2755",45.48224,77.7966,77.45439
"2756",45.495575,77.76486,77.3538
"2757",45.50891,77.74532,77.26441
"2758",45.522247,77.73556,77.18419
"2759",45.535583,77.730675,77.10854
"2760",45.54892,77.72579,77.032745
"2761",45.562225,77.71603,76.95191
"2762",45.57556,77.70382,76.86833
"2763",45.588898,77.696495,76.78925
"2764",45.602234,77.72091,76.741684
"2765",45.61557,77.81369,76.763245
"2766",45.628906,78.04074,76.921974
"2767",45.642242,78.46067,77.28068
"2768",45.65555,79.12474,77.896645
"2769",45.668884,80.042725,78.78728
"2770",45.68222,81.15602,79.90191
"2771",45.695557,82.337685,81.1197
"2772",45.708893,83.43633,82.2914
"2773",45.72223,84.32746,83.28991
"2774",45.735565,84.93294,84.03062
"2775",45.7489,85.240555,84.492386
"2776",45.762238,85.29427,84.70987
"2777",45.775543,85.16731,84.74835
"2778",45.78888,84.9305,84.67301
"2779",45.802216,84.630196,84.52679
"2780",45.81555,84.300606,84.34189
"2781",45.828888,83.95636,84.132034
"2782",45.842224,83.59991,83.899216
"2783",45.85556,83.22392,83.63573
"2784",45.868866,82.82597,83.338524
"2785",45.882202,82.408485,83.009346
"2786",45.89554,81.99344,82.66956
"2787",45.908875,81.60769,82.34611
"2788",45.92221,81.28542,82.07408
"2789",45.935547,81.03151,81.86034
"2790",45.948883,80.850845,81.71191
"2791",45.96222,80.723885,81.611534
"2792",45.975555,80.63111,81.54138
"2793",45.98886,80.5481,81.478096
"2794",46.002197,80.45777,81.40489
"2795",46.015533,80.34547,81.30689
"2796",46.02887,80.2063,81.17852
"2797",46.042206,80.04028,81.01895
"2798",46.055542,79.84253,80.82246
"2799",46.06888,79.62524,80.60024
"2800",46.082184,79.395744,80.35904
"2801",46.09552,79.15892,80.10333
"2802",46.108856,78.92943,79.84756
"2803",46.122192,78.712135,79.59681
"2804",46.13553,78.51194,79.35637
"2805",46.148865,78.328835,79.12676
"2806",46.1622,78.16525,78.91096
"2807",46.175537,78.01877,78.70714
"2808",46.188873,77.88937,78.51583
"2809",46.20218,77.78439,78.344894
"2810",46.215515,77.696495,78.18776
"2811",46.22885,77.628136,78.04742
"2812",46.242188,77.574425,77.919586
"2813",46.255524,77.53048,77.79984
"2814",46.26886,77.49142,77.68361
"2815",46.282196,77.45724,77.57104
"2816",46.2955,77.43038,77.46472
"2817",46.308838,77.401085,77.355125
"2818",46.322174,77.38155,77.25438
"2819",46.33551,77.37423,77.16523
"2820",46.348846,77.41085,77.1198
"2821",46.362183,77.5378,77.16584
"2822",46.37552,77.823456,77.37455
"2823",46.388855,78.328835,77.81191
"2824",46.40219,79.097885,78.52874
"2825",46.415497,80.113525,79.51619
"2826",46.428833,81.290306,80.69652
"2827",46.44217,82.476845,81.92338
"2828",46.455505,83.53399,83.05792
"2829",46.46884,84.33967,83.97404
"2830",46.482178,84.84993,84.61991
"2831",46.495514,85.06966,84.991196
"2832",46.50882,85.06966,85.14962
"2833",46.522156,84.928055,85.16644
"2834",46.535492,84.70588,85.09827
"2835",46.54883,84.439766,84.97921
"2836",46.562164,84.15411,84.8323
"2837",46.5755,83.85626,84.66426
"2838",46.588837,83.53399,84.462494
"2839",46.602173,83.18242,84.22136
"2840",46.61551,82.79912,83.93751
"2841",46.628815,82.39384,83.6197
"2842",46.64215,81.988556,83.28922
"2843",46.655487,81.61257,82.97538
"2844",46.668823,81.29763,82.71083
"2845",46.68216,81.04616,82.49991
"2846",46.695496,80.86305,82.349495
"2847",46.70883,80.73121,82.24462
"2848",46.722137,80.62867,82.16493
"2849",46.735474,80.5359,82.091805
"2850",46.74881,80.430916,82.00357
"2851",46.762146,80.30396,81.89008
"2852",46.775482,80.147705,81.743324
"2853",46.78882,79.95972,81.55995
"2854",46.802155,79.74975,81.348724
"2855",46.81549,79.5227,81.11385
"2856",46.828827,79.28832,80.86456
"2857",46.842133,79.05638,80.61038
"2858",46.85547,78.83177,80.356285
"2859",46.868805,78.61936,80.10737
"2860",46.88214,78.42649,79.87135
"2861",46.895477,78.24826,79.64395
"2862",46.908813,78.082245,79.423195
"2863",46.92215,77.93332,79.21434
"2864",46.935455,77.7966,79.01304
"2865",46.94879,77.67696,78.82455
"2866",46.962128,77.58175,78.65674
"2867",46.975464,77.506065,78.505486
"2868",46.9888,77.44991,78.3714
"2869",47.002136,77.40597,78.247765
"2870",47.015472,77.366905,78.12764
"2871",47.02881,77.32784,78.006294
"2872",47.042145,77.29122,77.88617
"2873",47.05545,77.2546,77.7649
"2874",47.068787,77.22041,77.64492
"2875",47.082123,77.20088,77.53853
"2876",47.09546,77.222855,77.47303
"2877",47.108795,77.332726,77.49612
"2878",47.12213,77.60372,77.68376
"2879",47.135468,78.1091,78.11426
"2880",47.148773,78.907455,78.85352
"2881",47.16211,79.98657,79.8985
"2882",47.175446,81.26101,81.172516
"2883",47.18878,82.58915,82.54006
"2884",47.202118,83.826965,83.85879
"2885",47.215454,84.84749,84.9989
"2886",47.22879,85.5848,85.887695
"2887",47.242126,86.03403,86.511444
"2888",47.255463,86.24399,86.909966
"2889",47.26877,86.261086,87.122185
"2890",47.282104,86.134125,87.19088
"2891",47.29544,85.907074,87.15552
"2892",47.308777,85.62142,87.05446
"2893",47.322113,85.28695,86.89565
"2894",47.33545,84.910965,86.68488
"2895",47.348785,84.49348,86.42086
"2896",47.36209,84.03204,86.099846
"2897",47.375427,83.526665,85.72047
"2898",47.388763,83.001755,85.30576
"2899",47.4021,82.48661,84.88442
"2900",47.415436,82.01785,84.49337
"2901",47.428772,81.61013,84.148705
"2902",47.44211,81.26833,83.85722
"2903",47.455444,80.99489,83.62341
"2904",47.46878,80.76784,83.42745
"2905",47.482086,80.570076,83.253685
"2906",47.495422,80.38453,83.08595
"2907",47.50876,80.19653,82.90997
"2908",47.522095,79.9939,82.71348
"2909",47.53543,79.766846,82.48624
"2910",47.548767,79.51537,82.22748
"2911",47.562103,79.24437,81.94133
"2912",47.57541,78.96605,81.6394
"2913",47.588745,78.68528,81.32632
"2914",47.60208,78.41184,81.011795
"2915",47.615417,78.150604,80.70093
"2916",47.628754,77.91379,80.40632
"2917",47.64209,77.696495,80.12383
"2918",47.655426,77.506065,79.86142
"2919",47.668762,77.33761,79.61503
"2920",47.6821,77.18623,79.380455
"2921",47.695404,77.04463,79.150925
"2922",47.70874,76.91524,78.92918
"2923",47.722076,76.80049,78.71803
"2924",47.735413,76.70771,78.52527
"2925",47.74875,76.63935,78.35403
"2926",47.762085,76.59052,78.20018
"2927",47.77542,76.55634,78.059456
"2928",47.788727,76.52705,77.92255
"2929",47.802063,76.50019,77.78716
"2930",47.8154,76.47822,77.65582
"2931",47.828735,76.46113,77.52868
"2932",47.84207,76.44648,77.40344
"2933",47.855408,76.42451,77.270424
"2934",47.868744,76.402534,77.13672
"2935",47.88208,76.37568,76.997444
"2936",47.895416,76.36103,76.86954
"2937",47.908722,76.404976,76.79977
"2938",47.92206,76.575874,76.85832
"2939",47.935394,76.9543,77.129745
"2940",47.94873,77.62325,77.70352
"2941",47.962067,78.624245,78.63024
"2942",47.975403,79.9353,79.89831
"2943",47.98874,81.46609,81.42707
"2944",48.002045,83.106735,83.11353
"2945",48.01538,84.71076,84.814644
"2946",48.028717,86.11459,86.365685
"2947",48.042053,87.17174,87.61391
"2948",48.05539,87.818726,88.48501
"2949",48.068726,88.04089,88.95151
"2950",48.08206,87.90173,89.06363
"2951",48.095398,87.518425,88.927246
"2952",48.108734,87.02281,88.66658
"2953",48.12204,86.51011,88.37334
"2954",48.135376,86.00961,88.07628
"2955",48.148712,85.504234,87.7587
"2956",48.16205,84.97444,87.40091
"2957",48.175385,84.403145,86.98506
"2958",48.18872,83.79767,86.51718
"2959",48.202057,83.17021,86.0084
"2960",48.215363,82.55741,85.49467
"2961",48.2287,81.99344,85.01061
"2962",48.242035,81.50027,84.579735
"2963",48.25537,81.08766,84.21401
"2964",48.268707,80.75075,83.91109
"2965",48.282043,80.46998,83.65378
"2966",48.29538,80.22583,83.42432
"2967",48.308716,79.99878,83.20432
"2968",48.322052,79.766846,82.97235
"2969",48.335358,79.5227,82.72092
"2970",48.348694,79.26147,82.44477
"2971",48.36203,78.98558,82.145805
"2972",48.375366,78.69749,81.82601
"2973",48.388702,78.40208,81.4899
"2974",48.40204,78.101776,81.13966
"2975",48.415375,77.81125,80.78982
"2976",48.42868,77.53048,80.44065
"2977",48.442017,77.261925,80.094925
"2978",48.455353,77.01289,79.76033
"2979",48.46869,76.78584,79.43993
"2980",48.482025,76.58564,79.13929
"2981",48.49536,76.402534,78.84949
"2982",48.508698,76.243835,78.57837
"2983",48.522034,76.10712,78.32427
"2984",48.53537,75.99237,78.087875
"2985",48.548676,75.894714,77.86498
"2986",48.56201,75.81903,77.66101
"2987",48.575348,75.76044,77.47176
"2988",48.588684,75.718925,77.29777
"2989",48.60202,75.68963,77.13469
"2990",48.615356,75.6701,76.98046
"2991",48.628693,75.65789,76.83295
"2992",48.642,75.65789,76.69726
"2993",48.655334,75.65789,76.56157
"2994",48.66867,75.66277,76.43076
"2995",48.682007,75.665215,76.29767
"2996",48.695343,75.67498,76.171974
"2997",48.70868,75.684746,76.046585
"2998",48.722015,75.69695,75.92394
"2999",48.73535,75.70428,75.7968
"3000",48.748688,75.7116,75.66988
"3001",48.761993,75.72625,75.55052
"3002",48.77533,75.79462,75.48534
"3003",48.788666,75.99237,75.551674
"3004",48.802002,76.4123,75.84637
"3005",48.81534,77.14473,76.46668
"3006",48.828674,78.238495,77.47122
"3007",48.84201,79.66674,78.84442
"3008",48.855316,81.35134,80.51861
"3009",48.868652,83.15556,82.36506
"3010",48.88199,84.910965,84.21907
"3011",48.895325,86.40513,85.8667
"3012",48.90866,87.47936,87.14109
"3013",48.921997,88.06287,87.95833
"3014",48.935333,88.17273,88.32016
"3015",48.94867,87.89929,88.302124
"3016",48.962006,87.40124,88.05092
"3017",48.97531,86.83482,87.71579
"3018",48.988647,86.28306,87.37761
"3019",49.001984,85.7728,87.06369
"3020",49.01532,85.27718,86.748474
"3021",49.028656,84.771805,86.408005
"3022",49.041992,84.23468,86.02
"3023",49.05533,83.6585,85.57615
"3024",49.068634,83.05791,85.08988
"3025",49.08197,82.46708,84.59461
"3026",49.095306,81.9202,84.124825
"3027",49.108643,81.449,83.71363
"3028",49.12198,81.058365,83.36828
"3029",49.135315,80.7483,83.091286
"3030",49.14865,80.49683,82.863205
"3031",49.161987,80.28443,82.66633
"3032",49.175323,80.08423,82.47501
"3033",49.18863,79.886475,82.27989
"3034",49.201965,79.676506,82.066376
"3035",49.2153,79.4519,81.83166
"3036",49.228638,79.20531,81.56794
"3037",49.241974,78.94408,81.281876
"3038",49.25531,78.67063,80.97543
"3039",49.268646,78.38987,80.65313
"3040",49.28195,78.1091,80.322044
"3041",49.295288,77.83322,79.987076
"3042",49.308624,77.574425,79.66057
"3043",49.32196,77.33517,79.34551
"3044",49.335297,77.1252,79.05227
"3045",49.348633,76.946976,78.78421
"3046",49.36197,76.80049,78.54232
"3047",49.375305,76.680855,78.3227
"3048",49.38864,76.58564,78.123764
"3049",49.401947,76.5124,77.943825
"3050",49.415283,76.46357,77.78601
"3051",49.42862,76.43183,77.64376
"3052",49.441956,76.419624,77.52005
"3053",49.45529,76.422066,77.41061
"3054",49.468628,76.4416,77.31833
"3055",49.481964,76.46845,77.233986
"3056",49.49527,76.49531,77.15048
"3057",49.508606,76.52705,77.0727
"3058",49.521942,76.558784,76.99591
"3059",49.53528,76.595406,76.924995
"3060",49.548615,76.63691,76.86011
"3061",49.56195,76.680855,76.79896
"3062",49.575287,76.71992,76.7343
"3063",49.588623,76.754105,76.665985
"3064",49.60196,76.78584,76.59629
"3065",49.615265,76.822464,76.53247
"3066",49.6286,76.895706,76.50642
"3067",49.641937,77.05684,76.57054
"3068",49.655273,77.39376,76.81549
"3069",49.66861,77.99924,77.33952
"3070",49.681946,78.9807,78.25846
"3071",49.695282,80.52857,79.77448
"3072",49.708588,82.83574,82.09817
"3073",49.721924,85.83627,85.18732
"3074",49.73526,89.11513,88.64855
"3075",49.748596,92.105896,91.924164
"3076",49.761932,94.293434,94.49001
"3077",49.77527,95.328606,95.971855
"3078",49.788605,95.17723,96.2995
"3079",49.80194,94.16159,95.75815
"3080",49.815277,92.77486,94.813965
"3081",49.828583,91.33929,93.77761
"3082",49.84192,89.986725,92.7794
"3083",49.855255,88.76112,91.86589
"3084",49.86859,87.64294,91.021484
"3085",49.881927,86.60532,90.22272
"3086",49.895264,85.61166,89.43546
"3087",49.9086,84.644844,88.64401
"3088",49.921906,83.70489,87.849205
"3089",49.93524,82.804,87.064095
"3090",49.948578,81.98123,86.32895
"3091",49.961914,81.26345,85.67308
"3092",49.97525,80.65797,85.10708
"3093",49.988586,80.15747,84.627144
"3094",50.001923,79.74731,84.2219
"3095",50.01526,79.398186,83.86488
"3096",50.028595,79.07347,83.52136
"3097",50.0419,78.75365,83.172585
"3098",50.055237,78.42161,82.8016
"3099",50.068573,78.07248,82.403145
"3100",50.08191,77.70382,81.97425
"3101",50.095245,77.31808,81.516754
"3102",50.10858,76.93477,81.04964
"3103",50.121918,76.55634,80.575424
"3104",50.135223,76.192566,80.104034
"3105",50.14856,75.85321,79.6457
"3106",50.161896,75.543144,79.20605
"3107",50.175232,75.267265,78.79089
"3108",50.18857,75.02556,78.40129
"3109",50.201904,74.82292,78.043205
"3110",50.21524,74.649574,77.70808
"3111",50.228577,74.50797,77.39928
"3112",50.241913,74.38834,77.108025
"3113",50.25522,74.29557,76.83989
"3114",50.268555,74.21988,76.58594
"3115",50.28189,74.16861,76.35404
"3116",50.295227,74.13931,76.14252
"3117",50.308563,74.12955,75.94961
"3118",50.3219,74.141754,75.778366
"3119",50.335236,74.175934,75.62948
"3120",50.34854,74.22476,75.49631
"3121",50.361877,74.285805,75.37688
"3122",50.375214,74.35172,75.26423
"3123",50.38855,74.42008,75.15608
"3124",50.401886,74.48844,75.05007
"3125",50.415222,74.56168,74.95108
"3126",50.42856,74.632484,74.85194
"3127",50.441895,74.70573,74.75745
"3128",50.45523,74.776535,74.66281
"3129",50.468536,74.847336,74.57038
"3130",50.481873,74.94255,74.50458
"3131",50.49521,75.12077,74.52476
"3132",50.508545,75.46502,74.71653
"3133",50.52188,76.06561,75.17541
"3134",50.535217,77.01289,75.99974
"3135",50.548553,78.397194,77.290695
"3136",50.56186,80.323494,79.16691
"3137",50.575195,82.757614,81.61114
"3138",50.58853,85.401695,84.34139
"3139",50.601868,87.80652,86.915016
"3140",50.615204,89.566795,88.91925
"3141",50.62854,90.42863,90.08005
"3142",50.641876,90.34806,90.32538
"3143",50.655212,89.56191,89.86261
"3144",50.66855,88.465706,89.065216
"3145",50.681854,87.37194,88.23601
"3146",50.69519,86.400246,87.49469
"3147",50.708527,85.54818,86.84263
"3148",50.721863,84.78645,86.25428
"3149",50.7352,84.07599,85.69339
"3150",50.748535,83.38506,85.12984
"3151",50.76187,82.70634,84.55689
"3152",50.775177,82.04959,83.98472
"3153",50.788513,81.43923,83.43841
"3154",50.80185,80.902115,82.946266
"3155",50.815186,80.45533,82.52767
"3156",50.82852,80.1062,82.19277
"3157",50.841858,79.83765,81.927536
"3158",50.855194,79.62524,81.71005
"3159",50.86853,79.44457,81.51768
"3160",50.881866,79.27123,81.32698
"3161",50.895172,79.08812,81.12109
"3162",50.90851,78.887924,80.8924
"3163",50.921844,78.66575,80.635475
"3164",50.93518,78.42405,80.35208
"3165",50.948517,78.170135,80.04892
"3166",50.961853,77.91623,79.73783
"3167",50.97519,77.6672,79.42368
"3168",50.988495,77.43038,79.11397
"3169",51.00183,77.21065,78.813934
"3170",51.015167,77.00801,78.52413
"3171",51.028503,76.82002,78.242645
"3172",51.04184,76.65156,77.97481
"3173",51.055176,76.50019,77.7188
"3174",51.068512,76.3708,77.48004
"3175",51.08185,76.25849,77.254326
"3176",51.095184,76.16571,77.044624
"3177",51.10849,76.09003,76.84912
"3178",51.121826,76.02899,76.6659
"3179",51.135162,75.98749,76.500305
"3180",51.1485,75.96063,76.34806
"3181",51.161835,75.948425,76.209625
"3182",51.17517,75.948425,76.083015
"3183",51.188507,75.96063,75.96861
"3184",51.201813,75.97772,75.859474
"3185",51.21515,76.00214,75.758194
"3186",51.228485,76.03143,75.66256
"3187",51.24182,76.06561,75.57272
"3188",51.255157,76.09979,75.483955
"3189",51.268494,76.13153,75.393814
"3190",51.28183,76.16083,75.30222
"3191",51.295166,76.18768,75.20911
"3192",51.308502,76.243835,75.146126
"3193",51.321808,76.385445,75.17036
"3194",51.335144,76.69306,75.36502
"3195",51.34848,77.25216,75.82078
"3196",51.361816,78.12863,76.61138
"3197",51.375153,79.32983,77.7541
"3198",51.38849,80.82399,79.22732
"3199",51.401825,82.53788,80.96696
"3200",51.41513,84.334785,82.84317
"3201",51.428467,85.98276,84.6266
"3202",51.441803,87.26452,86.09532
"3203",51.45514,88.03357,87.091385
"3204",51.468475,88.24841,87.55728
"3205",51.48181,87.96765,87.53429
"3206",51.495148,87.3695,87.18512
"3207",51.508484,86.659035,86.704956
"3208",51.52182,85.96323,86.21724
"3209",51.535126,85.31869,85.75905
"3210",51.548462,84.71809,85.32465
"3211",51.5618,84.14435,84.89835
"3212",51.575134,83.57305,84.456566
"3213",51.58847,83.004196,83.99937
"3214",51.601807,82.45487,83.54392
"3215",51.615143,81.94461,83.110374
"3216",51.62845,81.50027,82.7268
"3217",51.641785,81.13893,82.412346
"3218",51.65512,80.86061,82.16962
"3219",51.668457,80.65064,81.98654
"3220",51.681793,80.48951,81.84574
"3221",51.69513,80.35523,81.72676
"3222",51.708466,80.22339,81.60602
"3223",51.7218,80.07202,81.46163
"3224",51.735138,79.89624,81.2881
"3225",51.748444,79.693596,81.082214
"3226",51.76178,79.466545,80.84559
"3227",51.775116,79.2224,80.58477
"3228",51.788452,78.97093,80.309006
"3229",51.80179,78.71946,80.025375
"3230",51.815125,78.47288,79.73878
"3231",51.82846,78.24094,79.459114
"3232",51.841766,78.02609,79.1893
"3233",51.855103,77.838104,78.93963
"3234",51.86844,77.67208,78.70605
"3235",51.881775,77.53536,78.49658
"3236",51.89511,77.4255,78.3097
"3237",51.908447,77.33761,78.14136
"3238",51.921783,77.27169,77.99224
"3239",51.93512,77.22774,77.86303
"3240",51.948456,77.20088,77.74954
"3241",51.96176,77.19112,77.652306
"3242",51.975098,77.19356,77.56697
"3243",51.988434,77.20332,77.48904
"3244",52.00177,77.21309,77.41141
"3245",52.015106,77.21553,77.32676
"3246",52.028442,77.21797,77.24219
"3247",52.04178,77.21553,77.15281
"3248",52.055084,77.205765,77.05603
"3249",52.06842,77.19112,76.95406
"3250",52.081757,77.18379,76.85896
"3251",52.095093,77.21065,76.79781
"3252",52.10843,77.330284,76.830284
"3253",52.121765,77.61349,77.03006
"3254",52.1351,78.14084,77.482834
"3255",52.148438,78.958725,78.24262
"3256",52.161774,80.059814,79.31117
"3257",52.17508,81.40261,80.65584
"3258",52.188416,82.896774,82.19383
"3259",52.20175,84.41291,83.80049
"3260",52.215088,85.77524,85.30072
"3261",52.228424,86.8275,86.533455
"3262",52.24176,87.45739,87.3767
"3263",52.255096,87.63073,87.78308
"3264",52.268402,87.40124,87.79205
"3265",52.28174,86.888535,87.510635
"3266",52.295074,86.239105,87.07647
"3267",52.30841,85.557945,86.59028
"3268",52.321747,84.89143,86.09745
"3269",52.335083,84.242004,85.600876
"3270",52.34842,83.60723,85.09866
"3271",52.361755,82.98711,84.59126
"3272",52.37509,82.39628,84.09378
"3273",52.388397,81.85184,83.62422
"3274",52.401733,81.38064,83.21089
"3275",52.41507,80.99245,82.865845
"3276",52.428406,80.69459,82.599
"3277",52.441742,80.46998,82.396095
"3278",52.45508,80.30396,82.24477
"3279",52.468414,80.16724,82.11754
"3280",52.48172,80.042725,81.99825
"3281",52.495056,79.906006,81.86287
"3282",52.508392,79.74975,81.703674
"3283",52.52173,79.56664,81.51275
"3284",52.535065,79.35424,81.286804
"3285",52.5484,79.12474,81.037125
"3286",52.561737,78.89281,80.77784
"3287",52.575073,78.65598,80.50642
"3288",52.58841,78.42161,80.23004
"3289",52.601715,78.19699,79.9561
"3290",52.61505,77.98703,79.6898
"3291",52.628387,77.79416,79.43402
"3292",52.641724,77.61837,79.1893
"3293",52.65506,77.46212,78.958626
"3294",52.668396,77.32296,78.74016
"3295",52.681732,77.205765,78.53931
"3296",52.695038,77.09834,78.34457
"3297",52.708374,77.00557,78.16112
"3298",52.72171,76.93233,77.9943
"3299",52.735046,76.87129,77.8374
"3300",52.748383,76.822464,77.6908
"3301",52.76172,76.7834,77.552444
"3302",52.775055,76.74677,77.4153
"3303",52.78839,76.715034,77.2819
"3304",52.801727,76.69062,77.15483
"3305",52.815033,76.69306,77.053856
"3306",52.82837,76.76387,77.021324
"3307",52.841705,76.96895,77.125275
"3308",52.85504,77.37911,77.44072
"3309",52.868378,78.05539,78.035095
"3310",52.881714,79.0222,78.94114
"3311",52.89505,80.26002,80.1484
"3312",52.908356,81.72732,81.623825
"3313",52.92169,83.32403,83.27451
"3314",52.935028,84.88655,84.94091
"3315",52.948364,86.21713,86.424194
"3316",52.9617,87.14488,87.54623
"3317",52.975037,87.58434,88.20896
"3318",52.988373,87.53307,88.3947
"3319",53.00171,87.08873,88.18576
"3320",53.015045,86.4271,87.74565
"3321",53.02835,85.697105,87.2165
"3322",53.041687,84.979324,86.67675
"3323",53.055023,84.29328,86.14631
"3324",53.06836,83.62676,85.61395
"3325",53.081696,82.9749,85.075424
"3326",53.09503,82.34501,84.5385
"3327",53.108368,81.75906,84.02583
"3328",53.121674,81.24147,83.56321
"3329",53.13501,80.81178,83.17232
"3330",53.148346,80.479744,82.86565
"3331",53.161682,80.24048,82.64137
"3332",53.17502,80.07202,82.48043
"3333",53.188354,79.94751,82.35817
"3334",53.20169,79.84253,82.25155
"3335",53.215027,79.73022,82.134315
"3336",53.228363,79.5935,81.98917
"3337",53.24167,79.42504,81.80801
"3338",53.255005,79.219955,81.58495
"3339",53.26834,78.99046,81.331085
"3340",53.281677,78.74143,81.05051
"3341",53.295013,78.485085,80.75483
"3342",53.30835,78.22873,80.45113
"3343",53.321686,77.98215,80.1492
"3344",53.33499,77.747765,79.85176
"3345",53.348328,77.53292,79.566536
"3346",53.361664,77.33517,79.29169
"3347",53.375,77.15938,79.03262
"3348",53.388336,77.00557,78.79005
"3349",53.401672,76.87129,78.562195
"3350",53.41501,76.75899,78.35212
"3351",53.428345,76.663765,78.15562
"3352",53.44168,76.578316,77.96591
"3353",53.454987,76.50996,77.79063
"3354",53.468323,76.44892,77.62053
"3355",53.48166,76.39521,77.45585
"3356",53.494995,76.36103,77.30902
"3357",53.50833,76.36103,77.195305
"3358",53.521667,76.43183,77.15239
"3359",53.535004,76.646675,77.25573
"3360",53.54831,77.083694,77.58796
"3361",53.561646,77.81613,78.22926
"3362",53.57498,78.91966,79.26455
"3363",53.588318,80.50172,80.81284
"3364",53.601654,82.6038,82.9306
"3365",53.61499,85.0428,85.45097
"3366",53.628326,87.447624,88.01338
"3367",53.641663,89.40078,90.19928
"3368",53.655,90.582436,91.67471
"3369",53.668304,90.83635,92.25933
"3370",53.68164,90.267494,92.02911
"3371",53.694977,89.2079,91.29038
"3372",53.708313,88.006714,90.37694
"3373",53.72165,86.86168,89.48212
"3374",53.734985,85.82895,88.66381
"3375",53.74832,84.9012,87.91821
"3376",53.761627,84.03693,87.2071
"3377",53.774963,83.211716,86.50804
"3378",53.7883,82.41093,85.80762
"3379",53.801636,81.651634,85.123665
"3380",53.814972,80.96071,84.48435
"3381",53.82831,80.36988,83.923546
"3382",53.841644,79.89136,83.45658
"3383",53.85498,79.53246,83.09429
"3384",53.868317,79.26635,82.81357
"3385",53.881622,79.06859,82.59288
"3386",53.89496,78.91234,82.407524
"3387",53.908295,78.77074,82.23193
"3388",53.92163,78.6218,82.044586
"3389",53.934967,78.44846,81.82818
"3390",53.948303,78.24338,81.57461
"3391",53.96164,78.00412,81.28046
"3392",53.974945,77.738,80.951965
"3393",53.98828,77.46212,80.6054
"3394",54.001617,77.188675,80.25265
"3395",54.014954,76.925,79.90112
"3396",54.02829,76.6833,79.563324
"3397",54.041626,76.46601,79.24239
"3398",54.054962,76.27802,78.94397
"3399",54.0683,76.11444,78.66408
"3400",54.081635,75.97284,78.401054
"3401",54.09494,75.84833,78.150696
"3402",54.108276,75.74822,77.92085
"3403",54.121613,75.66277,77.70254
"3404",54.13495,75.59441,77.49864
"3405",54.148285,75.5407,77.30726
"3406",54.16162,75.494316,77.12152
"3407",54.174957,75.457695,76.9441
"3408",54.188263,75.440605,76.785065
"3409",54.2016,75.47967,76.68165
"3410",54.214935,75.64324,76.703964
"3411",54.22827,76.02167,76.94624
"3412",54.241608,76.71259,77.51285
"3413",54.254944,77.93088,78.6284
"3414",54.26828,79.991455,80.62432
"3415",54.281616,83.035934,83.66853
"3416",54.294952,86.80553,87.533
"3417",54.308258,90.719154,91.659294
"3418",54.321594,94.115204,95.39032
"3419",54.33493,96.38331,98.099525
"3420",54.348267,97.1841,99.41229
"3421",54.361603,96.654305,99.4195
"3422",54.37494,95.28222,98.56786
"3423",54.388275,93.55123,97.314445
"3424",54.40158,91.77142,95.958115
"3425",54.414917,90.10147,94.65602
"3426",54.428253,88.5951,93.465324
"3427",54.44159,87.23033,92.369156
"3428",54.454926,85.9559,91.32067
"3429",54.46826,84.73029,90.28118
"3430",54.481598,83.53643,89.23514
"3431",54.494934,82.39628,88.2055
"3432",54.50827,81.339134,87.223236
"3433",54.521576,80.411385,86.33733
"3434",54.534912,79.635,85.57381
"3435",54.54825,79.012436,84.939835
"3436",54.561584,78.519264,84.4158
"3437",54.57492,78.13107,83.98134
"3438",54.588257,77.803925,83.59579
"3439",54.601593,77.50118,83.22442
"3440",54.6149,77.19844,82.84359
"3441",54.628235,76.88106,82.43866
"3442",54.64157,76.541695,82.00183
"3443",54.654907,76.18524,81.53731
"3444",54.668243,75.82391,81.05677
"3445",54.68158,75.46746,80.56982
"3446",54.694916,75.125656,80.08637
"3447",54.708252,74.80339,79.611786
"3448",54.72159,74.50797,79.15398
"3449",54.734894,74.24185,78.71623
"3450",54.74823,74.005035,78.29948
"3451",54.761566,73.80484,77.91194
"3452",54.774902,73.6437,77.557205
"3453",54.78824,73.52163,77.2365
"3454",54.801575,73.43618,76.94861
"3455",54.81491,73.38247,76.68978
"3456",54.828217,73.35317,76.45369
"3457",54.841553,73.34341,76.23621
"3458",54.85489,73.338524,76.023315
"3459",54.868225,73.338524,75.81515
"3460",54.88156,73.33608,75.60454
"3461",54.894897,73.34585,75.40606
"3462",54.908234,73.39712,75.24939
"3463",54.92157,73.55581,75.201744
"3464",54.934906,73.91226,75.35682
"3465",54.94821,74.60807,75.86239
"3466",54.961548,75.99237,77.07819
"3467",54.974884,78.51194,79.47253
"3468",54.98822,82.33524,83.24933
"3469",55.001556,87.14244,88.1295
"3470",55.014893,92.25971,93.46997
"3471",55.02823,96.8716,98.46497
"3472",55.041534,100.18463,102.305244
"3473",55.05487,101.75937,104.51075
"3474",55.068207,101.71053,105.14189
"3475",55.081543,100.55085,104.66066
"3476",55.09488,98.75639,103.508415
"3477",55.108215,96.68116,102.01932
"3478",55.12155,94.56199,100.42143
"3479",55.134888,92.523384,98.83789
"3480",55.148224,90.57755,97.28342
"3481",55.16153,88.68055,95.716965
"3482",55.174866,86.79332,94.101
"3483",55.1882,84.90852,92.42849
"3484",55.201538,83.05791,90.73126
"3485",55.214874,81.307396,89.07631
"3486",55.22821,79.725334,87.5351
"3487",55.241547,78.36057,86.16176
"3488",55.254852,77.23262,84.982574
"3489",55.26819,76.33173,83.99521
"3490",55.281525,75.62371,83.172554
"3491",55.29486,75.06462,82.47671
"3492",55.308197,74.61295,81.87081
"3493",55.321533,74.21988,81.309395
"3494",55.33487,73.85367,80.76256
"3495",55.348206,73.49233,80.20915
"3496",55.36154,73.13344,79.6469
"3497",55.374847,72.77699,79.075874
"3498",55.388184,72.43519,78.508354
"3499",55.40152,72.112915,77.94968
"3500",55.414856,71.817505,77.40779
"3501",55.428192,71.551384,76.88597
"3502",55.44153,71.31701,76.38757
"3503",55.454865,71.12169,75.92091
"3504",55.46817,70.960556,75.48233
"3505",55.481506,70.84093,75.080215
"3506",55.494843,70.75548,74.70854
"3507",55.50818,70.711525,74.3757
"3508",55.521515,70.69688,74.070786
"3509",55.53485,70.71397,73.79715
"3510",55.548187,70.75792,73.55091
"3511",55.561523,70.83116,73.33534
"3512",55.57486,70.92638,73.14403
"3513",55.588165,71.04112,72.97522
"3514",55.6015,71.168076,72.822205
"3515",55.614838,71.30236,72.6805
"3516",55.628174,71.43664,72.54297
"3517",55.64151,71.570915,72.40964
"3518",55.654846,71.70031,72.27562
"3519",55.668182,71.837036,72.152985
"3520",55.681488,72.007935,72.06879
"3521",55.694824,72.27894,72.09004
"3522",55.70816,72.73792,72.30774
"3523",55.721497,73.51186,72.85474
"3524",55.734833,74.85222,73.99234
"3525",55.74817,77.17403,76.15328
"3526",55.761505,80.72144,79.61239
"3527",55.77484,85.28451,84.198
"3528",55.788177,90.29191,89.37054
"3529",55.801483,95.0161,94.41635
"3530",55.81482,98.736855,98.60636
"3531",55.828156,100.96834,101.42337
"3532",55.84149,101.730064,102.840355
"3533",55.854828,101.47372,103.26307
"3534",55.868164,100.68757,103.14797
"3535",55.8815,99.6939,102.80079
"3536",55.894806,98.68314,102.405464
"3537",55.908142,97.70901,102.015175
"3538",55.92148,96.69581,101.55538
"3539",55.934814,95.47509,100.85641
"3540",55.94815,93.90036,99.765274
"3541",55.961487,91.91547,98.21477
"3542",55.974823,89.58877,96.26043
"3543",55.98816,87.09117,94.062485
"3544",56.001495,84.63264,91.82555
"3545",56.0148,82.40116,89.73884
"3546",56.028137,80.49683,87.909546
"3547",56.041473,78.941635,86.36987
"3548",56.05481,77.68673,85.081894
"3549",56.068146,76.67597,83.99885
"3550",56.081482,75.841,83.060005
"3551",56.09482,75.13298,82.222015
"3552",56.108124,74.50309,81.44003
"3553",56.12146,73.917145,80.68231
"3554",56.134796,73.36782,79.9429
"3555",56.148132,72.85268,79.220505
"3556",56.16147,72.37171,78.51619
"3557",56.174805,71.92981,77.83591
"3558",56.18814,71.534294,77.1882
"3559",56.201477,71.18761,76.576965
"3560",56.214813,70.88487,75.99884
"3561",56.22812,70.623634,75.45276
"3562",56.241455,70.40879,74.9449
"3563",56.25479,70.237885,74.474266
"3564",56.268127,70.10849,74.0398
"3565",56.281464,70.0206,73.6428
"3566",56.2948,69.96445,73.27479
"3567",56.308136,69.94003,72.93676
"3568",56.32144,69.942474,72.624825
"3569",56.334778,69.97421,72.34226
"3570",56.348114,70.03769,72.09243
"3571",56.36145,70.12558,71.868996
"3572",56.374786,70.237885,71.67272
"3573",56.388123,70.37217,71.50194
"3574",56.40146,70.518654,71.34755
"3575",56.414795,70.67002,71.20262
"3576",56.42813,70.83116,71.0722
"3577",56.441437,71.0045,70.959015
"3578",56.454773,71.185165,70.85857
"3579",56.46811,71.3756,70.773544
"3580",56.481445,71.570915,70.69934
"3581",56.49478,71.77112,70.63614
"3582",56.508118,71.97131,70.57918
"3583",56.521454,72.166626,70.52359
"3584",56.53476,72.35462,70.4668
"3585",56.548096,72.535286,70.40854
"3586",56.56143,72.708626,70.3486
"3587",56.574768,72.87709,70.289215
"3588",56.588104,73.0724,70.26194
"3589",56.60144,73.35561,70.32867
"3590",56.614777,73.831696,70.597115
"3591",56.628113,74.649574,71.22224
"3592",56.64145,76.192566,72.59803
"3593",56.654755,79.00267,75.289154
"3594",56.66809,83.34844,79.60376
"3595",56.681427,88.956436,85.31639
"3596",56.694763,95.1577,91.79755
"3597",56.7081,101.09529,98.20882
"3598",56.721436,105.85855,103.6313
"3599",56.73477,108.84688,107.427704
"3600",56.748077,110.05295,109.53524
"3601",56.761414,109.91623,110.33768
"3602",56.77475,108.910355,110.266685
"3603",56.788086,107.41131,109.67109
"3604",56.801422,105.724266,108.84065
"3605",56.81476,104.025024,107.9453
"3606",56.828094,102.34043,107.01149
"3607",56.84143,100.55329,105.922485
"3608",56.854767,98.50248,104.51396
"3609",56.868073,96.06836,102.65804
"3610",56.88141,93.24605,100.33787
"3611",56.894745,90.16739,97.67315
"3612",56.90808,87.04234,94.86584
"3613",56.921417,84.102844,92.14641
"3614",56.934753,81.529564,89.70134
"3615",56.94809,79.38842,87.607994
"3616",56.961395,77.66476,85.86522
"3617",56.97473,76.29023,84.41772
"3618",56.988068,75.18181,83.19337
"3619",57.001404,74.27116,82.13215
"3620",57.01474,73.48989,81.17186
"3621",57.028076,72.798965,80.2775
"3622",57.041412,72.166626,79.42013
"3623",57.05475,71.58312,78.59183
"3624",57.068085,71.043564,77.789246
"3625",57.08139,70.55039,77.01619
"3626",57.094727,70.10605,76.27654
"3627",57.108063,69.712975,75.57428
"3628",57.1214,69.383385,74.92322
"3629",57.134735,69.11482,74.32288
"3630",57.14807,68.909744,73.77764
"3631",57.161407,68.7657,73.287025
"3632",57.174713,68.680244,72.850494
"3633",57.18805,68.64362,72.46013
"3634",57.201385,68.65095,72.112564
"3635",57.21472,68.69489,71.80185
"3636",57.228058,68.78035,71.53402
"3637",57.241394,68.89998,71.30303
"3638",57.25473,69.04402,71.1002
"3639",57.268066,69.21004,70.923836
"3640",57.281403,69.39315,70.76976
"3641",57.29471,69.58602,70.631165
"3642",57.308044,69.78134,70.501045
"3643",57.32138,69.98398,70.384346
"3644",57.334717,70.18906,70.27642
"3645",57.348053,70.399025,70.179794
"3646",57.36139,70.606544,70.08728
"3647",57.374725,70.81407,70.00126
"3648",57.38803,71.01915,69.91928
"3649",57.401367,71.22667,69.846146
"3650",57.414703,71.4342,69.77951
"3651",57.42804,71.63683,69.71446
"3652",57.441376,71.83948,69.65576
"3653",57.454712,72.042114,69.60338
"3654",57.46805,72.23987,69.552444
"3655",57.481384,72.43519,69.505264
"3656",57.49472,72.62806,69.46173
"3657",57.508026,72.80873,69.41203
"3658",57.521362,72.97963,69.35821
"3659",57.5347,73.15297,69.312164
"3660",57.548035,73.36538,69.31061
"3661",57.56137,73.687645,69.425545
"3662",57.574707,74.232086,69.77273
"3663",57.588043,75.1696,70.53
"3664",57.60135,76.912796,72.122246
"3665",57.614685,79.96216,75.075134
"3666",57.62802,84.46906,79.58086
"3667",57.641357,90.05264,85.30409
"3668",57.654694,95.97803,91.543625
"3669",57.66803,101.37606,97.44097
"3670",57.681366,105.38247,102.11538
"3671",57.694702,107.55779,105.08391
"3672",57.70804,108.053406,106.440704
"3673",57.721344,107.39666,106.66063
"3674",57.73468,106.04654,106.16666
"3675",57.748016,104.35706,105.29114
"3676",57.761353,102.57969,104.27492
"3677",57.77469,100.82185,103.2227
"3678",57.788025,99.06645,102.11798
"3679",57.80136,97.21095,100.85831
"3680",57.814667,95.14305,99.32825
"3681",57.828003,92.81392,97.472336
"3682",57.84134,90.27482,95.33367
"3683",57.854675,87.6527,93.032646
"3684",57.86801,85.12337,90.74246
"3685",57.881348,82.84062,88.61982
"3686",57.894684,80.885025,86.75299
"3687",57.90802,79.273674,85.1693
"3688",57.921356,77.96994,83.842865
"3689",57.93466,76.91768,82.727165
"3690",57.947998,76.05585,81.76901
"3691",57.961334,75.32342,80.91333
"3692",57.97467,74.68131,80.125084
"3693",57.988007,74.09537,79.37293
"3694",58.001343,73.548485,78.64153
"3695",58.01468,73.03334,77.92478
"3696",58.027985,72.56214,77.23588
"3697",58.04132,72.14221,76.58351
"3698",58.054657,71.77112,75.96686
"3699",58.067993,71.45617,75.39476
"3700",58.08133,71.19493,74.86653
"3701",58.094666,70.98497,74.38141
"3702",58.108,70.82384,73.93855
"3703",58.121338,70.70908,73.53705
"3704",58.134674,70.6334,73.17102
"3705",58.14798,70.589455,72.834366
"3706",58.161316,70.56992,72.52075
"3707",58.174652,70.56504,72.221176
"3708",58.18799,70.58457,71.94586
"3709",58.201324,70.6334,71.700455
"3710",58.21466,70.71397,71.48831
"3711",58.227997,70.82384,71.30799
"3712",58.241302,70.960556,71.15796
"3713",58.25464,71.114365,71.02928
"3714",58.267975,71.27062,70.90787
"3715",58.28131,71.431755,70.7962
"3716",58.294647,71.59289,70.689575
"3717",58.307983,71.75159,70.585556
"3718",58.32132,71.91272,70.48892
"3719",58.334656,72.076294,70.399765
"3720",58.347992,72.24719,70.323044
"3721",58.361298,72.42542,70.259
"3722",58.374634,72.61341,70.21028
"3723",58.38797,72.80873,70.174774
"3724",58.401306,73.00404,70.14536
"3725",58.414642,73.19447,70.11717
"3726",58.42798,73.37759,70.087616
"3727",58.441315,73.55093,70.05401
"3728",58.45462,73.7145,70.01605
"3729",58.467957,73.87076,69.97589
"3730",58.481293,74.02457,69.93816
"3731",58.49463,74.1857,69.91257
"3732",58.507965,74.39323,69.9384
"3733",58.5213,74.71793,70.0879
"3734",58.534637,75.25506,70.45996
"3735",58.547974,76.138855,71.19548
"3736",58.56131,77.61837,72.55434
"3737",58.574615,80.059814,74.92136
"3738",58.58795,83.60479,78.4682
"3739",58.601288,87.92859,82.90465
"3740",58.614624,92.367134,87.59096
"3741",58.62796,96.183105,91.7934
"3742",58.641296,98.71488,94.8309
"3743",58.654633,99.6231,96.32396
"3744",58.66794,99.09575,96.40983
"3745",58.681274,97.687035,95.597855
"3746",58.69461,95.921875,94.385414
"3747",58.707947,94.10544,93.066536
"3748",58.721283,92.4062,91.80809
"3749",58.73462,90.87053,90.66012
"3750",58.747955,89.47402,89.60332
"3751",58.76129,88.17029,88.59565
"3752",58.774628,86.908066,87.588745
"3753",58.787933,85.67025,86.5668
"3754",58.80127,84.46418,85.537926
"3755",58.814606,83.32891,84.54216
"3756",58.82794,82.30106,83.61834
"3757",58.841278,81.41482,82.804
"3758",58.854614,80.67506,82.10845
"3759",58.86795,80.06958,81.52407
"3760",58.881256,79.57397,81.03063
"3761",58.894592,79.15648,80.59983
"3762",58.90793,78.78294,80.199936
"3763",58.921265,78.43626,79.815216
"3764",58.9346,78.09445,79.424545
"3765",58.947937,77.74532,79.01587
"3766",58.961273,77.38644,78.586525
"3767",58.97461,77.01778,78.13619
"3768",58.987946,76.64179,77.667015
"3769",59.00125,76.27314,77.19342
"3770",59.014587,75.92401,76.72783
"3771",59.027924,75.60906,76.28551
"3772",59.04126,75.33318,75.87241
"3773",59.054596,75.10124,75.49464
"3774",59.067932,74.90593,75.14624
"3775",59.08127,74.75212,74.833244
"3776",59.094574,74.62272,74.53985
"3777",59.10791,74.52262,74.27171
"3778",59.121246,74.44694,74.024864
"3779",59.134583,74.39567,73.800064
"3780",59.14792,74.36881,73.598076
"3781",59.161255,74.36393,73.41722
"3782",59.17459,74.37858,73.255745
"3783",59.187927,74.4152,73.1167
"3784",59.201263,74.46891,72.99589
"3785",59.21457,74.53971,72.893845
"3786",59.227905,74.62272,72.80622
"3787",59.24124,74.71305,72.728516
"3788",59.254578,74.80827,72.65852
"3789",59.267914,74.91081,72.59882
"3790",59.28125,75.01335,72.54233
"3791",59.294586,75.11589,72.48904
"3792",59.30789,75.21843,72.43895
"3793",59.321228,75.32342,72.394516
"3794",59.334564,75.423515,72.34847
"3795",59.3479,75.528496,72.31044
"3796",59.361237,75.631035,72.27325
"3797",59.374573,75.73113,72.23682
"3798",59.38791,75.82391,72.1962
"3799",59.401245,75.91669,72.15847
"3800",59.41458,76.036316,72.1505
"3801",59.427887,76.243835,72.23415
"3802",59.441223,76.61982,72.49276
"3803",59.45456,77.25948,73.026794
"3804",59.467896,78.21652,73.89819
"3805",59.48123,79.51537,75.14131
"3806",59.494568,81.15602,76.766815
"3807",59.507904,83.08476,78.73168
"3808",59.52121,85.14046,80.88377
"3809",59.534546,87.064316,82.96827
"3810",59.547882,88.57557,84.70028
"3811",59.56122,89.495995,85.88869
"3812",59.574554,89.75479,86.44424
"3813",59.58789,89.43008,86.42436
"3814",59.601227,88.7367,86.02568
"3815",59.614563,87.921265,85.48326
"3816",59.6279,87.13023,84.93977
"3817",59.641205,86.41245,84.44481
"3818",59.65454,85.75571,83.98845
"3819",59.667877,85.13069,83.5433
"3820",59.681213,84.51545,83.08839
"3821",59.69455,83.90509,82.61913
"3822",59.707886,83.30694,82.14301
"3823",59.721222,82.74784,81.687256
"3824",59.734528,82.262,81.287285
"3825",59.747864,81.864044,80.960014
"3826",59.7612,81.55886,80.71308
"3827",59.774536,81.33181,80.534744
"3828",59.787872,81.15846,80.403015
"3829",59.80121,81.01686,80.297615
"3830",59.814545,80.88258,80.195114
"3831",59.82788,80.73609,80.0762
"3832",59.841217,80.56275,79.925865
"3833",59.854523,80.35523,79.73593
"3834",59.86786,80.12085,79.51265
"3835",59.881195,79.86694,79.26252
"3836",59.89453,79.603264,78.99468
"3837",59.907867,79.33471,78.71373
"3838",59.921204,79.07347,78.4317
"3839",59.93454,78.819565,78.14884
"3840",59.947845,78.58518,77.87757
"3841",59.96118,78.37034,77.618515
"3842",59.974518,78.17746,77.37471
"3843",59.987854,78.00168,77.141975
"3844",60.00119,77.84543,76.92328
"3845",60.014526,77.7087,76.71922
"3846",60.027863,77.58663,76.52555
"3847",60.0412,77.486534,76.35004
"3848",60.054535,77.40597,76.190926
"3849",60.06784,77.347374,76.05127
"3850",60.081177,77.30099,75.92199
"3851",60.094513,77.26925,75.80591
"3852",60.10785,77.24727,75.69859
"3853",60.121185,77.23506,75.600365
"3854",60.13452,77.22774,75.50664
"3855",60.147858,77.21553,75.4078
"3856",60.161163,77.19844,75.303696
"3857",60.1745,77.17891,75.19662
"3858",60.187836,77.16914,75.098694
"3859",60.20117,77.19356,75.034645
"3860",60.214508,77.296104,75.04949
"3861",60.227844,77.54269,75.21158
"3862",60.24118,78.00656,75.59866
"3863",60.254517,78.74387,76.27368
"3864",60.267853,79.75464,77.24519
"3865",60.28116,80.990005,78.47289
"3866",60.294495,82.34257,79.85639
"3867",60.30783,83.67803,81.26506
"3868",60.321167,84.86214,82.5641
"3869",60.334503,85.79477,83.648674
"3870",60.34784,86.42466,84.45965
"3871",60.361176,86.74204,84.9778
"3872",60.37448,86.77867,85.22511
"3873",60.387817,86.58579,85.244064
"3874",60.401154,86.239105,85.10318
"3875",60.41449,85.79721,84.856255
"3876",60.427826,85.30404,84.54424
"3877",60.441162,84.77913,84.18508
"3878",60.4545,84.23224,83.78754
"3879",60.467834,83.66338,83.35094
"3880",60.48117,83.089645,82.89168
"3881",60.494476,82.54032,82.4389
"3882",60.507812,82.05203,82.03
"3883",60.52115,81.63943,81.68152
"3884",60.534485,81.3196,81.412926
"3885",60.54782,81.08766,81.22222
"3886",60.561157,80.919205,81.08775
"3887",60.574493,80.78981,80.98708
"3888",60.5878,80.67506,80.89701
"3889",60.601135,80.55543,80.79848
"3890",60.61447,80.41627,80.676674
"3891",60.627808,80.25025,80.52367
"3892",60.641144,80.05493,80.33617
"3893",60.65448,79.83276,80.115715
"3894",60.667816,79.59594,79.873665
"3895",60.681152,79.34936,79.614456
"3896",60.69449,79.10277,79.347534
"3897",60.707794,78.86351,79.08024
"3898",60.72113,78.63645,78.817665
"3899",60.734467,78.42649,78.565094
"3900",60.747803,78.23117,78.3206
"3901",60.76114,78.05051,78.08466
"3902",60.774475,77.88449,77.85773
"3903",60.78781,77.733116,77.64024
"3904",60.801117,77.5964,77.432686
"3905",60.814453,77.47433,77.235504
"3906",60.82779,77.366905,77.04916
"3907",60.841125,77.27413,76.8741
"3908",60.85446,77.19112,76.7059
"3909",60.867798,77.120316,76.547325
"3910",60.881134,77.05928,76.3963
"3911",60.89447,77.01289,76.25802
"3912",60.907806,77.00069,76.152466
"3913",60.921112,77.069046,76.1271
"3914",60.93445,77.27169,76.23815
"3915",60.947784,77.68917,76.57037
"3916",60.96112,78.37278,77.18177
"3917",60.974457,79.32983,78.08797
"3918",60.987793,80.499275,79.23647
"3919",61.00113,81.76395,80.51675
"3920",61.014435,82.9749,81.78282
"3921",61.02777,84.00763,82.908516
"3922",61.041107,84.77425,83.80037
"3923",61.054443,85.26009,84.43541
"3924",61.06778,85.489586,84.82928
"3925",61.081116,85.51888,85.03012
"3926",61.09445,85.401695,85.085396
"3927",61.107788,85.189285,85.04179
"3928",61.121124,84.91341,84.92807
"3929",61.13443,84.59113,84.75934
"3930",61.147766,84.2298,84.54147
"3931",61.161102,83.826965,84.27082
"3932",61.17444,83.38262,83.94607
"3933",61.187775,82.90898,83.57813
"3934",61.20111,82.4329,83.192955
"3935",61.214447,81.99588,82.83196
"3936",61.227753,81.62722,82.52567
"3937",61.24109,81.341576,82.29088
"3938",61.254425,81.13893,82.13016
"3939",61.26776,81.00221,82.02903
"3940",61.281097,80.907,81.96513
"3941",61.294434,80.82643,81.91291
"3942",61.30777,80.73121,81.84351
"3943",61.321106,80.61158,81.746735
"3944",61.334442,80.45533,81.6096
"3945",61.347748,80.26246,81.430954
"3946",61.361084,80.03784,81.21454
"3947",61.37442,79.79126,80.96914
"3948",61.387756,79.537346,80.7087
"3949",61.401093,79.281,80.4379
"3950",61.41443,79.03197,80.1664
"3951",61.427765,78.80003,79.90421
"3952",61.44107,78.58518,79.65186
"3953",61.454407,78.38743,79.4099
"3954",61.467743,78.21164,79.183716
"3955",61.48108,78.05295,78.96914
"3956",61.494415,77.91379,78.769135
"3957",61.50775,77.79172,78.58187
"3958",61.521088,77.68185,78.40299
"3959",61.534424,77.58419,78.232895
"3960",61.54776,77.49142,78.06463
"3961",61.561066,77.40597,77.90079
"3962",61.5744,77.34005,77.75381
"3963",61.587738,77.31808,77.64871
"3964",61.601074,77.38888,77.635704
"3965",61.61441,77.625694,77.790924
"3966",61.627747,78.116425,78.20746
"3967",61.641083,78.93187,78.96404
"3968",61.65439,80.17944,80.17824
"3969",61.667725,82.01053,82.01493
"3970",61.68106,84.439766,84.506996
"3971",61.694397,87.21324,87.41921
"3972",61.707733,89.884186,90.31557
"3973",61.72107,91.99359,92.73386
"3974",61.734406,93.19722,94.31229
"3975",61.74774,93.35836,94.88584
"3976",61.761078,92.662544,94.607475
"3977",61.774384,91.510185,93.85082
"3978",61.78772,90.25773,92.95806
"3979",61.801056,89.07118,92.09207
"3980",61.814392,88.00427,91.30864
"3981",61.82773,87.03258,90.58708
"3982",61.841064,86.10971,89.88398
"3983",61.8544,85.19661,89.161804
"3984",61.867706,84.29328,88.42087
"3985",61.881042,83.41192,87.67367
"3986",61.89438,82.58915,86.95752
"3987",61.907715,81.866486,86.315765
"3988",61.92105,81.270775,85.77838
"3989",61.934387,80.80202,85.349335
"3990",61.947723,80.44068,85.01306
"3991",61.96106,80.15747,84.74362
"3992",61.974396,79.923096,84.51417
"3993",61.9877,79.70336,84.29203
"3994",62.001038,79.47143,84.05083
"3995",62.014374,79.21263,83.77551
"3996",62.02771,78.922104,83.46038
"3997",62.041046,78.60471,83.10931
"3998",62.054382,78.26536,82.72635
"3999",62.06772,77.925995,82.33278
"4000",62.081024,77.58907,81.931046
"4001",62.09436,77.27169,81.53832
"4002",62.107697,76.978714,81.16009
"4003",62.121033,76.715034,80.801994
"4004",62.13437,76.48066,80.464966
"4005",62.147705,76.27314,80.14747
"4006",62.16104,76.085144,79.84301
"4007",62.174377,75.91669,79.552216
"4008",62.187714,75.772644,79.28057
"4009",62.20102,75.64324,79.019066
"4010",62.214355,75.53094,78.770615
"4011",62.22769,75.4284,78.52842
"4012",62.241028,75.338066,78.29523
"4013",62.254364,75.25994,78.07142
"4014",62.2677,75.211105,77.87446
"4015",62.281036,75.22575,77.739456
"4016",62.294342,75.37957,77.74408
"4017",62.30768,75.775085,77.99521
"4018",62.321014,76.65156,78.739655
"4019",62.33435,78.49973,80.48319
"4020",62.347687,81.739525,83.6761
"4021",62.361023,86.3563,88.34724
"4022",62.37436,91.85199,94.04156
"4023",62.387695,97.462425,100.02237
"4024",62.40103,102.313576,105.41922
"4025",62.414337,105.64858,109.45152
"4026",62.427673,107.208664,111.813126
"4027",62.44101,107.26238,112.71712
"4028",62.454346,106.302895,112.60958
"4029",62.46768,104.725716,111.85437
"4030",62.481018,102.85802,110.75935
"4031",62.494354,100.91463,109.53027
"4032",62.50766,98.949265,108.21849
"4033",62.520996,96.89113,106.75252
"4034",62.534332,94.625465,105.0147
"4035",62.54767,92.08392,102.93021
"4036",62.561005,89.30801,100.53191
"4037",62.57434,86.44907,97.96386
"4038",62.587677,83.70733,95.423645
"4039",62.601013,81.25613,93.088295
"4040",62.61435,79.20531,91.07673
"4041",62.627655,77.55978,89.406364
"4042",62.64099,76.263374,88.03371
"4043",62.654327,75.2404,86.89397
"4044",62.667664,74.4152,85.92003
"4045",62.681,73.7145,85.04481
"4046",62.694336,73.08705,84.22094
"4047",62.707672,72.50111,83.41897
"4048",62.720978,71.93469,82.61821
"4049",62.734314,71.380486,81.811966
"4050",62.74765,70.84825,81.010376
"4051",62.760986,70.347755,80.22389
"4052",62.774323,69.89365,79.46815
"4053",62.78766,69.49081,78.74948
"4054",62.800995,69.149,78.07926
"4055",62.81433,68.86824,77.459404
"4056",62.827667,68.64362,76.88692
"4057",62.840973,68.472725,76.36113
"4058",62.85431,68.350655,75.87883
"4059",62.867645,68.27253,75.43666
"4060",62.88098,68.2359,75.03355
"4061",62.894318,68.23834,74.66836
"4062",62.907654,68.27497,74.33743
"4063",62.92099,68.34577,74.041824
"4064",62.934296,68.44587,73.777725
"4065",62.94763,68.560616,73.5314
"4066",62.960968,68.697334,73.31064
"4067",62.974304,68.841385,73.10148
"4068",62.98764,68.98787,72.899254
"4069",63.000977,69.13435,72.70161
"4070",63.014313,69.280846,72.508545
"4071",63.02765,69.434654,72.32738
"4072",63.040985,69.627525,72.19008
"4073",63.05429,69.927826,72.16624
"4074",63.067627,70.450294,72.37395
"4075",63.080963,71.45617,73.08139
"4076",63.0943,73.53384,74.89206
"4077",63.107635,77.2546,78.41076
"4078",63.12097,82.7454,83.815765
"4079",63.134308,89.58144,90.7376
"4080",63.147614,96.94972,98.405304
"4081",63.16095,103.79309,105.77835
"4082",63.174286,109.08858,111.81737
"4083",63.187622,112.34791,115.98572
"4084",63.20096,113.74441,118.39309
"4085",63.214294,113.78592,119.48911
"4086",63.22763,112.95094,119.709946
"4087",63.240967,111.67895,119.46767
"4088",63.254303,110.26292,119.0416
"4089",63.26761,108.78584,118.51025
"4090",63.280945,107.174484,117.79845
"4091",63.29428,105.233536,116.7067
"4092",63.307617,102.7628,115.02452
"4093",63.320953,99.64507,112.61813
"4094",63.33429,95.91699,109.50396
"4095",63.347626,91.78363,105.868004
"4096",63.36093,87.56725,102.01987
"4097",63.374268,83.60235,98.29144
"4098",63.387604,80.15015,94.95181
"4099",63.40094,77.332726,92.139084
"4100",63.414276,75.125656,89.84866
"4101",63.427612,73.41665,87.987335
"4102",63.44095,72.059204,86.424164
"4103",63.454285,70.90929,85.02609
"4104",63.46762,69.86679,83.69951
"4105",63.480927,68.87068,82.386734
"4106",63.494263,67.90387,81.07213
"4107",63.5076,66.97368,79.76393
"4108",63.520935,66.0972,78.48038
"4109",63.53427,65.30862,77.25733
"4110",63.547607,64.62257,76.112175
"4111",63.560944,64.05371,75.062775
"4112",63.57425,63.59716,74.1079
"4113",63.587585,63.248035,73.246185
"4114",63.60092,62.994125,72.46878
"4115",63.614258,62.81834,71.761566
"4116",63.627594,62.718243,71.12454
"4117",63.64093,62.684063,70.55031
"4118",63.654266,62.7158,70.040924
"4119",63.68094,62.955063,69.20282
"4120",63.694244,63.147938,68.86304
"4121",63.70758,63.384758,68.57323
"4122",63.720917,63.6582,68.32744
"4123",63.734253,63.960938,68.11949
"4124",63.74759,64.290535,67.94787
"4125",63.760925,64.6421,67.80851
"4126",63.77426,65.01564,67.70212
"4127",63.787567,65.40383,67.62205
"4128",63.800903,65.796906,67.55899
"4129",63.81424,66.18997,67.50821
"4130",63.827576,66.580605,67.46728
"4131",63.84091,66.95903,67.426346
"4132",63.854248,67.320366,67.38015
"4133",63.867584,67.667046,67.33059
"4134",63.88092,68.00397,67.282104
"4135",63.894257,68.336006,67.239265
"4136",63.907562,68.69245,67.23121
"4137",63.9209,69.12215,67.30754
"4138",63.934235,69.732506,67.577965
"4139",63.94757,70.750595,68.27519
"4140",63.960907,72.81117,70.04672
"4141",63.974243,76.62226,73.63316
"4142",63.98758,82.48661,79.39196
"4143",64.000885,90.072174,87.05523
"4144",64.01422,98.54154,95.839355
"4145",64.02756,106.683754,104.56099
"4146",64.04089,113.22926,111.94037
"4147",64.05423,117.472496,117.222015
"4148",64.067566,119.48913,120.40967
"4149",64.0809,119.85779,122.01236
"4150",64.09424,119.16197,122.5621
"4151",64.107574,117.943695,122.56764
"4152",64.12088,116.56184,122.37152
"4153",64.13422,115.12871,122.08095
"4154",64.14755,113.59792,121.647934
"4155",64.16089,111.835205,120.93515
"4156",64.174225,109.6672,119.76199
"4157",64.18756,106.949875,117.97177
"4158",64.2009,103.624626,115.48871
"4159",64.2142,99.75006,112.35242
"4160",64.22754,95.5288,108.748344
"4161",64.240875,91.23674,104.94156
"4162",64.25421,87.183945,101.239914
"4163",64.26755,83.597466,97.87793
"4164",64.28088,80.59205,94.98493
"4165",64.29422,78.14328,92.554665
"4166",64.307556,76.14374,90.4971
"4167",64.32089,74.43229,88.665146
"4168",64.3342,72.85756,86.91643
"4169",64.347534,71.326775,85.162445
"4170",64.36087,69.8082,83.37283
"4171",64.37421,68.31403,81.56017
"4172",64.38754,66.87602,79.75697
"4173",64.40088,65.54543,78.01626
"4174",64.414215,64.35157,76.37069
"4175",64.42752,63.318836,74.84894
"4176",64.44086,62.45701,73.46582
"4177",64.45419,61.77096,72.23155
"4178",64.46753,61.238728,71.12966
"4179",64.480865,60.843212,70.14786
"4180",64.4942,60.56977,69.275764
"4181",64.50754,60.39643,68.49523
"4182",64.520874,60.306095,67.79228
"4183",64.53421,60.291447,67.1622
"4184",64.547516,60.35248,66.607346
"4185",64.56085,60.48188,66.12276
"4186",64.57419,60.672314,65.70325
"4187",64.587524,60.914017,65.34096
"4188",64.60086,61.20943,65.03993
"4189",64.6142,61.54879,64.79208
"4190",64.62753,61.91745,64.584145
"4191",64.64084,62.31052,64.41214
"4192",64.654175,62.72801,64.27683
"4193",64.66751,63.157703,64.16678
"4194",64.68085,63.59716,64.07991
"4195",64.69418,64.05127,64.02143
"4196",64.70752,64.515144,63.986908
"4197",64.720856,64.98146,63.969322
"4198",64.73419,65.442894,63.961426
"4199",64.74753,65.899445,63.963066
"4200",64.76083,66.35111,63.97409
"4201",64.77417,66.793015,63.989464
"4202",64.787506,67.23003,64.013756
"4203",64.80084,67.65484,64.039505
"4204",64.81418,68.069885,64.06876
"4205",64.827515,68.472725,64.098785
"4206",64.84085,68.858475,64.124306
"4207",64.85416,69.23689,64.15455
"4208",64.86749,69.61776,64.199066
"4209",64.88083,70.04257,64.29943
"4210",64.894165,70.589455,64.53514
"4211",64.9075,71.37072,65.02232
"4212",64.92084,72.56214,65.94408
"4213",64.93417,74.59586,67.74536
"4214",64.94751,77.908905,70.88953
"4215",64.960846,82.55497,75.470245
"4216",64.97415,88.08972,81.08484
"4217",64.98749,93.822235,87.07016
"4218",65.000824,98.95415,92.63402
"4219",65.01416,102.75548,97.027664
"4220",65.0275,104.92836,99.91165
"4221",65.04083,105.71206,101.474365
"4222",65.05417,105.60708,102.17288
"4223",65.067474,104.99672,102.36275
"4224",65.08081,104.181274,102.328445
"4225",65.09415,103.34875,102.25159
"4226",65.10748,102.54551,102.17799
"4227",65.12082,101.678795,102.01582
"4228",65.134155,100.54597,101.560455
"4229",65.14749,98.94194,100.59849
"4230",65.16083,96.77638,99.024864
"4231",65.174164,94.117645,96.89039
"4232",65.18747,91.16838,94.3823
"4233",65.200806,88.20203,91.76496
"4234",65.21414,85.48226,89.30151
"4235",65.22748,83.17021,87.16078
"4236",65.240814,81.304955,85.39459
"4237",65.25415,79.84253,83.972946
"4238",65.26749,78.695045,82.82054
"4239",65.28079,77.769745,81.85446
"4240",65.29413,76.978714,80.99374
"4241",65.307465,76.25361,80.17422
"4242",65.3208,75.55291,79.356445
"4243",65.33414,74.8571,78.52167
"4244",65.34747,74.16373,77.66758
"4245",65.36081,73.477684,76.79916
"4246",65.374146,72.81117,75.928825
"4247",65.38748,72.183716,75.07672
"4248",65.40079,71.60998,74.25873
"4249",65.41412,71.097275,73.48384
"4250",65.42746,70.65293,72.76129
"4251",65.440796,70.276955,72.093216
"4252",65.45413,69.97177,71.484184
"4253",65.46747,69.72762,70.92665
"4254",65.480804,69.5494,70.427414
"4255",65.49411,69.42733,69.97876
"4256",65.50745,69.36385,69.584885
"4257",65.52078,69.35409,69.24274
"4258",65.53412,69.39315,68.94911
"4259",65.547455,69.47616,68.70065
"4260",65.56079,69.590904,68.48653
"4261",65.57413,69.73739,68.307724
"4262",65.58746,69.90097,68.1506
"4263",65.6008,70.081635,68.01566
"4264",65.614105,70.276955,67.90103
"4265",65.62744,70.48936,67.809586
"4266",65.64078,70.70908,67.7321
"4267",65.65411,70.93614,67.668816
"4268",65.66745,71.16319,67.612625
"4269",65.680786,71.39025,67.56354
"4270",65.69412,71.61974,67.52397
"4271",65.70743,71.84924,67.49159
"4272",65.720764,72.08362,67.47125
"4273",65.7341,72.32777,67.46802
"4274",65.74744,72.569466,67.469955
"4275",65.76077,72.80141,67.469696
"4276",65.77411,73.01625,67.45959
"4277",65.787445,73.214005,67.4391
"4278",65.80078,73.39956,67.4126
"4279",65.81412,73.57778,67.38456
"4280",65.82742,73.76578,67.371864
"4281",65.84076,74.00748,67.41875
"4282",65.854095,74.373695,67.5977
"4283",65.86743,74.98161,68.0298
"4284",65.88077,75.98993,68.881294
"4285",65.894104,77.79172,70.55777
"4286",65.90744,80.82399,73.521034
