"","Time..s.","PPG.trace","Preprocessed.PPG"
"42029",571.3931,80.19165,107.48226
"42030",571.40656,80.147705,107.444305
"42031",571.41974,80.08179,107.383
"42032",571.43317,79.99634,107.30011
"42033",571.44635,79.903564,107.20722
"42034",571.4598,79.81323,107.11388
"42035",571.47296,79.725334,107.02014
"42036",571.4864,79.64477,106.93099
"42037",571.4996,79.57641,106.85153
"42038",571.513,79.52758,106.78947
"42039",571.5262,79.49096,106.73808
"42040",571.5396,79.466545,106.69776
"42041",571.5528,79.45434,106.668884
"42042",571.5662,79.449455,106.64695
"42043",571.5794,79.44457,106.62486
"42044",571.59283,79.44213,106.605064
"42045",571.606,79.44213,106.58763
"42046",571.61945,79.449455,106.57752
"42047",571.6326,79.45434,106.5652
"42048",571.64606,79.46166,106.55547
"42049",571.65924,79.466545,106.54353
"42050",571.67267,79.4641,106.52442
"42051",571.68585,79.45678,106.50035
"42052",571.6993,79.44457,106.47117
"42053",571.71246,79.42748,106.43672
"42054",571.7259,79.40795,106.3993
"42055",571.7391,79.381096,106.35394
"42056",571.7525,79.35424,106.30775
"42057",571.7657,79.32983,106.26315
"42058",571.7791,79.3225,106.234886
"42059",571.7923,79.361565,106.25278
"42060",571.8057,79.483635,106.3549
"42061",571.8189,79.71801,106.573135
"42062",571.83234,80.07446,106.92078
"42063",571.8455,80.52125,107.36989
"42064",571.85895,80.99245,107.857376
"42065",571.87213,81.41482,108.31076
"42066",571.88556,81.71511,108.655266
"42067",571.89874,81.85184,108.84559
"42068",571.9122,81.829865,108.881485
"42069",571.92535,81.68337,108.792175
"42070",571.9388,81.46609,108.627495
"42071",571.95197,81.22682,108.434044
"42072",571.9654,81.01686,108.26242
"42073",571.9786,80.85817,108.135506
"42074",571.992,80.75319,108.05734
"42075",572.0052,80.689705,108.017395
"42076",572.0186,80.635994,107.98524
"42077",572.0318,80.57252,107.941635
"42078",572.0452,80.48463,107.871635
"42079",572.0584,80.38209,107.78424
"42080",572.07184,80.272224,107.68632
"42081",572.085,80.181885,107.604485
"42082",572.09845,80.11841,107.54669
"42083",572.11163,80.09155,107.52354
"42084",572.12506,80.096436,107.53128
"42085",572.13824,80.12329,107.56115
"42086",572.1517,80.15015,107.59186
"42087",572.16486,80.16968,107.61608
"42088",572.1783,80.16235,107.61406
"42089",572.19147,80.130615,107.587395
"42090",572.2049,80.07202,107.53288
"42091",572.2181,79.99634,107.45945
"42092",572.2315,79.91089,107.373886
"42093",572.2447,79.823,107.28321
"42094",572.2581,79.7351,107.18978
"42095",572.2713,79.65209,107.098495
"42096",572.2847,79.58373,107.019264
"42097",572.2979,79.52514,106.94766
"42098",572.31134,79.48119,106.88888
"42099",572.3245,79.4519,106.84337
"42100",572.33795,79.432365,106.80671
"42101",572.35114,79.415276,106.77188
"42102",572.36456,79.40063,106.73896
"42103",572.37775,79.39086,106.710464
"42104",572.3912,79.38598,106.68655
"42105",572.40436,79.38354,106.66492
"42106",572.4178,79.38598,106.648094
"42107",572.43097,79.38354,106.626465
"42108",572.4444,79.38354,106.6072
"42109",572.4576,79.381096,106.585495
"42110",572.471,79.378654,106.56371
"42111",572.4842,79.37621,106.541855
"42112",572.4976,79.378654,106.5248
"42113",572.5108,79.381096,106.50783
"42114",572.52423,79.378654,106.486046
"42115",572.5374,79.36889,106.45686
"42116",572.55084,79.3518,106.42005
"42117",572.564,79.32983,106.37782
"42118",572.57745,79.30785,106.33491
"42119",572.59064,79.28832,106.29375
"42120",572.60406,79.27856,106.26174
"42121",572.61725,79.29565,106.25629
"42122",572.6307,79.37377,106.3124
"42123",572.64386,79.551994,106.471054
"42124",572.6573,79.86206,106.76712
"42125",572.6705,80.291756,107.192505
"42126",572.6839,80.797134,107.707
"42127",572.6971,81.30007,108.23485
"42128",572.7105,81.71755,108.692955
"42129",572.7237,81.98123,109.01031
"42130",572.7371,82.07156,109.16255
"42131",572.7503,82.005646,109.16137
"42132",572.76373,81.83475,109.05315
"42133",572.7769,81.617455,108.89319
"42134",572.79034,81.40505,108.73133
"42135",572.8035,81.24147,108.61166
"42136",572.81696,81.13649,108.54547
"42137",572.83014,81.08522,108.52972
"42138",572.84357,81.06081,108.539215
"42139",572.85675,81.03883,108.55039
"42140",572.8702,80.99245,108.53647
"42141",572.88336,80.90456,108.47959
"42142",572.8968,80.7776,108.380905
"42143",572.91,80.621346,108.24895
"42144",572.9234,80.462654,108.10967
"42145",572.9366,80.32105,107.98253
"42146",572.95,80.216064,107.88757
"42147",572.9632,80.15503,107.83329
"42148",572.9766,80.14038,107.82349
"42149",572.9898,80.147705,107.8352
"42150",573.00323,80.16235,107.85446
"42151",573.0164,80.16968,107.86686
"42152",573.02985,80.15747,107.859955
"42153",573.043,80.11597,107.82337
"42154",573.05646,80.05005,107.76108
"42155",573.06964,79.9646,107.67719
"42156",573.08307,79.86694,107.57843
"42157",573.09625,79.76929,107.476616
"42158",573.1097,79.674065,107.37418
"42159",573.12286,79.59106,107.28099
"42160",573.1363,79.520256,107.19741
"42161",573.1495,79.46899,107.13115
"42162",573.1629,79.42748,107.07305
"42163",573.1761,79.398186,107.02586
"42164",573.1895,79.37133,106.9802
"42165",573.2027,79.35424,106.94347
"42166",573.2161,79.34203,106.91108
"42167",573.2293,79.327385,106.87587
"42168",573.24274,79.31762,106.845085
"42169",573.2559,79.30785,106.813995
"42170",573.26935,79.30053,106.78504
"42171",573.28253,79.293205,106.75586
"42172",573.29596,79.28832,106.72889
"42173",573.30914,79.281,106.699326
"42174",573.3226,79.273674,106.66953
"42175",573.33575,79.259026,106.63219
"42176",573.3492,79.24437,106.594376
"42177",573.36237,79.22728,106.55367
"42178",573.3758,79.21263,106.51488
"42179",573.389,79.19798,106.475624
"42180",573.4024,79.185776,106.438354
"42181",573.4156,79.17357,106.4007
"42182",573.429,79.166245,106.36755
"42183",573.4422,79.1638,106.33906
"42184",573.4556,79.1638,106.31293
"42185",573.4688,79.1638,106.2868
"42186",573.48224,79.166245,106.26311
"42187",573.4954,79.166245,106.23705
"42188",573.50885,79.1638,106.20856
"42189",573.52203,79.1638,106.18243
"42190",573.53546,79.1638,106.156296
"42191",573.54865,79.16136,106.12772
"42192",573.5621,79.15892,106.099075
"42193",573.57526,79.151596,106.06547
"42194",573.5887,79.13939,106.02675
"42195",573.60187,79.13695,105.99741
"42196",573.6153,79.17113,106.00462
"42197",573.6285,79.281,106.08859
"42198",573.6419,79.51293,106.29806
"42199",573.6551,79.88403,106.65394
"42200",573.6685,80.36744,107.13372
"42201",573.6817,80.902115,107.67988
"42202",573.6951,81.40505,108.211006
"42203",573.7083,81.78836,108.63822
"42204",573.72174,82.003204,108.90895
"42205",573.7349,82.039825,109.00817
"42206",573.74835,81.934845,108.966934
"42207",573.76154,81.74197,108.83452
"42208",573.77496,81.51736,108.664345
"42209",573.78815,81.31472,108.509125
"42210",573.8016,81.163345,108.398834
"42211",573.81476,81.07057,108.342415
"42212",573.8282,81.02663,108.331924
"42213",573.8414,81.01442,108.3518
"42214",573.8548,80.99733,108.36641
"42215",573.868,80.94606,108.346306
"42216",573.8814,80.848404,108.27821
"42217",573.8946,80.70435,108.160675
"42218",573.908,80.5359,108.01423
"42219",573.9212,80.37232,107.8674
"42220",573.93463,80.24048,107.74719
"42221",573.9478,80.15015,107.664375
"42222",573.96124,80.10864,107.62756
"42223",573.9744,80.10132,107.623634
"42224",573.98785,80.113525,107.63901
"42225",574.00104,80.128174,107.6572
"42226",574.01447,80.130615,107.66365
"42227",574.02765,80.10864,107.64576
"42228",574.0411,80.062256,107.60277
"42229",574.05426,79.991455,107.53391
"42230",574.0677,79.906006,107.4482
"42231",574.0809,79.81323,107.352486
"42232",574.0943,79.72289,107.25631
"42233",574.1075,79.63256,107.15732
"42234",574.1209,79.551994,107.06527
"42235",574.1341,79.47875,106.97803
"42236",574.1475,79.415276,106.89826
"42237",574.1607,79.36889,106.8336
"42238",574.17413,79.33959,106.784584
"42239",574.1873,79.32494,106.7493
"42240",574.20074,79.32494,106.7282
"42241",574.2139,79.32494,106.70711
"42242",574.22736,79.32494,106.68601
"42243",574.24054,79.32494,106.66492
"42244",574.25397,79.3225,106.64138
"42245",574.26715,79.31274,106.61044
"42246",574.2806,79.30541,106.58164
"42247",574.29376,79.29565,106.55017
"42248",574.3072,79.28588,106.518394
"42249",574.3204,79.276115,106.48631
"42250",574.3338,79.26879,106.45637
"42251",574.347,79.26879,106.43352
"42252",574.3604,79.26635,106.408226
"42253",574.3736,79.26147,106.38042
"42254",574.387,79.259026,106.3549
"42255",574.4002,79.256584,106.3293
"42256",574.41364,79.259026,106.30851
"42257",574.4268,79.256584,106.28291
"42258",574.44025,79.2517,106.2548
"42259",574.4534,79.234604,106.21432
"42260",574.46686,79.21263,106.16843
"42261",574.48004,79.18822,106.11941
"42262",574.49347,79.18089,106.086716
"42263",574.50665,79.21019,106.090416
"42264",574.5201,79.31762,106.173164
"42265",574.53326,79.537346,106.37157
"42266",574.5467,79.87915,106.69891
"42267",574.5599,80.31861,107.1346
"42268",574.5733,80.80446,107.6304
"42269",574.5865,81.25124,108.102325
"42270",574.5999,81.583275,108.47346
"42271",574.6131,81.75662,108.69628
"42272",574.6265,81.76395,108.7585
"42273",574.6397,81.634544,108.68422
"42274",574.65314,81.42458,108.52534
"42275",574.6663,81.19264,108.33791
"42276",574.67975,80.98512,108.16766
"42277",574.69293,80.831314,108.04464
"42278",574.70636,80.73853,107.97784
"42279",574.71954,80.69215,107.95453
"42280",574.733,80.66041,107.94442
"42281",574.74615,80.61402,107.91867
"42282",574.7596,80.54566,107.8695
"42283",574.77277,80.45045,107.791336
"42284",574.7862,80.33814,107.69311
"42285",574.7994,80.22583,107.59136
"42286",574.8128,80.13306,107.505646
"42287",574.826,80.07446,107.45121
"42288",574.8394,80.04761,107.42668
"42289",574.8526,80.05005,107.43061
"42290",574.866,80.06714,107.449265
"42291",574.8792,80.08423,107.46845
"42292",574.89264,80.08911,107.47597
"42293",574.9058,80.07202,107.46166
"42294",574.91925,80.03296,107.42485
"42295",574.93243,79.96704,107.35996
"42296",574.94586,79.886475,107.278366
"42297",574.95905,79.7937,107.182045
"42298",574.9725,79.70092,107.08282
"42299",574.98566,79.61547,106.98802
"42300",574.9991,79.54711,106.907646
"42301",575.01227,79.4934,106.83978
"42302",575.0257,79.45434,106.78489
"42303",575.0389,79.42504,106.73854
"42304",575.0523,79.40307,106.6986
"42305",575.0655,79.38842,106.6653
"42306",575.0789,79.37621,106.63398
"42307",575.0921,79.36889,106.60716
"42308",575.1055,79.36645,106.585
"42309",575.1187,79.361565,106.56032
"42310",575.13214,79.35668,106.535484
"42311",575.1453,79.3518,106.5105
"42312",575.15875,79.34936,106.4878
"42313",575.17194,79.3518,106.46991
"42314",575.18536,79.35424,106.452095
"42315",575.19855,79.35912,106.4368
"42316",575.212,79.361565,106.41921
"42317",575.22516,79.361565,106.39926
"42318",575.2386,79.35424,106.37199
"42319",575.2518,79.344475,106.34204
"42320",575.2652,79.33227,106.30935
"42321",575.2784,79.3225,106.27872
"42322",575.2918,79.31274,106.24778
"42323",575.305,79.29809,106.211655
"42324",575.3184,79.28832,106.179955
"42325",575.3316,79.30297,106.17236
"42326",575.34503,79.38354,106.23115
"42327",575.3582,79.56664,106.39499
"42328",575.37164,79.87671,106.69151
"42329",575.3848,80.29664,107.10759
"42330",575.39825,80.782486,107.60271
"42331",575.41144,81.248795,108.09347
"42332",575.42487,81.617455,108.50115
"42333",575.43805,81.832306,108.76655
"42334",575.4515,81.883575,108.87508
"42335",575.46466,81.795685,108.84605
"42336",575.4781,81.61501,108.72149
"42337",575.4913,81.39773,108.55467
"42338",575.5047,81.1902,108.39082
"42339",575.5179,81.02174,108.25956
"42340",575.5313,80.90456,108.1743
"42341",575.5445,80.84108,108.13909
"42342",575.5579,80.8069,108.131195
"42343",575.5711,80.77516,108.12467
"42344",575.58453,80.72144,108.09518
"42345",575.5977,80.635994,108.03227
"42346",575.61115,80.51881,107.93496
"42347",575.6243,80.394295,107.82666
"42348",575.63776,80.27711,107.721794
"42349",575.65094,80.184326,107.63767
"42350",575.66437,80.130615,107.58972
"42351",575.67755,80.10864,107.57183
"42352",575.691,80.10864,107.575226
"42353",575.70416,80.11597,107.585945
"42354",575.7176,80.12573,107.599335
"42355",575.7308,80.11597,107.5935
"42356",575.7442,80.08667,107.567825
"42357",575.7574,80.0354,107.519264
"42358",575.7708,79.96216,107.44713
"42359",575.784,79.87915,107.36294
"42360",575.7974,79.79126,107.27127
"42361",575.8106,79.708244,107.18173
"42362",575.82404,79.63012,107.09449
"42363",575.8372,79.5642,107.01701
"42364",575.85065,79.51537,106.95457
"42365",575.86383,79.47631,106.90036
"42366",575.87726,79.449455,106.85714
"42367",575.89044,79.432365,106.822845
"42368",575.9039,79.4226,106.79534
"42369",575.91705,79.41772,106.772415
"42370",575.9305,79.41039,106.746895
"42371",575.94366,79.40307,106.721146
"42372",575.9571,79.395744,106.69517
"42373",575.9703,79.39086,106.6714
"42374",575.9837,79.38842,106.649925
"42375",575.9969,79.38842,106.63081
"42376",576.0103,79.38598,106.60926
"42377",576.0235,79.38354,106.58763
"42378",576.0369,79.381096,106.565926
"42379",576.0501,79.37621,106.5417
"42380",576.06354,79.37133,106.51733
"42381",576.0767,79.364006,106.49036
"42382",576.09015,79.35668,106.46316
"42383",576.10333,79.34692,106.43329
"42384",576.11676,79.33715,106.403114
"42385",576.12994,79.32006,106.36531
"42386",576.1434,79.30785,106.331856
"42387",576.15656,79.30053,106.3029
"42388",576.17,79.31518,106.29569
"42389",576.18317,79.3933,106.35242
"42390",576.1966,79.571526,106.51168
"42391",576.2098,79.87427,106.80103
"42392",576.2232,80.28199,107.20483
"42393",576.2364,80.75807,107.68972
"42394",576.2498,81.2195,108.174835
"42395",576.263,81.58816,108.581604
"42396",576.2764,81.80301,108.846085
"42397",576.2896,81.85916,108.95858
"42398",576.30304,81.778595,108.93611
"42399",576.3162,81.60769,108.820786
"42400",576.32965,81.40017,108.663506
"42401",576.34283,81.20729,108.51438
"42402",576.35626,81.05592,108.40074
"42403",576.36945,80.95094,108.32876
"42404",576.3829,80.89479,108.30232
"42405",576.39606,80.86305,108.298546
"42406",576.4095,80.833755,108.29622
"42407",576.42267,80.782486,108.271
"42408",576.4361,80.69215,108.20512
"42409",576.4493,80.56519,108.09979
"42410",576.4627,80.41627,107.96853
"42411",576.4759,80.26734,107.83261
"42412",576.4893,80.15015,107.72377
"42413",576.5025,80.076904,107.65522
"42414",576.5159,80.045166,107.625885
"42415",576.5291,80.05005,107.63218
"42416",576.54254,80.07446,107.65816
"42417",576.5557,80.093994,107.680016
"42418",576.56915,80.093994,107.68295
"42419",576.58234,80.07202,107.66392
"42420",576.59576,80.025635,107.61978
"42421",576.60895,79.95972,107.554665
"42422",576.6224,79.87671,107.4704
"42423",576.63556,79.78638,107.37621
"42424",576.649,79.69604,107.2792
"42425",576.6622,79.61303,107.18669
"42426",576.6756,79.53979,107.10136
"42427",576.6888,79.483635,107.03082
"42428",576.7022,79.44213,106.97318
"42429",576.7154,79.415276,106.928894
"42430",576.7288,79.395744,106.89109
"42431",576.742,79.381096,106.85756
"42432",576.75543,79.36889,106.82601
"42433",576.7686,79.35668,106.79408
"42434",576.78204,79.34692,106.76421
"42435",576.7952,79.34203,106.73892
"42436",576.80865,79.344475,106.7208
"42437",576.82184,79.34692,106.70276
"42438",576.83527,79.34692,106.68235
"42439",576.84845,79.34692,106.66194
"42440",576.8619,79.34203,106.63665
"42441",576.87506,79.33715,106.611206
"42442",576.8885,79.327385,106.58073
"42443",576.9017,79.32494,106.55727
"42444",576.9151,79.3225,106.53373
"42445",576.9283,79.3225,106.51256
"42446",576.9417,79.32006,106.488945
"42447",576.9549,79.31518,106.462814
"42448",576.9683,79.30785,106.43409
"42449",576.9815,79.293205,106.39781
"42450",576.99493,79.27123,106.35375
"42451",577.0081,79.25414,106.31389
"42452",577.02155,79.256584,106.29302
"42453",577.0347,79.30541,106.31862
"42454",577.04816,79.44213,106.43363
"42455",577.06134,79.70092,106.67499
"42456",577.07477,80.08179,107.04651
"42457",577.08795,80.550545,107.51782
"42458",577.1014,81.03639,108.020874
"42459",577.11456,81.45876,108.47563
"42460",577.128,81.74197,108.80442
"42461",577.1412,81.85428,108.97117
"42462",577.1546,81.80545,108.980286
"42463",577.1678,81.64187,108.87312
"42464",577.1812,81.4197,108.70226
"42465",577.1944,81.1902,108.51713
"42466",577.2078,80.99489,108.35901
"42467",577.221,80.85329,108.2485
"42468",577.23444,80.76784,108.18971
"42469",577.2476,80.72144,108.16731
"42470",577.26105,80.689705,108.15812
"42471",577.27423,80.64576,108.13573
"42472",577.28766,80.57496,108.085106
"42473",577.30084,80.47486,108.002975
"42474",577.3143,80.360115,107.90307
"42475",577.32745,80.25269,107.8069
"42476",577.3409,80.16968,107.73178
"42477",577.35406,80.12573,107.69314
"42478",577.3675,80.11597,107.6873
"42479",577.3807,80.12573,107.70069
"42480",577.3941,80.147705,107.72659
"42481",577.4073,80.15991,107.743416
"42482",577.4207,80.15503,107.74353
"42483",577.4339,80.12573,107.71908
"42484",577.4473,80.07202,107.6693
"42485",577.4605,79.99878,107.598305
"42486",577.47394,79.91089,107.510376
"42487",577.4871,79.818115,107.41482
"42488",577.50055,79.73022,107.321236
"42489",577.51373,79.64965,107.23224
"42490",577.52716,79.588615,107.160255
"42491",577.54034,79.53979,107.09857
"42492",577.5538,79.50317,107.04757
"42493",577.56696,79.47631,107.00519
"42494",577.5804,79.46166,106.974174
"42495",577.59357,79.4519,106.947586
"42496",577.607,79.447014,106.925575
"42497",577.6202,79.447014,106.908295
"42498",577.6336,79.449455,106.893456
"42499",577.6468,79.4519,106.87869
"42500",577.6602,79.4519,106.861565
"42501",577.6734,79.447014,106.839554
"42502",577.6868,79.43969,106.81495
"42503",577.7,79.432365,106.790115
"42504",577.71344,79.42748,106.767494
"42505",577.7266,79.42504,106.74716
"42506",577.74005,79.4226,106.72675
"42507",577.75323,79.41772,106.70383
"42508",577.76666,79.40551,106.67342
"42509",577.77985,79.38842,106.63776
"42510",577.7933,79.361565,106.59179
"42511",577.80646,79.33471,106.54498
"42512",577.8199,79.30541,106.494896
"42513",577.83307,79.28588,106.45366
"42514",577.8465,79.290764,106.436226
"42515",577.8597,79.35668,106.47998
"42516",577.8731,79.517815,106.62101
"42517",577.8863,79.798584,106.88671
"42518",577.8997,80.184326,107.26616
"42519",577.9129,80.638435,107.72603
"42520",577.92633,81.0901,108.19765
"42521",577.9395,81.461205,108.60281
"42522",577.95294,81.69314,108.88041
"42523",577.9661,81.76395,109.00413
"42524",577.97955,81.69558,108.99088
"42525",577.99274,81.529564,108.87785
"42526",578.00616,81.31716,108.71325
"42527",578.01935,81.11452,108.551765
"42528",578.0328,80.94362,108.415695
"42529",578.04596,80.82643,108.327995
"42530",578.0594,80.75319,108.28058
"42531",578.0726,80.709236,108.26016
"42532",578.086,80.66529,108.23838
"42533",578.0992,80.59937,108.19325
"42534",578.1126,80.50416,108.11677
"42535",578.1258,80.37965,108.00801
"42536",578.1392,80.24536,107.88559
"42537",578.1524,80.12573,107.77363
"42538",578.16583,80.04028,107.69211
"42539",578.179,79.991455,107.64454
"42540",578.19244,79.97925,107.632065
"42541",578.2056,79.991455,107.64362
"42542",578.21906,80.008545,107.660446
"42543",578.23224,80.01831,107.67048
"42544",578.24567,80.008545,107.661285
"42545",578.25885,79.974365,107.62737
"42546",578.2723,79.91577,107.56798
"42547",578.28546,79.835205,107.48478
"42548",578.2989,79.742424,107.38685
"42549",578.3121,79.64721,107.283585
"42550",578.3255,79.56176,107.18711
"42551",578.3387,79.48608,107.09773
"42552",578.3521,79.42748,107.02308
"42553",578.3653,79.38354,106.96124
"42554",578.3787,79.3518,106.91024
"42555",578.3919,79.33227,106.87045
"42556",578.40533,79.327385,106.8447
"42557",578.4185,79.327385,106.823685
"42558",578.43195,79.32983,106.80511
"42559",578.4451,79.33227,106.786606
"42560",578.45856,79.327385,106.76086
"42561",578.47174,79.32006,106.73251
"42562",578.48517,79.30541,106.69662
"42563",578.49835,79.293205,106.662704
"42564",578.5118,79.281,106.62841
"42565",578.52496,79.273674,106.59862
"42566",578.5384,79.26391,106.566154
"42567",578.5516,79.259026,106.53827
"42568",578.565,79.26147,106.517555
"42569",578.5782,79.26879,106.5018
"42570",578.5916,79.27856,106.488716
"42571",578.6048,79.28588,106.473495
"42572",578.6182,79.290764,106.45606
"42573",578.6314,79.293205,106.43634
"42574",578.64484,79.28832,106.40937
"42575",578.658,79.281,106.37981
"42576",578.67145,79.27123,106.34757
"42577",578.68463,79.26147,106.31503
"42578",578.69806,79.24681,106.2773
"42579",578.71124,79.237045,106.243996
"42580",578.7247,79.2517,106.23481
"42581",578.73785,79.32006,106.279785
"42582",578.7513,79.48852,106.426994
"42583",578.76447,79.77661,106.699104
"42584",578.7779,80.18921,107.10472
"42585",578.7911,80.6775,107.59892
"42586",578.8045,81.17067,108.113266
"42587",578.8177,81.58572,108.564896
"42588",578.8311,81.85916,108.88789
"42589",578.8443,81.95926,109.04609
"42590",578.8577,81.90799,109.056046
"42591",578.8709,81.75174,108.95942
"42592",578.88434,81.54665,108.809074
"42593",578.8975,81.34646,108.65721
"42594",578.91095,81.19508,108.54791
"42595",578.92413,81.10231,108.492485
"42596",578.93756,81.06081,108.48543
"42597",578.95074,81.04372,108.50149
"42598",578.9642,81.02907,108.519455
"42599",578.97736,80.98268,108.505226
"42600",578.9908,80.88991,108.44316
"42601",579.00397,80.75319,108.33425
"42602",579.0174,80.584724,108.18932
"42603",579.0306,80.413826,108.0367
"42604",579.044,80.26002,107.89582
"42605",579.0572,80.15015,107.794075
"42606",579.0706,80.08667,107.73529
"42607",579.0838,80.062256,107.713585
"42608",579.0972,80.0647,107.71797
"42609",579.1104,80.08179,107.73708
"42610",579.12384,80.093994,107.75185
"42611",579.137,80.08667,107.74746
"42612",579.15045,80.05737,107.72087
"42613",579.16364,80.00366,107.66895
"42614",579.17706,79.92798,107.59338
"42615",579.19025,79.84009,107.50324
"42616",579.2037,79.744865,107.40302
"42617",579.21686,79.65209,107.30228
"42618",579.2303,79.569084,107.2084
"42619",579.24347,79.49828,107.12413
"42620",579.2569,79.44213,107.0523
"42621",579.2701,79.398186,106.99092
"42622",579.2835,79.364006,106.937935
"42623",579.2967,79.33959,106.89365
"42624",579.3101,79.32006,106.85348
"42625",579.3233,79.30785,106.82002
"42626",579.33673,79.30053,106.79107
"42627",579.3499,79.29809,106.76677
"42628",579.36334,79.29565,106.74239
"42629",579.3765,79.293205,106.71794
"42630",579.38995,79.28832,106.69097
"42631",579.40314,79.281,106.66141
"42632",579.41656,79.273674,106.631615
"42633",579.42975,79.26391,106.59915
"42634",579.4432,79.25414,106.56638
"42635",579.45636,79.24193,106.53086
"42636",579.4698,79.234604,106.49985
"42637",579.483,79.22728,106.468605
"42638",579.4964,79.22484,106.44202
"42639",579.5096,79.2224,106.41535
"42640",579.523,79.22484,106.39349
"42641",579.5362,79.22728,106.37171
"42642",579.5496,79.22728,106.347565
"42643",579.5628,79.22484,106.32098
"42644",579.57623,79.2224,106.29431
"42645",579.5894,79.21263,106.26025
"42646",579.60284,79.19798,106.22099
"42647",579.616,79.185776,106.18372
"42648",579.62946,79.19554,106.168045
"42649",579.65607,79.40795,106.33201
"42650",579.66925,79.68627,106.59183
"42651",579.6827,80.09155,106.987305
"42652",579.69586,80.58228,107.480896
"42653",579.7093,81.08278,107.99959
"42654",579.7225,81.51003,108.46068
"42655",579.7359,81.79324,108.79108
"42656",579.7491,81.90799,108.96186
"42657",579.7625,81.85672,108.970215
"42658",579.7757,81.69314,108.864655
"42659",579.7891,81.47097,108.6954
"42660",579.8023,81.23903,108.50942
"42661",579.81573,81.04372,108.35283
"42662",579.8289,80.91432,108.25605
"42663",579.84235,80.84352,108.21382
"42664",579.8555,80.814224,108.210884
"42665",579.86896,80.797134,108.21924
"42666",579.88214,80.76051,108.20753
"42667",579.89557,80.68726,108.15804
"42668",579.90875,80.57252,108.06477
"42669",579.9222,80.430916,107.94106
"42670",579.93536,80.28443,107.808044
"42671",579.9488,80.15991,107.69241
"42672",579.962,80.062256,107.599754
"42673",579.9754,80.01099,107.55043
"42674",579.9886,79.99878,107.53857
"42675",580.002,80.01099,107.550735
"42676",580.0152,80.028076,107.56817
"42677",580.0286,80.042725,107.583694
"42678",580.0418,80.04028,107.58259
"42679",580.05524,80.0061,107.54967
"42680",580.0684,79.94751,107.491264
"42681",580.08185,79.869385,107.4115
"42682",580.09503,79.77661,107.314644
"42683",580.10846,79.68383,107.21488
"42684",580.12164,79.59838,107.11955
"42685",580.1351,79.52758,107.0362
"42686",580.14825,79.47143,106.96529
"42687",580.1617,79.429924,106.907265
"42688",580.17487,79.395744,106.85527
"42689",580.1883,79.37133,106.81197
"42690",580.2015,79.34936,106.770355
"42691",580.2149,79.33471,106.735374
"42692",580.2281,79.32494,106.70482
"42693",580.2415,79.32006,106.67884
"42694",580.2547,79.31518,106.65271
"42695",580.2681,79.31762,106.63375
"42696",580.2813,79.31762,106.61243
"42697",580.29474,79.32006,106.593544
"42698",580.3079,79.32006,106.572296
"42699",580.32135,79.32006,106.55105
"42700",580.33453,79.31762,106.52736
"42701",580.34796,79.31518,106.50359
"42702",580.36115,79.31274,106.47975
"42703",580.3746,79.310295,106.45583
"42704",580.38776,79.30785,106.43184
"42705",580.4012,79.30541,106.40777
"42706",580.41437,79.29809,106.37874
"42707",580.4278,79.290764,106.34948
"42708",580.441,79.28344,106.31999
"42709",580.4544,79.281,106.29516
"42710",580.4676,79.27856,106.27025
"42711",580.481,79.273674,106.24282
"42712",580.4942,79.26879,106.21524
"42713",580.5076,79.259026,106.182625
"42714",580.5208,79.24681,106.147255
"42715",580.53424,79.24681,106.12372
"42716",580.5474,79.290764,106.144135
"42717",580.56085,79.415276,106.24648
"42718",580.57404,79.656975,106.46991
"42719",580.58746,80.02319,106.82541
"42720",580.60065,80.482185,107.285126
"42721",580.6141,80.97536,107.793365
"42722",580.62726,81.41726,108.26575
"42723",580.6407,81.72976,108.622536
"42724",580.6539,81.87625,108.82308
"42725",580.6673,81.864044,108.86951
"42726",580.6805,81.722435,108.78615
"42727",580.6939,81.50271,108.62025
"42728",580.7071,81.25613,108.42062
"42729",580.7205,81.02663,108.23038
"42730",580.7337,80.84352,108.07935
"42731",580.74713,80.71656,107.97875
"42732",580.7603,80.64332,107.9279
"42733",580.77374,80.601814,107.9065
"42734",580.7869,80.56275,107.886246
"42735",580.80035,80.5066,107.84768
"42736",580.81354,80.42115,107.77806
"42737",580.82697,80.31861,107.68868
"42738",580.84015,80.21362,107.59365
"42739",580.8536,80.12573,107.512436
"42740",580.86676,80.07202,107.462654
"42741",580.8802,80.05493,107.447815
"42742",580.8934,80.059814,107.454414
"42743",580.9068,80.07446,107.47093
"42744",580.92,80.08667,107.485466
"42745",580.9334,80.08667,107.488174
"42746",580.9466,80.059814,107.46403
"42747",580.96,80.0061,107.412186
"42748",580.9732,79.93286,107.339134
"42749",580.98663,79.84985,107.25403
"42750",580.9998,79.75952,107.159004
"42751",581.01324,79.67162,107.06359
"42752",581.0264,79.5935,106.975204
"42753",581.03986,79.52758,106.89658
"42754",581.05304,79.47143,106.82567
"42755",581.06647,79.432365,106.77009
"42756",581.07965,79.40551,106.725494
"42757",581.0931,79.3933,106.69471
"42758",581.10626,79.39086,106.67331
"42759",581.1197,79.395744,106.65916
"42760",581.1329,79.398186,106.642715
"42761",581.1463,79.398186,106.62391
"42762",581.1595,79.3933,106.60022
"42763",581.1729,79.38598,106.57394
"42764",581.1861,79.378654,106.547424
"42765",581.1995,79.36889,106.51824
"42766",581.2127,79.364006,106.49364
"42767",581.22614,79.35912,106.46888
"42768",581.2393,79.35424,106.44397
"42769",581.25275,79.34692,106.416466
"42770",581.2659,79.33959,106.38873
"42771",581.27936,79.33715,106.365654
"42772",581.29254,79.33471,106.3425
"42773",581.30597,79.33471,106.32171
"42774",581.31915,79.33227,106.29848
"42775",581.3326,79.33471,106.28005
"42776",581.34576,79.32983,106.25438
"42777",581.3592,79.327385,106.230995
"42778",581.3724,79.3225,106.20509
"42779",581.3858,79.31762,106.17904
"42780",581.399,79.30785,106.14795
"42781",581.4124,79.30053,106.118996
"42782",581.4256,79.30053,106.09714
"42783",581.439,79.32983,106.104576
"42784",581.4522,79.429924,106.18373
"42785",581.46564,79.64721,106.3832
"42786",581.4788,79.9939,106.718864
"42787",581.49225,80.45777,107.18255
"42788",581.50543,80.9778,107.71688
"42789",581.51886,81.46853,108.23817
"42790",581.53204,81.84207,108.6576
"42791",581.5455,82.04227,108.91536
"42792",581.55865,82.0618,108.99871
"42793",581.5721,81.934845,108.93619
"42794",581.58527,81.71267,108.774475
"42795",581.5987,81.45632,108.57165
"42796",581.6119,81.2195,108.38033
"42797",581.6253,81.03883,108.23778
"42798",581.6385,80.92409,108.155495
"42799",581.6519,80.86549,108.12578
"42800",581.6651,80.84352,108.13085
"42801",581.6785,80.82399,108.13768
"42802",581.6917,80.7776,108.11704
"42803",581.70514,80.69215,108.055885
"42804",581.7183,80.57252,107.957886
"42805",581.73175,80.42603,107.82929
"42806",581.74493,80.28443,107.701004
"42807",581.75836,80.164795,107.590256
"42808",581.77155,80.079346,107.50996
"42809",581.785,80.03296,107.46605
"42810",581.79816,80.02075,107.45487
"42811",581.8116,80.028076,107.462845
"42812",581.82477,80.042725,107.47837
"42813",581.8382,80.045166,107.48215
"42814",581.8514,80.03296,107.47135
"42815",581.8648,79.9939,107.43332
"42816",581.878,79.93042,107.36965
"42817",581.8914,79.852295,107.28935
"42818",581.9046,79.77173,107.20417
"42819",581.918,79.68871,107.11402
"42820",581.9312,79.61059,107.02617
"42821",581.94464,79.53979,106.9432
"42822",581.9578,79.483635,106.872665
"42823",581.97125,79.43969,106.812584
"42824",581.98444,79.40551,106.760895
"42825",581.99786,79.381096,106.7179
"42826",582.01105,79.36645,106.683914
"42827",582.0245,79.35424,106.65191
"42828",582.03766,79.344475,106.62196
"42829",582.0511,79.33715,106.594154
"42830",582.0643,79.33227,106.56856
"42831",582.0777,79.33471,106.55013
"42832",582.0909,79.33471,106.52934
"42833",582.1043,79.33227,106.50611
"42834",582.1175,79.32983,106.4828
"42835",582.1309,79.32494,106.45698
"42836",582.1441,79.31762,106.42856
"42837",582.15753,79.31274,106.40235
"42838",582.1707,79.30541,106.37355
"42839",582.18414,79.30053,106.34696
"42840",582.1973,79.293205,106.31778
"42841",582.21075,79.290764,106.29325
"42842",582.22394,79.290764,106.27109
"42843",582.23737,79.290764,106.248924
"42844",582.25055,79.290764,106.22676
"42845",582.264,79.29565,106.20948
"42846",582.27716,79.29809,106.18991
"42847",582.2906,79.29809,106.16798
"42848",582.3038,79.29565,106.1436
"42849",582.3172,79.290764,106.11671
"42850",582.3304,79.290764,106.09454
"42851",582.3438,79.3225,106.10412
"42852",582.357,79.42748,106.18793
"42853",582.3704,79.64965,106.392204
"42854",582.3836,79.99878,106.730385
"42855",582.39703,80.465096,107.19666
"42856",582.4102,80.987564,107.733665
"42857",582.42365,81.48562,108.26258
"42858",582.4368,81.864044,108.68743
"42859",582.45026,82.07156,108.9532
"42860",582.46344,82.09598,109.04235
"42861",582.47687,81.971466,108.98334
"42862",582.49005,81.74929,108.82277
"42863",582.5035,81.49294,108.621086
"42864",582.51666,81.25124,108.42604
"42865",582.5301,81.06081,108.274704
"42866",582.5433,80.93385,108.1809
"42867",582.5567,80.86549,108.14172
"42868",582.5699,80.833755,108.13703
"42869",582.5833,80.80446,108.13379
"42870",582.5965,80.75563,108.1101
"42871",582.6099,80.67017,108.048256
"42872",582.6231,80.550545,107.94957
"42873",582.63654,80.40894,107.82517
"42874",582.6497,80.27711,107.706116
"42875",582.66315,80.164795,107.60246
"42876",582.67633,80.08423,107.52705
"42877",582.68976,80.0354,107.48085
"42878",582.70294,80.01587,107.462425
"42879",582.7164,80.01343,107.46048
"42880",582.72955,80.01587,107.46334
"42881",582.743,80.01343,107.461395
"42882",582.75616,79.99878,107.44717
"42883",582.7696,79.96216,107.41051
"42884",582.7828,79.903564,107.35073
"42885",582.7962,79.83032,107.274475
"42886",582.8094,79.74975,107.1886
"42887",582.8228,79.67162,107.10265
"42888",582.836,79.59838,107.01915
"42889",582.8494,79.534904,106.94312
"42890",582.8626,79.48119,106.87488
"42891",582.87604,79.43725,106.81472
"42892",582.8892,79.398186,106.75807
"42893",582.90265,79.36889,106.70997
"42894",582.91583,79.3518,106.67316
"42895",582.92926,79.344475,106.64558
"42896",582.94244,79.33959,106.62021
"42897",582.9559,79.33959,106.59957
"42898",582.96906,79.33715,106.57649
"42899",582.9825,79.33471,106.55334
"42900",582.99567,79.327385,106.52522
"42901",583.0091,79.32494,106.50176
"42902",583.0223,79.32006,106.475784
"42903",583.0357,79.31762,106.452095
"42904",583.0489,79.31762,106.43077
"42905",583.0623,79.31762,106.40945
"42906",583.0755,79.31274,106.38324
"42907",583.0889,79.31274,106.36176
"42908",583.1021,79.31274,106.34029
"42909",583.11554,79.30785,106.31393
"42910",583.1287,79.30297,106.287415
"42911",583.14215,79.30297,106.26563
"42912",583.15533,79.310295,106.251175
"42913",583.16876,79.31518,106.234505
"42914",583.18195,79.32006,106.21799
"42915",583.1954,79.32006,106.19674
"42916",583.20856,79.31518,106.17061
"42917",583.222,79.310295,106.144325
"42918",583.23517,79.310295,106.12277
"42919",583.2486,79.310295,106.10122
"42920",583.2618,79.3225,106.09187
"42921",583.2752,79.37133,106.11953
"42922",583.2884,79.50561,106.23416
"42923",583.3018,79.76196,106.47507
"42924",583.315,80.147705,106.85337
"42925",583.3284,80.64088,107.35116
"42926",583.3416,81.17555,107.90586
"42927",583.35504,81.651634,108.41868
"42928",583.3682,81.991,108.809654
"42929",583.38165,82.15701,109.03789
"42930",583.39484,82.13992,109.0882
"42931",583.40826,81.97635,108.9915
"42932",583.42145,81.72488,108.80179
"42933",583.4349,81.43923,108.570045
"42934",583.44806,81.17067,108.34646
"42935",583.4615,80.955826,108.1682
"42936",583.4747,80.80934,108.05158
"42937",583.4881,80.72144,107.988976
"42938",583.5013,80.67017,107.96025
"42939",583.5147,80.63355,107.94457
"42940",583.5279,80.57984,107.91066
"42941",583.5413,80.49683,107.84577
"42942",583.5545,80.394295,107.75876
"42943",583.56793,80.28199,107.658775
"42944",583.5811,80.17944,107.56504
"42945",583.59454,80.1062,107.497406
"42946",583.6077,80.0647,107.45922
"42947",583.62115,80.04761,107.44415
"42948",583.63434,80.045166,107.4432
"42949",583.64777,80.04761,107.44705
"42950",583.66095,80.042725,107.44366
"42951",583.6744,80.028076,107.43034
"42952",583.68756,79.99634,107.39948
"42953",583.701,79.94507,107.3481
"42954",583.7142,79.87671,107.27802
"42955",583.7276,79.79614,107.1936
"42956",583.7408,79.710686,107.101776
"42957",583.7542,79.63012,107.01217
"42958",583.7674,79.55688,106.92737
"42959",583.7808,79.500725,106.85737
"42960",583.794,79.45678,106.79782
"42961",583.80743,79.42748,106.75155
"42962",583.8206,79.412834,106.71901
"42963",583.83405,79.40307,106.690895
"42964",583.8472,79.398186,106.66736
"42965",583.86066,79.3933,106.64367
"42966",583.87384,79.39086,106.62227
"42967",583.88727,79.3933,106.605675
"42968",583.90045,79.40063,106.59404
"42969",583.9139,79.412834,106.58752
"42970",583.92706,79.4226,106.57893
"42971",583.9405,79.429924,106.568214
"42972",583.9537,79.432365,106.55284
"42973",583.9671,79.42504,106.52778
"42974",583.9803,79.412834,106.497604
"42975",583.9937,79.40551,106.47193
"42976",584.0069,79.3933,106.44115
"42977",584.0203,79.38598,106.41486
"42978",584.0335,79.381096,106.39079
"42979",584.04694,79.381096,106.37145
"42980",584.0601,79.37621,106.34723
"42981",584.07355,79.36889,106.32041
"42982",584.08673,79.364006,106.29581
"42983",584.10016,79.38354,106.29546
"42984",584.11334,79.46166,106.354324
"42985",584.1268,79.639885,106.515724
"42986",584.13995,79.940186,106.80477
"42987",584.1534,80.35035,107.213066
"42988",584.16656,80.82643,107.700096
"42989",584.18,81.28542,108.18491
"42990",584.1932,81.64675,108.58641
"42991",584.2066,81.85428,108.8454
"42992",584.2198,81.89334,108.942406
"42993",584.2332,81.78836,108.89659
"42994",584.2464,81.58083,108.74495
"42995",584.2598,81.324486,108.538
"42996",584.273,81.06569,108.320595
"42997",584.28644,80.8362,108.124405
"42998",584.2996,80.655525,107.969864
"42999",584.31305,80.52369,107.85851
"43000",584.32623,80.428474,107.77966
"43001",584.33966,80.35523,107.71981
"43002",584.35284,80.28443,107.66011
"43003",584.3663,80.216064,107.60063
"43004",584.37946,80.15015,107.541466
"43005",584.3929,80.09888,107.49489
"43006",584.40607,80.06714,107.46624
"43007",584.4195,80.059814,107.46101
"43008",584.4327,80.07202,107.47509
"43009",584.4461,80.096436,107.501755
"43010",584.4593,80.12085,107.52918
"43011",584.4727,80.13306,107.545166
"43012",584.4859,80.128174,107.54444
"43013",584.4993,80.096436,107.51671
"43014",584.5125,80.04028,107.46357
"43015",584.52594,79.96216,107.3867
"43016",584.5391,79.87671,107.30007
"43017",584.55255,79.78638,107.20589
"43018",584.56573,79.70092,107.113754
"43019",584.57916,79.622795,107.02628
"43020",584.59235,79.55688,106.94858
"43021",584.6058,79.50561,106.88346
"43022",584.61896,79.47143,106.83383
"43023",584.6324,79.44457,106.79046
"43024",584.64557,79.429924,106.75845
"43025",584.659,79.42016,106.73087
"43026",584.6722,79.412834,106.70543
"43027",584.6856,79.40795,106.6822
"43028",584.6988,79.40063,106.65637
"43029",584.7122,79.398186,106.6352
"43030",584.7254,79.395744,106.61395
"43031",584.73883,79.39086,106.59019
"43032",584.752,79.38842,106.56871
"43033",584.76544,79.38842,106.5496
"43034",584.7786,79.38842,106.53049
"43035",584.79205,79.38842,106.511375
"43036",584.80524,79.38598,106.48982
"43037",584.81866,79.381096,106.46575
"43038",584.83185,79.37377,106.43909
"43039",584.8453,79.364006,106.40975
"43040",584.85846,79.3518,106.37767
"43041",584.8719,79.344475,106.35009
"43042",584.8851,79.361565,106.346695
"43043",584.8985,79.447014,106.41219
"43044",584.9117,79.639885,106.58778
"43045",584.9251,79.96704,106.90369
"43046",584.9383,80.413826,107.34944
"43047",584.9517,80.92897,107.87752
"43048",584.9649,81.427025,108.4046
"43049",584.97833,81.82254,108.84471
"43050",584.9915,82.054474,109.1336
"43051",585.00494,82.10574,109.24907
"43052",585.0181,82.005646,109.214775
"43053",585.03156,81.80545,109.077255
"43054",585.04474,81.55642,108.88464
"43055",585.05817,81.31228,108.68914
"43056",585.07135,81.109634,108.527504
"43057",585.0848,80.970474,108.42302
"43058",585.09796,80.885025,108.3679
"43059",585.1114,80.84596,108.35649
"43060",585.1246,80.816666,108.35363
"43061",585.138,80.7776,108.34009
"43062",585.1512,80.70435,108.29114
"43063",585.1646,80.59937,108.20817
"43064",585.1778,80.47486,108.10239
"43065",585.1912,80.35279,107.995155
"43066",585.2044,80.24536,107.89875
"43067",585.21783,80.164795,107.82585
"43068",585.231,80.11597,107.78217
"43069",585.24445,80.09155,107.76138
"43070",585.2576,80.079346,107.75204
"43071",585.27106,80.076904,107.752075
"43072",585.28424,80.07446,107.75204
"43073",585.29767,80.062256,107.74216
"43074",585.31085,80.0354,107.71725
"43075",585.3243,79.98657,107.669525
"43076",585.33746,79.920654,107.60319
"43077",585.3509,79.84253,107.52258
"43078",585.3641,79.75708,107.43221
"43079",585.3775,79.674065,107.341606
"43080",585.3907,79.603264,107.26062
"43081",585.4041,79.54223,107.18719
"43082",585.4173,79.49584,107.126495
"43083",585.4307,79.45922,107.07412
"43084",585.4439,79.43481,107.03281
"43085",585.45734,79.41772,106.998055
"43086",585.4705,79.40551,106.96765
"43087",585.48395,79.3933,106.93687
"43088",585.49713,79.38598,106.91058
"43089",585.51056,79.381096,106.88651
"43090",585.52374,79.37621,106.86229
"43091",585.5372,79.378654,106.84524
"43092",585.55035,79.38354,106.8307
"43093",585.5638,79.39086,106.81876
"43094",585.57697,79.39086,106.79973
"43095",585.5904,79.38842,106.77825
"43096",585.6036,79.37621,106.74693
"43097",585.617,79.35668,106.70791
"43098",585.6302,79.33227,106.66339
"43099",585.6436,79.31518,106.625435
"43100",585.6568,79.32006,106.60892
"43101",585.6702,79.37377,106.64138
"43102",585.6834,79.517815,106.765854
"43103",585.69684,79.77905,107.012024
"43104",585.71,80.15747,107.38354
"43105",585.72345,80.618904,107.84989
"43106",585.73663,81.092545,108.34287
"43107",585.75006,81.50271,108.78718
"43108",585.76324,81.78104,109.112465
"43109",585.7767,81.90311,109.29019
"43110",585.78986,81.87625,109.32281
"43111",585.8033,81.74197,109.247154
"43112",585.81647,81.549095,109.10872
"43113",585.8299,81.34402,108.95205
"43114",585.8431,81.163345,108.81338
"43115",585.8565,81.03151,108.717896
"43116",585.8697,80.95094,108.66956
"43117",585.8831,80.91188,108.66022
"43118",585.8963,80.88747,108.6643
"43119",585.9097,80.85329,108.65785
"43120",585.9229,80.79225,108.62348
"43121",585.93634,80.69459,108.550575
"43122",585.9495,80.570076,108.44777
"43123",585.96295,80.44068,108.33619
"43124",585.97614,80.31861,108.22789
"43125",585.98956,80.22583,108.145065
"43126",586.00275,80.17456,108.10085
"43127",586.0162,80.15991,108.09166
"43128",586.02936,80.17212,108.108864
"43129",586.0428,80.19409,108.136215
"43130",586.05597,80.2063,108.15449
"43131",586.0694,80.201416,108.15605
"43132",586.0826,80.16968,108.13061
"43133",586.096,80.11597,108.0822
"43134",586.1092,80.04028,108.01014
"43135",586.1226,79.957275,107.92839
"43136",586.1358,79.86694,107.83672
"43137",586.14923,79.781494,107.747116
"43138",586.1624,79.70092,107.65971
"43139",586.17584,79.63256,107.58201
"43140",586.189,79.57397,107.51193
"43141",586.20245,79.53002,107.45467
"43142",586.21564,79.49584,107.40581
"43143",586.22906,79.46899,107.3632
"43144",586.24225,79.4519,107.32951
"43145",586.2557,79.43725,107.29774
"43146",586.26886,79.4226,107.2655
"43147",586.2823,79.41039,107.23525
"43148",586.2955,79.398186,107.20462
"43149",586.3089,79.38842,107.17605
"43150",586.3221,79.38354,107.152054
"43151",586.3355,79.381096,107.13035
"43152",586.3487,79.381096,107.11101
"43153",586.3621,79.38354,107.09411
"43154",586.3753,79.381096,107.0724
"43155",586.38873,79.37621,107.04818
"43156",586.4019,79.36645,107.01892
"43157",586.41534,79.34936,106.98203
"43158",586.4285,79.327385,106.93973
"43159",586.44196,79.30053,106.89185
"43160",586.45514,79.276115,106.84558
"43161",586.46857,79.26635,106.813194
"43162",586.48175,79.290764,106.81468
"43163",586.4952,79.38842,106.890175
"43164",586.50836,79.59838,107.081024
"43165",586.5218,79.92798,107.39807
"43166",586.535,80.360115,107.82796
"43167",586.5484,80.83864,108.31773
"43168",586.5616,81.287865,108.79317
"43169",586.575,81.62234,109.167885
"43170",586.5882,81.80301,109.399254
"43171",586.6016,81.82498,109.47757
"43172",586.6148,81.71511,109.42473
"43173",586.62823,81.52224,109.28545
"43174",586.6414,81.29763,109.10841
"43175",586.65485,81.094986,108.94632
"43176",586.668,80.936295,108.821846
"43177",586.68146,80.833755,108.748566
"43178",586.69464,80.77516,108.71603
"43179",586.70807,80.73853,108.70362
"43180",586.72125,80.69459,108.682755
"43181",586.7347,80.62379,108.63366
"43182",586.74786,80.51881,108.54817
"43183",586.7613,80.38941,108.43499
"43184",586.7745,80.257576,108.31532
"43185",586.7879,80.14526,108.21106
"43186",586.8011,80.0647,108.13503
"43187",586.8145,80.02319,108.09555
"43188",586.8277,80.01343,108.08651
"43189",586.8411,80.02319,108.096695
"43190",586.8543,80.0354,108.10963
"43191",586.86774,80.04028,108.115616
"43192",586.8809,80.02319,108.099785
"43193",586.89435,79.98657,108.06389
"43194",586.90753,79.93042,108.00732
"43195",586.92096,79.85962,107.93434
"43196",586.93414,79.77905,107.84939
"43197",586.9476,79.69604,107.75947
"43198",586.96075,79.61791,107.671844
"43199",586.9742,79.54711,107.5891
"43200",586.98737,79.48608,107.513916
"43201",587.0008,79.44213,107.45391
"43202",587.014,79.40795,107.4023
"43203",587.0274,79.38354,107.35938
"43204",587.0406,79.36645,107.32303
"43205",587.054,79.3518,107.28858
"43206",587.0672,79.33959,107.25612
"43207",587.0806,79.32983,107.225716
"43208",587.0938,79.32494,107.19989
"43209",587.10724,79.32006,107.17391
"43210",587.1204,79.31518,107.14778
"43211",587.13385,79.31274,107.12394
"43212",587.14703,79.310295,107.10002
"43213",587.16046,79.30541,107.073586
"43214",587.17365,79.29565,107.042114
"43215",587.1871,79.27856,107.00301
"43216",587.20026,79.25414,106.956055
"43217",587.2137,79.22484,106.90344
"43218",587.22687,79.19798,106.85236
"43219",587.2403,79.18822,106.817535
"43220",587.2535,79.2224,106.82635
"43221",587.2669,79.33959,106.91924
"43222",587.2801,79.56176,107.12077
"43223",587.2935,79.90112,107.44644
"43224",587.3067,80.325935,107.868164
"43225",587.3201,80.77516,108.327576
"43226",587.3333,81.17311,108.74975
"43227",587.34674,81.45632,109.06962
"43228",587.3599,81.5906,109.249405
"43229",587.37335,81.57351,109.28202
"43230",587.38654,81.446556,109.20424
"43231",587.39996,81.25613,109.05901
"43232",587.41315,81.06081,108.90295
"43233",587.4266,80.89235,108.76764
"43234",587.43976,80.77028,108.673454
"43235",587.4532,80.69947,108.62672
"43236",587.4664,80.655525,108.60463
"43237",587.4798,80.61158,108.58117
"43238",587.493,80.5481,108.536804
"43239",587.5064,80.45045,108.456276
"43240",587.5196,80.32838,108.34828
"43241",587.533,80.19165,108.22182
"43242",587.5462,80.06714,108.103294
"43243",587.55963,79.96948,108.00774
"43244",587.5728,79.91089,107.94819
"43245",587.58624,79.89136,107.92587
"43246",587.5994,79.89624,107.92736
"43247",587.61285,79.91089,107.93877
"43248",587.62604,79.923096,107.94819
"43249",587.63947,79.920654,107.943344
"43250",587.65265,79.8938,107.91401
"43251",587.6661,79.84497,107.86186
"43252",587.67926,79.77417,107.78622
"43253",587.6927,79.693596,107.698586
"43254",587.7059,79.60815,107.60356
"43255",587.7193,79.5227,107.50587
"43256",587.7325,79.44213,107.410385
"43257",587.7459,79.37133,107.32215
"43258",587.7591,79.31274,107.24391
"43259",587.7725,79.27123,107.18093
"43260",587.7857,79.24681,107.133736
"43261",587.79913,79.23216,107.09555
"43262",587.8123,79.2224,107.06179
"43263",587.82574,79.217514,107.03261
"43264",587.8389,79.21019,107.00083
"43265",587.85236,79.202866,106.96883
"43266",587.86554,79.18822,106.92927
"43267",587.87897,79.17357,106.88925
"43268",587.89215,79.1638,106.85366
"43269",587.9056,79.15404,106.817764
"43270",587.91876,79.14671,106.784004
"43271",587.9322,79.14427,106.7549
"43272",587.9454,79.14427,106.72816
"43273",587.9588,79.14427,106.701416
"43274",587.972,79.14183,106.67223
"43275",587.9854,79.13451,106.63809
"43276",587.9986,79.12474,106.60128
"43277",588.012,79.11009,106.55928
"43278",588.0252,79.09056,106.51194
"43279",588.03864,79.063705,106.456665
"43280",588.0518,79.044174,106.407875
"43281",588.06525,79.046616,106.38045
"43282",588.0784,79.10033,106.404366
"43283",588.09186,79.234604,106.51053
"43284",588.10504,79.48852,106.740524
"43285",588.11847,79.85962,107.09564
"43286",588.13165,80.31129,107.54292
"43287",588.1451,80.78493,108.02629
"43288",588.15826,81.20485,108.47074
"43289",588.1717,81.497826,108.80137
"43290",588.1849,81.62966,108.98001
"43291",588.1983,81.60769,109.008965
"43292",588.2115,81.47341,108.92493
"43293",588.2249,81.28054,108.7781
"43294",588.2381,81.08522,108.622795
"43295",588.2515,80.92409,108.495575
"43296",588.2647,80.81911,108.41947
"43297",588.27814,80.76784,108.3938
"43298",588.2913,80.7483,108.398254
"43299",588.30475,80.73121,108.40455
"43300",588.31793,80.69459,108.39078
"43301",588.33136,80.61402,108.33192
"43302",588.34454,80.49195,108.229034
"43303",588.358,80.34058,108.09304
"43304",588.37115,80.181885,107.944984
"43305",588.3846,80.04028,107.80907
"43306",588.39777,79.937744,107.70779
"43307",588.4112,79.87671,107.644806
"43308",588.4244,79.85718,107.62142
"43309",588.4378,79.871826,107.63161
"43310",588.451,79.89868,107.65446
"43311",588.4644,79.91821,107.67082
"43312",588.4776,79.923096,107.67315
"43313",588.491,79.903564,107.651215
"43314",588.5042,79.86206,107.6067
"43315",588.51764,79.80591,107.546234
"43316",588.5308,79.744865,107.479126
"43317",588.54425,79.68383,107.41012
"43318",588.55743,79.62524,107.341644
"43319",588.57086,79.571526,107.27622
"43320",588.58405,79.52514,107.216446
"43321",588.5975,79.48852,107.164986
"43322",588.61066,79.46899,107.12947
"43323",588.6241,79.45922,107.10311
"43324",588.63727,79.4641,107.091095
"43325",588.6507,79.47387,107.084114
"43326",588.6639,79.48608,107.07988
"43327",588.6773,79.49096,107.0687
"43328",588.6905,79.48852,107.050354
"43329",588.7039,79.48119,107.02705
"43330",588.7171,79.46899,106.99863
"43331",588.7305,79.45678,106.969826
"43332",588.7437,79.447014,106.943085
"43333",588.75714,79.43969,106.91848
"43334",588.7703,79.432365,106.89365
"43335",588.78375,79.42504,106.86858
"43336",588.79694,79.41772,106.84329
"43337",588.81036,79.40551,106.81289
"43338",588.82355,79.3933,106.782104
"43339",588.837,79.37621,106.746056
"43340",588.85016,79.3518,106.70215
"43341",588.8636,79.327385,106.65748
"43342",588.8768,79.30297,106.612045
"43343",588.8902,79.276115,106.56341
"43344",588.9034,79.2517,106.51637
"43345",588.9168,79.22728,106.46857
"43346",588.93,79.20531,106.42245
"43347",588.9434,79.183334,106.37564
"43348",588.9566,79.17113,106.33791
"43349",588.97003,79.19066,106.33154
"43350",588.9832,79.281,106.39659
"43351",588.99664,79.47387,106.56699
"43352",589.0098,79.78882,106.8655
"43353",589.02325,80.21118,107.281265
"43354",589.03644,80.69215,107.76883
"43355",589.04987,81.146255,108.24457
"43356",589.06305,81.49294,108.627075
"43357",589.0765,81.6907,108.87148
"43358",589.08966,81.72976,108.96338
"43359",589.1031,81.64431,108.931984
"43360",589.1163,81.48806,108.82712
"43361",589.1297,81.31472,108.70028
"43362",589.1429,81.163345,108.58999
"43363",589.1563,81.058365,108.52136
"43364",589.1695,81.007095,108.50317
"43365",589.1829,80.987564,108.51511
"43366",589.1961,80.97536,108.53376
"43367",589.20953,80.9485,108.537384
"43368",589.2227,80.88747,108.50599
"43369",589.23615,80.7776,108.42386
"43370",589.2493,80.63111,108.30167
"43371",589.26276,80.46998,108.160255
"43372",589.27594,80.31617,108.02113
"43373",589.28937,80.18921,107.90405
"43374",589.30255,80.09888,107.81963
"43375",589.316,80.045166,107.76901
"43376",589.32916,80.025635,107.75089
"43377",589.3426,80.02319,107.74925
"43378",589.3558,80.01343,107.74021
"43379",589.3692,79.9939,107.7211
"43380",589.3824,79.94751,107.67452
"43381",589.3958,79.87671,107.60208
"43382",589.409,79.781494,107.50301
"43383",589.4224,79.676506,107.3912
"43384",589.4356,79.5642,107.26878
"43385",589.44904,79.45922,107.150185
"43386",589.4622,79.364006,107.03807
"43387",589.47565,79.28344,106.93763
"43388",589.48883,79.2224,106.854195
"43389",589.50226,79.17845,106.78595
"43390",589.51544,79.15404,106.73586
"43391",589.5289,79.13939,106.69478
"43392",589.54205,79.12962,106.65812
"43393",589.5555,79.11986,106.621155
"43394",589.56866,79.10765,106.58144
"43395",589.5821,79.09544,106.54135
"43396",589.5953,79.08324,106.50088
"43397",589.6087,79.07347,106.46246
"43398",589.6219,79.061264,106.4213
"43399",589.6353,79.05394,106.38464
"43400",589.6485,79.046616,106.347755
"43401",589.6619,79.03929,106.31064
"43402",589.6751,79.03441,106.275734
"43403",589.68854,79.03441,106.24556
"43404",589.7017,79.04173,106.22271
"43405",589.71515,79.05394,106.20497
"43406",589.72833,79.06859,106.190056
"43407",589.74176,79.08324,106.1756
"43408",589.75494,79.09544,106.15916
"43409",589.7684,79.10277,106.138214
"43410",589.78156,79.11253,106.11994
"43411",589.795,79.11986,106.09953
"43412",589.80817,79.132065,106.084236
"43413",589.8216,79.1638,106.08885
"43414",589.8348,79.22972,106.12864
"43415",589.8482,79.364006,106.23885
"43416",589.8614,79.59838,106.453354
"43417",589.8748,79.94995,106.79237
"43418",589.888,80.40162,107.24248
"43419",589.9014,80.89723,107.75064
"43420",589.9146,81.358665,108.24011
"43421",589.92804,81.71023,108.63413
"43422",589.9412,81.900665,108.87801
"43423",589.95465,81.92752,108.964264
"43424",589.96783,81.812775,108.90975
"43425",589.98126,81.60769,108.761314
"43426",589.99445,81.36843,108.572296
"43427",590.0079,81.13893,108.38556
"43428",590.02106,80.94362,108.22584
"43429",590.0345,80.797134,108.10884
"43430",590.04767,80.69215,108.02876
"43431",590.0611,80.60914,107.967384
"43432",590.0743,80.52613,107.90341
"43433",590.0877,80.42603,107.819756
"43434",590.1009,80.30152,107.70856
"43435",590.1143,80.16235,107.57881
"43436",590.1275,80.02075,107.44228
"43437",590.1409,79.89868,107.32086
"43438",590.1541,79.80591,107.22492
"43439",590.16754,79.74731,107.160255
"43440",590.1807,79.71557,107.12062
"43441",590.19415,79.708244,107.10441
"43442",590.20734,79.70336,107.09041
"43443",590.22076,79.691154,107.06893
"43444",590.23395,79.65942,107.02754
"43445",590.2474,79.60815,106.96563
"43446",590.26056,79.534904,106.88014
"43447",590.274,79.44457,106.775276
"43448",590.2872,79.3518,106.665146
"43449",590.3006,79.27123,106.56432
"43450",590.3138,79.19798,106.4683
"43451",590.3272,79.14183,106.387085
"43452",590.3404,79.11009,106.32853
"43453",590.3538,79.097885,106.28851
"43454",590.367,79.09544,106.25788
"43455",590.38043,79.10521,106.23938
"43456",590.3936,79.11742,106.223625
"43457",590.40704,79.12962,106.20825
"43458",590.4202,79.14427,106.1957
"43459",590.43365,79.151596,106.176285
"43460",590.44684,79.15404,106.152214
"43461",590.46027,79.15892,106.13066
"43462",590.47345,79.166245,106.1117
"43463",590.4869,79.17357,106.09297
"43464",590.50006,79.18089,106.07447
"43465",590.5135,79.1931,106.06108
"43466",590.5267,79.202866,106.04563
"43467",590.5401,79.21019,106.028046
"43468",590.5533,79.21263,106.005806
"43469",590.5667,79.21507,105.98364
"43470",590.5799,79.219955,105.964
"43471",590.5933,79.22728,105.946945
"43472",590.6065,79.234604,105.93012
"43473",590.61993,79.24681,105.91841
"43474",590.6331,79.256584,105.90465
"43475",590.64655,79.26147,105.8863
"43476",590.6597,79.26635,105.8681
"43477",590.67316,79.26879,105.84762
"43478",590.68634,79.27123,105.82721
"43479",590.69977,79.28344,105.81664
"43480",590.71295,79.3225,105.83331
"43481",590.7264,79.43481,105.924446
"43482",590.73956,79.65453,106.12651
"43483",590.753,79.99634,106.45752
"43484",590.7662,80.445564,106.90663
"43485",590.7796,80.94606,107.42105
"43486",590.7928,81.409935,107.91449
"43487",590.8062,81.75662,108.30524
"43488",590.8194,81.94949,108.553
"43489",590.8328,81.97879,108.64322
"43490",590.846,81.87137,108.59763
"43491",590.85944,81.67605,108.46079
"43492",590.8726,81.449,108.28612
"43493",590.88605,81.23903,108.12143
"43494",590.89923,81.07057,107.99169
"43495",590.91266,80.96071,107.91528
"43496",590.92584,80.902115,107.88671
"43497",590.9393,80.87282,107.885605
"43498",590.95245,80.848404,107.888466
"43499",590.9659,80.799576,107.86615
"43500",590.97906,80.71656,107.80812
"43501",590.9925,80.59937,107.713326
"43502",591.0057,80.45777,107.590454
"43503",591.0191,80.31129,107.458275
"43504",591.0323,80.184326,107.34104
"43505",591.0457,80.093994,107.25647
"43506",591.0589,80.045166,107.21058
"43507",591.0723,80.03052,107.19734
"43508",591.0855,80.04028,107.20806
"43509",591.09894,80.059814,107.22885
"43510",591.1121,80.07202,107.24293
"43511",591.12555,80.06958,107.24274
"43512",591.13873,80.03784,107.21317
"43513",591.15216,79.98413,107.160645
"43514",591.16534,79.91333,107.08935
"43515",591.1788,79.83276,107.00607
"43516",591.19196,79.7522,106.92028
"43517",591.2054,79.676506,106.836845
"43518",591.21857,79.61059,106.76082
"43519",591.232,79.551994,106.690056
"43520",591.2452,79.50317,106.62723
"43521",591.2586,79.466545,106.57508
"43522",591.2718,79.44457,106.53644
"43523",591.2852,79.42748,106.50199
"43524",591.2984,79.415276,106.47189
"43525",591.3118,79.41039,106.44874
"43526",591.325,79.40307,106.42299
"43527",591.33844,79.395744,106.39701
"43528",591.3516,79.39086,106.373245
"43529",591.36505,79.38354,106.346886
"43530",591.37823,79.37621,106.3203
"43531",591.39166,79.36645,106.29104
"43532",591.40485,79.35424,106.25903
"43533",591.4183,79.344475,106.22909
"43534",591.43146,79.33471,106.19884
"43535",591.4449,79.33471,106.17805
"43536",591.45807,79.33715,106.1597
"43537",591.4715,79.34936,106.15119
"43538",591.4847,79.364006,106.14551
"43539",591.4981,79.378654,106.14028
"43540",591.5113,79.38842,106.13063
"43541",591.5247,79.3933,106.1164
"43542",591.5379,79.3933,106.09744
"43543",591.55133,79.38598,106.07116
"43544",591.5645,79.381096,106.04709
"43545",591.57794,79.37621,106.022865
"43546",591.5911,79.37621,106.00337
"43547",591.60455,79.3933,106.00097
"43548",591.61774,79.4641,106.05281
"43549",591.63116,79.63012,106.20208
"43550",591.64435,79.91821,106.478615
"43551",591.6578,80.33326,106.891106
"43552",591.67096,80.82643,107.39469
"43553",591.6844,81.32693,107.92101
"43554",591.6976,81.739525,108.37508
"43555",591.711,81.99832,108.68823
"43556",591.7242,82.08377,108.83613
"43557",591.7376,82.005646,108.82312
"43558",591.7508,81.815216,108.695366
"43559",591.7642,81.57351,108.51038
"43560",591.7774,81.32937,108.315414
"43561",591.79083,81.11452,108.142105
"43562",591.804,80.95827,108.02068
"43563",591.81744,80.86061,107.95297
"43564",591.8306,80.8069,107.926155
"43565",591.84406,80.77272,107.91719
"43566",591.85724,80.73853,107.90715
"43567",591.87067,80.6775,107.869194
"43568",591.88385,80.57984,107.79271
"43569",591.8973,80.45777,107.68876
"43570",591.91046,80.325935,107.57123
"43571",591.9239,80.20386,107.459335
"43572",591.9371,80.111084,107.37293
"43573",591.9505,80.05737,107.32269
"43574",591.9637,80.0354,107.30251
"43575",591.9771,80.03784,107.30606
"43576",591.9903,80.05493,107.32433
"43577",592.0037,80.06958,107.3407
"43578",592.0169,80.06958,107.34287
"43579",592.03033,80.05005,107.325516
"43580",592.0435,80.008545,107.285576
"43581",592.05695,79.94995,107.22725
"43582",592.0701,79.87915,107.154884
"43583",592.08356,79.80347,107.075424
"43584",592.09674,79.725334,106.99115
"43585",592.11017,79.64965,106.90688
"43586",592.12335,79.57885,106.825134
"43587",592.1368,79.5227,106.75582
"43588",592.14996,79.47631,106.69452
"43589",592.1634,79.44213,106.643974
"43590",592.1766,79.41772,106.60213
"43591",592.19,79.40063,106.56684
"43592",592.2032,79.39086,106.538345
"43593",592.2166,79.38842,106.51687
"43594",592.2298,79.39086,106.5002
"43595",592.2432,79.39086,106.48116
"43596",592.2564,79.39086,106.46213
"43597",592.26984,79.38842,106.44065
"43598",592.283,79.38354,106.41666
"43599",592.29645,79.37377,106.38763
"43600",592.30963,79.36645,106.36073
"43601",592.32306,79.35912,106.33361
"43602",592.33624,79.3518,106.30626
"43603",592.3497,79.34203,106.27624
"43604",592.36285,79.33715,106.25079
"43605",592.3763,79.32983,106.222755
"43606",592.38947,79.3225,106.19449
"43607",592.4029,79.310295,106.16111
"43608",592.4161,79.30053,106.12979
"43609",592.4295,79.30541,106.112816
"43610",592.4427,79.35668,106.14238
"43611",592.4561,79.4934,106.258995
"43612",592.4693,79.74975,106.49951
"43613",592.4827,80.130615,106.87256
"43614",592.4959,80.601814,107.34784
"43615",592.50934,81.09743,107.86226
"43616",592.5225,81.52712,108.32625
"43617",592.53595,81.8201,108.66695
"43618",592.54913,81.94461,108.848335
"43619",592.56256,81.90555,108.87004
"43620",592.57574,81.73708,108.76112
"43621",592.5892,81.50027,108.57859
"43622",592.60236,81.24147,108.36668
"43623",592.6158,80.99977,108.16377
"43624",592.62897,80.799576,107.99482
"43625",592.6424,80.65064,107.87087
"43626",592.6556,80.54078,107.78134
"43627",592.669,80.45045,107.70791
"43628",592.6822,80.365,107.636536
"43629",592.6956,80.26978,107.55273
"43630",592.7088,80.16724,107.45861
"43631",592.7222,80.062256,107.35886
"43632",592.7354,79.971924,107.27047
"43633",592.74884,79.906006,107.203674
"43634",592.762,79.871826,107.16656
"43635",592.77545,79.86206,107.15279
"43636",592.78864,79.87671,107.163124
"43637",592.80206,79.903564,107.18613
"43638",592.81525,79.92554,107.205086
"43639",592.8287,79.9353,107.212524
"43640",592.84186,79.923096,107.198296
"43641",592.8553,79.88403,107.15683
"43642",592.86847,79.823,107.09217
"43643",592.8819,79.74731,107.01095
"43644",592.8951,79.66674,106.922485
"43645",592.9085,79.588615,106.83395
"43646",592.9217,79.5227,106.75517
"43647",592.9351,79.466545,106.684105
"43648",592.9483,79.4226,106.62349
"43649",592.96173,79.39086,106.57371
"43650",592.9749,79.36889,106.5327
"43651",592.98834,79.35424,106.49833
"43652",593.0015,79.34692,106.470825
"43653",593.01495,79.344475,106.447975
"43654",593.02814,79.34692,106.42993
"43655",593.04156,79.35424,106.41685
"43656",593.05475,79.361565,106.40399
"43657",593.0682,79.37377,106.39625
"43658",593.08136,79.38598,106.388885
"43659",593.0948,79.395744,106.37946
"43660",593.108,79.40307,106.367905
"43661",593.1214,79.40063,106.34681
"43662",593.1346,79.398186,106.32564
"43663",593.148,79.3933,106.30195
"43664",593.1612,79.38842,106.27811
"43665",593.1746,79.38842,106.258995
"43666",593.1878,79.395744,106.24721
"43667",593.20123,79.40551,106.23809
"43668",593.2144,79.432365,106.24637
"43669",593.22784,79.50561,106.30187
"43670",593.241,79.66186,106.44267
"43671",593.25446,79.9353,106.70555
"43672",593.26764,80.33326,107.10149
"43673",593.28107,80.82399,107.60263
"43674",593.29425,81.34402,108.14841
"43675",593.3077,81.81033,108.65672
"43676",593.32086,82.142365,109.04533
"43677",593.3343,82.30106,109.27097
"43678",593.3475,82.28886,109.33067
"43679",593.3609,82.144806,109.25815
"43680",593.3741,81.91287,109.09324
"43681",593.3875,81.651634,108.89178
"43682",593.4007,81.409935,108.70169
"43683",593.4141,81.214615,108.55043
"43684",593.4273,81.07301,108.446785
"43685",593.44073,80.98512,108.392426
"43686",593.4539,80.936295,108.37438
"43687",593.46735,80.89235,108.359695
"43688",593.4805,80.82887,108.324104
"43689",593.49396,80.73609,108.257225
"43690",593.50714,80.61158,108.155716
"43691",593.52057,80.47486,108.03811
"43692",593.53375,80.34547,107.92355
"43693",593.5472,80.23804,107.82692
"43694",593.56036,80.15991,107.75623
"43695",593.5738,80.111084,107.7124
"43696",593.587,80.08667,107.69146
"43697",593.6004,80.079346,107.686844
"43698",593.6136,80.076904,107.68688
"43699",593.627,80.07202,107.6844
"43700",593.6402,80.05493,107.66956
"43701",593.6536,80.01587,107.63222
"43702",593.6668,79.95239,107.56924
"43703",593.68024,79.87427,107.489624
"43704",593.6934,79.783936,107.39536
"43705",593.70685,79.68871,107.29339
"43706",593.72003,79.60815,107.203094
"43707",593.73346,79.53979,107.12249
"43708",593.74664,79.48608,107.0544
"43709",593.7601,79.449455,107.00172
"43710",593.77325,79.4226,106.95766
"43711",593.7867,79.398186,106.9152
"43712",593.79987,79.378654,106.87686
"43713",593.8133,79.364006,106.8428
"43714",593.8265,79.34936,106.80827
"43715",593.8399,79.33715,106.775734
"43716",593.8531,79.32983,106.747696
"43717",593.8665,79.3225,106.71943
"43718",593.8797,79.31762,106.693375
"43719",593.8931,79.31518,106.66961
"43720",593.9063,79.31274,106.64577
"43721",593.91974,79.30541,106.61697
"43722",593.9329,79.30053,106.59038
"43723",593.94635,79.290764,106.558754
"43724",593.95953,79.27856,106.52438
"43725",593.97296,79.26391,106.48719
"43726",593.98615,79.24681,106.44709
"43727",593.9996,79.22972,106.40646
"43728",594.01276,79.21019,106.36286
"43729",594.0262,79.200424,106.328415
"43730",594.03937,79.2224,106.3254
"43731",594.0528,79.31518,106.39388
"43732",594.066,79.517815,106.57512
"43733",594.0794,79.85718,106.899414
"43734",594.0926,80.31861,107.356384
"43735",594.106,80.83864,107.88637
"43736",594.1192,81.341576,108.41551
"43737",594.1326,81.739525,108.855385
"43738",594.1458,81.969025,109.139244
"43739",594.15924,82.02762,109.25937
"43740",594.1724,81.93729,109.2324
"43741",594.18585,81.74929,109.10494
"43742",594.19904,81.5198,108.930115
"43743",594.21246,81.29763,108.75544
"43744",594.22565,81.12184,108.6202
"43745",594.2391,81.00221,108.53563
"43746",594.25226,80.938736,108.50347
"43747",594.2657,80.91188,108.50595
"43748",594.2789,80.89479,108.51736
"43749",594.2923,80.86061,108.51114
"43750",594.3055,80.78737,108.46479
"43751",594.3189,80.6775,108.379524
"43752",594.3321,80.54566,108.26886
"43753",594.3455,80.40406,108.14431
"43754",594.3587,80.27711,108.02998
"43755",594.37213,80.181885,107.94342
"43756",594.3853,80.12085,107.88807
"43757",594.39874,80.08911,107.86011
"43758",594.4119,80.08667,107.86045
"43759",594.42535,80.096436,107.872925
"43760",594.43854,80.10376,107.88326
"43761",594.45197,80.09888,107.88162
"43762",594.46515,80.07446,107.8603
"43763",594.4786,80.028076,107.81624
"43764",594.49176,79.9646,107.75364
"43765",594.5052,79.888916,107.67685
"43766",594.5184,79.80835,107.59281
"43767",594.5318,79.727776,107.50625
"43768",594.545,79.64721,107.417175
"43769",594.5584,79.56664,107.325584
"43770",594.5716,79.49828,107.24368
"43771",594.585,79.44457,107.17429
"43772",594.5982,79.40307,107.11543
"43773",594.61163,79.37377,107.06748
"43774",594.6248,79.35668,107.03082
"43775",594.63824,79.34692,107.00095
"43776",594.6514,79.33959,106.97322
"43777",594.66486,79.33471,106.9477
"43778",594.67804,79.32983,106.92203
"43779",594.69147,79.327385,106.89864
"43780",594.70465,79.3225,106.87274
"43781",594.7181,79.310295,106.83936
"43782",594.73126,79.30053,106.808044
"43783",594.7447,79.29565,106.7813
"43784",594.7579,79.293205,106.75685
"43785",594.7713,79.290764,106.73232
"43786",594.7845,79.290764,106.71016
"43787",594.7979,79.293205,106.69044
"43788",594.8111,79.290764,106.66591
"43789",594.8245,79.281,106.63398
"43790",594.8377,79.27123,106.601746
"43791",594.85114,79.259026,106.566765
"43792",594.8643,79.256584,106.54117
"43793",594.87775,79.293205,106.55456
"43794",594.8909,79.40551,106.644775
"43795",594.90436,79.63012,106.85081
"43796",594.91754,79.98413,107.19326
"43797",594.93097,80.45289,107.66152
"43798",594.94415,80.9778,108.200584
"43799",594.9576,81.47097,108.72431
"43800",594.97076,81.85428,109.15359
"43801",594.9842,82.06912,109.42638
"43802",594.9974,82.10086,109.52277
"43803",595.0108,81.98123,109.468796
"43804",595.024,81.761505,109.31098
"43805",595.0374,81.497826,109.10235
"43806",595.0506,81.24635,108.89768
"43807",595.064,81.03639,108.72667
"43808",595.0772,80.88991,108.61257
"43809",595.09064,80.799576,108.55005
"43810",595.1038,80.7483,108.52376
"43811",595.11725,80.706795,108.50564
"43812",595.13043,80.65064,108.47157
"43813",595.14386,80.567635,108.4089
"43814",595.15704,80.45777,108.31677
"43815",595.1705,80.33082,108.204124
"43816",595.18365,80.20874,108.092384
"43817",595.1971,80.111084,108.00125
"43818",595.21027,80.042725,107.93636
"43819",595.2237,80.0061,107.90108
"43820",595.2369,79.99878,107.89394
"43821",595.2503,80.008545,107.90367
"43822",595.2635,80.01587,107.91126
"43823",595.2769,80.01343,107.90932
"43824",595.2901,79.9939,107.890205
"43825",595.3035,79.954834,107.85095
"43826",595.3167,79.8938,107.788506
"43827",595.33014,79.82056,107.711945
"43828",595.3433,79.73754,107.62332
"43829",595.35675,79.64965,107.52723
"43830",595.36993,79.56664,107.43327
"43831",595.38336,79.49096,107.34405
"43832",595.39655,79.432365,107.26955
"43833",595.41,79.38598,107.20542
"43834",595.42316,79.34936,107.14961
"43835",595.4366,79.31518,107.0951
"43836",595.44977,79.290764,107.049286
"43837",595.4632,79.27123,107.00759
"43838",595.4764,79.25414,106.96773
"43839",595.4898,79.24681,106.93709
"43840",595.503,79.24681,106.91355
"43841",595.5164,79.24437,106.88757
"43842",595.5296,79.24681,106.8664
"43843",595.543,79.2517,106.847755
"43844",595.5562,79.2517,106.82437
"43845",595.56964,79.24925,106.79854
"43846",595.5828,79.237045,106.76287
"43847",595.59625,79.219955,106.72194
"43848",595.60944,79.19798,106.67559
"43849",595.62286,79.17601,106.628555
"43850",595.63605,79.166245,106.59304
"43851",595.6495,79.185776,106.58652
"43852",595.66266,79.26879,106.64409
"43853",595.6761,79.45434,106.806786
"43854",595.6893,79.766846,107.10224
"43855",595.7027,80.19165,107.51976
"43856",595.7159,80.68726,108.02136
"43857",595.7293,81.16823,108.5238
"43858",595.7425,81.55154,108.94362
"43859",595.7559,81.778595,109.21916
"43860",595.7691,81.83719,109.333336
"43861",595.78253,81.74441,109.297966
"43862",595.7957,81.54177,109.14984
"43863",595.80914,81.287865,108.944115
"43864",595.8223,81.03395,108.730446
"43865",595.83575,80.81178,108.54059
"43866",595.84894,80.64088,108.39505
"43867",595.86237,80.52613,108.30033
"43868",595.87555,80.445564,108.236206
"43869",595.889,80.377205,108.18177
"43870",595.90216,80.31129,108.12764
"43871",595.9156,80.24048,108.06656
"43872",595.9288,80.16235,107.99595
"43873",595.9422,80.08911,107.92778
"43874",595.9554,80.03296,107.87441
"43875",595.9688,80.00122,107.843704
"43876",595.982,79.991455,107.83398
"43877",595.9954,80.00122,107.843475
"43878",596.0086,80.01831,107.8606
"43879",596.02203,80.03296,107.875824
"43880",596.0352,80.03784,107.88174
"43881",596.04865,80.02075,107.86583
"43882",596.0618,79.974365,107.82009
"43883",596.07526,79.91089,107.75581
"43884",596.08844,79.82544,107.66758
"43885",596.10187,79.725334,107.56202
"43886",596.11505,79.62524,107.45334
"43887",596.1285,79.53246,107.348854
"43888",596.14166,79.4519,107.25368
"43889",596.1551,79.38598,107.17063
"43890",596.1683,79.33715,107.102615
"43891",596.1817,79.30053,107.04528
"43892",596.1949,79.273674,106.99657
"43893",596.2083,79.25414,106.95434
"43894",596.2215,79.24193,106.918816
"43895",596.2349,79.237045,106.89024
"43896",596.2481,79.234604,106.86396
"43897",596.26154,79.237045,106.84248
"43898",596.2747,79.237045,106.81864
"43899",596.28815,79.234604,106.79236
"43900",596.30133,79.22728,106.761116
"43901",596.31476,79.21507,106.72476
"43902",596.32794,79.200424,106.685585
"43903",596.3414,79.183334,106.64351
"43904",596.35455,79.17113,106.60578
"43905",596.368,79.15648,106.56523
"43906",596.38116,79.14427,106.526665
"43907",596.3946,79.13695,106.4926
"43908",596.4078,79.166245,106.49493
"43909",596.4212,79.276115,106.57874
"43910",596.4344,79.50561,106.785614
"43911",596.4478,79.871826,107.13638
"43912",596.461,80.35523,107.61578
"43913",596.4744,80.88991,108.16156
"43914",596.4876,81.3904,108.689865
"43915",596.50104,81.77371,109.11662
"43916",596.5142,81.991,109.389336
"43917",596.52765,82.037384,109.49794
"43918",596.54083,81.934845,109.45907
"43919",596.55426,81.7322,109.31689
"43920",596.56744,81.48562,109.124435
"43921",596.5809,81.24391,108.92915
"43922",596.59406,81.03883,108.76295
"43923",596.6075,80.89235,108.648926
"43924",596.62067,80.80446,108.58892
"43925",596.6341,80.75807,108.56767
"43926",596.6473,80.72144,108.55473
"43927",596.6607,80.67506,108.53089
"43928",596.6739,80.59937,108.4763
"43929",596.6873,80.49195,108.38761
"43930",596.7005,80.36256,108.27359
"43931",596.7139,80.24292,108.16528
"43932",596.7271,80.14282,108.07278
"43933",596.74054,80.07446,108.00888
"43934",596.7537,80.042725,107.97947
"43935",596.76715,80.03784,107.97592
"43936",596.78033,80.04761,107.98687
"43937",596.79376,80.05737,107.99812
"43938",596.80695,80.059814,108.00236
"43939",596.8204,80.045166,107.98958
"43940",596.83356,80.00366,107.949486
"43941",596.847,79.94263,107.888565
"43942",596.86017,79.86694,107.81109
"43943",596.8736,79.781494,107.72148
"43944",596.8868,79.693596,107.626755
"43945",596.9002,79.61547,107.539055
"43946",596.9134,79.54711,107.45868
"43947",596.9268,79.48852,107.38593
"43948",596.94,79.43481,107.31624
"43949",596.9534,79.3933,107.25707
"43950",596.9666,79.35668,107.20149
"43951",596.98004,79.32983,107.15453
"43952",596.9932,79.30785,107.11162
"43953",597.00665,79.293205,107.07534
"43954",597.01984,79.28344,107.04349
"43955",597.03326,79.276115,107.01377
"43956",597.04645,79.273674,106.98871
"43957",597.0599,79.26879,106.96113
"43958",597.07306,79.26391,106.933395
"43959",597.0865,79.259026,106.90551
"43960",597.0997,79.24925,106.87258
"43961",597.1131,79.23949,106.839355
"43962",597.1263,79.22728,106.80338
"43963",597.1397,79.217514,106.76947
"43964",597.1529,79.20775,106.73525
"43965",597.1663,79.19554,106.69829
"43966",597.1795,79.183334,106.66094
"43967",597.19293,79.1931,106.64519
"43968",597.2061,79.27123,106.698105
"43969",597.21954,79.45678,106.86088
"43970",597.2327,79.783936,107.17106
"43971",597.24615,80.24536,107.62573
"43972",597.25934,80.780045,108.16808
"43973",597.27277,81.30251,108.71493
"43974",597.28595,81.72488,109.17799
"43975",597.2994,81.988556,109.495575
"43976",597.31256,82.06668,109.63584
"43977",597.326,81.99344,109.62718
"43978",597.3392,81.812775,109.50881
"43979",597.3526,81.58572,109.3384
"43980",597.3658,81.358665,109.160904
"43981",597.3792,81.16579,109.01048
"43982",597.3924,81.02907,108.910194
"43983",597.4058,80.94118,108.85446
"43984",597.419,80.88747,108.83016
"43985",597.43243,80.84352,108.81395
"43986",597.4456,80.78493,108.781715
"43987",597.45905,80.70191,108.72323
"43988",597.4722,80.587166,108.63042
"43989",597.48566,80.45777,108.51937
"43990",597.49884,80.33082,108.40672
"43991",597.51227,80.22339,108.30963
"43992",597.52545,80.14038,108.233604
"43993",597.5389,80.08911,108.18672
"43994",597.55206,80.0647,108.16509
"43995",597.5655,80.05493,108.15735
"43996",597.5787,80.05249,108.156624
"43997",597.5921,80.04761,108.15338
"43998",597.6053,80.025635,108.1329
"43999",597.6187,79.98657,108.094635
"44000",597.6319,79.92798,108.03562
"44001",597.6453,79.85718,107.96257
"44002",597.6585,79.77905,107.87998
"44003",597.67194,79.69604,107.79006
"44004",597.6851,79.61547,107.7
"44005",597.69855,79.537346,107.609856
"44006",597.71173,79.4641,107.522156
"44007",597.72516,79.40307,107.444374
"44008",597.73834,79.35668,107.37933
"44009",597.7518,79.3225,107.32505
"44010",597.76495,79.30053,107.281906
"44011",597.7784,79.27856,107.238075
"44012",597.79156,79.259026,107.196
"44013",597.805,79.23216,107.14598
"44014",597.8182,79.20775,107.09757
"44015",597.8316,79.18822,107.05328
"44016",597.8448,79.17357,107.01327
"44017",597.8582,79.1638,106.97768
"44018",597.8714,79.1638,106.951546
"44019",597.8848,79.168686,106.9303
"44020",597.898,79.166245,106.90188
"44021",597.91144,79.1638,106.87338
"44022",597.9246,79.15648,106.83993
"44023",597.93805,79.14427,106.80136
"44024",597.95123,79.12718,106.75753
"44025",597.96466,79.10765,106.710724
"44026",597.97784,79.09056,106.66575
"44027",597.9913,79.078354,106.62512
"44028",598.00446,79.078354,106.59632
"44029",598.0179,79.12474,106.61391
"44030",598.03107,79.25414,106.71596
"44031",598.0445,79.50561,106.944115
"44032",598.0577,79.888916,107.31197
"44033",598.0711,80.38453,107.804115
"44034",598.0843,80.92653,108.35813
"44035",598.0977,81.427025,108.88758
"44036",598.1109,81.80301,109.30816
"44037",598.1243,82.00076,109.562256
"44038",598.1375,82.02518,109.64919
"44039",598.15094,81.90311,109.59041
"44040",598.1641,81.688255,109.43503
"44041",598.17755,81.43923,109.23876
"44042",598.19073,81.20485,109.049355
"44043",598.20416,81.00954,108.89169
"44044",598.21735,80.86549,108.7792
"44045",598.2308,80.77028,108.71103
"44046",598.24396,80.706795,108.671616
"44047",598.2574,80.65064,108.63755
"44048",598.27057,80.584724,108.591965
"44049",598.284,80.49683,108.52235
"44050",598.2972,80.396736,108.437775
"44051",598.3106,80.289314,108.34275
"44052",598.3238,80.19653,108.25901
"44053",598.3372,80.130615,108.199234
"44054",598.3504,80.09155,108.16425
"44055",598.36383,80.079346,108.15491
"44056",598.377,80.08423,108.16227
"44057",598.39044,80.093994,108.17467
"44058",598.4036,80.096436,108.180046
"44059",598.41705,80.079346,108.16597
"44060",598.43024,80.04028,108.12939
"44061",598.44366,79.98169,108.07205
"44062",598.45685,79.906006,107.9958
"44063",598.4703,79.823,107.90985
"44064",598.48346,79.73998,107.821304
"44065",598.4969,79.656975,107.73017
"44066",598.5101,79.57885,107.64133
"44067",598.5235,79.51049,107.55981
"44068",598.5367,79.44457,107.47859
"44069",598.5501,79.39086,107.407524
"44070",598.5633,79.34936,107.346985
"44071",598.5767,79.31762,107.294914
"44072",598.5899,79.293205,107.249176
"44073",598.60333,79.276115,107.21
"44074",598.6165,79.26391,107.17517
"44075",598.62994,79.256584,107.144844
"44076",598.6431,79.24681,107.11184
"44077",598.65656,79.23949,107.08098
"44078",598.66974,79.22972,107.04745
"44079",598.68317,79.219955,107.01361
"44080",598.69635,79.20531,106.97459
"44081",598.7098,79.185776,106.93022
"44082",598.72296,79.166245,106.88525
"44083",598.7364,79.14427,106.83722
"44084",598.7496,79.13939,106.805595
"44085",598.763,79.185776,106.82509
"44086",598.7762,79.32494,106.93881
"44087",598.7896,79.58373,107.176506
"44088",598.8028,79.96216,107.54192
"44089",598.8162,80.42603,108.004616
"44090",598.8294,80.90944,108.501335
"44091",598.84283,81.322044,108.94236
"44092",598.856,81.602806,109.264435
"44093",598.86945,81.722435,109.43415
"44094",598.8826,81.685814,109.451355
"44095",598.89606,81.532005,109.35023
"44096",598.90924,81.31228,109.178375
"44097",598.92267,81.07301,108.98012
"44098",598.93585,80.85329,108.79392
"44099",598.9493,80.6775,108.6448
"44100",598.96246,80.5481,108.536575
"44101",598.9759,80.45533,108.46093
"44102",598.9891,80.377205,108.39703
"44103",599.0025,80.29908,108.330696
"44104",599.0157,80.20874,108.2497
"44105",599.0291,80.10864,108.15613
"44106",599.0423,80.01099,108.06187
"44107",599.0557,79.92798,107.9792
"44108",599.0689,79.87427,107.92324
"44109",599.08234,79.84741,107.892456
"44110",599.0955,79.84741,107.88769
"44111",599.10895,79.85962,107.89513
"44112",599.12213,79.87915,107.91027
"44113",599.13556,79.886475,107.91382
"44114",599.14874,79.871826,107.89562
"44115",599.1622,79.835205,107.854996
"44116",599.17535,79.77417,107.78881
"44117",599.1888,79.693596,107.70118
"44118",599.20197,79.603264,107.60127
"44119",599.2154,79.51537,107.500984
"44120",599.2286,79.43481,107.40527
"44121",599.242,79.36645,107.31925
"44122",599.2552,79.30785,107.24086
"44123",599.2686,79.26147,107.172844
"44124",599.2818,79.2224,107.110695
"44125",599.2952,79.18822,107.052216
"44126",599.3084,79.15892,106.99755
"44127",599.32184,79.13939,106.95174
"44128",599.335,79.1223,106.90775
"44129",599.34845,79.11253,106.87056
"44130",599.36163,79.10521,106.8355
"44131",599.37506,79.097885,106.80022
"44132",599.38824,79.08324,106.75738
"44133",599.4017,79.06859,106.71408
"44134",599.41486,79.04906,106.66544
"44135",599.4283,79.03441,106.62108
"44136",599.44147,79.029526,106.58602
"44137",599.4549,79.03197,106.558136
"44138",599.4681,79.029526,106.525444
"44139",599.4815,79.02464,106.490234
"44140",599.4947,79.009995,106.44511
"44141",599.5081,78.99046,106.39464
"44142",599.5213,78.97093,106.34356
"44143",599.5347,78.95384,106.29431
"44144",599.5479,78.94896,106.25674
"44145",599.56134,78.97826,106.25319
"44146",599.5745,79.08324,106.32624
"44147",599.58795,79.30785,106.52221
"44148",599.60114,79.674065,106.86679
"44149",599.61456,80.16724,107.34978
"44150",599.62775,80.726326,107.91409
"44151",599.6412,81.26833,108.4788
"44152",599.65436,81.69802,108.94812
"44153",599.6678,81.95438,109.25754
"44154",599.68097,82.02762,109.39185
"44155",599.6944,81.94217,109.36977
"44156",599.7076,81.74929,109.23758
"44157",599.721,81.50759,109.050545
"44158",599.7342,81.26589,108.85596
"44159",599.7476,81.058365,108.68799
"44160",599.7608,80.907,108.569695
"44161",599.77423,80.80446,108.4955
"44162",599.7874,80.743416,108.459595
"44163",599.80084,80.69947,108.43888
"44164",599.814,80.6482,108.40947
"44165",599.82745,80.57252,108.35404
"44166",599.84064,80.46998,108.269394
"44167",599.85406,80.34791,108.16201
"44168",599.86725,80.21362,108.0386
"44169",599.8807,80.093994,107.925644
"44170",599.89386,80.00122,107.83581
"44171",599.9073,79.94263,107.77725
"44172",599.9205,79.91577,107.748604
"44173",599.9339,79.91333,107.74353
"44174",599.9471,79.920654,107.748146
"44175",599.9605,79.91821,107.743225
"44176",599.9737,79.89868,107.72114
"44177",599.9871,79.85718,107.67647
"44178",600.0003,79.78882,107.603645
"44179",600.01373,79.710686,107.51891
"44180",600.0269,79.62768,107.426865
"44181",600.04034,79.54467,107.33222
"44182",600.0535,79.466545,107.23987
"44183",600.06696,79.40063,107.15728
"44184",600.08014,79.33959,107.077515
"44185",600.09357,79.281,106.99828
"44186",600.10675,79.23216,106.92698
"44187",600.1202,79.185776,106.8566
"44188",600.13336,79.151596,106.796974
"44189",600.1468,79.12718,106.74605
"44190",600.16,79.11009,106.70168
"44191",600.1734,79.097885,106.66167
"44192",600.1866,79.09056,106.62615
"44193",600.2,79.08568,106.59285
"44194",600.2132,79.08324,106.56184
"44195",600.2266,79.080795,106.53075
"44196",600.2398,79.07347,106.4947
"44197",600.25323,79.05638,106.448654
"44198",600.2664,79.03929,106.40208
"44199",600.27985,79.01976,106.35252
"44200",600.293,79.00511,106.30724
"44201",600.30646,79.00023,106.27127
"44202",600.31964,79.00267,106.24247
"44203",600.33307,79.00755,106.21619
"44204",600.34625,79.009995,106.187614
"44205",600.3597,79.009995,106.15668
"44206",600.37286,79.00267,106.118416
"44207",600.3863,78.98558,106.07016
"44208",600.3995,78.97337,106.02625
"44209",600.4129,78.995346,106.01614
"44210",600.4261,79.09056,106.07996
"44211",600.4395,79.310295,106.27128
"44212",600.4527,79.66918,106.60861
"44213",600.4661,80.15015,107.07924
"44214",600.4793,80.69703,107.63081
"44215",600.49274,81.22194,108.177505
"44216",600.5059,81.6321,108.625854
"44217",600.51935,81.87137,108.91612
"44218",600.53253,81.92996,109.033195
"44219",600.54596,81.832306,108.99585
"44220",600.55914,81.62722,108.84802
"44221",600.5726,81.373314,108.644966
"44222",600.58575,81.1194,108.43397
"44223",600.5992,80.90456,108.254105
"44224",600.61237,80.740974,108.11879
"44225",600.6258,80.63355,108.03452
"44226",600.639,80.56519,107.98596
"44227",600.6524,80.516365,107.954796
"44228",600.6656,80.45777,107.91234
"44229",600.679,80.37965,107.84852
"44230",600.6922,80.27955,107.760284
"44231",600.7056,80.16724,107.65671
"44232",600.7188,80.05005,107.54475
"44233",600.73224,79.95239,107.448654
"44234",600.7454,79.87915,107.373924
"44235",600.75885,79.84009,107.331085
"44236",600.77203,79.82544,107.31144
"44237",600.78546,79.82788,107.308426
"44238",600.79865,79.835205,107.31037
"44239",600.8121,79.835205,107.30522
"44240",600.82526,79.81323,107.2781
"44241",600.8387,79.77417,107.2332
"44242",600.85187,79.72045,107.172424
"44243",600.8653,79.65453,107.09777
"44244",600.8785,79.57885,107.01129
"44245",600.8919,79.50317,106.92245
"44246",600.9051,79.43481,106.83856
"44247",600.9185,79.37133,106.75742
"44248",600.9317,79.31762,106.68407
"44249",600.9451,79.273674,106.6188
"44250",600.9583,79.234604,106.55703
"44251",600.97174,79.19798,106.49649
"44252",600.9849,79.1638,106.43725
"44253",600.99835,79.13695,106.38426
"44254",601.01154,79.114975,106.33532
"44255",601.02496,79.10033,106.293015
"44256",601.03815,79.09544,106.26002
"44257",601.0516,79.09544,106.23175
"44258",601.06476,79.10033,106.20837
"44259",601.0782,79.10521,106.185135
"44260",601.0914,79.11253,106.1645
"44261",601.1048,79.11742,106.14165
"44262",601.118,79.11986,106.11651
"44263",601.1314,79.1223,106.091446
"44264",601.1446,79.1223,106.06402
"44265",601.158,79.11986,106.03415
"44266",601.1712,79.114975,106.00176
"44267",601.18463,79.10765,105.96678
"44268",601.1978,79.09544,105.92669
"44269",601.21124,79.08568,105.88866
"44270",601.2244,79.080795,105.8552
"44271",601.23785,79.10033,105.84601
"44272",601.25104,79.17601,105.89358
"44273",601.26447,79.34936,106.041176
"44274",601.27765,79.64965,106.32114
"44275",601.2911,80.06714,106.72768
"44276",601.30426,80.567635,107.23027
"44277",601.3177,81.077896,107.75827
"44278",601.3309,81.50759,108.22165
"44279",601.3443,81.7908,108.55197
"44280",601.3575,81.89578,108.71291
"44281",601.3709,81.83475,108.71112
"44282",601.3841,81.651634,108.58534
"44283",601.3975,81.40505,108.39037
"44284",601.4107,81.13893,108.16816
"44285",601.42413,80.89235,107.95717
"44286",601.4373,80.689705,107.78241
"44287",601.45074,80.533455,107.64771
"44288",601.4639,80.41627,107.547195
"44289",601.47736,80.32838,107.47231
"44290",601.49054,80.25269,107.40689
"44291",601.50397,80.181885,107.34398
"44292",601.51715,80.10864,107.27642
"44293",601.5306,80.042725,107.2139
"44294",601.54376,79.991455,107.16396
"44295",601.5572,79.9646,107.13684
"44296",601.5704,79.9646,107.135735
"44297",601.5838,79.97925,107.14928
"44298",601.597,80.0061,107.17548
"44299",601.6104,80.025635,107.195206
"44300",601.6236,80.03784,107.20821
"44301",601.637,80.028076,107.19963
"44302",601.6502,79.9939,107.16633
"44303",601.66364,79.937744,107.109985
"44304",601.6768,79.8645,107.0348
"44305",601.69025,79.781494,106.947556
"44306",601.7034,79.69604,106.85527
"44307",601.71686,79.61303,106.762764
"44308",601.73004,79.537346,106.67499
"44309",601.74347,79.47143,106.59461
"44310",601.75665,79.41772,106.52438
"44311",601.7701,79.37621,106.46468
"44312",601.78326,79.34203,106.41101
"44313",601.7967,79.31518,106.363594
"44314",601.8099,79.29565,106.32266
"44315",601.8233,79.281,106.286
"44316",601.8365,79.27123,106.25377
"44317",601.8499,79.26635,106.22611
"44318",601.8631,79.26879,106.20563
"44319",601.8765,79.26879,106.18278
"44320",601.8897,79.26635,106.157486
"44321",601.90314,79.26391,106.13212
"44322",601.9163,79.256584,106.10179
"44323",601.92975,79.24437,106.066345
"44324",601.94293,79.22484,106.0232
"44325",601.95636,79.20531,105.97945
"44326",601.96954,79.1931,105.942406
"44327",601.983,79.202866,105.926956
"44328",601.99615,79.276115,105.975296
"44329",602.0096,79.449455,106.126015
"44330",602.02277,79.74975,106.4091
"44331",602.0362,80.16968,106.82121
"44332",602.0494,80.66041,107.317245
"44333",602.0628,81.15358,107.831055
"44334",602.076,81.56374,108.27727
"44335",602.0894,81.829865,108.592255
"44336",602.1026,81.92996,108.749535
"44337",602.116,81.87381,108.75369
"44338",602.1292,81.69802,108.63646
"44339",602.14264,81.45144,108.44294
"44340",602.1558,81.18532,108.222176
"44341",602.16925,80.936295,108.01019
"44342",602.18243,80.73121,107.834366
"44343",602.19586,80.57984,107.70585
"44344",602.20905,80.47486,107.61899
"44345",602.2225,80.39918,107.55814
"44346",602.23566,80.33082,107.50226
"44347",602.2491,80.25269,107.43447
"44348",602.26227,80.16724,107.35691
"44349",602.2757,80.08423,107.27913
"44350",602.2889,80.01099,107.20852
"44351",602.3023,79.95972,107.15759
"44352",602.3155,79.93042,107.12704
"44353",602.3289,79.92798,107.12242
"44354",602.3421,79.94263,107.13482
"44355",602.3555,79.96216,107.15256
"44356",602.3687,79.974365,107.16358
"44357",602.38214,79.974365,107.16278
"44358",602.3953,79.94507,107.13268
"44359",602.40875,79.8938,107.0797
"44360",602.42194,79.823,107.00558
"44361",602.43536,79.742424,106.91947
"44362",602.44855,79.6643,106.8333
"44363",602.462,79.59106,106.749565
"44364",602.47516,79.5227,106.66843
"44365",602.4886,79.466545,106.59736
"44366",602.5018,79.42016,106.5343
"44367",602.5152,79.378654,106.47468
"44368",602.5284,79.344475,106.42108
"44369",602.5418,79.31762,106.37374
"44370",602.555,79.29565,106.330444
"44371",602.5684,79.27856,106.29134
"44372",602.5816,79.26635,106.25659
"44373",602.59503,79.259026,106.22634
"44374",602.6082,79.259026,106.203186
"44375",602.62164,79.256584,106.17759
"44376",602.6348,79.25414,106.15192
"44377",602.64825,79.24681,106.12128
"44378",602.66144,79.24193,106.09286
"44379",602.67487,79.23949,106.06673
"44380",602.68805,79.234604,106.03808
"44381",602.7015,79.234604,106.01416
"44382",602.71466,79.237045,105.99268
"44383",602.7281,79.234604,105.9664
"44384",602.7413,79.22484,105.93272
"44385",602.7547,79.2224,105.90605
"44386",602.7679,79.24681,105.906166
"44387",602.7813,79.33471,105.97053
"44388",602.7945,79.53002,106.14505
"44389",602.8079,79.86206,106.4624
"44390",602.8211,80.32105,106.91708
"44391",602.83453,80.85573,107.46179
"44392",602.8477,81.38796,108.02077
"44393",602.86115,81.829865,108.50604
"44394",602.8743,82.11551,108.84887
"44395",602.88776,82.21805,109.01752
"44396",602.90094,82.15457,109.02335
"44397",602.91437,81.971466,108.90758
"44398",602.941,81.45388,108.50535
"44399",602.95416,81.21217,108.309074
"44400",602.9676,81.02174,108.156525
"44401",602.9808,80.88747,108.05418
"44402",602.9942,80.80202,107.99646
"44403",603.0074,80.740974,107.96048
"44404",603.0208,80.67994,107.9226
"44405",603.034,80.60914,107.87305
"44406",603.0474,80.516365,107.79931
"44407",603.0606,80.40894,107.70802
"44408",603.07404,80.30396,107.61582
"44409",603.0872,80.21362,107.53498
"44410",603.10065,80.14282,107.470856
"44411",603.11383,80.093994,107.42649
"44412",603.12726,80.07202,107.407455
"44413",603.14044,80.0647,107.40238
"44414",603.1539,80.0647,107.4044
"44415",603.16705,80.059814,107.40154
"44416",603.1805,80.045166,107.38876
"44417",603.19366,80.01343,107.35844
"44418",603.2071,79.96704,107.31247
"44419",603.2203,79.906006,107.250404
"44420",603.2337,79.83032,107.17178
"44421",603.2469,79.74731,107.083466
"44422",603.2603,79.6643,106.99256
"44423",603.2735,79.58373,106.901505
"44424",603.2869,79.517815,106.82258
"44425",603.3001,79.4641,106.7538
"44426",603.31354,79.4226,106.69555
"44427",603.3267,79.38842,106.643326
"44428",603.34015,79.364006,106.5998
"44429",603.35333,79.33959,106.55551
"44430",603.36676,79.31762,106.5129
"44431",603.37994,79.293205,106.46716
"44432",603.3934,79.27123,106.4231
"44433",603.40656,79.25414,106.38324
"44434",603.42,79.23949,106.345276
"44435",603.43317,79.234604,106.31663
"44436",603.4466,79.237045,106.29515
"44437",603.4598,79.24193,106.27619
"44438",603.4732,79.24437,106.254944
"44439",603.4864,79.24925,106.23621
"44440",603.4998,79.24681,106.21031
"44441",603.513,79.234604,106.17457
"44442",603.5264,79.2224,106.13844
"44443",603.5396,79.20531,106.09705
"44444",603.55304,79.18822,106.05513
"44445",603.5662,79.19066,106.0322
"44446",603.57965,79.23949,106.05574
"44447",603.59283,79.37621,106.1687
"44448",603.60626,79.639885,106.41288
"44449",603.61945,80.03784,106.79958
"44450",603.6329,80.54566,107.308586
"44451",603.64606,81.092545,107.87252
"44452",603.6595,81.5906,108.40472
"44453",603.67267,81.95682,108.82064
"44454",603.6861,82.14725,109.07222
"44455",603.6993,82.161896,109.15397
"44456",603.7127,82.02762,109.08725
"44457",603.7259,81.80057,108.92356
"44458",603.7393,81.53445,108.71371
"44459",603.7525,81.27566,108.50287
"44460",603.7659,81.05104,108.318115
"44461",603.7791,80.8777,108.17762
"44462",603.79254,80.75319,108.080536
"44463",603.8057,80.66041,108.01129
"44464",603.81915,80.58228,107.953804
"44465",603.83234,80.50416,107.893875
"44466",603.84576,80.42115,107.82662
"44467",603.85895,80.33326,107.75189
"44468",603.8724,80.25025,107.6793
"44469",603.88556,80.17944,107.61631
"44470",603.899,80.12329,107.565765
"44471",603.9122,80.08911,107.53544
"44472",603.9256,80.06714,107.51625
"44473",603.9388,80.062256,107.513466
"44474",603.9522,80.06714,107.520294
"44475",603.9654,80.07202,107.527275
"44476",603.9788,80.0647,107.5222
"44477",603.992,80.04028,107.49981
"44478",604.00543,79.99634,107.45712
"44479",604.0186,79.93042,107.39109
"44480",604.03204,79.84985,107.30835
"44481",604.0452,79.766846,107.22065
"44482",604.05865,79.68627,107.13279
"44483",604.07184,79.60815,107.04486
"44484",604.08527,79.537346,106.961815
"44485",604.09845,79.47875,106.88876
"44486",604.1119,79.429924,106.82365
"44487",604.12506,79.39086,106.76677
"44488",604.1385,79.3518,106.70867
"44489",604.1517,79.32494,106.66156
"44490",604.1651,79.30297,106.61849
"44491",604.1783,79.28832,106.58206
"44492",604.1917,79.27856,106.55006
"44493",604.2049,79.27856,106.52751
"44494",604.2183,79.27856,106.50497
"44495",604.2315,79.27856,106.48242
"44496",604.24493,79.276115,106.457436
"44497",604.2581,79.27123,106.42993
"44498",604.27155,79.256584,106.39251
"44499",604.2847,79.234604,106.3473
"44500",604.29816,79.21263,106.30141
"44501",604.31134,79.1931,106.25727
"44502",604.32477,79.19798,106.23694
"44503",604.33795,79.2517,106.265594
"44504",604.3514,79.395744,106.38625
"44505",604.36456,79.6643,106.635925
"44506",604.378,80.05493,107.01607
"44507",604.3912,80.54078,107.50363
"44508",604.4046,81.05348,108.03323
"44509",604.4178,81.50759,108.52026
"44510",604.4312,81.832306,108.89209
"44511",604.4444,81.991,109.10804
"44512",604.4578,81.98367,109.16293
"44513",604.471,81.846954,109.0882
"44514",604.48444,81.62478,108.923744
"44515",604.4976,81.36355,108.71329
"44516",604.51105,81.10475,108.4971
"44517",604.52423,80.87282,108.29969
"44518",604.53766,80.68238,108.13653
"44519",604.55084,80.53101,108.006485
"44520",604.5643,80.40894,107.90101
"44521",604.57745,80.306404,107.81125
"44522",604.5909,80.21362,107.72804
"44523",604.60406,80.128174,107.64927
"44524",604.6175,80.05737,107.58247
"44525",604.6307,80.01343,107.54032
"44526",604.6441,79.99634,107.52365
"44527",604.6573,80.00366,107.53086
"44528",604.6707,80.03052,107.55783
"44529",604.6839,80.06714,107.595406
"44530",604.6973,80.10132,107.63168
"44531",604.7105,80.12085,107.65438
"44532",604.72394,80.113525,107.65083
"44533",604.7371,80.08423,107.625084
"44534",604.75055,80.028076,107.57156
"44535",604.76373,79.94995,107.494316
"44536",604.77716,79.85474,107.39754
"44537",604.79034,79.75708,107.29534
"44538",604.8038,79.65942,107.19009
"44539",604.81696,79.571526,107.09155
"44540",604.8304,79.49584,107.00248
"44541",604.84357,79.43969,106.93057
"44542",604.857,79.40551,106.87888
"44543",604.8702,79.381096,106.83589
"44544",604.8836,79.36645,106.8019
"44545",604.8968,79.35668,106.77234
"44546",604.9102,79.3518,106.74735
"44547",604.9234,79.34936,106.724655
"44548",604.9368,79.344475,106.69944
"44549",604.95,79.33471,106.66919
"44550",604.96344,79.32494,106.63863
"44551",604.9766,79.30541,106.59801
"44552",604.99005,79.28344,106.55433
"44553",605.00323,79.259026,106.50752
"44554",605.01666,79.24193,106.46727
"44555",605.02985,79.24925,106.450905
"44556",605.0433,79.31518,106.49337
"44557",605.05646,79.47387,106.63066
"44558",605.0699,79.75952,106.89987
"44559",605.08307,80.164795,107.29763
"44560",605.0965,80.655525,107.79351
"44561",605.1097,81.160904,108.319374
"44562",605.1231,81.59304,108.78779
"44563",605.1363,81.88602,109.13055
"44564",605.1497,82.01541,109.31888
"44565",605.1629,81.986115,109.35256
"44566",605.17633,81.83719,109.2657
"44567",605.1895,81.61257,109.098495
"44568",605.20294,81.36599,108.902306
"44569",605.2161,81.129166,108.70817
"44570",605.22955,80.93385,108.54814
"44571",605.24274,80.78493,108.4284
"44572",605.25616,80.6775,108.3455
"44573",605.26935,80.59205,108.28122
"44574",605.2828,80.51392,108.221596
"44575",605.29596,80.428474,108.15221
"44576",605.3094,80.33814,108.075264
"44577",605.3226,80.24292,107.99061
"44578",605.336,80.16235,107.91763
"44579",605.3492,80.10864,107.868996
"44580",605.3626,80.08179,107.845535
"44581",605.3758,80.076904,107.84321
"44582",605.3892,80.08911,107.85782
"44583",605.4024,80.10376,107.87525
"44584",605.41583,80.111084,107.88582
"44585",605.429,80.09888,107.87708
"44586",605.44244,80.05737,107.83867
"44587",605.4556,79.99634,107.77943
"44588",605.46906,79.91333,107.696304
"44589",605.48224,79.818115,107.59838
"44590",605.49567,79.72045,107.49503
"44591",605.50885,79.62768,107.393524
"44592",605.5223,79.54223,107.29644
"44593",605.53546,79.46899,107.20889
"44594",605.5489,79.415276,107.13859
"44595",605.5621,79.37377,107.07881
"44596",605.5755,79.34203,107.027504
"44597",605.5887,79.31518,106.98009
"44598",605.6021,79.293205,106.936714
"44599",605.6153,79.27123,106.892654
"44600",605.6287,79.2517,106.85035
"44601",605.6419,79.237045,106.81231
"44602",605.65533,79.22728,106.7787
"44603",605.6685,79.21507,106.74235
"44604",605.68195,79.20775,106.710495
"44605",605.6951,79.19554,106.67353
"44606",605.70856,79.18089,106.63374
"44607",605.72174,79.166245,106.5935
"44608",605.73517,79.15404,106.55524
"44609",605.74835,79.14183,106.516594
"44610",605.7618,79.12962,106.47757
"44611",605.77496,79.11986,106.440605
"44612",605.7884,79.11009,106.403336
"44613",605.8016,79.12474,106.390175
"44614",605.815,79.202866,106.44095
"44615",605.8282,79.395744,106.60892
"44616",605.8416,79.727776,106.922066
"44617",605.8548,80.19165,107.37743
"44618",605.8682,80.743416,107.93519
"44619",605.8814,81.29275,108.50775
"44620",605.89484,81.74929,109.00469
"44621",605.908,82.04227,109.35233
"44622",605.92145,82.15457,109.52846
"44623",605.93463,82.1033,109.54452
"44624",605.94806,81.9324,109.43935
"44625",605.96124,81.70046,109.26779
"44626",605.9747,81.461205,109.08167
"44627",605.98785,81.25613,108.92226
"44628",606.0013,81.09987,108.80525
"44629",606.01447,80.99977,108.739525
"44630",606.0279,80.94118,108.71217
"44631",606.0411,80.89479,108.6952
"44632",606.0545,80.833755,108.662125
"44633",606.0677,80.7483,108.60272
"44634",606.0811,80.638435,108.51624
"44635",606.0943,80.5066,108.40436
"44636",606.1077,80.37232,108.28591
"44637",606.1209,80.257576,108.1828
"44638",606.13434,80.16968,108.10295
"44639",606.1475,80.10864,108.04722
"44640",606.16095,80.076904,108.018875
"44641",606.17413,80.06714,108.01151
"44642",606.18756,80.0647,108.01117
"44643",606.20074,80.05737,108.00587
"44644",606.2142,80.03296,107.983246
"44645",606.22736,79.991455,107.94277
"44646",606.2408,79.92554,107.87659
"44647",606.25397,79.84741,107.796135
"44648",606.2674,79.764404,107.70836
"44649",606.2806,79.68139,107.61798
"44650",606.294,79.59838,107.52502
"44651",606.3072,79.520256,107.43434
"44652",606.3206,79.447014,107.34611
"44653",606.3338,79.381096,107.26291
"44654",606.3472,79.327385,107.18986
"44655",606.3604,79.28344,107.12489
"44656",606.37384,79.24681,107.06587
"44657",606.387,79.21507,107.0106
"44658",606.40045,79.185776,106.95677
"44659",606.41364,79.15648,106.90203
"44660",606.42706,79.13451,106.8537
"44661",606.44025,79.114975,106.80712
"44662",606.4537,79.10033,106.76482
"44663",606.46686,79.093,106.72938
"44664",606.4803,79.08568,106.69371
"44665",606.49347,79.080795,106.660255
"44666",606.5069,79.07591,106.62665
"44667",606.5201,79.06859,106.59045
"44668",606.5335,79.05882,106.551575
"44669",606.5467,79.04906,106.5124
"44670",606.5601,79.03929,106.472916
"44671",606.5733,79.027084,106.43069
"44672",606.58673,79.01732,106.39052
"44673",606.5999,79.00755,106.350044
"44674",606.61334,79.01732,106.3288
"44675",606.6265,79.06615,106.34692
"44676",606.63995,79.202866,106.45445
"44677",606.65314,79.46899,106.69566
"44678",606.66656,79.869385,107.07947
"44679",606.67975,80.37965,107.58565
"44680",606.6932,80.93385,108.15172
"44681",606.70636,81.44167,108.68872
"44682",606.7198,81.8201,109.1122
"44683",606.733,82.020294,109.36927
"44684",606.7464,82.04715,109.45926
"44685",606.7596,81.92508,109.40116
"44686",606.773,81.71755,109.25379
"44687",606.7862,81.47097,109.06088
"44688",606.7996,81.22926,108.86514
"44689",606.8128,81.024185,108.69848
"44690",606.82623,80.867935,108.574234
"44691",606.8394,80.75563,108.48905
"44692",606.85284,80.672615,108.42965
"44693",606.866,80.601814,108.37987
"44694",606.87946,80.52125,108.31811
"44695",606.89264,80.428474,108.24162
"44696",606.90607,80.32838,108.154915
"44697",606.91925,80.22827,108.06507
"44698",606.9327,80.14038,107.984314
"44699",606.94586,80.076904,107.925224
"44700",606.9593,80.04028,107.89101
"44701",606.9725,80.025635,107.87762
"44702",606.9859,80.028076,107.88086
"44703",606.9991,80.0354,107.88906
"44704",607.0125,80.03052,107.885284
"44705",607.0257,80.01099,107.86671
"44706",607.0391,79.96948,107.82555
"44707",607.0523,79.91089,107.766
"44708",607.06573,79.83765,107.68997
"44709",607.0789,79.75464,107.60189
"44710",607.09235,79.66918,107.508766
"44711",607.1055,79.59106,107.4203
"44712",607.11896,79.51293,107.3294
"44713",607.13214,79.44213,107.24338
"44714",607.14557,79.381096,107.16491
"44715",607.15875,79.32983,107.0943
"44716",607.1722,79.28832,107.03185
"44717",607.18536,79.2517,106.97299
"44718",607.1988,79.2224,106.9203
"44719",607.212,79.19798,106.87159
"44720",607.2254,79.18089,106.82944
"44721",607.2386,79.1638,106.78675
"44722",607.252,79.15404,106.750854
"44723",607.2652,79.149155,106.719536
"44724",607.2786,79.149155,106.69295
"44725",607.2918,79.14671,106.66392
"44726",607.30524,79.14427,106.63481
"44727",607.3184,79.13939,106.60319
"44728",607.33185,79.132065,106.56897
"44729",607.34503,79.12474,106.53452
"44730",607.35846,79.114975,106.497406
"44731",607.37164,79.09544,106.45022
"44732",607.3851,79.07347,106.39998
"44733",607.39825,79.04906,106.34661
"44734",607.4117,79.05394,106.32178
"44735",607.42487,79.1223,106.36057
"44736",607.4383,79.293205,106.50405
"44737",607.4515,79.59106,106.779816
"44738",607.4649,80.01343,107.18941
"44739",607.4781,80.516365,107.692764
"44740",607.4915,81.02663,108.21916
"44741",607.5047,81.46609,108.690704
"44742",607.5181,81.76883,109.03926
"44743",607.5313,81.90555,109.231255
"44744",607.54474,81.87869,109.26395
"44745",607.5579,81.72488,109.16884
"44746",607.57135,81.495384,108.99325
"44747",607.58453,81.23903,108.78362
"44748",607.59796,80.990005,108.57332
"44749",607.61115,80.7776,108.39185
"44750",607.6246,80.6067,108.24525
"44751",607.63776,80.47486,108.13237
"44752",607.6512,80.36988,108.04223
"44753",607.66437,80.27711,107.96101
"44754",607.6778,80.18677,107.87933
"44755",607.691,80.096436,107.79484
"44756",607.7044,80.02075,107.72217
"44757",607.7176,79.96948,107.67155
"44758",607.731,79.94751,107.64862
"44759",607.7442,79.96216,107.66163
"44760",607.7576,79.99878,107.69707
"44761",607.7708,80.04028,107.73853
"44762",607.78424,80.06958,107.76909
"44763",607.7974,80.07446,107.776146
"44764",607.81085,80.05005,107.75406
"44765",607.82404,79.9939,107.69947
"44766",607.83746,79.91821,107.6236
"44767",607.85065,79.82788,107.53071
"44768",607.8641,79.73754,107.43499
"44769",607.87726,79.64477,107.334015
"44770",607.8907,79.56176,107.23991
"44771",607.9039,79.48852,107.15297
"44772",607.9173,79.42748,107.07595
"44773",607.9305,79.37133,107.00191
"44774",607.9439,79.327385,106.93832
"44775",607.9571,79.290764,106.88068
"44776",607.9705,79.26147,106.829216
"44777",607.9837,79.237045,106.781715
"44778",607.99713,79.2224,106.743225
"44779",608.0103,79.21263,106.70916
"44780",608.02374,79.21019,106.68211
"44781",608.0369,79.20775,106.65499
"44782",608.05035,79.202866,106.62535
"44783",608.06354,79.1931,106.590675
"44784",608.07697,79.18089,106.55325
"44785",608.09015,79.16136,106.508125
"44786",608.1036,79.14183,106.46239
"44787",608.11676,79.12474,106.41848
"44788",608.1302,79.10765,106.37404
"44789",608.1434,79.09056,106.32906
"44790",608.1568,79.08568,106.29576
"44791",608.17,79.12474,106.30625
"44792",608.1834,79.24681,106.40097
"44793",608.1966,79.4934,106.62402
"44794",608.21,79.87427,106.98906
"44795",608.2232,80.36744,107.4783
"44796",608.23663,80.902115,108.02446
"44797",608.2498,81.39529,108.54582
"44798",608.26324,81.76395,108.958084
"44799",608.2764,81.96414,109.2134
"44800",608.28986,81.99344,109.30408
"44801",608.30304,81.87869,109.251625
"44802",608.31647,81.67361,109.10525
"44803",608.32965,81.43435,108.91829
"44804",608.3431,81.19997,108.72873
"44805",608.35626,80.99733,108.56359
"44806",608.3697,80.84352,108.44095
"44807",608.3829,80.73365,108.35744
"44808",608.3963,80.64088,108.28759
"44809",608.4095,80.56031,108.22705
"44810",608.4229,80.47486,108.15911
"44811",608.4361,80.37965,108.078735
"44812",608.4495,80.274666,107.98562
"44813",608.4627,80.17456,107.8941
"44814",608.47614,80.09155,107.81654
"44815",608.4893,80.03296,107.76081
"44816",608.50275,79.99878,107.72766
"44817",608.5159,79.98657,107.715416
"44818",608.52936,79.98657,107.715
"44819",608.54254,79.98901,107.71702
"44820",608.55597,79.98413,107.71179
"44821",608.56915,79.9646,107.691765
"44822",608.5826,79.92798,107.65404
"44823",608.59576,79.87427,107.598076
"44824",608.6092,79.80347,107.523346
"44825",608.6224,79.725334,107.43907
"44826",608.6358,79.63744,107.3426
"44827",608.649,79.554436,107.24826
"44828",608.6624,79.47631,107.15621
"44829",608.6756,79.40795,107.07149
"44830",608.689,79.35424,106.999275
"44831",608.7022,79.31274,106.93759
"44832",608.71564,79.28344,106.88682
"44833",608.7288,79.259026,106.84001
"44834",608.74225,79.24193,106.79976
"44835",608.75543,79.2224,106.75654
"44836",608.76886,79.20531,106.71515
"44837",608.78204,79.18822,106.673225
"44838",608.7955,79.18089,106.64053
"44839",608.80865,79.17113,106.60517
"44840",608.8221,79.166245,106.57439
"44841",608.83527,79.1638,106.54589
"44842",608.8487,79.15648,106.512436
"44843",608.8619,79.149155,106.47875
"44844",608.8753,79.14183,106.44484
"44845",608.8885,79.132065,106.40826
"44846",608.9019,79.1223,106.37137
"44847",608.9151,79.11253,106.334175
"44848",608.9285,79.10033,106.294235
"44849",608.9417,79.08324,106.24903
"44850",608.95514,79.07591,106.21306
"44851",608.9683,79.10033,106.208595
"44852",608.98175,79.19798,106.27814
"44853",608.99493,79.41772,106.47281
"44854",609.00836,79.77905,106.81595
"44855",609.02155,80.2649,107.29489
"44856",609.035,80.816666,107.854935
"44857",609.04816,81.35378,108.41757
"44858",609.0616,81.78104,108.88713
"44859",609.07477,82.039825,109.20158
"44860",609.0882,82.12039,109.34589
"44861",609.1014,82.04471,109.336464
"44862",609.1148,81.85428,109.20993
"44863",609.128,81.61257,109.02617
"44864",609.1414,81.36355,108.82754
"44865",609.1546,81.1487,108.6553
"44866",609.168,80.98268,108.52518
"44867",609.1812,80.867935,108.44114
"44868",609.19464,80.78737,108.387695
"44869",609.2078,80.71656,108.34149
"44870",609.22125,80.638435,108.28576
"44871",609.23444,80.54078,108.20805
"44872",609.24786,80.42359,108.107765
"44873",609.26105,80.29908,107.99649
"44874",609.2745,80.18677,107.893524
"44875",609.28766,80.08911,107.801704
"44876",609.3011,80.01831,107.73369
"44877",609.3143,79.97925,107.6952
"44878",609.3277,79.9646,107.6799
"44879",609.3409,79.96704,107.68124
"44880",609.3543,79.9646,107.677765
"44881",609.3675,79.95239,107.66445
"44882",609.3809,79.92554,107.63611
"44883",609.3941,79.87915,107.587395
"44884",609.40753,79.815674,107.52014
"44885",609.4207,79.7522,107.450905
"44886",609.43414,79.68139,107.37235
"44887",609.4473,79.605705,107.28671
"44888",609.46075,79.52758,107.196266
"44889",609.47394,79.45434,107.10826
"44890",609.48737,79.381096,107.01797
"44891",609.50055,79.31762,106.93515
"44892",609.514,79.26391,106.860115
"44893",609.52716,79.2224,106.7956
"44894",609.5406,79.19066,106.73956
"44895",609.5538,79.17113,106.69474
"44896",609.5672,79.149155,106.646866
"44897",609.5804,79.132065,106.60319
"44898",609.5938,79.11742,106.56142
"44899",609.607,79.10521,106.52163
"44900",609.6204,79.097885,106.48634
"44901",609.6336,79.093,106.45327
"44902",609.64703,79.097885,106.42981
"44903",609.6602,79.10277,106.4065
"44904",609.67365,79.10521,106.380905
"44905",609.6868,79.10277,106.3505
"44906",609.70026,79.097885,106.31758
"44907",609.71344,79.08812,106.279625
"44908",609.72687,79.07347,106.23648
"44909",609.74005,79.05882,106.19288
"44910",609.7535,79.044174,106.14882
"44911",609.76666,79.03441,106.109184
"44912",609.7801,79.03685,106.08145
"44913",609.7933,79.07591,106.090416
"44914",609.8067,79.202866,106.18849
"44915",609.8199,79.45678,106.417496
"44916",609.8333,79.84985,106.793594
"44917",609.8465,80.360115,107.299164
"44918",609.8599,80.91676,107.867065
"44919",609.8731,81.43435,108.4133
"44920",609.88654,81.82254,108.84631
"44921",609.8997,82.039825,109.12055
"44922",609.91315,82.07156,109.216034
"44923",609.92633,81.95438,109.16358
"44924",609.93976,81.7322,109.00248
"44925",609.95294,81.463646,108.788055
"44926",609.9664,81.19264,108.56279
"44927",609.97955,80.95827,108.365685
"44928",609.993,80.77272,108.21008
"44929",610.00616,80.638435,108.099945
"44930",610.0196,80.53834,108.0198
"44931",610.0328,80.45533,107.95361
"44932",610.0462,80.37232,107.884834
"44933",610.0594,80.28199,107.80614
"44934",610.0728,80.18921,107.72217
"44935",610.086,80.10132,107.64019
"44936",610.0994,80.03052,107.572556
"44937",610.1126,79.98413,107.52712
"44938",610.12604,79.96216,107.504654
"44939",610.1392,79.95972,107.50103
"44940",610.15265,79.96948,107.50954
"44941",610.16583,79.98169,107.52079
"44942",610.17926,79.98657,107.5251
"44943",610.19244,79.97681,107.514915
"44944",610.2059,79.94263,107.48001
"44945",610.21906,79.89136,107.42695
"44946",610.2325,79.818115,107.35031
"44947",610.24567,79.7351,107.26161
"44948",610.2591,79.64721,107.16544
"44949",610.2723,79.55932,107.06653
"44950",610.2857,79.483635,106.97707
"44951",610.2989,79.41772,106.89502
"44952",610.3123,79.36645,106.825554
"44953",610.3255,79.32983,106.769135
"44954",610.3389,79.30297,106.72134
"44955",610.3521,79.276115,106.6727
"44956",610.36554,79.259026,106.63299
"44957",610.3787,79.24437,106.59518
"44958",610.39215,79.23216,106.55936
"44959",610.40533,79.22728,106.53048
"44960",610.41876,79.22728,106.50633
"44961",610.43195,79.23216,106.48707
"44962",610.4454,79.23216,106.46307
"44963",610.45856,79.234604,106.44152
"44964",610.472,79.23216,106.41516
"44965",610.48517,79.2224,106.3814
"44966",610.4986,79.20775,106.34245
"44967",610.5118,79.1931,106.30305
"44968",610.5252,79.17601,106.26074
"44969",610.5384,79.15892,106.2179
"44970",610.5518,79.151596,106.184296
"44971",610.565,79.17845,106.18464
"44972",610.5784,79.28832,106.26884
"44973",610.5916,79.517815,106.47609
"44974",610.60504,79.88159,106.8248
"44975",610.6182,80.35767,107.29718
"44976",610.63165,80.8777,107.828384
"44977",610.64484,81.36111,108.33922
"44978",610.65826,81.72488,108.74552
"44979",610.67145,81.92508,108.999626
"44980",610.6849,81.95682,109.09152
"44981",610.69806,81.846954,109.04281
"44982",610.7115,81.63943,108.893
"44983",610.7247,81.38308,108.68788
"44984",610.7381,81.12184,108.469864
"44985",610.7513,80.89235,108.27543
"44986",610.7647,80.70435,108.11532
"44987",610.7779,80.55787,107.990845
"44988",610.7913,80.44068,107.89109
"44989",610.8045,80.343025,107.807205
"44990",610.81793,80.24536,107.72026
"44991",610.8311,80.15259,107.635155
"44992",610.84454,80.06714,107.554474
"44993",610.8577,79.99878,107.48821
"44994",610.87115,79.95239,107.44179
"44995",610.88434,79.93286,107.42077
"44996",610.89777,79.937744,107.42355
"44997",610.91095,79.957275,107.44114
"44998",610.9244,79.974365,107.456894
"44999",610.93756,79.98657,107.4683
"45000",610.951,79.97681,107.458115
"45001",610.9642,79.94263,107.42321
"45002",610.9776,79.88403,107.36282
"45003",610.9908,79.80591,107.281075
"45004",611.0042,79.72045,107.18955
"45005",611.0174,79.63012,107.090485
"45006",611.0308,79.54223,106.991035
"45007",611.044,79.46166,106.896164
"45008",611.05743,79.3933,106.81098
"45009",611.0706,79.33471,106.73343
"45010",611.08405,79.28344,106.66137
"45011",611.0972,79.23949,106.595024
"45012",611.11066,79.20775,106.53952
"45013",611.12384,79.185776,106.49279
"45014",611.13727,79.17357,106.45514
"45015",611.15045,79.1638,106.41955
"45016",611.1639,79.1638,106.39342
"45017",611.17706,79.166245,106.36973
"45018",611.1905,79.1638,106.34123
"45019",611.2037,79.1638,106.3151
"45020",611.2171,79.15892,106.28409
"45021",611.2303,79.14671,106.2456
"45022",611.2437,79.132065,106.204285
"45023",611.2569,79.11742,106.16251
"45024",611.2703,79.10765,106.12517
"45025",611.2835,79.10033,106.08996
"45026",611.29694,79.097885,106.0594
"45027",611.3101,79.093,106.02633
"45028",611.32355,79.09056,105.995544
"45029",611.33673,79.08324,105.9598
"45030",611.35016,79.078354,105.92627
"45031",611.36334,79.080795,105.89991
"45032",611.3768,79.10765,105.89804
"45033",611.38995,79.1931,105.955605
"45034",611.4034,79.38842,106.12571
"45035",611.41656,79.72289,106.44107
"45036",611.43,80.19165,106.90117
"45037",611.4432,80.743416,107.45892
"45038",611.4566,81.29763,108.03637
"45039",611.4698,81.75662,108.53591
"45040",611.4832,82.0618,108.89598
"45041",611.4964,82.176544,109.07516
"45042",611.5098,82.125275,109.0919
"45043",611.523,81.95438,108.98742
"45044",611.53644,81.71999,108.81411
"45045",611.5496,81.46853,108.616394
"45046",611.56305,81.23659,108.43034
"45047",611.57623,81.0486,108.281
"45048",611.58966,80.907,108.172165
"45049",611.60284,80.80934,108.10285
"45050",611.6163,80.72877,108.04757
"45051",611.62946,80.65308,107.99466
"45052",611.6429,80.56275,107.924736
"45053",611.65607,80.45777,107.83734
"45054",611.6695,80.3357,107.729576
"45055",611.6827,80.21362,107.61799
"45056",611.6961,80.10376,107.5148
"45057",611.7093,80.01831,107.432594
"45058",611.7227,79.957275,107.37213
"45059",611.7359,79.92554,107.33906
"45060",611.7493,79.91821,107.32941
"45061",611.7625,79.920654,107.32929
"45062",611.77594,79.920654,107.32681
"45063",611.7891,79.906006,107.309685
"45064",611.80255,79.869385,107.27013
"45065",611.81573,79.81323,107.20989
"45066",611.82916,79.74731,107.13813
"45067",611.84235,79.676506,107.05943
"45068",611.8558,79.61791,106.99073
"45069",611.86896,79.569084,106.92996
"45070",611.8824,79.53002,106.87743
"45071",611.89557,79.500725,106.83345
"45072",611.909,79.483635,106.80076
"45073",611.9222,79.46899,106.76997
"45074",611.9356,79.4641,106.7485
"45075",611.9488,79.4641,106.73175
"45076",611.9622,79.46899,106.71989
"45077",611.9754,79.47631,106.71062
"45078",611.98883,79.48119,106.699135
"45079",612.002,79.48852,106.69025
"45080",612.01544,79.49828,106.68403
"45081",612.0286,79.50805,106.678116
"45082",612.04205,79.517815,106.67251
"45083",612.05524,79.53246,106.67209
"45084",612.06866,79.54955,106.67457
"45085",612.08185,79.569084,106.68002
"45086",612.0953,79.58373,106.681206
"45087",612.10846,79.59106,106.67552
"45088",612.1219,79.58373,106.65542
"45089",612.1351,79.569084,106.62776
"45090",612.1485,79.53979,106.585
"45091",612.1617,79.50805,106.53888
"45092",612.1751,79.47387,106.48933
"45093",612.1883,79.43969,106.438705
"45094",612.2017,79.40063,106.38213
"45095",612.2149,79.364006,106.32678
"45096",612.22833,79.34203,106.284935
"45097",612.2415,79.36645,106.28879
"45098",612.25494,79.48608,106.38862
"45099",612.2681,79.7351,106.62158
"45100",612.28156,80.11597,106.99417
"45101",612.29474,80.59937,107.4812
"45102",612.30817,81.109634,108.01019
"45103",612.32135,81.55886,108.494095
"45104",612.3348,81.86893,108.852875
"45105",612.34796,82.00076,109.04311
"45106",612.3614,81.95926,109.06413
"45107",612.3746,81.778595,108.944695
"45108",612.388,81.52224,108.74392
"45109",612.4012,81.231705,108.50095
"45110",612.4146,80.95827,108.26601
"45111",612.4278,80.72877,108.06645
"45112",612.4412,80.552986,107.913445
"45113",612.4544,80.428474,107.80621
"45114",612.46783,80.34547,107.736595
"45115",612.481,80.28687,107.6888
"45116",612.49445,80.233154,107.64404
"45117",612.5076,80.17944,107.59762
"45118",612.52106,80.12573,107.549515
"45119",612.53424,80.07446,107.502174
"45120",612.54767,80.045166,107.475204
"45121",612.56085,80.05005,107.4815
"45122",612.5743,80.08667,107.519684
"45123",612.58746,80.15015,107.58587
"45124",612.6009,80.22827,107.668686
"45125",612.6141,80.29908,107.74663
"45126",612.6275,80.35035,107.80724
"45127",612.6407,80.37232,107.840164
"45128",612.6541,80.360115,107.83959
"45129",612.6673,80.31617,107.8069
"45130",612.6807,80.2478,107.74841
"45131",612.6939,80.15991,107.66827
"45132",612.70734,80.06714,107.58049
"45133",612.7205,79.974365,107.489815
"45134",612.73395,79.888916,107.403564
"45135",612.74713,79.81323,107.32441
"45136",612.76056,79.74975,107.25509
"45137",612.77374,79.691154,107.188675
"45138",612.7872,79.63256,107.12043
"45139",612.80035,79.57641,107.052795
"45140",612.8138,79.5227,106.98585
"45141",612.82697,79.46899,106.91722
"45142",612.8404,79.415276,106.84692
"45143",612.8536,79.35912,106.77249
"45144",612.867,79.29809,106.69143
"45145",612.8802,79.237045,106.60845
"45146",612.8936,79.17357,106.52113
"45147",612.9068,79.10765,106.42939
"45148",612.9202,79.03685,106.3307
"45149",612.9334,78.96605,106.229805
"45150",612.94684,78.89525,106.12669
"45151",612.96,78.819565,106.01649
"45152",612.97345,78.74143,105.90147
"45153",612.98663,78.660866,105.78157
"45154",613.00006,78.5803,105.65916
"45155",613.01324,78.51438,105.548874
"45156",613.0267,78.49241,105.48048
"45157",613.03986,78.56321,105.504166
"45158",613.0533,78.75853,105.65459
"45159",613.06647,79.09544,105.952705
"45160",613.0799,79.54711,106.37611
"45161",613.0931,80.05493,106.869774
"45162",613.1065,80.533455,107.35001
"45163",613.1197,80.907,107.74023
"45164",613.1331,81.1194,107.98097
"45165",613.1463,81.17067,108.06722
"45166",613.1597,81.08522,108.01836
"45167",613.1729,80.907,107.87405
"45168",613.18634,80.68482,107.680214
"45169",613.1995,80.462654,107.47945
"45170",613.21295,80.26734,107.29859
"45171",613.22614,80.1062,107.145805
"45172",613.23956,79.98413,107.027054
"45173",613.25275,79.89136,106.933784
"45174",613.2662,79.818115,106.85715
"45175",613.27936,79.75952,106.79287
"45176",613.2928,79.70336,106.729195
"45177",613.30597,79.65453,106.6711
"45178",613.3194,79.61547,106.62124
"45179",613.3326,79.60082,106.594574
"45180",613.346,79.61059,106.591866
"45181",613.3592,79.64721,106.61632
"45182",613.3726,79.70092,106.659004
"45183",613.3858,79.75464,106.70338
"45184",613.39923,79.801025,106.742096
"45185",613.4124,79.83276,106.76762
"45186",613.42584,79.84253,106.772156
"45187",613.439,79.83276,106.75747
"45188",613.45245,79.80835,106.72783
"45189",613.46564,79.77417,106.68766
"45190",613.47906,79.73266,106.63909
"45191",613.49225,79.68383,106.58191
"45192",613.5057,79.63744,106.52564
"45193",613.51886,79.59838,106.47525
"45194",613.5323,79.56664,106.43096
"45195",613.5455,79.54223,106.393005
"45196",613.5589,79.53246,106.368935
"45197",613.5721,79.53246,106.354324
"45198",613.5855,79.53979,106.34704
"45199",613.5987,79.551994,106.344864
"45200",613.6121,79.5642,106.34307
"45201",613.6253,79.569084,106.334335
"45202",613.63873,79.569084,106.32087
"45203",613.6519,79.55932,106.29764
"45204",613.66534,79.54467,106.26922
"45205",613.6785,79.52758,106.2379
"45206",613.69196,79.51293,106.20849
"45207",613.70514,79.500725,106.18106
"45208",613.71857,79.49096,106.15569
"45209",613.73175,79.47875,106.12758
"45210",613.7452,79.466545,106.09908
"45211",613.75836,79.447014,106.06288
"45212",613.7718,79.42504,106.02363
"45213",613.785,79.40063,105.98125
"45214",613.7984,79.38598,105.94787
"45215",613.8116,79.40795,105.95065
