"","Time..s.","PPG.trace","Preprocessed.PPG"
"40076",545.85986,78.74143,189.76451
"40077",545.87317,78.519264,189.503
"40078",545.8865,78.33616,189.27362
"40079",545.8998,78.187225,189.0727
"40080",545.9131,78.0676,188.89641
"40081",545.9264,77.97482,188.74324
"40082",545.9397,77.89914,188.60426
"40083",545.953,77.83566,188.47513
"40084",545.9663,77.78195,188.35378
"40085",545.9796,77.73556,188.23807
"40086",545.9929,77.69894,188.13068
"40087",546.0062,77.6672,188.02702
"40088",546.01953,77.6379,187.92482
"40089",546.03284,77.611046,187.82414
"40090",546.04614,77.591515,187.72995
"40091",546.05945,77.574425,187.63759
"40092",546.07275,77.55978,187.54713
"40093",546.08606,77.55001,187.4611
"40094",546.09937,77.54757,187.3821
"40095",546.1127,77.55489,187.31277
"40096",546.126,77.55978,187.24124
"40097",546.1393,77.56222,187.16742
"40098",546.1526,77.557335,187.08635
"40099",546.1659,77.5378,186.99048
"40100",546.1792,77.49386,186.86958
"40101",546.1925,77.435265,186.73267
"40102",546.2058,77.37179,186.58904
"40103",546.2191,77.34005,186.47516
"40104",546.2324,77.41329,186.46527
"40105",546.2457,77.71847,186.6896
"40106",546.25903,78.37522,187.27505
"40107",546.27234,79.43969,188.28874
"40108",546.28564,80.87038,189.70192
"40109",546.29895,82.51591,191.37465
"40110",546.31226,84.13458,193.07195
"40111",546.32556,85.47738,194.54395
"40112",546.33887,86.36851,195.60625
"40113",546.3522,86.73716,196.17392
"40114",546.3655,86.61753,196.26483
"40115",546.3788,86.11459,195.96869
"40116",546.3921,85.36263,195.4078
"40117",546.4054,84.50324,194.716
"40118",546.4187,83.66338,194.01688
"40119",546.432,82.92607,193.39404
"40120",546.4453,82.3328,192.89221
"40121",546.4586,81.89578,192.52809
"40122",546.4719,81.57351,192.26506
"40123",546.4852,81.324486,192.06522
"40124",546.49854,81.112076,191.8942
"40125",546.51184,80.93385,191.75073
"40126",546.52515,80.8069,191.65297
"40127",546.53845,80.76051,191.6318
"40128",546.55176,80.8069,191.70197
"40129",546.56506,80.9485,191.86879
"40130",546.57837,81.146255,192.09619
"40131",546.5917,81.35378,192.33954
"40132",546.605,81.512474,192.54054
"40133",546.6183,81.58816,192.6635
"40134",546.6316,81.549095,192.67407
"40135",546.6449,81.3904,192.5638
"40136",546.6582,81.13161,192.34845
"40137",546.6715,80.799576,192.05179
"40138",546.6848,80.42603,191.70323
"40139",546.6981,80.04761,191.33812
"40140",546.7114,79.68627,190.97827
"40141",546.72473,79.36645,190.64864
"40142",546.73804,79.10033,190.36272
"40143",546.75134,78.890366,190.12463
"40144",546.76465,78.72678,189.92638
"40145",546.77795,78.60227,189.76207
"40146",546.79126,78.504616,189.62073
"40147",546.80457,78.42161,189.49098
"40148",546.8179,78.35325,189.37329
"40149",546.8312,78.29221,189.26079
"40150",546.8445,78.23605,189.15126
"40151",546.8578,78.17746,189.03754
"40152",546.8711,78.118866,188.92198
"40153",546.8844,78.065155,188.80948
"40154",546.8977,78.013885,188.69774
"40155",546.911,77.977264,188.59904
"40156",546.9243,77.95041,188.50897
"40157",546.9376,77.92844,188.42294
"40158",546.9509,77.89914,188.3289
"40159",546.96423,77.857635,188.22174
"40160",546.97754,77.80148,188.09863
"40161",546.99084,77.72823,187.95668
"40162",547.00415,77.645226,187.80267
"40163",547.01746,77.574425,187.65828
"40164",547.03076,77.57198,187.58003
"40165",547.04407,77.730675,187.66284
"40166",547.0574,78.16037,188.02162
"40167",547.0707,78.94408,188.74783
"40168",547.084,80.076904,189.84766
"40169",547.0973,81.461205,191.23436
"40170",547.1106,82.90654,192.72536
"40171",547.1239,84.18097,194.09062
"40172",547.1372,85.10628,195.14659
"40173",547.1505,85.57748,195.77736
"40174",547.1638,85.59457,195.96875
"40175",547.1771,85.22102,195.77003
"40176",547.1904,84.578926,195.29109
"40177",547.20374,83.790344,194.6456
"40178",547.21704,82.97978,193.95349
"40179",547.23035,82.23514,193.30197
"40180",547.24365,81.62234,192.75902
"40181",547.25696,81.146255,192.33363
"40182",547.27026,80.780045,192.00325
"40183",547.28357,80.49195,191.73953
"40184",547.2969,80.257576,191.52054
"40185",547.3102,80.076904,191.34792
"40186",547.3235,79.96704,191.24045
"40187",547.3368,79.95239,191.22476
"40188",547.3501,80.045166,191.31604
"40189",547.3634,80.22583,191.49811
"40190",547.3767,80.45289,191.73222
"40191",547.39,80.67506,191.96855
"40192",547.4033,80.84352,192.15811
"40193",547.4166,80.91432,192.25528
"40194",547.42993,80.86305,192.23259
"40195",547.44324,80.69215,192.08865
"40196",547.45654,80.41871,191.83685
"40197",547.46985,80.079346,191.51057
"40198",547.48315,79.708244,191.14195
"40199",547.49646,79.34692,190.7715
"40200",547.50977,79.01732,190.4215
"40201",547.5231,78.73411,190.10757
"40202",547.5364,78.49973,189.83363
"40203",547.5497,78.31663,189.60364
"40204",547.563,78.17746,189.41187
"40205",547.5763,78.07004,189.24748
"40206",547.5896,77.994354,189.11148
"40207",547.6029,77.93332,188.98776
"40208",547.6162,77.88449,188.87434
"40209",547.6295,77.83566,188.7594
"40210",547.6428,77.789276,188.64537
"40211",547.6561,77.74044,188.52745
"40212",547.66943,77.69161,188.408
"40213",547.68274,77.64034,188.28459
"40214",547.69604,77.59884,188.16934
"40215",547.70935,77.56222,188.05768
"40216",547.72266,77.53536,187.95464
"40217",547.73596,77.51827,187.86052
"40218",547.74927,77.50851,187.7732
"40219",547.7626,77.503624,187.69044
"40220",547.7759,77.4963,187.6051
"40221",547.7892,77.48409,187.51465
"40222",547.8025,77.467,187.41893
"40223",547.8158,77.44015,187.31291
"40224",547.8291,77.401085,187.19385
"40225",547.8424,77.35226,187.0638
"40226",547.8557,77.32296,186.95175
"40227",547.869,77.383995,186.92912
"40228",547.8823,77.65499,187.11836
"40229",547.8956,78.24826,187.63835
"40230",547.90894,79.22484,188.56018
"40231",547.92224,80.55543,189.86655
"40232",547.93555,82.10574,191.43422
"40233",547.94885,83.6585,193.05278
"40234",547.96216,84.98665,194.49525
"40235",547.97546,85.9144,195.57884
"40236",547.9888,86.3563,196.20557
"40237",548.0021,86.329445,196.37735
"40238",548.0154,85.92905,196.17474
"40239",548.0287,85.28451,195.71548
"40240",548.042,84.53254,195.12866
"40241",548.0553,83.80011,194.53787
"40242",548.0686,83.17021,194.02673
"40243",548.0819,82.686806,193.6424
"40244",548.0952,82.337685,193.37724
"40245",548.1085,82.08865,193.20126
"40246",548.1218,81.88602,193.0639
"40247",548.13513,81.68337,192.9202
"40248",548.14844,81.46853,192.75797
"40249",548.16174,81.25124,192.58658
"40250",548.17505,81.06325,192.43768
"40251",548.18835,80.938736,192.3464
"40252",548.20166,80.89479,192.3318
"40253",548.21497,80.92409,192.38907
"40254",548.2283,80.990005,192.48387
"40255",548.2416,81.058365,192.58318
"40256",548.2549,81.094986,192.65288
"40257",548.2682,81.06569,192.6578
"40258",548.2815,80.9485,192.57393
"40259",548.2948,80.7483,192.40337
"40260",548.3081,80.479744,192.1582
"40261",548.3214,80.15747,191.85092
"40262",548.3347,79.80835,191.50671
"40263",548.348,79.466545,191.15892
"40264",548.3613,79.14671,190.82242
"40265",548.37463,78.86107,190.5101
"40266",548.38794,78.61204,190.22548
"40267",548.40125,78.40452,189.97458
"40268",548.41455,78.23117,189.75137
"40269",548.42786,78.09201,189.55693
"40270",548.44116,77.977264,189.38255
"40271",548.45447,77.88449,189.22656
"40272",548.4678,77.80881,189.08476
"40273",548.4811,77.74288,188.95036
"40274",548.4944,77.68429,188.82123
"40275",548.5077,77.63302,188.69759
"40276",548.521,77.58663,188.57722
"40277",548.5343,77.55001,188.46518
"40278",548.5476,77.51583,188.35443
"40279",548.5609,77.488976,188.24994
"40280",548.5742,77.46456,188.14705
"40281",548.5875,77.44503,188.04828
"40282",548.6008,77.42306,187.94646
"40283",548.61414,77.40597,187.84883
"40284",548.62744,77.39376,187.75555
"40285",548.64075,77.38155,187.6619
"40286",548.65405,77.366905,187.56541
"40287",548.66736,77.33761,187.45383
"40288",548.68066,77.296104,187.32912
"40289",548.694,77.239944,187.18846
"40290",548.7073,77.17647,187.03873
"40291",548.7206,77.13985,186.91386
"40292",548.7339,77.20332,186.88795
"40293",548.7472,77.48409,187.08133
"40294",548.7605,78.09445,187.61307
"40295",548.7738,79.093,188.55206
"40296",548.7871,80.45045,189.88116
"40297",548.8004,82.02762,191.47241
"40298",548.8137,83.60723,193.11539
"40299",548.827,84.95247,194.57335
"40300",548.84033,85.88266,195.65831
"40301",548.85364,86.31724,196.27672
"40302",548.86694,86.2855,196.4424
"40303",548.88025,85.875336,196.22865
"40304",548.89355,85.21614,195.75307
"40305",548.90686,84.44709,195.14702
"40306",548.92017,83.6878,194.5267
"40307",548.9335,83.02617,193.98032
"40308",548.9468,82.50126,193.54997
"40309",548.9601,82.11307,193.23994
"40310",548.9734,81.81766,193.01057
"40311",548.9867,81.57107,192.82079
"40312",549,81.339134,192.63795
"40313",549.0133,81.112076,192.45274
"40314",549.0266,80.902115,192.27754
"40315",549.0399,80.7483,192.15192
"40316",549.0532,80.67017,192.09718
"40317",549.0665,80.6775,192.12546
"40318",549.07983,80.74586,192.215
"40319",549.09314,80.848404,192.34085
"40320",549.10645,80.95094,192.46991
"40321",549.11975,81.00221,192.5509
"40322",549.13306,80.972916,192.55293
"40323",549.14636,80.84352,192.45395
"40324",549.15967,80.61646,192.25325
"40325",549.173,80.31129,191.96735
"40326",549.1863,79.95972,191.6255
"40327",549.1996,79.59594,191.26047
"40328",549.2129,79.24193,190.89383
"40329",549.2262,78.91966,190.54787
"40330",549.2395,78.63889,190.23334
"40331",549.2528,78.40452,189.95642
"40332",549.2661,78.2092,189.71124
"40333",549.2794,78.05051,189.49658
"40334",549.2927,77.92111,189.30626
"40335",549.306,77.81369,189.13387
"40336",549.31934,77.72091,188.97276
"40337",549.33264,77.645226,188.82585
"40338",549.34595,77.58175,188.68878
"40339",549.35925,77.52804,188.5595
"40340",549.37256,77.486534,188.44073
"40341",549.38586,77.454796,188.33044
"40342",549.3992,77.435265,188.23137
"40343",549.4125,77.41573,188.13168
"40344",549.4258,77.401085,188.03627
"40345",549.4391,77.38888,187.94284
"40346",549.4524,77.37179,187.84415
"40347",549.4657,77.347374,187.7376
"40348",549.479,77.313194,187.62051
"40349",549.4923,77.264366,187.48772
"40350",549.5056,77.20088,187.33875
"40351",549.5189,77.13008,187.18047
"40352",549.5322,77.08125,187.04195
"40353",549.54553,77.11543,186.98491
"40354",549.55884,77.347374,187.12671
"40355",549.57214,77.88205,187.57849
"40356",549.58545,78.77318,188.40343
"40357",549.59875,79.98657,189.57848
"40358",549.61206,81.40261,190.9941
"40359",549.62537,82.81377,192.44908
"40360",549.6387,84.00275,193.726
"40361",549.652,84.805984,194.65433
"40362",549.6653,85.155106,195.15364
"40363",549.6786,85.06477,195.22441
"40364",549.6919,84.62287,194.94078
"40365",549.7052,83.946594,194.40897
"40366",549.7185,83.16289,193.7486
"40367",549.7318,82.38163,193.06618
"40368",549.7451,81.69314,192.45212
"40369",549.7584,81.126724,191.93861
"40370",549.7717,80.68726,191.53436
"40371",549.78503,80.34791,191.21649
"40372",549.79834,80.076904,190.95636
"40373",549.81165,79.85718,190.73904
"40374",549.82495,79.693596,190.571
"40375",549.83826,79.60815,190.47597
"40376",549.85156,79.62035,190.47592
"40377",549.86487,79.73754,190.58124
"40378",549.8782,79.937744,190.77324
"40379",549.8915,80.181885,191.01544
"40380",549.9048,80.411385,191.25063
"40381",549.9181,80.57496,191.42706
"40382",549.9314,80.63111,191.50119
"40383",549.9447,80.570076,191.45988
"40384",549.958,80.39185,191.29948
"40385",549.9713,80.12085,191.04073
"40386",549.9846,79.78638,190.71002
"40387",549.9979,79.42748,190.34445
"40388",550.0112,79.07347,189.97255
"40389",550.02454,78.751205,189.62132
"40390",550.03784,78.47532,189.30641
"40391",550.05115,78.25559,189.03903
"40392",550.06445,78.08713,188.81606
"40393",550.07776,77.96506,188.6342
"40394",550.09106,77.87961,188.48515
"40395",550.1044,77.821014,188.36029
"40396",550.1177,77.77707,188.24825
"40397",550.131,77.74532,188.14703
"40398",550.1443,77.71603,188.04727
"40399",550.1576,77.68429,187.94415
"40400",550.1709,77.65255,187.84004
"40401",550.1842,77.61837,187.7325
"40402",550.1975,77.58419,187.62389
"40403",550.2108,77.55978,187.52397
"40404",550.2241,77.54513,187.43306
"40405",550.2374,77.53536,187.34657
"40406",550.25073,77.52804,187.26222
"40407",550.26404,77.523155,187.18008
"40408",550.27734,77.51583,187.09535
"40409",550.29065,77.49874,187.00063
"40410",550.30396,77.47921,186.90292
"40411",550.31726,77.44991,186.79485
"40412",550.33057,77.40597,186.6712
"40413",550.3439,77.36202,186.54619
"40414",550.3572,77.34249,186.44421
"40415",550.3705,77.42794,186.44661
"40416",550.3838,77.733116,186.6714
"40417",550.3971,78.37034,187.23778
"40418",550.4104,79.3933,188.20981
"40419",550.4237,80.762955,189.5605
"40420",550.437,82.33524,191.15663
"40421",550.4503,83.89044,192.7848
"40422",550.4636,85.19661,194.21255
"40423",550.4769,86.08774,195.26608
"40424",550.49023,86.49058,195.85916
"40425",550.50354,86.434425,196.00584
"40426",550.51685,86.00961,195.7821
"40427",550.53015,85.34554,195.30583
"40428",550.54346,84.57404,194.70139
"40429",550.55676,83.81232,194.0826
"40430",550.57007,83.13359,193.52301
"40431",550.5834,82.59159,193.07893
"40432",550.5967,82.18631,192.75464
"40433",550.61,81.88846,192.52512
"40434",550.6233,81.654076,192.34975
"40435",550.6366,81.45144,192.1988
"40436",550.6499,81.26345,192.05618
"40437",550.6632,81.094986,191.9272
"40438",550.6765,80.96803,191.83447
"40439",550.6898,80.90456,191.80125
"40440",550.7031,80.91676,191.84174
"40441",550.71643,80.987564,191.9412
"40442",550.72974,81.092545,192.07704
"40443",550.74304,81.1902,192.20885
"40444",550.75635,81.24391,192.29976
"40445",550.76965,81.22438,192.3191
"40446",550.78296,81.109634,192.24263
"40447",550.79626,80.89967,192.06735
"40448",550.8096,80.618904,191.8147
"40449",550.8229,80.289314,191.50446
"40450",550.8362,79.940186,191.16437
"40451",550.8495,79.59838,190.8207
"40452",550.8628,79.281,190.49075
"40453",550.8761,79.00023,190.18752
"40454",550.8894,78.765854,189.92189
"40455",550.9027,78.57542,189.69289
"40456",550.916,78.42649,189.49944
"40457",550.9293,78.30686,189.33063
"40458",550.9426,78.2092,189.18005
"40459",550.95593,78.12619,189.04108
"40460",550.96924,78.05539,188.91171
"40461",550.98254,77.98703,188.78258
"40462",550.99585,77.92355,188.65619
"40463",551.00916,77.86496,188.5327
"40464",551.02246,77.806366,188.40738
"40465",551.03577,77.747765,188.28023
"40466",551.0491,77.69894,188.16101
"40467",551.0624,77.659874,188.05003
"40468",551.0757,77.628136,187.94516
"40469",551.089,77.60128,187.84418
"40470",551.1023,77.576866,187.7448
"40471",551.1156,77.55245,187.64465
"40472",551.1289,77.5256,187.5413
"40473",551.1422,77.506065,187.44444
"40474",551.1555,77.488976,187.34941
"40475",551.1688,77.47677,187.25873
"40476",551.1821,77.46456,187.16766
"40477",551.19543,77.452354,187.07622
"40478",551.20874,77.437706,186.98195
"40479",551.22205,77.41329,186.87746
"40480",551.23535,77.37911,186.76244
"40481",551.24866,77.33517,186.63658
"40482",551.26196,77.28878,186.50691
"40483",551.27527,77.2839,186.4173
"40484",551.2886,77.43038,186.4789
"40485",551.3019,77.86008,186.8283
"40486",551.3152,78.68772,187.58907
"40487",551.3285,79.94751,188.80785
"40488",551.3418,81.56374,190.42244
"40489",551.3551,83.35088,192.25845
"40490",551.3684,85.05501,194.06729
"40491",551.3817,86.431984,195.60223
"40492",551.395,87.33288,196.70413
"40493",551.4083,87.70641,197.30682
"40494",551.42163,87.59411,197.43535
"40495",551.43494,87.10826,197.18681
"40496",551.44824,86.38804,196.68872
"40497",551.46155,85.57015,196.07047
"40498",551.47485,84.77669,195.45107
"40499",551.48816,84.09064,194.91429
"40500",551.50146,83.55352,194.505
"40501",551.5148,83.16289,194.22542
"40502",551.5281,82.88457,194.04594
"40503",551.5414,82.65995,193.91147
"40504",551.5547,82.44511,193.77975
"40505",551.568,82.21805,193.6291
"40506",551.5813,81.988556,193.46893
"40507",551.5946,81.78836,193.33089
"40508",551.6079,81.64675,193.24516
"40509",551.6212,81.58083,193.23071
"40510",551.6345,81.58083,193.28012
"40511",551.6478,81.62722,193.37592
"40512",551.66113,81.67605,193.4756
"40513",551.67444,81.69314,193.54507
"40514",551.68774,81.64187,193.54672
"40515",551.70105,81.50759,193.46376
"40516",551.71436,81.287865,193.29115
"40517",551.72766,80.99245,193.03598
"40518",551.74097,80.64576,192.7203
"40519",551.7543,80.272224,192.36696
"40520",551.7676,79.90112,192.00436
"40521",551.7809,79.54467,191.64482
"40522",551.7942,79.219955,191.30588
"40523",551.8075,78.93187,190.99341
"40524",551.8208,78.6804,190.70856
"40525",551.8341,78.46311,190.45003
"40526",551.8474,78.277565,190.21645
"40527",551.8607,78.12375,190.0088
"40528",551.874,77.994354,189.82077
"40529",551.8873,77.88449,189.64822
"40530",551.90063,77.786835,189.48445
"40531",551.91394,77.696495,189.32495
"40532",551.92725,77.61349,189.16995
"40533",551.94055,77.53536,189.01724
"40534",551.95386,77.467,188.87186
"40535",551.96716,77.39864,188.72433
"40536",551.98047,77.34005,188.58444
"40537",551.9938,77.281456,188.44272
"40538",552.0071,77.222855,188.29916
"40539",552.0204,77.1667,188.15622
"40540",552.0337,77.11299,188.01396
"40541",552.047,77.06172,187.87247
"40542",552.0603,77.02266,187.74158
"40543",552.0736,76.99092,187.61679
"40544",552.0869,76.96651,187.49834
"40545",552.1002,76.946976,187.384
"40546",552.1135,76.927444,187.26906
"40547",552.12683,76.89815,187.14374
"40548",552.14014,76.8542,187.00285
"40549",552.15344,76.80293,186.85327
"40550",552.16675,76.756546,186.70697
"40551",552.18005,76.76143,186.61049
"40552",552.19336,76.927444,186.6753
"40553",552.20667,77.38644,187.03827
"40554",552.22,78.24094,187.8111
"40555",552.2333,79.517815,189.033
"40556",552.2466,81.13405,190.63417
"40557",552.2599,82.896774,192.43234
"40558",552.2732,84.559395,194.18549
"40559",552.2865,85.889984,195.65855
"40560",552.2998,86.74204,196.69467
"40561",552.3131,87.064316,197.22763
"40562",552.3264,86.91051,197.29459
"40563",552.3397,86.39048,196.99051
"40564",552.353,85.6556,196.45534
"40565",552.36633,84.842606,195.81908
"40566",552.37964,84.07355,195.20135
"40567",552.39294,83.424126,194.67923
"40568",552.40625,82.91875,194.28085
"40569",552.41956,82.545204,193.99852
"40570",552.43286,82.26444,193.7973
"40571",552.44617,82.04471,193.64833
"40572",552.4595,81.85916,193.52669
"40573",552.4728,81.69558,193.4212
"40574",552.4861,81.57595,193.35457
"40575",552.4994,81.5198,193.34767
"40576",552.5127,81.54665,193.42203
"40577",552.526,81.64187,193.56558
"40578",552.5393,81.78348,193.7585
"40579",552.5526,81.92508,193.95584
"40580",552.5659,82.01785,194.10878
"40581",552.5792,82.01785,194.17184
"40582",552.5925,81.90555,194.1226
"40583",552.60583,81.68337,193.95998
"40584",552.61914,81.358665,193.68788
"40585",552.63245,80.96315,193.33482
"40586",552.64575,80.52125,192.92302
"40587",552.65906,80.07202,192.49008
"40588",552.67236,79.63012,192.05043
"40589",552.68567,79.219955,191.62871
"40590",552.699,78.856186,191.24055
"40591",552.7123,78.54124,190.88986
"40592",552.7256,78.27512,190.57816
"40593",552.7389,78.05539,190.30452
"40594",552.7522,77.87717,190.06552
"40595",552.7655,77.733116,189.85513
"40596",552.7788,77.61837,189.66954
"40597",552.7921,77.52804,189.50478
"40598",552.8054,77.454796,189.35428
"40599",552.8187,77.39132,189.21126
"40600",552.83203,77.3254,189.06381
"40601",552.84534,77.261925,188.91675
"40602",552.85864,77.19844,188.7677
"40603",552.87195,77.137405,188.61911
"40604",552.88525,77.07881,188.47105
"40605",552.89856,77.02266,188.32361
"40606",552.91187,76.97139,188.17929
"40607",552.9252,76.927444,188.0407
"40608",552.9385,76.88838,187.90561
"40609",552.9518,76.85664,187.77663
"40610",552.9651,76.82735,187.6491
"40611",552.9784,76.79805,187.52065
"40612",552.9917,76.756546,187.37907
"40613",553.005,76.700386,187.22156
"40614",553.0183,76.61982,187.03787
"40615",553.0316,76.52216,186.83458
"40616",553.0449,76.43183,186.63556
"40617",553.0582,76.4123,186.50452
"40618",553.07153,76.58564,186.56573
"40619",553.08484,77.08125,186.95465
"40620",553.09814,77.979706,187.76189
"40621",553.11145,79.27856,188.9976
"40622",553.12476,80.87038,190.56688
"40623",553.13806,82.55009,192.27379
"40624",553.15137,84.071106,193.8745
"40625",553.1647,85.23323,195.16385
"40626",553.178,85.91928,196.01344
"40627",553.1913,86.10483,196.38397
"40628",553.2046,85.838715,196.30864
"40629",553.2179,85.23811,195.8905
"40630",553.2312,84.42756,195.24364
"40631",553.2445,83.53887,194.49332
"40632",553.2578,82.67704,193.74208
"40633",553.2711,81.91287,193.06157
"40634",553.2844,81.28542,192.4939
"40635",553.2977,80.78493,192.03357
"40636",553.31104,80.39185,191.66502
"40637",553.32434,80.08911,191.37453
"40638",553.33765,79.871826,191.16003
"40639",553.35095,79.74975,191.03395
"40640",553.36426,79.742424,191.0188
"40641",553.37756,79.85962,191.12794
"40642",553.39087,80.09155,191.3555
"40643",553.4042,80.396736,191.66354
"40644",553.4175,80.72144,192.00066
"40645",553.4308,81.00221,192.30397
"40646",553.4441,81.18776,192.52084
"40647",553.4574,81.248795,192.619
"40648",553.4707,81.16823,192.57747
"40649",553.484,80.955826,192.40158
"40650",553.4973,80.638435,192.11406
"40651",553.5106,80.257576,191.75316
"40652",553.5239,79.84497,191.3486
"40653",553.53723,79.43725,190.93604
"40654",553.55054,79.061264,190.54247
"40655",553.56384,78.73899,190.19086
"40656",553.57715,78.47532,189.88777
"40657",553.59045,78.27268,189.63748
"40658",553.60376,78.12131,189.43213
"40659",553.61707,78.009,189.26111
"40660",553.6304,77.91623,189.10611
"40661",553.6437,77.840546,188.9653
"40662",553.657,77.77219,188.82945
"40663",553.6703,77.70382,188.69147
"40664",553.6836,77.64034,188.55623
"40665",553.6969,77.576866,188.419
"40666",553.7102,77.51827,188.28468
"40667",553.7235,77.469444,188.1583
"40668",553.7368,77.4255,188.03526
"40669",553.7501,77.39132,187.92062
"40670",553.7634,77.36446,187.81224
"40671",553.77673,77.347374,187.71278
"40672",553.79004,77.330284,187.6128
"40673",553.80334,77.31808,187.51715
"40674",553.81665,77.30587,187.42113
"40675",553.82996,77.28634,187.3174
"40676",553.84326,77.24971,187.19597
"40677",553.85657,77.19844,187.05875
"40678",553.8699,77.154495,186.92725
"40679",553.8832,77.18135,186.86517
"40680",553.8965,77.401085,186.99683
"40681",553.9098,77.95773,187.47226
"40682",553.9231,78.941635,188.39233
"40683",553.9364,80.35767,189.7753
"40684",553.9497,82.10574,191.53455
"40685",553.963,83.97833,193.47295
"40686",553.9763,85.72152,195.34045
"40687",553.9896,87.113144,196.91087
"40688",554.0029,88.01404,198.03406
"40689",554.01624,88.3827,198.65315
"40690",554.02954,88.26063,198.79305
"40691",554.04285,87.745476,198.53604
"40692",554.05615,86.97398,198.00659
"40693",554.06946,86.08774,197.33829
"40694",554.08276,85.21126,196.65205
"40695",554.09607,84.42756,196.0312
"40696",554.1094,83.78302,195.52502
"40697",554.1227,83.2752,195.13542
"40698",554.136,82.86748,194.83005
"40699",554.1493,82.51835,194.57053
"40700",554.1626,82.20828,194.33916
"40701",554.1759,81.93729,194.13718
"40702",554.1892,81.72488,193.9853
"40703",554.2025,81.600365,193.9147
"40704",554.2158,81.57351,193.93787
"40705",554.2291,81.64187,194.0554
"40706",554.24243,81.77127,194.23611
"40707",554.25574,81.91531,194.43552
"40708",554.26904,82.020294,194.60036
"40709",554.28235,82.04959,194.6928
"40710",554.29565,81.97391,194.68117
"40711",554.30896,81.77615,194.5451
"40712",554.32227,81.47097,194.29543
"40713",554.3356,81.08278,193.9532
"40714",554.3489,80.64332,193.54758
"40715",554.3622,80.184326,193.10869
"40716",554.3755,79.742424,192.67255
"40717",554.3888,79.33471,192.25677
"40718",554.4021,78.975815,191.87709
"40719",554.4154,78.67307,191.54234
"40720",554.4287,78.416725,191.24452
"40721",554.442,78.19943,190.97775
"40722",554.4553,78.013885,190.73593
"40723",554.4686,77.85275,190.51273
"40724",554.48193,77.713585,190.30646
"40725",554.49524,77.58907,190.11049
"40726",554.50854,77.47433,189.9204
"40727",554.52185,77.36446,189.7316
"40728",554.53516,77.25948,189.54425
"40729",554.54846,77.15694,189.35606
"40730",554.56177,77.05928,189.16956
"40731",554.5751,76.97383,188.9922
"40732",554.5884,76.90303,188.82683
"40733",554.6017,76.84444,188.67145
"40734",554.615,76.805374,188.53377
"40735",554.6283,76.77852,188.40707
"40736",554.6416,76.75899,188.28687
"40737",554.6549,76.73945,188.16605
"40738",554.6682,76.71992,188.04462
"40739",554.6815,76.68574,187.90793
"40740",554.6948,76.63691,187.75552
"40741",554.7081,76.57343,187.58694
"40742",554.72144,76.51484,187.42126
"40743",554.73474,76.53193,187.32944
"40744",554.74805,76.74677,187.4359
"40745",554.76135,77.313194,187.90065
"40746",554.77466,78.3386,188.84209
"40747",554.78796,79.84985,190.30142
"40748",554.8013,81.75174,192.19861
"40749",554.8146,83.844055,194.34567
"40750",554.8279,85.858246,196.48
"40751",554.8412,87.535515,198.34033
"40752",554.8545,88.707405,199.74771
"40753",554.8678,89.29336,200.60577
"40754",554.8811,89.31777,200.92061
"40755",554.8944,88.883194,200.7772
"40756",554.9077,88.13611,200.30772
"40757",554.921,87.2401,199.66597
"40758",554.9343,86.329445,198.98157
"40759",554.94763,85.506676,198.3566
"40760",554.96094,84.81819,197.8402
"40761",554.97424,84.26154,197.43411
"40762",554.98755,83.80499,197.11073
"40763",555.00085,83.404594,196.82924
"40764",555.01416,83.02861,196.55965
"40765",555.02747,82.67216,196.29784
"40766",555.0408,82.34745,196.05664
"40767",555.0541,82.091095,195.87364
"40768",555.0674,81.92508,195.77298
"40769",555.0807,81.849396,195.75746
"40770",555.094,81.849396,195.81526
"40771",555.1073,81.88846,195.91212
"40772",555.1206,81.91531,195.998
"40773",555.1339,81.89578,196.03833
"40774",555.1472,81.795685,195.99748
"40775",555.1605,81.59304,195.85095
"40776",555.1738,81.290306,195.598
"40777",555.18713,80.90456,195.25258
"40778",555.20044,80.45289,194.82918
"40779",555.21375,79.96704,194.35748
"40780",555.22705,79.47875,193.86816
"40781",555.24036,79.00755,193.38068
"40782",555.25366,78.572975,192.91508
"40783",555.26697,78.18234,192.47986
"40784",555.2803,77.838104,192.07881
"40785",555.2936,77.5378,191.71095
"40786",555.3069,77.281456,191.37766
"40787",555.3202,77.05928,191.07053
"40788",555.3335,76.86397,190.78331
"40789",555.3468,76.697945,190.51929
"40790",555.3601,76.55146,190.2696
"40791",555.3734,76.41474,190.02512
"40792",555.3867,76.29267,189.791
"40793",555.4,76.1828,189.56528
"40794",555.4133,76.0827,189.34589
"40795",555.42664,75.99481,189.13557
"40796",555.43994,75.91913,188.93472
"40797",555.45325,75.862976,188.75104
"40798",555.46655,75.81903,188.5778
"40799",555.47986,75.78729,188.4154
"40800",555.49316,75.76288,188.25934
"40801",555.5065,75.74334,188.10739
"40802",555.5198,75.718925,187.94995
"40803",555.5331,75.68963,187.78687
"40804",555.5464,75.648125,187.61066
"40805",555.5597,75.59441,187.42094
"40806",555.573,75.528496,187.21735
"40807",555.5863,75.47234,187.02145
"40808",555.5996,75.49676,186.90437
"40809",555.6129,75.736015,187.0029
"40810",555.6262,76.334175,187.4678
"40811",555.6395,77.41573,188.4348
"40812",555.65283,78.99779,189.9361
"40813",555.66614,80.9778,191.88478
"40814",555.67944,83.13603,194.07358
"40815",555.69275,85.19173,196.22728
"40816",555.70605,86.88365,198.08145
"40817",555.71936,88.02869,199.4416
"40818",555.73267,88.55604,200.21985
"40819",555.746,88.499886,200.43108
"40820",555.7593,87.96765,200.16446
"40821",555.7726,87.12779,199.5736
"40822",555.7859,86.14633,198.81488
"40823",555.7992,85.16243,198.02306
"40824",555.8125,84.27375,197.2957
"40825",555.8258,83.52178,196.67729
"40826",555.8391,82.899216,196.16478
"40827",555.8524,82.36942,195.72559
"40828",555.8657,81.900665,195.33087
"40829",555.879,81.478294,194.9679
"40830",555.89233,81.11452,194.65031
"40831",555.90564,80.831314,194.40195
"40832",555.91895,80.65308,194.2497
"40833",555.93225,80.59449,194.21152
"40834",555.94556,80.63355,194.26917
"40835",555.95886,80.73853,194.39395
"40836",555.97217,80.86305,194.54155
"40837",555.9855,80.95827,194.66374
"40838",555.9988,80.97536,194.71078
"40839",556.0121,80.88014,194.64606
"40840",556.0254,80.66041,194.45383
"40841",556.0387,80.32105,194.13512
"40842",556.052,79.89136,193.71545
"40843",556.0653,79.40795,193.22865
"40844",556.0786,78.905014,192.70721
"40845",556.0919,78.41917,192.18715
"40846",556.1052,77.96994,191.68852
"40847",556.1185,77.57198,191.22713
"40848",556.13184,77.23262,190.81189
"40849",556.14514,76.94942,190.4422
"40850",556.15845,76.71015,190.1076
"40851",556.17175,76.5124,189.80704
"40852",556.18506,76.35371,189.53935
"40853",556.19836,76.224304,189.296
"40854",556.2117,76.12421,189.07791
"40855",556.225,76.04608,188.87866
"40856",556.2383,75.98505,188.69406
"40857",556.2516,75.931335,188.51488
"40858",556.2649,75.880066,188.33646
"40859",556.2782,75.83124,188.15887
"40860",556.2915,75.775085,187.97244
"40861",556.3048,75.716484,187.78181
"40862",556.3181,75.648125,187.57959
"40863",556.3314,75.57244,187.3679
"40864",556.3447,75.491875,187.14897
"40865",556.35803,75.43084,186.94705
"40866",556.37134,75.45037,186.82379
"40867",556.38464,75.65301,186.88425
"40868",556.39795,76.17059,187.26599
"40869",556.41125,77.100784,188.0765
"40870",556.42456,78.45335,189.33847
"40871",556.43787,80.14282,190.97961
"40872",556.4512,81.97391,192.81516
"40873",556.4645,83.700005,194.60294
"40874",556.4778,85.08186,196.10042
"40875",556.4911,85.97543,197.1528
"40876",556.5044,86.329445,197.69354
"40877",556.5177,86.18051,197.7424
"40878",556.531,85.63363,197.38866
"40879",556.5443,84.82796,196.75903
"40880",556.5576,83.9173,195.99925
"40881",556.5709,83.01152,195.2159
"40882",556.5842,82.19119,194.48969
"40883",556.59753,81.49294,193.85991
"40884",556.61084,80.90944,193.32306
"40885",556.62415,80.41627,192.8583
"40886",556.63745,80.00366,192.45871
"40887",556.65076,79.66918,192.12434
"40888",556.66406,79.43481,191.87962
"40889",556.67737,79.327385,191.75453
"40890",556.6907,79.361565,191.76768
"40891",556.704,79.517815,191.90398
"40892",556.7173,79.75708,192.12817
"40893",556.7306,80.01831,192.3818
"40894",556.7439,80.235596,192.59967
"40895",556.7572,80.35279,192.72423
"40896",556.7705,80.34058,192.72305
"40897",556.7838,80.18921,192.58232
"40898",556.7971,79.91577,192.31479
"40899",556.8104,79.54711,191.9435
"40900",556.8237,79.12718,191.50941
"40901",556.83704,78.69016,191.04512
"40902",556.85034,78.27268,190.5867
"40903",556.86365,77.89426,190.1543
"40904",556.87695,77.576866,189.7711
"40905",556.89026,77.31808,189.43658
"40906",556.90356,77.11055,189.14525
"40907",556.9169,76.944534,188.88893
"40908",556.9302,76.81514,188.66405
"40909",556.9435,76.71015,188.45953
"40910",556.9568,76.62226,188.26883
"40911",556.9701,76.54902,188.09003
"40912",556.9834,76.4831,187.91626
"40913",556.9967,76.419624,187.74287
"40914",557.01,76.36347,187.57483
"40915",557.0233,76.314644,187.41235
"40916",557.0366,76.2707,187.25323
"40917",557.0499,76.23407,187.10007
"40918",557.06323,76.19501,186.94331
"40919",557.07654,76.14862,186.77802
"40920",557.08984,76.09735,186.60638
"40921",557.10315,76.06073,186.4478
"40922",557.11646,76.09247,186.35643
"40923",557.12976,76.30732,186.44917
"40924",557.14307,76.84688,186.87334
"40925",557.1564,77.80881,187.73672
"40926",557.1697,79.217514,189.07695
"40927",557.183,80.98512,190.8201
"40928",557.1963,82.916306,192.78207
"40929",557.2096,84.75227,194.70918
"40930",557.2229,86.25132,196.35674
"40931",557.2362,87.259636,197.56041
"40932",557.2495,87.7235,198.25114
"40933",557.2628,87.682,198.451
"40934",557.2761,87.24254,198.2516
"40935",557.2894,86.54917,197.78456
"40936",557.30273,85.753265,197.19331
"40937",557.31604,84.98665,196.60649
"40938",557.32935,84.32014,196.09581
"40939",557.34265,83.78302,195.6937
"40940",557.35596,83.34844,195.37733
"40941",557.36926,82.97246,195.10599
"40942",557.38257,82.6038,194.83022
"40943",557.3959,82.22537,194.53316
"40944",557.4092,81.85428,194.23161
"40945",557.4225,81.52468,193.95996
"40946",557.4358,81.27566,193.75859
"40947",557.4491,81.13405,193.65685
"40948",557.4624,81.094986,193.65323
"40949",557.4757,81.13161,193.72408
"40950",557.489,81.19997,193.8278
"40951",557.5023,81.24635,193.9117
"40952",557.5156,81.22926,193.93356
"40953",557.52893,81.1194,193.86212
"40954",557.54224,80.907,193.68471
"40955",557.55554,80.59449,193.40054
"40956",557.56885,80.21362,193.03825
"40957",557.58215,79.79614,192.62744
"40958",557.59546,79.364006,192.18893
"40959",557.60876,78.94652,191.75157
"40960",557.6221,78.56565,191.33778
"40961",557.6354,78.22629,190.9536
"40962",557.6487,77.93088,190.60275
"40963",557.662,77.679405,190.28662
"40964",557.6753,77.469444,190.00414
"40965",557.6886,77.29122,189.74683
"40966",557.7019,77.13985,189.5108
"40967",557.7152,77.01045,189.29202
"40968",557.7285,76.895706,189.08385
"40969",557.7418,76.79561,188.88673
"40970",557.7551,76.70771,188.6987
"40971",557.76843,76.629585,188.51768
"40972",557.78174,76.561226,188.344
"40973",557.79504,76.50263,188.17793
"40974",557.80835,76.453804,188.0198
"40975",557.82166,76.40742,187.8626
"40976",557.83496,76.368355,187.71126
"40977",557.84827,76.334175,187.56358
"40978",557.8616,76.29023,187.40508
"40979",557.8749,76.23407,187.23299
"40980",557.8882,76.173035,187.05426
"40981",557.9015,76.12909,186.89072
"40982",557.9148,76.16571,186.80637
"40983",557.9281,76.402534,186.92337
"40984",557.9414,76.97383,187.38225
"40985",557.9547,77.9675,188.28134
"40986",557.968,79.38598,189.6363
"40987",557.9813,81.126724,191.35786
"40988",557.9946,82.98222,193.24858
"40989",558.00793,84.698555,195.0581
"40990",558.02124,86.05356,196.55994
"40991",558.03455,86.91295,197.6085
"40992",558.04785,87.25475,198.16634
"40993",558.06116,87.132675,198.27097
"40994",558.07446,86.67368,198.03487
"40995",558.08777,86.02426,197.594
"40996",558.1011,85.32845,197.08644
"40997",558.1144,84.68879,196.6133
"40998",558.1277,84.16144,196.23247
"40999",558.141,83.74883,195.9499
"41000",558.1543,83.40948,195.7277
"41001",558.1676,83.087204,195.51198
"41002",558.1809,82.74052,195.26176
"41003",558.1942,82.34257,194.94946
"41004",558.2075,81.92264,194.60274
"41005",558.2208,81.52468,194.26486
"41006",558.23413,81.19508,193.98291
"41007",558.24744,80.96803,193.79321
"41008",558.26074,80.850845,193.70628
"41009",558.27405,80.816666,193.6987
"41010",558.28735,80.82643,193.734
"41011",558.30066,80.8362,193.76959
"41012",558.31396,80.799576,193.75911
"41013",558.3273,80.68726,193.67178
"41014",558.3406,80.482185,193.48819
"41015",558.3539,80.19165,193.21272
"41016",558.3672,79.83032,192.85739
"41017",558.3805,79.429924,192.45169
"41018",558.3938,79.009995,192.01395
"41019",558.4071,78.60471,191.57773
"41020",558.4204,78.22873,191.15814
"41021",558.4337,77.891815,190.76587
"41022",558.447,77.591515,190.39969
"41023",558.4603,77.332726,190.06563
"41024",558.47363,77.11055,189.7601
"41025",558.48694,76.92256,189.48181
"41026",558.50024,76.75899,189.22206
"41027",558.51355,76.61982,188.98161
"41028",558.52686,76.49775,188.7539
"41029",558.54016,76.385445,188.53215
"41030",558.55347,76.282906,188.31665
"41031",558.5668,76.19501,188.1126
"41032",558.5801,76.11932,187.918
"41033",558.5934,76.05829,187.73569
"41034",558.6067,76.0119,187.56612
"41035",558.62,75.97528,187.40486
"41036",558.6333,75.948425,187.25223
"41037",558.6466,75.931335,187.10852
"41038",558.6599,75.91913,186.96916
"41039",558.6732,75.90936,186.83186
"41040",558.6865,75.90448,186.69914
"41041",558.6998,75.894714,186.56139
"41042",558.71313,75.88739,186.42577
"41043",558.72644,75.87518,186.28503
"41044",558.73975,75.860535,186.14148
"41045",558.75305,75.841,185.99258
"41046",558.76636,75.81171,185.83331
"41047",558.77966,75.775085,185.6658
"41048",558.79297,75.74334,185.50203
"41049",558.8063,75.757996,185.38367
"41050",558.8196,75.91913,185.41223
"41051",558.8329,76.36591,185.73149
"41052",558.8462,77.21309,186.4651
"41053",558.8595,78.504616,187.66954
"41054",558.8728,80.16968,189.28787
"41055",558.8861,82.02762,191.15112
"41056",558.8994,83.81964,193.00652
"41057",558.9127,85.3016,194.60783
"41058",558.926,86.30259,195.7745
"41059",558.93933,86.768906,196.43777
"41060",558.95264,86.73716,196.61755
"41061",558.96594,86.32456,196.4155
"41062",558.97925,85.67025,195.95883
"41063",558.99255,84.92561,195.39139
"41064",559.00586,84.21759,194.8373
"41065",559.01917,83.62188,194.37338
"41066",559.0325,83.16533,194.03001
"41067",559.0458,82.82353,193.78714
"41068",559.0591,82.54276,193.5946
"41069",559.0724,82.269325,193.40063
"41070",559.0857,81.971466,193.17369
"41071",559.099,81.651634,192.91547
"41072",559.1123,81.35134,192.6668
"41073",559.1256,81.11452,192.4722
"41074",559.1389,80.970474,192.36299
"41075",559.1522,80.921646,192.3445
"41076",559.1655,80.94606,192.39772
"41077",559.17883,81.004654,192.48589
"41078",559.19214,81.05592,192.56856
"41079",559.20544,81.06081,192.60645
"41080",559.21875,80.987564,192.56636
"41081",559.23206,80.82887,192.43854
"41082",559.24536,80.57984,192.21541
"41083",559.25867,80.257576,191.91127
"41084",559.272,79.88403,191.54578
"41085",559.2853,79.48852,191.14664
"41086",559.2986,79.09544,190.73758
"41087",559.3119,78.729225,190.3431
"41088",559.3252,78.40208,189.97623
"41089",559.3385,78.12131,189.64552
"41090",559.3518,77.891815,189.35732
"41091",559.3651,77.70626,189.10588
"41092",559.3784,77.557335,188.88527
"41093",559.3917,77.435265,188.68686
"41094",559.405,77.332726,188.50417
"41095",559.41833,77.242386,188.33047
"41096",559.43164,77.16182,188.16373
"41097",559.44495,77.08125,187.99446
"41098",559.45825,77.00557,187.82756
"41099",559.47156,76.94209,187.6705
"41100",559.48486,76.88106,187.5139
"41101",559.49817,76.82979,187.36516
"41102",559.5115,76.788284,187.22458
"41103",559.5248,76.756546,187.09247
"41104",559.5381,76.734566,186.96913
"41105",559.5514,76.717476,186.84999
"41106",559.5647,76.700386,186.73032
"41107",559.578,76.6833,186.6101
"41108",559.5913,76.663765,186.48692
"41109",559.6046,76.63691,186.3558
"41110",559.6179,76.60273,186.21652
"41111",559.6312,76.558784,186.0664
"41112",559.64453,76.50507,185.90515
"41113",559.65784,76.46601,185.75687
"41114",559.67114,76.51728,185.6977
"41115",559.68445,76.756546,185.82812
"41116",559.69775,77.30831,186.27853
"41117",559.71106,78.24094,187.12704
"41118",559.72437,79.54467,188.37581
"41119",559.7377,81.09987,189.91678
"41120",559.751,82.701454,191.55273
"41121",559.7643,84.122375,193.05807
"41122",559.7776,85.16487,194.2294
"41123",559.7909,85.73617,194.9621
"41124",559.8042,85.82651,195.23169
"41125",559.8175,85.506676,195.09393
"41126",559.8308,84.9012,194.66054
"41127",559.8441,84.14435,194.05685
"41128",559.8574,83.36065,193.40266
"41129",559.8707,82.6453,192.79234
"41130",559.88403,82.04227,192.27197
"41131",559.89734,81.55642,191.84995
"41132",559.91064,81.15846,191.50063
"41133",559.92395,80.82155,191.19992
"41134",559.93726,80.53101,190.93506
"41135",559.95056,80.29908,190.71973
"41136",559.96387,80.14526,190.57526
"41137",559.9772,80.10376,190.5383
"41138",559.9905,80.17944,190.61722
"41139",560.0038,80.35035,190.79373
"41140",560.0171,80.57984,191.03418
"41141",560.0304,80.8069,191.27936
"41142",560.0437,80.98024,191.47792
"41143",560.057,81.05348,191.5818
"41144",560.0703,80.99977,191.56102
"41145",560.0836,80.82155,191.41405
"41146",560.0969,80.53834,191.15651
"41147",560.1102,80.181885,190.81688
"41148",560.12354,79.79614,190.43683
"41149",560.13684,79.40551,190.03983
"41150",560.15015,79.04173,189.65747
"41151",560.16345,78.72678,189.31258
"41152",560.17676,78.46555,189.01155
"41153",560.19006,78.260475,188.75851
"41154",560.20337,78.10422,188.5479
"41155",560.2167,77.99191,188.37634
"41156",560.23,77.90646,188.22813
"41157",560.2433,77.838104,188.09435
"41158",560.2566,77.78195,187.97063
"41159",560.2699,77.72823,187.8476
"41160",560.2832,77.67696,187.72533
"41161",560.2965,77.63058,187.60634
"41162",560.3098,77.58663,187.48834
"41163",560.3231,77.54513,187.37141
"41164",560.3364,77.51095,187.26051
"41165",560.34973,77.48165,187.15343
"41166",560.36304,77.45724,187.05031
"41167",560.37634,77.43282,186.94643
"41168",560.38965,77.41329,186.84666
"41169",560.40295,77.39132,186.74385
"41170",560.41626,77.36446,186.63547
"41171",560.42957,77.32784,186.51648
"41172",560.4429,77.279015,186.38414
"41173",560.4562,77.222855,186.24295
"41174",560.4695,77.18135,186.11465
"41175",560.4828,77.21309,186.0583
"41176",560.4961,77.42306,186.18118
"41177",560.5094,77.93332,186.61092
"41178",560.5227,78.82201,187.43501
"41179",560.536,80.08911,188.6653
"41180",560.5493,81.63943,190.2184
"41181",560.5626,83.284966,191.91518
"41182",560.5759,84.791336,193.5242
"41183",560.58923,85.95834,194.84094
"41184",560.60254,86.67124,195.74004
"41185",560.61584,86.8983,196.17557
"41186",560.62915,86.69077,196.18361
"41187",560.64246,86.16342,195.86534
"41188",560.65576,85.45541,195.34993
"41189",560.66907,84.69367,194.75868
"41190",560.6824,83.98566,194.19734
"41191",560.6957,83.39727,193.7335
"41192",560.709,82.94316,193.38556
"41193",560.7223,82.59159,193.12596
"41194",560.7356,82.30106,192.91643
"41195",560.7489,82.02518,192.71245
"41196",560.7622,81.75174,192.5023
"41197",560.7755,81.495384,192.30069
"41198",560.7888,81.28542,192.13747
"41199",560.8021,81.1487,192.04091
"41200",560.8154,81.10719,192.03531
"41201",560.82874,81.143814,192.10654
"41202",560.84204,81.231705,192.23018
"41203",560.85535,81.322044,192.35901
"41204",560.86865,81.375755,192.45404
"41205",560.88196,81.358665,192.47995
"41206",560.89526,81.24635,192.4101
"41207",560.90857,81.02907,192.23177
"41208",560.9219,80.726326,191.96118
"41209",560.9352,80.36744,191.625
"41210",560.9485,79.98169,191.25073
"41211",560.9618,79.59838,190.86685
"41212",560.9751,79.237045,190.49297
"41213",560.9884,78.91234,190.14441
"41214",561.0017,78.63157,189.82965
"41215",561.015,78.39475,189.55006
"41216",561.0283,78.19455,189.2997
"41217",561.0416,78.028534,189.07726
"41218",561.05493,77.891815,188.87892
"41219",561.06824,77.77951,188.70073
"41220",561.08154,77.68673,188.53856
"41221",561.09485,77.59884,188.37837
"41222",561.10815,77.51827,188.22276
"41223",561.12146,77.44015,188.06708
"41224",561.13477,77.36446,187.91139
"41225",561.1481,77.28878,187.75334
"41226",561.1614,77.225296,187.60513
"41227",561.1747,77.17891,187.47203
"41228",561.188,77.14473,187.34969
"41229",561.2013,77.120316,187.23604
"41230",561.2146,77.10811,187.13383
"41231",561.2279,77.10567,187.04102
"41232",561.2412,77.103226,186.94812
"41233",561.2545,77.09346,186.84782
"41234",561.2678,77.07149,186.73502
"41235",561.2811,77.03975,186.61176
"41236",561.29443,76.99092,186.47041
"41237",561.30774,76.93721,186.32266
"41238",561.32104,76.912796,186.20253
"41239",561.33435,76.99336,186.18661
"41240",561.34766,77.29366,186.39296
"41241",561.36096,77.95285,186.96758
"41242",561.37427,79.03929,187.99004
"41243",561.3876,80.5359,189.45662
"41244",561.4009,82.30595,191.24342
"41245",561.4142,84.1297,193.13924
"41246",561.4275,85.75571,194.8943
"41247",561.4408,86.98375,196.30222
"41248",561.4541,87.70397,197.24068
"41249",561.4674,87.91882,197.69627
"41250",561.4807,87.69909,197.724
"41251",561.494,87.17906,197.44456
"41252",561.5073,86.4979,196.98775
"41253",561.5206,85.79721,196.49011
"41254",561.53394,85.17464,196.0487
"41255",561.54724,84.67658,195.71236
"41256",561.56055,84.30305,195.48497
"41257",561.57385,84.017395,195.33379
"41258",561.58716,83.756165,195.1981
"41259",561.60046,83.46807,195.02739
"41260",561.6138,83.13115,194.79884
"41261",561.6271,82.76738,194.53293
"41262",561.6404,82.41337,194.2654
"41263",561.6537,82.11063,194.03807
"41264",561.667,81.89578,193.88919
"41265",561.6803,81.778595,193.83125
"41266",561.6936,81.73708,193.84532
"41267",561.7069,81.73464,193.89717
"41268",561.7202,81.7322,193.94894
"41269",561.7335,81.68337,193.95425
"41270",561.7468,81.55886,193.88235
"41271",561.76013,81.34402,193.71623
"41272",561.77344,81.0486,193.46281
"41273",561.78674,80.68482,193.1318
"41274",561.80005,80.27955,192.74794
"41275",561.81335,79.85962,192.33675
"41276",561.82666,79.44457,191.91731
"41277",561.83997,79.0515,191.50688
"41278",561.8533,78.69016,191.1159
"41279",561.8666,78.3679,190.7527
"41280",561.8799,78.08957,190.42337
"41281",561.8932,77.84787,190.12196
"41282",561.9065,77.6379,189.84474
"41283",561.9198,77.452354,189.58537
"41284",561.9331,77.28878,189.34218
"41285",561.9464,77.14717,189.11584
"41286",561.9597,77.02266,188.90218
"41287",561.973,76.912796,188.69926
"41288",561.9863,76.81758,188.50757
"41289",561.99963,76.73701,188.32755
"41290",562.01294,76.66621,188.15477
"41291",562.02625,76.60029,187.98466
"41292",562.03955,76.54658,187.8247
"41293",562.05286,76.49775,187.66795
"41294",562.06616,76.45869,187.51944
"41295",562.07947,76.42451,187.37459
"41296",562.0928,76.39521,187.23355
"41297",562.1061,76.36591,187.0916
"41298",562.1194,76.33662,186.94873
"41299",562.1327,76.30732,186.80495
"41300",562.146,76.27558,186.6578
"41301",562.1593,76.25117,186.517
"41302",562.1726,76.226746,186.37543
"41303",562.1859,76.19989,186.23065
"41304",562.1992,76.16083,186.07283
"41305",562.2125,76.112,185.90402
"41306",562.2258,76.06317,185.73369
"41307",562.23914,76.085144,185.63263
"41308",562.25244,76.28779,185.71294
"41309",562.26575,76.82002,186.12917
"41310",562.27905,77.789276,186.99904
"41311",562.29236,79.217514,188.35818
"41312",562.30566,81.01442,190.13063
"41313",562.319,82.98222,192.13014
"41314",562.3323,84.85237,194.09349
"41315",562.3456,86.37583,195.76859
"41316",562.3589,87.39391,196.98592
"41317",562.3722,87.84802,197.67108
"41318",562.3855,87.77966,197.84798
"41319",562.3988,87.308464,197.61989
"41320",562.4121,86.58579,197.12561
"41321",562.4254,85.7728,196.51842
"41322",562.4387,84.99397,195.92
"41323",562.452,84.32502,195.4071
"41324",562.46533,83.79767,195.01491
"41325",562.47864,83.389946,194.72586
"41326",562.49194,83.04814,194.48999
"41327",562.50525,82.718544,194.25565
"41328",562.51855,82.37675,193.99881
"41329",562.53186,82.02518,193.72151
"41330",562.54517,81.688255,193.44788
"41331",562.5585,81.409935,193.22232
"41332",562.5718,81.22194,193.07838
"41333",562.5851,81.13649,193.03113
"41334",562.5984,81.13893,193.06909
"41335",562.6117,81.1902,193.15596
"41336",562.625,81.25124,193.2542
"41337",562.6383,81.26833,193.3104
"41338",562.6516,81.20485,193.28654
"41339",562.6649,81.03151,193.15086
"41340",562.6782,80.75319,192.90479
"41341",562.6915,80.38209,192.55722
"41342",562.70483,79.95972,192.14679
"41343",562.71814,79.51049,191.6963
"41344",562.73145,79.07103,191.24155
"41345",562.74475,78.660866,190.80235
"41346",562.75806,78.2971,190.39673
"41347",562.77136,77.98215,190.02856
"41348",562.78467,77.71603,189.69939
"41349",562.798,77.4963,189.40828
"41350",562.8113,77.31808,189.15181
"41351",562.8246,77.1667,188.91663
"41352",562.8379,77.03487,188.69624
"41353",562.8512,76.92012,188.48883
"41354",562.8645,76.81758,188.29004
"41355",562.8778,76.732124,188.10513
"41356",562.8911,76.65888,187.92976
"41357",562.9044,76.59785,187.76431
"41358",562.9177,76.544136,187.60428
"41359",562.931,76.50019,187.45233
"41360",562.94434,76.46357,187.30634
"41361",562.95764,76.436714,187.16896
"41362",562.97095,76.419624,187.04051
"41363",562.98425,76.402534,186.91153
"41364",562.99756,76.37812,186.77469
"41365",563.01086,76.3415,186.62488
"41366",563.0242,76.28779,186.45683
"41367",563.0375,76.21454,186.26758
"41368",563.0508,76.13153,186.06627
"41369",563.0641,76.085144,185.89899
"41370",563.0774,76.1535,185.845
"41371",563.0907,76.456245,186.02754
"41372",563.104,77.10567,186.56622
"41373",563.1173,78.15793,187.52803
"41374",563.1306,79.57397,188.8865
"41375",563.1439,81.21217,190.5114
"41376",563.1572,82.862595,192.1997
"41377",563.17053,84.29084,193.7174
"41378",563.18384,85.31869,194.87935
"41379",563.19714,85.855804,195.58267
"41380",563.21045,85.89731,195.80717
"41381",563.22375,85.523766,195.61792
"41382",563.23706,84.85237,195.11914
"41383",563.25037,84.0296,194.44801
"41384",563.2637,83.18486,193.7292
"41385",563.277,82.42069,193.06456
"41386",563.2903,81.778595,192.49811
"41387",563.3036,81.26345,192.03854
"41388",563.3169,80.850845,191.66542
"41389",563.3302,80.5066,191.34776
"41390",563.3435,80.21362,191.07062
"41391",563.3568,79.98413,190.84781
"41392",563.3701,79.83765,190.70084
"41393",563.3834,79.80347,190.66159
"41394",563.3967,79.88159,190.73358
"41395",563.41003,80.05249,190.90079
"41396",563.42334,80.26978,191.11972
"41397",563.43665,80.48707,191.34544
"41398",563.44995,80.64332,191.51692
"41399",563.46326,80.70435,191.59807
"41400",563.47656,80.64576,191.5615
"41401",563.48987,80.46754,191.40346
"41402",563.5032,80.17944,191.12997
"41403",563.5165,79.81323,190.76938
"41404",563.5298,79.40795,190.35826
"41405",563.5431,79.00511,189.93692
"41406",563.5564,78.626686,189.5274
"41407",563.5697,78.29954,189.15733
"41408",563.583,78.028534,188.83319
"41409",563.5963,77.80881,188.55185
"41410",563.6096,77.6379,188.31247
"41411",563.6229,77.506065,188.10681
"41412",563.6362,77.40597,187.92877
"41413",563.64954,77.32784,187.76958
"41414",563.66284,77.264366,187.62259
"41415",563.67615,77.20332,187.47606
"41416",563.68945,77.14473,187.33006
"41417",563.70276,77.09346,187.18956
"41418",563.71606,77.04463,187.0499
"41419",563.7294,77.00313,186.91603
"41420",563.7427,76.96651,186.78575
"41421",563.756,76.93721,186.66165
"41422",563.7693,76.912796,186.54152
"41423",563.7826,76.89815,186.43039
"41424",563.7959,76.893265,186.32857
"41425",563.8092,76.895706,186.23392
"41426",563.8225,76.90547,186.14667
"41427",563.8358,76.910355,186.05484
"41428",563.8491,76.90059,185.94852
"41429",563.8624,76.88106,185.83212
"41430",563.87573,76.8542,185.7078
"41431",563.88904,76.84688,185.60216
"41432",563.90234,76.944534,185.60127
"41433",563.91565,77.27413,185.83539
"41434",563.92896,77.962616,186.43869
"41435",563.94226,79.078354,187.49075
"41436",563.95557,80.59937,188.98297
"41437",563.9689,82.38407,190.7864
"41438",563.9822,84.20294,192.67978
"41439",563.9955,85.80698,194.41516
"41440",564.0088,87.00084,195.7905
"41441",564.0221,87.67712,196.68555
"41442",564.0354,87.83826,197.0866
"41443",564.0487,87.55993,197.0532
"41444",564.062,86.9691,196.69862
"41445",564.0753,86.21713,196.16444
"41446",564.0886,85.435875,195.57747
"41447",564.1019,84.73762,195.04909
"41448",564.11523,84.17853,194.63805
"41449",564.12854,83.76837,194.35847
"41450",564.14185,83.47051,194.17838
"41451",564.15515,83.22148,194.0378
"41452",564.16846,82.96513,193.88213
"41453",564.18176,82.67704,193.68669
"41454",564.19507,82.371864,193.46518
"41455",564.2084,82.08865,193.25609
"41456",564.2217,81.86893,193.10164
"41457",564.235,81.74441,193.03552
"41458",564.2483,81.71511,193.06075
"41459",564.2616,81.74685,193.14609
"41460",564.2749,81.80057,193.2544
"41461",564.2882,81.83475,193.34485
"41462",564.3015,81.81033,193.37778
"41463",564.3148,81.7029,193.32692
"41464",564.3281,81.497826,193.17506
"41465",564.34143,81.20729,192.93134
"41466",564.35474,80.850845,192.61263
"41467",564.36804,80.45289,192.24126
"41468",564.38135,80.04028,191.8428
"41469",564.39465,79.64233,191.4461
"41470",564.40796,79.27856,191.07115
"41471",564.42126,78.95628,190.72633
"41472",564.4346,78.6804,190.41783
"41473",564.4479,78.44602,190.14221
"41474",564.4612,78.24582,189.89345
"41475",564.4745,78.07736,189.67017
"41476",564.4878,77.93332,189.46603
"41477",564.5011,77.81125,189.27937
"41478",564.5144,77.70626,189.10599
"41479",564.5277,77.611046,188.93909
"41480",564.541,77.52071,188.7741
"41481",564.5543,77.42794,188.60384
"41482",564.5676,77.34493,188.44044
"41483",564.58093,77.26925,188.28178
"41484",564.59424,77.205765,188.13297
"41485",564.60754,77.15694,187.99681
"41486",564.62085,77.117874,187.8689
"41487",564.63416,77.08125,187.7422
"41488",564.64746,77.049515,187.61925
"41489",564.66077,77.01778,187.4953
"41490",564.6741,76.99336,187.37769
"41491",564.6874,76.96895,187.25931
"41492",564.7007,76.95674,187.15237
"41493",564.714,76.946976,187.0475
"41494",564.7273,76.93477,186.93988
"41495",564.7406,76.91768,186.827
"41496",564.7539,76.895706,186.7087
"41497",564.7672,76.8542,186.57018
"41498",564.7805,76.805374,186.42303
"41499",564.7938,76.74677,186.2646
"41500",564.8071,76.72236,186.13852
"41501",564.82043,76.8127,186.12643
"41502",564.83374,77.15694,186.37106
"41503",564.84705,77.891815,187.01709
"41504",564.86035,79.09544,188.15483
"41505",564.87366,80.73121,189.76233
"41506",564.88696,82.6453,191.69928
"41507",564.90027,84.596016,193.73267
"41508",564.9136,86.30259,195.58287
"41509",564.9269,87.55749,197.03473
"41510",564.9402,88.25819,197.9716
"41511",564.9535,88.40955,198.38104
"41512",564.9668,88.09216,198.32645
"41513",564.9801,87.45739,197.94455
"41514",564.9934,86.66636,197.38657
"41515",565.0067,85.86069,196.78922
"41516",565.02,85.14778,196.25946
"41517",565.0333,84.58869,195.86124
"41518",565.04663,84.17609,195.59203
"41519",565.05994,83.86847,195.41492
"41520",565.07324,83.59991,195.26724
"41521",565.08655,83.32403,195.10387
"41522",565.09985,83.00908,194.89279
"41523",565.11316,82.667274,194.64502
"41524",565.12646,82.3328,194.3939
"41525",565.1398,82.04959,194.1836
"41526",565.1531,81.84207,194.04013
"41527",565.1664,81.71511,193.97073
"41528",565.1797,81.65896,193.96819
"41529",565.193,81.63943,194.0005
"41530",565.2063,81.619896,194.03221
"41531",565.2196,81.5613,194.02425
"41532",565.2329,81.43435,193.94609
"41533",565.2462,81.22194,193.7785
"41534",565.2595,80.92409,193.51884
"41535",565.2728,80.56031,193.18394
"41536",565.28613,80.15747,192.79861
"41537",565.29944,79.73998,192.38605
"41538",565.31274,79.327385,191.96532
"41539",565.32605,78.941635,191.55855
"41540",565.33936,78.590065,191.1739
"41541",565.35266,78.27512,190.8149
"41542",565.36597,78.00412,190.48999
"41543",565.3793,77.77463,190.19812
"41544",565.3926,77.58419,189.93814
"41545",565.4059,77.42306,189.7015
"41546",565.4192,77.29122,189.48914
"41547",565.4325,77.17403,189.2873
"41548",565.4458,77.07637,189.10132
"41549",565.4591,76.99092,188.9245
"41550",565.4724,76.91768,188.75722
"41551",565.4857,76.8542,188.59741
"41552",565.499,76.80049,188.44539
"41553",565.5123,76.754105,188.29901
"41554",565.52563,76.71259,188.15607
"41555",565.53894,76.67353,188.01427
"41556",565.55225,76.63691,187.87369
"41557",565.56555,76.60517,187.73685
"41558",565.57886,76.5832,187.60878
"41559",565.59216,76.56367,187.48247
"41560",565.60547,76.544136,187.35555
"41561",565.6188,76.52216,187.22557
"41562",565.6321,76.49775,187.09247
"41563",565.6454,76.46601,186.95128
"41564",565.6587,76.42695,186.80177
"41565",565.672,76.37812,186.64128
"41566",565.6853,76.31953,186.4695
"41567",565.6986,76.263374,186.29832
"41568",565.7119,76.243835,186.16202
"41569",565.7252,76.36347,186.16428
"41570",565.7385,76.754105,186.44127
"41571",565.75183,77.53292,187.11865
"41572",565.76514,78.751205,188.25984
"41573",565.77844,80.360115,189.82973
"41574",565.79175,82.18875,191.66962
"41575",565.80505,83.99786,193.54713
"41576",565.81836,85.53597,195.21017
"41577",565.83167,86.61509,196.4623
"41578",565.845,87.15709,197.21101
"41579",565.8583,87.17418,197.45177
"41580",565.8716,86.75914,197.26093
"41581",565.8849,86.05356,196.76657
"41582",565.8982,85.206375,196.10857
"41583",565.9115,84.3592,195.42409
"41584",565.9248,83.60479,194.80591
"41585",565.9381,82.99443,194.3082
"41586",565.9514,82.51835,193.92569
"41587",565.9647,82.142365,193.6284
"41588",565.978,81.82498,193.37798
"41589",565.99133,81.53445,193.14447
"41590",566.00464,81.2781,192.93608
"41591",566.01794,81.07301,192.77094
"41592",566.03125,80.96071,192.69217
"41593",566.04456,80.9485,192.70999
"41594",566.05786,81.03639,192.82753
"41595",566.07117,81.18776,193.01129
"41596",566.0845,81.358665,193.21931
"41597",566.0978,81.4905,193.39362
"41598",566.1111,81.54177,193.49147
"41599",566.1244,81.480736,193.47862
"41600",566.1377,81.30007,193.34424
"41601",566.151,81.007095,193.09189
"41602",566.1643,80.62867,192.74493
"41603",566.1776,80.20386,192.33977
"41604",566.1909,79.764404,191.90668
"41605",566.2042,79.34203,191.47694
"41606",566.2175,78.96117,191.07552
"41607",566.23083,78.626686,190.70857
"41608",566.24414,78.35081,190.38977
"41609",566.25745,78.12619,190.11362
"41610",566.27075,77.945526,189.87439
"41611",566.28406,77.7966,189.66125
"41612",566.29736,77.67696,189.47276
"41613",566.31067,77.574425,189.29762
"41614",566.324,77.47921,189.1266
"41615",566.3373,77.39132,188.95993
"41616",566.3506,77.31075,188.79784
"41617",566.3639,77.23018,188.63322
"41618",566.3772,77.15694,188.47342
"41619",566.3905,77.08858,188.31621
"41620",566.4038,77.02754,188.16418
"41621",566.4171,76.981155,188.0249
"41622",566.4304,76.944534,187.89394
"41623",566.4437,76.912796,187.76671
"41624",566.45703,76.8835,187.64093
"41625",566.47034,76.85176,187.5118
"41626",566.48364,76.81026,187.3719
"41627",566.49695,76.75166,187.21362
"41628",566.51025,76.68818,187.04863
"41629",566.52356,76.63203,186.88898
"41630",566.53687,76.629585,186.78128
"41631",566.5502,76.76875,186.81512
"41632",566.5635,77.17891,187.1243
"41633",566.5768,77.96994,187.82716
"41634",566.5901,79.18089,188.97467
"41635",566.6034,80.762955,190.53113
"41636",566.6167,82.55009,192.3421
"41637",566.63,84.31037,194.18208
"41638",566.6433,85.80209,195.8085
"41639",566.6566,86.85191,197.03964
"41640",566.6699,87.379265,197.78111
"41641",566.6832,87.40124,198.03369
"41642",566.69653,87.00572,197.86946
"41643",566.70984,86.329445,197.41211
"41644",566.72314,85.521324,196.80179
"41645",566.73645,84.71076,196.16377
"41646",566.74976,83.9881,195.58832
"41647",566.76306,83.39727,195.12212
"41648",566.77637,82.933395,194.7644
"41649",566.7897,82.55009,194.47276
"41650",566.803,82.20584,194.2082
"41651",566.8163,81.87381,193.94511
"41652",566.8296,81.55642,193.68628
"41653",566.8429,81.28542,193.46393
"41654",566.8562,81.09743,193.3161
"41655",566.8695,81.01686,193.26984
"41656",566.8828,81.041275,193.32603
"41657",566.8961,81.13649,193.4538
"41658",566.9094,81.25857,193.61139
"41659",566.9227,81.358665,193.75082
"41660",566.93604,81.38308,193.8177
"41661",566.94934,81.307396,193.78525
"41662",566.96265,81.1194,193.6381
"41663",566.97595,80.82643,193.38013
"41664",566.98926,80.44312,193.02264
"41665",567.00256,80.01099,192.60435
"41666",567.01587,79.56664,192.16035
"41667",567.0292,79.13695,191.71712
"41668",567.0425,78.746315,191.29951
"41669",567.0558,78.40696,190.92097
"41670",567.0691,78.118866,190.5831
"41671",567.0824,77.87961,190.28505
"41672",567.0957,77.679405,190.01859
"41673",567.109,77.506065,189.77272
"41674",567.1223,77.3547,189.54341
"41675",567.1356,77.22774,189.33379
"41676",567.1489,77.11543,189.13484
"41677",567.16223,77.01778,188.94704
"41678",567.17554,76.93233,188.76839
"41679",567.18884,76.859085,188.59927
"41680",567.20215,76.78584,188.42787
"41681",567.21545,76.717476,188.25906
"41682",567.22876,76.65888,188.09789
"41683",567.24207,76.610054,187.94464
"41684",567.2554,76.57099,187.79964
"41685",567.2687,76.541695,187.66318
"41686",567.282,76.51728,187.53069
"41687",567.2953,76.50019,187.40475
"41688",567.3086,76.48798,187.28317
"41689",567.3219,76.47822,187.16365
"41690",567.3352,76.473335,187.0487
"41691",567.3485,76.470894,186.93605
"41692",567.3618,76.46357,186.81844
"41693",567.3751,76.44892,186.69327
"41694",567.3884,76.42695,186.56032
"41695",567.40173,76.39521,186.41692
"41696",567.41504,76.35371,186.26276
"41697",567.42834,76.314644,186.10974
"41698",567.44165,76.33173,186.01166
"41699",567.45496,76.507515,186.0728
"41700",567.46826,76.995804,186.45195
"41701",567.48157,77.93576,187.29802
"41702",567.4949,79.37377,188.67152
"41703",567.5082,81.25124,190.52942
"41704",567.5215,83.387505,192.70479
"41705",567.5348,85.50912,194.93227
"41706",567.5481,87.33532,196.93063
"41707",567.5614,88.670784,198.49533
"41708",567.5747,89.42275,199.51826
"41709",567.588,89.600975,199.99095
"41710",567.6013,89.29824,199.98825
"41711",567.6146,88.66834,199.64893
"41712",567.6279,87.87732,199.12878
"41713",567.64124,87.0692,198.56683
"41714",567.65454,86.35142,198.06996
"41715",567.66785,85.77524,197.69226
"41716",567.68115,85.34066,197.43816
"41717",567.69446,84.998856,197.26324
"41718",567.70776,84.68635,197.10695
"41719",567.72107,84.35432,196.92137
"41720",567.7344,83.97833,196.68146
"41721",567.7477,83.57305,196.4005
"41722",567.761,83.17998,196.11908
"41723",567.7743,82.84306,195.88155
"41724",567.7876,82.59403,195.72136
"41725",567.8009,82.43778,195.64618
"41726",567.8142,82.35233,195.63692
"41727",567.8275,82.303505,195.6616
"41728",567.8408,82.247345,195.67743
"41729",567.8541,82.14725,195.64757
"41730",567.86743,81.969025,195.53645
"41731",567.88074,81.70779,195.33675
"41732",567.89404,81.358665,195.041
"41733",567.90735,80.938736,194.66353
"41734",567.92065,80.46754,194.22166
"41735",567.93396,79.971924,193.74066
"41736",567.94727,79.47875,193.24661
"41737",567.9606,79.012436,192.764
"41738",567.9739,78.58762,192.30833
"41739",567.9872,78.21652,191.8931
"41740",568.0005,77.89426,191.51509
"41741",568.0138,77.61593,191.17096
"41742",568.0271,77.37911,190.85963
"41743",568.0404,77.16914,190.56776
"41744",568.0537,76.98604,190.29619
"41745",568.067,76.822464,190.03842
"41746",568.0803,76.680855,189.79752
"41747",568.0936,76.55146,189.56439
"41748",568.10693,76.436714,189.34187
"41749",568.12024,76.33662,189.13042
"41750",568.13354,76.24872,188.92804
"41751",568.14685,76.17059,188.73268
"41752",568.16016,76.102234,188.54465
"41753",568.17346,76.04608,188.36668
"41754",568.18677,75.99725,188.19429
"41755",568.2001,75.96063,188.03258
"41756",568.2134,75.92157,187.86728
"41757",568.2267,75.89227,187.71053
"41758",568.24,75.85809,187.54797
"41759",568.2533,75.826355,187.3868
"41760",568.2666,75.79462,187.22462
"41761",568.2799,75.76532,187.0639
"41762",568.2932,75.74334,186.90959
"41763",568.3065,75.72381,186.75703
"41764",568.3198,75.70672,186.60631
"41765",568.3331,75.69207,186.45749
"41766",568.34644,75.67498,186.30577
"41767",568.35974,75.65301,186.14864
"41768",568.37305,75.62371,185.98349
"41769",568.38635,75.58221,185.80522
"41770",568.39966,75.53094,185.61589
"41771",568.41296,75.50164,185.44693
"41772",568.4263,75.57244,185.37715
"41773",568.4396,75.8996,185.56595
"41774",568.4529,76.646675,186.18489
"41775",568.4662,77.92355,187.35698
"41776",568.4795,79.73754,189.10608
"41777",568.4928,81.95926,191.3196
"41778",568.5061,84.33967,193.76123
"41779",568.5194,86.56626,196.12344
"41780",568.5327,88.36805,198.13043
"41781",568.546,89.56924,199.59312
"41782",568.5593,90.12344,200.44637
"41783",568.57263,90.072174,200.71146
"41784",568.58594,89.547264,200.5013
"41785",568.59924,88.72205,199.97444
"41786",568.61255,87.77722,199.30217
"41787",568.62585,86.85191,198.6199
"41788",568.63916,86.04379,198.02591
"41789",568.65247,85.39437,197.56535
"41790",568.6658,84.88655,197.2261
"41791",568.6791,84.46662,196.95888
"41792",568.6924,84.08087,196.7127
"41793",568.7057,83.69268,196.45204
"41794",568.719,83.29717,196.17194
"41795",568.7323,82.91142,195.88922
"41796",568.7456,82.5745,195.64328
"41797",568.7589,82.31571,195.46495
"41798",568.7722,82.15457,195.37617
"41799",568.7855,82.07645,195.36539
"41800",568.7988,82.05203,195.40587
"41801",568.81213,82.04471,195.46268
"41802",568.82544,82.00809,195.48996
"41803",568.83875,81.900665,195.4453
"41804",568.85205,81.69558,195.2996
"41805",568.86536,81.38308,195.0401
"41806",568.87866,80.98024,194.68048
"41807",568.89197,80.50172,194.23259
"41808",568.9053,79.97925,193.7258
"41809",568.9186,79.44457,193.19048
"41810",568.9319,78.92943,192.65797
"41811",568.9452,78.45579,192.15088
"41812",568.9585,78.03342,191.68025
"41813",568.9718,77.67208,191.25746
"41814",568.9851,77.36202,190.87465
"41815",568.9984,77.10567,190.53586
"41816",569.0117,76.88838,190.22812
"41817",569.025,76.70283,189.94533
"41818",569.0383,76.544136,189.6836
"41819",569.05164,76.40986,189.44131
"41820",569.06494,76.29023,189.20949
"41821",569.07825,76.18524,188.98857
"41822",569.09155,76.09003,188.77414
"41823",569.10486,76.00702,188.56894
"41824",569.11816,75.93622,188.37335
"41825",569.1315,75.877625,188.18776
"41826",569.1448,75.8288,188.0101
"41827",569.1581,75.789734,187.84068
"41828",569.1714,75.755554,187.67493
"41829",569.1847,75.718925,187.50566
"41830",569.198,75.68719,187.34013
"41831",569.2113,75.66277,187.18094
"41832",569.2246,75.64568,187.0283
"41833",569.2379,75.63348,186.88002
"41834",569.2512,75.62615,186.73624
"41835",569.2645,75.62127,186.59467
"41836",569.27783,75.6115,186.44806
"41837",569.29114,75.58953,186.28894
"41838",569.30444,75.54803,186.1096
"41839",569.31775,75.494316,185.91676
"41840",569.33105,75.43084,185.71248
"41841",569.34436,75.37957,185.51842
"41842",569.35767,75.423515,185.41797
"41843",569.371,75.699394,185.55083
"41844",569.3843,76.36103,186.07806
"41845",569.3976,77.52804,187.13135
"41846",569.4109,79.22728,188.75334
"41847",569.4242,81.35134,190.85326
"41848",569.4375,83.67071,193.21486
"41849",569.4508,85.88754,195.5464
"41850",569.4641,87.71862,197.56146
"41851",569.4774,88.973526,199.05757
"41852",569.4907,89.566795,199.93126
"41853",569.504,89.52041,200.18384
"41854",569.51733,88.95155,199.91249
"41855",569.53064,88.026245,199.26692
"41856",569.54395,86.922714,198.41422
"41857",569.55725,85.79477,197.50261
"41858",569.57056,84.7596,196.64853
"41859",569.58386,83.86603,195.9037
"41860",569.59717,83.11406,195.27255
"41861",569.6105,82.47196,194.72777
"41862",569.6238,81.9202,194.25325
"41863",569.6371,81.45632,193.84938
"41864",569.6504,81.0901,193.52867
"41865",569.6637,80.86061,193.33325
"41866",569.677,80.79469,193.29424
"41867",569.6903,80.89235,193.41673
"41868",569.7036,81.11696,193.66924
"41869",569.7169,81.409935,193.99712
"41870",569.7302,81.70046,194.33171
"41871",569.7435,81.9202,194.60458
"41872",569.75684,82.01053,194.75493
"41873",569.77014,81.92996,194.7372
"41874",569.78345,81.67361,194.54115
"41875",569.79675,81.26345,194.1833
"41876",569.81006,80.73365,193.693
"41877",569.82336,80.13794,193.12021
"41878",569.8367,79.537346,192.52393
"41879",569.85,78.96849,191.94061
"41880",569.8633,78.46555,191.40544
"41881",569.8766,78.03586,190.9278
"41882",569.8899,77.68185,190.5124
"41883",569.9032,77.38888,190.14699
"41884",569.9165,77.14961,189.82613
"41885",569.9298,76.94209,189.52953
"41886",569.9431,76.76631,189.25818
"41887",569.9564,76.61982,189.01064
"41888",569.9697,76.48798,188.77316
"41889",569.98303,76.3708,188.54622
"41890",569.99634,76.263374,188.32538
"41891",570.00964,76.17059,188.11583
"41892",570.02295,76.087585,187.91315
"41893",570.03625,76.016785,187.72008
"41894",570.04956,75.96063,187.53944
"41895",570.06287,75.92157,187.37415
"41896",570.0762,75.88983,187.21495
"41897",570.0895,75.86542,187.06209
"41898",570.1028,75.843445,186.9109
"41899",570.1161,75.81903,186.75659
"41900",570.1294,75.78241,186.58931
"41901",570.1427,75.73846,186.41356
"41902",570.156,75.699394,186.24132
"41903",570.1693,75.718925,186.12645
"41904",570.1826,75.914246,186.18799
"41905",570.1959,76.44648,186.59254
"41906",570.2092,77.454796,187.4898
"41907",570.22253,79.00267,188.95815
"41908",570.23584,81.03395,190.95825
"41909",570.24915,83.36065,193.31726
"41910",570.26245,85.697105,195.75874
"41911",570.27576,87.74059,197.98027
"41912",570.28906,89.26406,199.74564
"41913",570.30237,90.13321,200.90428
"41914",570.3157,90.34074,201.42847
"41915",570.329,89.969635,201.38051
"41916",570.3423,89.16884,200.89127
"41917",570.3556,88.11902,200.12798
"41918",570.3689,86.99107,199.25375
"41919",570.3822,85.91928,198.40044
"41920",570.3955,84.98421,197.65034
"41921",570.4088,84.207825,197.02972
"41922",570.4221,83.563286,196.51668
"41923",570.4354,83.00664,196.07138
"41924",570.4487,82.496376,195.65508
"41925",570.46204,82.03006,195.26677
"41926",570.47534,81.62966,194.92981
"41927",570.48865,81.33181,194.68289
"41928",570.50195,81.16579,194.55849
"41929",570.51526,81.13405,194.56319
"41930",570.52856,81.20973,194.67432
"41931",570.5419,81.341576,194.84396
"41932",570.5552,81.47341,195.01773
"41933",570.5685,81.54177,195.13214
"41934",570.5818,81.497826,195.13638
"41935",570.5951,81.31472,195.00009
"41936",570.6084,80.987564,194.71402
"41937",570.6217,80.54078,194.2981
"41938",570.635,80.0061,193.78032
"41939",570.6483,79.432365,193.20677
"41940",570.6616,78.853745,192.61041
"41941",570.6749,78.30442,192.02527
"41942",570.68823,77.79904,191.4669
"41943",570.70154,77.36202,190.9611
"41944",570.71484,76.9836,190.50024
"41945",570.72815,76.67109,190.09348
"41946",570.74146,76.4123,189.73065
"41947",570.75476,76.19989,189.40613
"41948",570.76807,76.019226,189.1067
"41949",570.7814,75.86542,188.82849
"41950",570.7947,75.72869,188.56256
"41951",570.808,75.60662,188.307
"41952",570.8213,75.494316,188.0574
"41953",570.8346,75.39666,187.81894
"41954",570.8479,75.31121,187.58963
"41955",570.8612,75.245285,187.37718
"41956",570.8745,75.19646,187.17976
"41957",570.8878,75.1696,187.00279
"41958",570.9011,75.15251,186.83475
"41959",570.9144,75.14763,186.67838
"41960",570.92773,75.14763,186.52673
"41961",570.94104,75.15495,186.38242
"41962",570.95435,75.1696,186.24565
"41963",570.96765,75.18913,186.11423
"41964",570.98096,75.211105,185.98586
"41965",570.99426,75.2404,185.8655
"41966",571.00757,75.267265,185.74362
"41967",571.0209,75.2868,185.61525
"41968",571.0342,75.301445,185.4826
"41969",571.0475,75.301445,185.33577
"41970",571.0608,75.2868,185.17429
"41971",571.0741,75.27703,185.01723
"41972",571.0874,75.352715,184.94531
"41973",571.1007,75.66277,185.11014
"41974",571.114,76.404976,185.7168
"41975",571.1273,77.733116,186.93259
"41976",571.1406,79.69848,188.8271
"41977",571.15393,82.19852,191.31772
"41978",571.16724,84.98665,194.17456
"41979",571.18054,87.72106,197.0648
"41980",571.19385,90.05264,199.63766
"41981",571.20715,91.737236,201.6364
"41982",571.22046,92.66987,202.93582
"41983",571.23376,92.85542,203.5173
"41984",571.2471,92.41108,203.47469
"41985",571.2604,91.52483,202.97629
"41986",571.2737,90.40177,202.21338
"41987",571.287,89.22499,201.36165
"41988",571.3003,88.14343,200.56837
"41989",571.3136,87.23033,199.90976
"41990",571.3269,86.50767,199.41304
"41991",571.3402,85.92905,199.03778
"41992",571.3535,85.43099,198.725
"41993",571.3668,84.93538,198.39911
"41994",571.3801,84.41779,198.03575
"41995",571.39343,83.88556,197.64157
"41996",571.40674,83.38262,197.26006
"41997",571.42004,82.948044,196.93118
"41998",571.43335,82.62577,196.70103
"41999",571.44666,82.41581,196.57314
"42000",571.45996,82.29374,196.52657
"42001",571.47327,82.21805,196.52255
"42002",571.4866,82.13504,196.50887
"42003",571.4999,82.003204,196.44376
"42004",571.5132,81.78348,196.28664
"42005",571.5265,81.45632,196.01521
"42006",571.5398,81.024185,195.62859
"42007",571.5531,80.499275,195.13568
"42008",571.5664,79.90845,194.56046
"42009",571.5797,79.28588,193.93503
"42010",571.593,78.66819,193.29501
"42011",571.6063,78.07736,192.66257
"42012",571.6196,77.5378,192.06293
"42013",571.63293,77.05684,191.50502
"42014",571.64624,76.629585,190.9858
"42015",571.65955,76.26093,190.51181
"42016",571.67285,75.9411,190.07513
"42017",571.68616,75.6701,189.67729
"42018",571.69946,75.44305,189.31493
"42019",571.71277,75.25262,188.98209
"42020",571.7261,75.09392,188.67503
"42021",571.7394,74.95964,188.38744
"42022",571.7527,74.84245,188.11273
"42023",571.766,74.74479,187.8539
"42024",571.7793,74.65934,187.60422
"42025",571.7926,74.59098,187.36896
"42026",571.8059,74.53483,187.14377
"42027",571.8192,74.49088,186.92903
"42028",571.8325,74.4567,186.72269
"42029",571.8458,74.424965,186.51772
"42030",571.85913,74.40543,186.32396
"42031",571.87244,74.38834,186.13203
"42032",571.88574,74.37858,185.9469
"42033",571.89905,74.37614,185.76878
"42034",571.91235,74.38346,185.60036
"42035",571.92566,74.39811,185.43948
"42036",571.93896,74.42252,185.28883
"42037",571.9523,74.45182,185.14383
"42038",571.9656,74.48356,185.00218
"42039",571.9789,74.5153,184.86153
"42040",571.9922,74.53971,184.71454
"42041",572.0055,74.55192,184.5561
"42042",572.0188,74.55924,184.39317
"42043",572.0321,74.5568,184.2207
"42044",572.0454,74.547035,184.04083
"42045",572.0587,74.54459,183.86798
"42046",572.072,74.62272,183.77562
"42047",572.0853,74.92546,183.91032
"42048",572.09863,75.66033,184.48662
"42049",572.11194,77.00313,185.6938
"42050",572.12524,79.0222,187.61922
"42051",572.13855,81.634544,190.201
"42052",572.15186,84.58137,193.19891
"42053",572.16516,87.50378,196.2645
"42054",572.17847,90.04288,199.03809
"42055",572.1918,91.92523,201.23428
"42056",572.2051,93.01167,202.69339
"42057",572.2184,93.29977,203.38809
"42058",572.2317,92.89693,203.40086
"42059",572.245,91.981384,202.88835
"42060",572.2583,90.76555,202.04694
"42061",572.2716,89.444725,201.06253
"42062",572.2849,88.182495,200.09544
"42063",572.2982,87.078964,199.24762
"42064",572.3115,86.17319,198.56306
"42065",572.3248,85.43343,198.01622
"42066",572.33813,84.805984,197.55856
"42067",572.35144,84.23956,197.14233
"42068",572.36475,83.700005,196.73526
"42069",572.37805,83.19707,196.34795
"42070",572.39136,82.7625,196.01329
"42071",572.40466,82.43534,195.77246
"42072",572.41797,82.23758,195.6508
"42073",572.4313,82.16678,195.64993
"42074",572.4446,82.18631,195.73718
"42075",572.4579,82.24979,195.86899
"42076",572.4712,82.29618,195.98569
"42077",572.4845,82.27421,196.03548
"42078",572.4978,82.1326,195.96494
"42079",572.5111,81.85184,195.75082
"42080",572.5244,81.42947,195.38632
"42081",572.5377,80.89235,194.89388
"42082",572.551,80.272224,194.30164
"42083",572.56433,79.61791,193.65584
"42084",572.57764,78.96849,192.99448
"42085",572.59094,78.35569,192.34944
"42086",572.60425,77.803925,191.74629
"42087",572.61755,77.32052,191.19426
"42088",572.63086,76.90791,190.69792
"42089",572.64417,76.56367,190.25705
"42090",572.6575,76.27802,189.86401
"42091",572.6708,76.0412,189.51088
"42092",572.6841,75.85077,189.19673
"42093",572.6974,75.69451,188.91081
"42094",572.7107,75.560234,188.64198
"42095",572.724,75.44305,188.38605
"42096",572.7373,75.34295,188.14354
"42097",572.7506,75.26238,187.91743
"42098",572.7639,75.19646,187.70346
"42099",572.7772,75.14763,187.50452
"42100",572.7905,75.11833,187.32358
"42101",572.80383,75.10368,187.15637
"42102",572.81714,75.09148,186.99115
"42103",572.83044,75.08659,186.83287
"42104",572.84375,75.08415,186.67688
"42105",572.85706,75.07927,186.51837
"42106",572.87036,75.06462,186.34995
"42107",572.88367,75.035324,186.16641
"42108",572.897,74.98894,185.96487
"42109",572.9103,74.92546,185.7448
"42110",572.9236,74.881516,185.54227
"42111",572.9369,74.94011,185.4409
"42112",572.9502,75.25994,185.60262
"42113",572.9635,76.019226,186.21378
"42114",572.9768,77.349815,187.41997
"42115",572.9901,79.273674,189.261
"42116",573.0034,81.67605,191.64067
"42117",573.0167,84.300606,194.31761
"42118",573.03,86.80553,196.95692
"42119",573.04333,88.87831,199.24239
"42120",573.05664,90.29435,200.93587
"42121",573.06995,90.951096,201.9143
"42122",573.08325,90.87785,202.18329
"42123",573.09656,90.196686,201.84206
"42124",573.10986,89.08827,201.05229
"42125",573.12317,87.75769,200.00572
"42126",573.1365,86.37339,198.86385
"42127",573.1498,85.06966,197.75928
"42128",573.1631,83.90997,196.75803
"42129",573.1764,82.90654,195.87679
"42130",573.1897,82.039825,195.1009
"42131",573.203,81.29763,194.42245
"42132",573.2163,80.68482,193.8502
"42133",573.2296,80.23071,193.4175
"42134",573.2429,79.97925,193.17325
"42135",573.2562,79.957275,193.15063
"42136",573.26953,80.15259,193.3446
"42137",573.28284,80.51881,193.71559
"42138",573.29614,80.970474,194.18347
"42139",573.30945,81.41238,194.6557
"42140",573.32275,81.74685,195.03432
"42141",573.33606,81.90311,195.24516
"42142",573.34937,81.83719,195.23872
"42143",573.3627,81.55642,195.01537
"42144",573.376,81.08522,194.5928
"42145",573.3893,80.482185,194.02368
"42146",573.4026,79.80591,193.36247
"42147",573.4159,79.114975,192.66547
"42148",573.4292,78.45823,191.98106
"42149",573.4425,77.86496,191.33961
"42150",573.4558,77.35958,190.76752
"42151",573.4691,76.944534,190.26996
"42152",573.4824,76.61738,189.84732
"42153",573.4957,76.35615,189.48038
"42154",573.50903,76.14862,189.15898
"42155",573.52234,75.99237,188.88237
"42156",573.53564,75.86542,188.63017
"42157",573.54895,75.76288,188.39842
"42158",573.56226,75.67498,188.17812
"42159",573.57556,75.60174,187.96971
"42160",573.58887,75.53582,187.76634
"42161",573.6022,75.47723,187.56824
"42162",573.6155,75.421074,187.37074
"42163",573.6288,75.36736,187.17393
"42164",573.6421,75.30389,186.96568
"42165",573.6554,75.22331,186.73836
"42166",573.6687,75.140305,186.50607
"42167",573.682,75.089035,186.30293
"42168",573.6953,75.15251,186.21294
"42169",573.7086,75.48211,186.39105
"42170",573.7219,76.263374,187.03113
"42171",573.7352,77.628136,188.27911
"42172",573.74854,79.605705,190.18256
"42173",573.76184,82.08865,192.65318
"42174",573.77515,84.82063,195.45044
"42175",573.78845,87.45983,198.24028
"42176",573.80176,89.671776,200.68535
"42177",573.81506,91.22453,202.54034
"42178",573.82837,92.01068,203.67726
"42179",573.8417,92.04974,204.09166
"42180",573.855,91.46868,203.88715
"42181",573.8683,90.4506,203.22746
"42182",573.8816,89.20302,202.30646
"42183",573.8949,87.9115,201.30254
"42184",573.9082,86.70298,200.34125
"42185",573.9215,85.64095,199.4887
"42186",573.9348,84.73029,198.75432
"42187",573.9481,83.93439,198.10623
"42188",573.9614,83.211716,197.50652
"42189",573.97473,82.55253,196.9477
"42190",573.98804,81.96658,196.44151
"42191",574.00134,81.495384,196.03177
"42192",574.01465,81.180435,195.76355
"42193",574.02795,81.041275,195.66129
"42194",574.04126,81.06569,195.71825
"42195",574.05457,81.20485,195.89072
"42196",574.0679,81.38796,196.11148
"42197",574.0812,81.53445,196.30135
"42198",574.0945,81.57595,196.39081
"42199",574.1078,81.463646,196.32776
"42200",574.1211,81.17311,196.08296
"42201",574.1344,80.72144,195.66795
"42202",574.1477,80.14526,195.11432
"42203",574.161,79.4934,194.467
"42204",574.1743,78.82201,193.77977
"42205",574.1876,78.170135,193.09108
"42206",574.2009,77.574425,192.43819
"42207",574.21423,77.051956,191.83992
"42208",574.22754,76.60517,191.30101
"42209",574.24084,76.224304,190.81406
"42210",574.25415,75.911804,190.38356
"42211",574.26746,75.648125,189.99213
"42212",574.28076,75.4284,189.6364
"42213",574.29407,75.23552,189.30066
"42214",574.3074,75.06706,188.9833
"42215",574.3207,74.915695,188.67778
"42216",574.334,74.78142,188.38461
"42217",574.3473,74.666664,188.10678
"42218",574.3606,74.57389,187.84734
"42219",574.3739,74.510414,187.61429
"42220",574.3872,74.46647,187.39879
"42221",574.4005,74.43961,187.199
"42222",574.4138,74.42252,187.00815
"42223",574.4271,74.41032,186.82164
"42224",574.4404,74.38834,186.62498
"42225",574.45374,74.356606,186.41788
"42226",574.46704,74.31022,186.19513
"42227",574.48035,74.268715,185.97581
"42228",574.49365,74.28336,185.81136
"42229",574.50696,74.476234,185.82558
"42230",574.52026,75.02312,186.19984
"42231",574.53357,76.09979,187.12099
"42232",574.5469,77.79172,188.69102
"42233",574.5602,80.05737,190.88766
"42234",574.5735,82.701454,193.53354
"42235",574.5868,85.41634,196.33286
"42236",574.6001,87.84314,198.92891
"42237",574.6134,89.7084,201.03926
"42238",574.6267,90.85344,202.48769
"42239",574.64,91.2636,203.23701
"42240",574.6533,91.0341,203.3595
"42241",574.6666,90.34318,203.01338
"42242",574.67993,89.408104,202.40154
"42243",574.69324,88.4242,201.71164
"42244",574.70654,87.52819,201.07889
"42245",574.71985,86.78844,200.57439
"42246",574.73315,86.202484,200.20058
"42247",574.74646,85.69955,199.89146
"42248",574.75977,85.20393,199.57396
"42249",574.7731,84.65217,199.18481
"42250",574.7864,84.02228,198.7003
"42251",574.7997,83.34356,198.14728
"42252",574.813,82.6746,197.58281
"42253",574.8263,82.08377,197.07556
"42254",574.8396,81.617455,196.67436
"42255",574.8529,81.29519,196.40265
"42256",574.8662,81.10231,196.25024
"42257",574.8795,80.987564,196.16995
"42258",574.8928,80.902115,196.11537
"42259",574.9061,80.782486,196.02394
"42260",574.91943,80.584724,195.85063
"42261",574.93274,80.28687,195.57106
"42262",574.94604,79.88159,195.17474
"42263",574.95935,79.39086,194.68031
"42264",574.97266,78.83421,194.10463
"42265",574.98596,78.25315,193.48714
"42266",574.99927,77.67696,192.85635
"42267",575.0126,77.13008,192.23688
"42268",575.0259,76.63447,191.65158
"42269",575.0392,76.19745,191.10939
"42270",575.0525,75.81903,190.61214
"42271",575.0658,75.48943,190.15189
"42272",575.0791,75.20378,189.72528
"42273",575.0924,74.9572,189.32881
"42274",575.1057,74.75212,188.96614
"42275",575.119,74.57877,188.6288
"42276",575.1323,74.43473,188.31534
"42277",575.1456,74.3151,188.02179
"42278",575.15894,74.21744,187.74648
"42279",575.17224,74.13443,187.48276
"42280",575.18555,74.06607,187.2311
"42281",575.19885,74.0148,186.99438
"42282",575.21216,73.97818,186.77072
"42283",575.22546,73.951324,186.55568
"42284",575.2388,73.92691,186.34224
"42285",575.2521,73.89029,186.11583
"42286",575.2654,73.8439,185.87851
"42287",575.2787,73.77066,185.61288
"42288",575.292,73.6852,185.33276
"42289",575.3053,73.60464,185.05486
"42290",575.3186,73.59487,184.84523
"42291",575.3319,73.77554,184.82574
"42292",575.3452,74.30045,185.15614
"42293",575.3585,75.30633,185.9839
"42294",575.3718,76.8542,187.3851
"42295",575.38513,78.8806,189.31319
"42296",575.39844,81.18288,191.58047
"42297",575.41174,83.47784,193.9124
"42298",575.42505,85.46517,196.00842
"42299",575.43835,86.92027,197.63431
"42300",575.45166,87.745476,198.67577
"42301",575.46497,87.96521,199.13754
"42302",575.4783,87.69421,199.11545
"42303",575.4916,87.10094,198.76262
"42304",575.5049,86.366066,198.24965
"42305",575.5182,85.628746,197.71127
"42306",575.5315,84.99153,197.24995
"42307",575.5448,84.48127,196.89568
"42308",575.5581,84.06378,196.61823
"42309",575.5714,83.67315,196.35458
"42310",575.5847,83.24101,196.03723
"42311",575.598,82.735634,195.63313
"42312",575.6113,82.16678,195.14977
"42313",575.62463,81.583275,194.63397
"42314",575.63794,81.058365,194.15854
"42315",575.65125,80.655525,193.78877
"42316",575.66455,80.39185,193.5456
"42317",575.67786,80.2649,193.4309
"42318",575.69116,80.23804,193.41231
"42319",575.70447,80.25269,193.4344
"42320",575.7178,80.25025,193.43987
"42321",575.7311,80.17944,193.37688
"42322",575.7444,80.01343,193.21646
"42323",575.7577,79.73998,192.94344
"42324",575.771,79.37133,192.56665
"42325",575.7843,78.93187,192.10754
"42326",575.7976,78.45335,191.59564
"42327",575.8109,77.9675,191.06146
"42328",575.8242,77.50118,190.53163
"42329",575.8375,77.07149,190.02385
"42330",575.8508,76.69062,189.55147
"42331",575.86414,76.36591,189.12334
"42332",575.87744,76.087585,188.73145
"42333",575.89075,75.85565,188.37724
"42334",575.90405,75.667656,188.05974
"42335",575.91736,75.52117,187.77786
"42336",575.93066,75.406425,187.52315
"42337",575.944,75.32342,187.29659
"42338",575.9573,75.26238,187.0894
"42339",575.9706,75.22087,186.89984
"42340",575.9839,75.191574,186.72119
"42341",575.9972,75.17204,186.55139
"42342",576.0105,75.157394,186.38586
"42343",576.0238,75.15495,186.23209
"42344",576.0371,75.15495,186.08067
"42345",576.0504,75.157394,185.9317
"42346",576.0637,75.157394,185.78036
"42347",576.077,75.15251,185.62415
"42348",576.09033,75.13542,185.45557
"42349",576.10364,75.10124,185.26936
"42350",576.11694,75.04997,185.065
"42351",576.13025,74.984055,184.84439
"42352",576.14355,74.91814,184.62172
"42353",576.15686,74.88396,184.42873
"42354",576.17017,74.95964,184.34453
"42355",576.1835,75.267265,184.49464
"42356",576.1968,75.95087,185.03035
"42357",576.2101,77.09834,186.05128
"42358",576.2234,78.70237,187.56464
"42359",576.2367,80.638435,189.46014
"42360",576.25,82.669716,191.51138
"42361",576.2633,84.52033,193.44543
"42362",576.2766,85.94858,195.01494
"42363",576.2899,86.82506,196.07732
"42364",576.3032,87.12779,196.59334
"42365",576.3165,86.93248,196.62077
"42366",576.32983,86.37583,196.28076
"42367",576.34314,85.62386,195.72804
"42368",576.35645,84.823074,195.103
"42369",576.36975,84.088196,194.51884
"42370",576.38306,83.46807,194.02647
"42371",576.39636,82.9749,193.64168
"42372",576.40967,82.55985,193.3196
"42373",576.423,82.1741,193.01384
"42374",576.4363,81.7908,192.69849
"42375",576.4496,81.41238,192.37602
"42376",576.4629,81.07301,192.0808
"42377",576.4762,80.82155,191.86287
"42378",576.4895,80.69947,191.76646
"42379",576.5028,80.71168,191.80054
"42380",576.5161,80.833755,191.94485
"42381",576.5294,81.00954,192.1467
"42382",576.5427,81.17555,192.34427
"42383",576.556,81.27322,192.47867
"42384",576.56934,81.25857,192.50381
"42385",576.58264,81.112076,192.39665
"42386",576.59595,80.83864,192.15797
"42387",576.60925,80.462654,191.8082
"42388",576.62256,80.02075,191.38075
"42389",576.63586,79.55688,190.91753
"42390",576.6492,79.10277,190.44957
"42391",576.6625,78.692604,190.01137
"42392",576.6758,78.33616,189.61406
"42393",576.6891,78.04562,189.27153
"42394",576.7024,77.80881,188.97363
"42395",576.7157,77.62081,188.71716
"42396",576.729,77.469444,188.49144
"42397",576.7423,77.35226,188.29517
"42398",576.7556,77.25704,188.1172
"42399",576.7689,77.17403,187.94847
"42400",576.7822,77.09834,187.78447
"42401",576.79553,77.02754,187.62299
"42402",576.80884,76.961624,187.46417
"42403",576.82214,76.90059,187.30818
"42404",576.83545,76.85176,187.16249
"42405",576.84875,76.807816,187.02016
"42406",576.86206,76.76875,186.88133
"42407",576.87537,76.72968,186.74129
"42408",576.8887,76.6955,186.6049
"42409",576.902,76.65156,186.45769
"42410",576.9153,76.595406,186.29689
"42411",576.9286,76.52949,186.12457
"42412",576.9419,76.45136,185.93799
"42413",576.9552,76.383,185.75873
"42414",576.9685,76.37568,185.63837
"42415",576.9818,76.53925,185.68867
"42416",576.9951,77.00069,186.04196
"42417",577.0084,77.86252,186.81006
"42418",577.0217,79.149155,188.02989
"42419",577.03503,80.77272,189.62686
"42420",577.04834,82.54032,191.41861
"42421",577.06165,84.210266,193.16794
"42422",577.07495,85.54574,194.63498
"42423",577.08826,86.39536,195.65791
"42424",577.10156,86.727394,196.1898
"42425",577.11487,86.590675,196.26332
"42426",577.1282,86.099945,195.97855
"42427",577.1415,85.39681,195.46603
"42428",577.1548,84.63508,194.87296
"42429",577.1681,83.92218,194.3049
"42430",577.1814,83.32159,193.82687
"42431",577.1947,82.84062,193.4497
"42432",577.208,82.44755,193.1454
"42433",577.2213,82.08377,192.85811
"42434",577.2346,81.71755,192.557
"42435",577.2479,81.35134,192.24448
"42436",577.2612,81.01686,191.95222
"42437",577.27454,80.75563,191.72278
"42438",577.28784,80.60914,191.5999
"42439",577.30115,80.58961,191.59941
"42440",577.31445,80.672615,191.70085
"42441",577.32776,80.8069,191.85616
"42442",577.34106,80.938736,192.01321
"42443",577.3544,81.01686,192.12068
"42444",577.3677,80.99489,192.1305
"42445",577.381,80.85817,192.02487
"42446",577.3943,80.604256,191.79778
"42447",577.4076,80.255135,191.46754
"42448",577.4209,79.84253,191.06291
"42449",577.4342,79.40795,190.62341
"42450",577.4475,78.98558,190.18254
"42451",577.4608,78.60227,189.76753
"42452",577.4741,78.27268,189.39426
"42453",577.4874,78.00656,189.07416
"42454",577.50073,77.786835,188.79213
"42455",577.51404,77.608604,188.54474
"42456",577.52734,77.45968,188.32108
"42457",577.54065,77.33517,188.11717
"42458",577.55396,77.23262,187.93135
"42459",577.56726,77.14473,187.75697
"42460",577.58057,77.06416,187.58717
"42461",577.5939,76.99092,187.42218
"42462",577.6072,76.925,187.26222
"42463",577.6205,76.86153,187.10265
"42464",577.6338,76.807816,186.95085
"42465",577.6471,76.76387,186.80714
"42466",577.6604,76.7248,186.66695
"42467",577.6737,76.68818,186.52797
"42468",577.687,76.66132,186.39761
"42469",577.7003,76.63691,186.26886
"42470",577.7136,76.62226,186.14911
"42471",577.7269,76.61494,186.03622
"42472",577.74023,76.612495,185.928
"42473",577.75354,76.610054,185.81969
"42474",577.76685,76.595406,185.6991
"42475",577.78015,76.56611,185.5634
"42476",577.79346,76.51728,185.40726
"42477",577.80676,76.45869,185.23982
"42478",577.82007,76.39765,185.06812
"42479",577.8334,76.368355,184.92624
"42480",577.8467,76.45869,184.90308
"42481",577.86,76.79805,185.13177
"42482",577.8733,77.51827,185.75194
"42483",577.8866,78.68284,186.83894
"42484",577.8999,80.26002,188.37495
"42485",577.9132,82.08865,190.21172
"42486",577.9265,83.9173,192.10564
"42487",577.9398,85.48226,193.79301
"42488",577.9531,86.58579,195.06787
"42489",577.96643,87.14244,195.83032
"42490",577.97974,87.19127,196.10236
"42491",577.99304,86.83971,195.97552
"42492",578.00635,86.24155,195.59111
"42493",578.01965,85.555504,195.10011
"42494",578.03296,84.91585,194.63406
"42495",578.04626,84.4007,194.27254
"42496",578.0596,84.034485,194.04384
"42497",578.0729,83.78302,193.91846
"42498",578.0862,83.5877,193.84135
"42499",578.0995,83.3753,193.74107
"42500",578.1128,83.09453,193.56578
"42501",578.1261,82.72831,193.29626
"42502",578.1394,82.30595,192.95917
"42503",578.1527,81.881134,192.60641
"42504",578.166,81.50515,192.28922
"42505",578.1793,81.22438,192.05548
"42506",578.1926,81.06569,191.93506
"42507",578.20593,81.00954,191.91222
"42508",578.21924,81.024185,191.95842
"42509",578.23254,81.05592,192.02217
"42510",578.24585,81.05348,192.05273
"42511",578.25916,80.98024,192.01242
"42512",578.27246,80.814224,191.87704
"42513",578.28577,80.55787,191.64613
"42514",578.2991,80.233154,191.33885
"42515",578.3124,79.8645,190.97748
"42516",578.3257,79.47875,190.5875
"42517",578.339,79.09544,190.1879
"42518",578.3523,78.73899,189.80318
"42519",578.3656,78.41184,189.43661
"42520",578.3789,78.12619,189.10133
"42521",578.3922,77.87961,188.79619
"42522",578.4055,77.66964,188.51996
"42523",578.4188,77.49386,188.27135
"42524",578.4321,77.349815,188.04898
"42525",578.44543,77.23018,187.84653
"42526",578.45874,77.13252,187.66231
"42527",578.47205,77.04707,187.48724
"42528",578.48535,76.97627,187.32416
"42529",578.49866,76.90791,187.1613
"42530",578.51196,76.839554,186.9963
"42531",578.52527,76.77608,186.83406
"42532",578.5386,76.71259,186.66983
"42533",578.5519,76.64912,186.50362
"42534",578.5652,76.58808,186.33786
"42535",578.5785,76.52949,186.17264
"42536",578.5918,76.470894,186.00558
"42537",578.6051,76.41718,185.84158
"42538",578.6184,76.368355,185.68079
"42539",578.6317,76.32685,185.52579
"42540",578.645,76.28535,185.36949
"42541",578.6583,76.24628,185.21434
"42542",578.67163,76.2121,185.06285
"42543",578.68494,76.18524,184.91762
"42544",578.69824,76.16571,184.77887
"42545",578.71155,76.1535,184.64684
"42546",578.72485,76.138855,184.51198
"42547",578.73816,76.11444,184.3669
"42548",578.75146,76.08026,184.21129
"42549",578.7648,76.03143,184.03996
"42550",578.7781,75.982605,183.86711
"42551",578.7914,75.98016,183.73912
"42552",578.8047,76.13397,183.7673
"42553",578.818,76.57343,184.08595
"42554",578.8313,77.418175,184.82361
"42555",578.8446,78.69749,186.02223
"42556",578.8579,80.3357,187.61974
"42557",578.8712,82.13992,189.43445
"42558",578.8845,83.85138,191.21278
"42559",578.8978,85.23079,192.71255
"42560",578.91113,86.12436,193.76959
"42561",578.92444,86.4979,194.33452
"42562",578.93774,86.40269,194.44237
"42563",578.95105,85.96323,194.20299
"42564",578.96436,85.32845,193.75456
"42565",578.97766,84.63508,193.2277
"42566",578.99097,83.99786,192.73534
"42567",579.0043,83.48272,192.34512
"42568",579.0176,83.11894,192.09018
"42569",579.0309,82.8748,191.94351
"42570",579.0442,82.69413,191.85268
"42571",579.0575,82.51591,191.75865
"42572",579.0708,82.2913,191.61267
"42573",579.0841,82.01297,191.40594
"42574",579.0974,81.69558,191.15146
"42575",579.1107,81.392845,190.90172
"42576",579.124,81.1487,190.7011
"42577",579.1373,80.99733,190.58563
"42578",579.15063,80.94362,190.5631
"42579",579.16394,80.96803,190.617
"42580",579.17725,81.03151,190.71074
"42581",579.19055,81.0901,190.80157
"42582",579.20386,81.094986,190.84053
"42583",579.21716,81.01686,190.79663
"42584",579.23047,80.84596,190.65752
"42585",579.2438,80.59205,190.43004
"42586",579.2571,80.274666,190.13116
"42587",579.2704,79.923096,189.78818
"42588",579.2837,79.55932,189.422
"42589",579.297,79.20531,189.05421
"42590",579.3103,78.8806,188.70467
"42591",579.3236,78.58518,188.37427
"42592",579.3369,78.331276,188.07614
"42593",579.3502,78.12131,187.81403
"42594",579.3635,77.95773,187.59174
"42595",579.37683,77.838104,187.40828
"42596",579.39014,77.74532,187.24794
"42597",579.40344,77.67696,187.10912
"42598",579.41675,77.62081,186.98036
"42599",579.43005,77.5671,186.8523
"42600",579.44336,77.51339,186.72255
"42601",579.45667,77.45968,186.59113
"42602",579.47,77.40597,186.45802
"42603",579.4833,77.3547,186.32568
"42604",579.4966,77.31075,186.19907
"42605",579.5099,77.27169,186.07596
"42606",579.5232,77.239944,185.95895
"42607",579.5365,77.21309,185.84584
"42608",579.5498,77.19356,185.73921
"42609",579.5631,77.17891,185.63686
"42610",579.5764,77.16426,185.53404
"42611",579.5897,77.14229,185.42345
"42612",579.603,77.11543,185.30728
"42613",579.61633,77.07393,185.17563
"42614",579.62964,77.01289,185.02315
"42615",579.64294,76.944534,184.86143
"42616",579.65625,76.88838,184.7098
"42617",579.66956,76.895706,184.61987
"42618",579.68286,77.05928,184.68643
"42619",579.69617,77.50118,185.03644
"42620",579.7095,78.30198,185.75914
"42621",579.7228,79.47143,186.87552
"42622",579.7361,80.91676,188.30434
"42623",579.7494,82.46464,189.88086
"42624",579.7627,83.88312,191.37636
"42625",579.776,84.97444,192.58904
"42626",579.7893,85.62386,193.3939
"42627",579.8026,85.80209,193.74788
"42628",579.8159,85.56527,193.69237
"42629",579.8292,85.02815,193.32916
"42630",579.8425,84.317696,192.77583
"42631",579.85583,83.5584,192.15147
"42632",579.86914,82.85039,191.55466
"42633",579.88245,82.25956,191.0529
"42634",579.89575,81.795685,190.65964
"42635",579.90906,81.43679,190.35686
"42636",579.92236,81.14137,190.10634
"42637",579.93567,80.88747,189.8881
"42638",579.949,80.66041,189.68878
"42639",579.9623,80.482185,189.5312
"42640",579.9756,80.38453,189.44862
"42641",579.9889,80.38941,189.46553
"42642",580.0022,80.50172,189.59001
"42643",580.0155,80.69459,189.79857
"42644",580.0288,80.92409,190.04977
"42645",580.0421,81.13405,190.28862
"42646",580.0554,81.270775,190.46078
"42647",580.0687,81.30007,190.5298
"42648",580.08203,81.20485,190.4752
"42649",580.09534,80.99245,190.30046
"42650",580.10864,80.68726,190.02629
"42651",580.12195,80.32838,189.68889
"42652",580.13525,79.94995,189.32072
"42653",580.14856,79.58129,188.9505
"42654",580.16187,79.24437,188.6005
"42655",580.1752,78.96117,188.29367
"42656",580.1885,78.73167,188.03171
"42657",580.2018,78.551,187.8114
"42658",580.2151,78.41184,187.62695
"42659",580.2284,78.30198,187.46745
"42660",580.2417,78.21408,187.32649
"42661",580.255,78.1384,187.19499
"42662",580.2683,78.07248,187.07089
"42663",580.2816,78.013885,186.95206
"42664",580.2949,77.9675,186.8436
"42665",580.3082,77.92111,186.73369
"42666",580.32153,77.872284,186.61989
"42667",580.33484,77.83322,186.51433
"42668",580.34814,77.7966,186.40999
"42669",580.36145,77.76242,186.30695
"42670",580.37476,77.73556,186.21016
"42671",580.38806,77.71847,186.1223
"42672",580.40137,77.70382,186.03635
"42673",580.4147,77.68917,185.94994
"42674",580.428,77.66476,185.8533
"42675",580.4413,77.63058,185.74614
"42676",580.4546,77.58419,185.6257
"42677",580.4679,77.53292,185.49893
"42678",580.4812,77.49386,185.38277
"42679",580.4945,77.51095,185.32153
"42680",580.5078,77.679405,185.4122
"42681",580.5211,78.118866,185.77914
"42682",580.5344,78.924545,186.52603
"42683",580.5477,80.11597,187.68384
"42684",580.56104,81.617455,189.18895
"42685",580.57434,83.245895,190.86794
"42686",580.58765,84.76204,192.48552
"42687",580.60095,85.95102,193.82332
"42688",580.61426,86.68101,194.73927
"42689",580.62756,86.925156,195.1922
"42690",580.64087,86.73716,195.22061
"42691",580.6542,86.23422,194.9282
"42692",580.6675,85.54818,194.43698
"42693",580.6808,84.81087,193.87305
"42694",580.6941,84.1297,193.34222
"42695",580.7074,83.57061,192.91219
"42696",580.7207,83.15312,192.60628
"42697",580.734,82.85283,192.40453
"42698",580.7473,82.616005,192.25685
"42699",580.7606,82.39628,192.11888
"42700",580.7739,82.15701,191.9545
"42701",580.78723,81.900665,191.76556
"42702",580.80054,81.651634,191.57593
"42703",580.81384,81.45144,191.42735
"42704",580.82715,81.32937,191.35065
"42705",580.84045,81.29763,191.36046
"42706",580.85376,81.341576,191.44496
"42707",580.86707,81.42458,191.5699
"42708",580.8804,81.50759,191.69743
"42709",580.8937,81.549095,191.78606
"42710",580.907,81.51003,191.79541
"42711",580.9203,81.3782,191.71077
"42712",580.9336,81.15114,191.52678
"42713",580.9469,80.85329,191.26491
"42714",580.9602,80.5066,190.94489
"42715",580.9735,80.14526,190.59938
"42716",580.9868,79.79614,190.25479
"42717",581.0001,79.47387,189.92615
"42718",581.0134,79.19066,189.6265
"42719",581.02673,78.94652,189.35706
"42720",581.04004,78.73655,189.11417
"42721",581.05334,78.56321,188.90134
"42722",581.06665,78.42161,188.71483
"42723",581.07996,78.30198,188.54587
"42724",581.09326,78.204315,188.39514
"42725",581.10657,78.12131,188.25601
"42726",581.1199,78.04562,188.12161
"42727",581.1332,77.97482,187.98973
"42728",581.1465,77.91135,187.86296
"42729",581.1598,77.855194,187.74153
"42730",581.1731,77.803925,187.62323
"42731",581.1864,77.76242,187.51309
"42732",581.1997,77.72335,187.4041
"42733",581.213,77.68673,187.29633
"42734",581.2263,77.65255,187.18985
"42735",581.2396,77.62081,187.08475
"42736",581.2529,77.593956,186.98354
"42737",581.26624,77.574425,186.88881
"42738",581.27954,77.557335,186.79591
"42739",581.29285,77.540245,186.70248
"42740",581.30615,77.52804,186.6134
"42741",581.31946,77.50851,186.51662
"42742",581.33276,77.486534,186.41678
"42743",581.34607,77.452354,186.30405
"42744",581.3594,77.41085,186.18292
"42745",581.3727,77.3547,186.04585
"42746",581.386,77.296104,185.90459
"42747",581.3993,77.261925,185.7859
"42748",581.4126,77.330284,185.76869
"42749",581.4259,77.63058,185.98555
"42750",581.4392,78.294655,186.57558
"42751",581.4525,79.40551,187.63313
"42752",581.4658,80.938736,189.14778
"42753",581.4791,82.74784,190.98622
"42754",581.49243,84.593575,192.91783
"42755",581.50574,86.22446,194.69226
"42756",581.51904,87.42565,196.08797
"42757",581.53235,88.10193,196.99629
"42758",581.54565,88.25086,197.3984
"42759",581.55896,87.957886,197.36327
"42760",581.57227,87.35241,197.00647
"42761",581.5856,86.58335,196.46718
"42762",581.5989,85.787445,195.877
"42763",581.6122,85.07942,195.34984
"42764",581.6255,84.51789,194.94704
"42765",581.6388,84.11017,194.6805
"42766",581.6521,83.81964,194.51842
"42767",581.6654,83.580376,194.39851
"42768",581.6787,83.33868,194.2687
"42769",581.692,83.05791,194.09227
"42770",581.7053,82.74052,193.87044
"42771",581.7186,82.423134,193.6387
"42772",581.73193,82.14725,193.43854
"42773",581.74524,81.94705,193.30545
"42774",581.75854,81.83719,193.25644
"42775",581.77185,81.80545,193.28212
"42776",581.78516,81.8201,193.3532
"42777",581.79846,81.83963,193.42961
"42778",581.81177,81.8201,193.46758
"42779",581.8251,81.7322,193.43655
"42780",581.8384,81.55886,193.31735
"42781",581.8517,81.29763,193.10484
"42782",581.865,80.96315,192.81091
"42783",581.8783,80.57984,192.4577
"42784",581.8916,80.16968,192.06566
"42785",581.9049,79.75952,191.6608
"42786",581.9182,79.36889,191.26265
"42787",581.9315,79.012436,190.88647
"42788",581.9448,78.70237,190.54555
"42789",581.9581,78.43626,190.23888
"42790",581.97144,78.2092,189.96295
"42791",581.98474,78.01877,189.71655
"42792",581.99805,77.86008,189.49594
"42793",582.01135,77.72579,189.29478
"42794",582.02466,77.611046,189.10896
"42795",582.03796,77.51095,188.9342
"42796",582.0513,77.420616,188.76608
"42797",582.0646,77.33517,188.60002
"42798",582.0779,77.25704,188.43861
"42799",582.0912,77.18623,188.28209
"42800",582.1045,77.1252,188.13312
"42801",582.1178,77.07149,187.98956
"42802",582.1311,77.02266,187.84921
"42803",582.1444,76.978714,187.71222
"42804",582.1577,76.93965,187.57874
"42805",582.171,76.90547,187.44891
"42806",582.1843,76.876175,187.3229
"42807",582.19763,76.84932,187.19843
"42808",582.21094,76.81758,187.06822
"42809",582.22424,76.788284,186.93947
"42810",582.23755,76.754105,186.80492
"42811",582.25085,76.715034,186.66441
"42812",582.26416,76.663765,186.51048
"42813",582.27747,76.60273,186.34518
"42814",582.2908,76.53437,186.17065
"42815",582.3041,76.48066,186.00864
"42816",582.3174,76.51484,185.93283
"42817",582.3307,76.756546,186.06563
"42818",582.344,77.33761,186.54533
"42819",582.3573,78.35325,187.47777
"42820",582.3706,79.79126,188.86432
"42821",582.3839,81.53689,190.60342
"42822",582.3972,83.36797,192.48254
"42823",582.4105,85.02815,194.24797
"42824",582.4238,86.29282,195.66977
"42825",582.43713,87.03746,196.61105
"42826",582.45044,87.237656,197.03117
"42827",582.46375,86.959335,196.97903
"42828",582.47705,86.32212,196.5593
"42829",582.49036,85.48226,195.917
"42830",582.50366,84.58137,195.18744
"42831",582.51697,83.736626,194.48587
"42832",582.5303,83.02861,193.89462
"42833",582.5436,82.48173,193.44238
"42834",582.5569,82.07156,193.10977
"42835",582.5702,81.74929,192.85223
"42836",582.5835,81.47341,192.63103
"42837",582.5968,81.20973,192.41339
"42838",582.6101,80.96315,192.20462
"42839",582.6234,80.765396,192.03697
"42840",582.6367,80.64088,191.93637
"42841",582.65,80.61158,191.92711
"42842",582.6633,80.672615,192.00726
"42843",582.67664,80.799576,192.15524
"42844",582.68994,80.94118,192.32184
"42845",582.70325,81.058365,192.46844
"42846",582.71655,81.10719,192.55035
"42847",582.72986,81.05348,192.53125
"42848",582.74316,80.88014,192.39084
"42849",582.7565,80.604256,192.14246
"42850",582.7698,80.24292,191.8
"42851",582.7831,79.83765,191.40231
"42852",582.7964,79.42016,190.97975
"42853",582.8097,79.02464,190.56612
"42854",582.823,78.67307,190.18407
"42855",582.8363,78.37766,189.84718
"42856",582.8496,78.1384,189.55722
"42857",582.8629,77.94797,189.30861
"42858",582.8762,77.806366,189.10287
"42859",582.8895,77.696495,188.92445
"42860",582.90283,77.608604,188.76457
"42861",582.91614,77.53536,188.6166
"42862",582.92944,77.469444,188.47365
"42863",582.94275,77.40841,188.33353
"42864",582.95605,77.347374,188.1915
"42865",582.96936,77.29122,188.05244
"42866",582.98267,77.24727,187.92384
"42867",582.996,77.21065,187.8012
"42868",583.0093,77.18135,187.68472
"42869",583.0226,77.152054,187.56734
"42870",583.0359,77.120316,187.4466
"42871",583.0492,77.086136,187.32242
"42872",583.0625,77.04707,187.19229
"42873",583.0758,77.00313,187.05606
"42874",583.0891,76.9543,186.91357
"42875",583.1024,76.90303,186.76712
"42876",583.1157,76.8542,186.6215
"42877",583.129,76.84932,186.51831
"42878",583.14233,76.99092,186.56145
"42879",583.15564,77.3962,186.8727
"42880",583.16895,78.17502,187.57014
"42881",583.18225,79.36645,188.70454
"42882",583.19556,80.89967,190.21797
"42883",583.20886,82.59647,191.94289
"42884",583.22217,84.224915,193.65247
"42885",583.2355,85.55062,195.1102
"42886",583.2488,86.42222,196.15526
"42887",583.2621,86.77867,196.7124
"42888",583.2754,86.65415,196.79971
"42889",583.2887,86.14145,196.49495
"42890",583.302,85.3724,195.91782
"42891",583.3153,84.48615,195.19946
"42892",583.3286,83.60967,194.46318
"42893",583.3419,82.83086,193.79716
"42894",583.3552,82.193634,193.24841
"42895",583.3685,81.69558,192.81891
"42896",583.38184,81.29763,192.47395
"42897",583.39514,80.96803,192.1849
"42898",583.40845,80.689705,191.93683
"42899",583.42175,80.47242,191.7411
"42900",583.43506,80.34058,191.62404
"42901",583.44836,80.32838,191.62248
"42902",583.4617,80.4358,191.74017
"42903",583.475,80.64088,191.95888
"42904",583.4883,80.88747,192.2255
"42905",583.5016,81.11696,192.48273
"42906",583.5149,81.27566,192.67633
"42907",583.5282,81.322044,192.76259
"42908",583.5415,81.24147,192.72333
"42909",583.5548,81.03639,192.55705
"42910",583.5681,80.72877,192.28181
"42911",583.5814,80.34791,191.92374
"42912",583.5947,79.9353,191.522
"42913",583.60803,79.520256,191.10493
"42914",583.62134,79.132065,190.70175
"42915",583.63464,78.79027,190.33282
"42916",583.64795,78.504616,190.00937
"42917",583.66125,78.28001,189.73802
"42918",583.67456,78.10422,189.50848
"42919",583.68787,77.96994,189.31496
"42920",583.7012,77.86496,189.14653
"42921",583.7145,77.77463,188.98947
"42922",583.7278,77.69405,188.83936
"42923",583.7411,77.61837,188.6916
"42924",583.7544,77.55001,188.54881
"42925",583.7677,77.486534,188.40877
"42926",583.781,77.43282,188.2765
"42927",583.7943,77.38644,188.14989
"42928",583.8076,77.34493,188.0267
"42929",583.8209,77.30831,187.9071
"42930",583.8342,77.27657,187.79124
"42931",583.84753,77.24971,187.67928
"42932",583.86084,77.23262,187.57623
"42933",583.87415,77.22041,187.47754
"42934",583.88745,77.21553,187.38579
"42935",583.90076,77.21309,187.29633
"42936",583.91406,77.205765,187.2019
"42937",583.92737,77.196,187.10481
"42938",583.9407,77.17647,186.99765
"42939",583.954,77.13985,186.87279
"42940",583.9673,77.0959,186.73946
"42941",583.9806,77.069046,186.62184
"42942",583.9939,77.13252,186.59372
"42943",584.0072,77.420616,186.7922
"42944",584.0205,78.07248,187.36346
"42945",584.0338,79.17601,188.40675
"42946",584.0471,80.726326,189.93132
"42947",584.0604,82.60624,191.83394
"42948",584.0737,84.59113,193.90028
"42949",584.08704,86.41001,195.86264
"42950",584.10034,87.835815,197.48875
"42951",584.11365,88.72694,198.62474
"42952",584.12695,89.04921,199.21973
"42953",584.14026,88.85634,199.30965
"42954",584.15356,88.28016,199.01022
"42955",584.1669,87.47936,198.46819
"42956",584.1802,86.61021,197.83276
"42957",584.1935,85.79477,197.22389
"42958",584.2068,85.11604,196.72626
"42959",584.2201,84.596016,196.3661
"42960",584.2334,84.20294,196.11665
"42961",584.2467,83.88556,195.93062
"42962",584.26,83.59014,195.75662
"42963",584.2733,83.28008,195.55876
"42964",584.2866,82.95537,195.33655
"42965",584.2999,82.64042,195.11395
"42966",584.31323,82.37919,194.93524
"42967",584.32654,82.196075,194.82648
"42968",584.33984,82.10574,194.80478
"42969",584.35315,82.08621,194.85106
"42970",584.36646,82.11063,194.94067
"42971",584.37976,82.13016,195.02617
"42972",584.39307,82.10086,195.06345
"42973",584.4064,81.991,195.01924
"42974",584.4197,81.78836,194.87883
"42975",584.433,81.48806,194.63441
"42976",584.4463,81.112076,194.30493
"42977",584.4596,80.68482,193.91243
"42978",584.4729,80.23071,193.47972
"42979",584.4862,79.77905,193.03528
"42980",584.4995,79.34936,192.59868
"42981",584.5128,78.95384,192.18283
"42982",584.5261,78.60471,191.80101
"42983",584.5394,78.3093,191.46199
"42984",584.55273,78.06027,191.16013
"42985",584.56604,77.85031,190.88954
"42986",584.57935,77.66964,190.6417
"42987",584.59265,77.51583,190.41505
"42988",584.60596,77.37667,190.19826
"42989",584.61926,77.24727,189.98688
"42990",584.63257,77.13252,189.7861
"42991",584.6459,77.0251,189.58907
"42992",584.6592,76.927444,189.39844
"42993",584.6725,76.839554,189.21452
"42994",584.6858,76.754105,189.0303
"42995",584.6991,76.67597,188.85074
"42996",584.7124,76.60273,188.67361
"42997",584.7257,76.541695,188.50641
"42998",584.739,76.48798,188.34462
"42999",584.7523,76.44648,188.19336
"43000",584.7656,76.40986,188.04568
"43001",584.77893,76.38056,187.90419
"43002",584.79224,76.35371,187.76422
"43003",584.80554,76.32197,187.61853
"43004",584.81885,76.28779,187.4694
"43005",584.83215,76.25361,187.31921
"43006",584.84546,76.209656,187.15819
"43007",584.85876,76.1535,186.98358
"43008",584.8721,76.087585,186.79745
"43009",584.8854,76.0119,186.5995
"43010",584.8987,75.96063,186.4236
"43011",584.912,76.01434,186.35107
"43012",584.9253,76.3122,186.52438
"43013",584.9386,77.00557,187.10251
"43014",584.9519,78.187225,188.19058
"43015",584.9652,79.84497,189.79167
"43016",584.9785,81.849396,191.79126
"43017",584.9918,83.95636,193.95602
"43018",585.0051,85.875336,195.99864
"43019",585.01843,87.36706,197.67397
"43020",585.03174,88.28504,198.82217
"43021",585.04504,88.602425,199.39847
"43022",585.05835,88.3827,199.44757
"43023",585.07166,87.75769,199.08452
"43024",585.08496,86.89586,198.46512
"43025",585.09827,85.95834,197.7431
"43026",585.1116,85.084305,197.05527
"43027",585.1249,84.35676,196.4866
"43028",585.1382,83.80255,196.06854
"43029",585.1515,83.39727,195.78209
"43030",585.1648,83.075,195.56598
"43031",585.1781,82.777145,195.36423
"43032",585.1914,82.459755,195.13362
"43033",585.2047,82.12283,194.87357
"43034",585.218,81.78836,194.60544
"43035",585.2313,81.50027,194.37323
"43036",585.2446,81.290306,194.21016
"43037",585.25793,81.17799,194.13817
"43038",585.27124,81.146255,194.14325
"43039",585.28455,81.16579,194.19861
"43040",585.29785,81.19508,194.26434
"43041",585.31116,81.19264,194.29926
"43042",585.32446,81.11452,194.2584
"43043",585.33777,80.936295,194.11502
"43044",585.3511,80.66041,193.8684
"43045",585.3644,80.30152,193.53015
"43046",585.3777,79.88403,193.12209
"43047",585.391,79.44213,192.67656
"43048",585.4043,79.00267,192.21967
"43049",585.4176,78.58518,191.77101
"43050",585.4309,78.20187,191.34349
"43051",585.4442,77.86252,190.94794
"43052",585.4575,77.5671,190.58572
"43053",585.4708,77.315636,190.25822
"43054",585.48413,77.11055,189.96925
"43055",585.49744,76.93965,189.70805
"43056",585.51074,76.79805,189.47081
"43057",585.52405,76.6833,189.256
"43058",585.53735,76.5832,189.05225
"43059",585.55066,76.49531,188.85757
"43060",585.56396,76.41474,188.66748
"43061",585.5773,76.3415,188.4822
"43062",585.5906,76.27558,188.30194
"43063",585.6039,76.226746,188.13672
"43064",585.6172,76.190125,187.98218
"43065",585.6305,76.16815,187.84114
"43066",585.6438,76.15106,187.7043
"43067",585.6571,76.13397,187.56693
"43068",585.6704,76.11688,187.42902
"43069",585.6837,76.09735,187.28813
"43070",585.697,76.07538,187.1442
"43071",585.7103,76.050964,186.99713
"43072",585.72363,76.02167,186.84442
"43073",585.73694,75.982605,186.68103
"43074",585.75024,75.93378,186.50665
"43075",585.76355,75.89227,186.33807
"43076",585.77686,75.92401,186.24144
"43077",585.79016,76.14862,186.33867
"43078",585.80347,76.70527,186.77496
"43079",585.8168,77.70382,187.67055
"43080",585.8301,79.1638,189.05878
"43081",585.8434,80.98268,190.85152
"43082",585.8567,82.95293,192.85248
"43083",585.87,84.81819,194.81003
"43084",585.8833,86.32456,196.46696
"43085",585.8966,87.308464,197.64851
"43086",585.9099,87.71862,198.28706
"43087",585.9232,87.589226,198.39888
"43088",585.9365,87.030136,198.07695
"43089",585.9498,86.187836,197.45435
"43090",585.96313,85.22102,196.68091
"43091",585.97644,84.27375,195.89679
"43092",585.98975,83.43633,195.19293
"43093",586.00305,82.75517,194.61916
"43094",586.01636,82.22537,194.17546
"43095",586.02966,81.80789,193.82753
"43096",586.04297,81.45632,193.53246
"43097",586.0563,81.14137,193.26302
"43098",586.0696,80.87038,193.0277
"43099",586.0829,80.66529,192.84981
"43100",586.0962,80.55543,192.76074
"43101",586.1095,80.56519,192.78787
"43102",586.1228,80.68238,192.92273
"43103",586.1361,80.867935,193.12961
"43104",586.1494,81.06813,193.35693
"43105",586.1627,81.22926,193.55145
"43106",586.176,81.30251,193.66312
"43107",586.18933,81.248795,193.6501
"43108",586.20264,81.058365,193.4987
"43109",586.21594,80.74586,193.21927
"43110",586.22925,80.343025,192.83975
"43111",586.24255,79.88403,192.39148
"43112",586.25586,79.415276,191.9191
"43113",586.26917,78.96605,191.4516
"43114",586.2825,78.56321,191.01645
"43115",586.2958,78.21164,190.61998
"43116",586.3091,77.92111,190.27356
"43117",586.3224,77.679405,189.96689
"43118",586.3357,77.48165,189.69661
"43119",586.349,77.31808,189.45433
"43120",586.3623,77.19112,189.24356
"43121",586.3756,77.08858,189.05324
"43122",586.3889,77.00313,188.8768
"43123",586.4022,76.929886,188.7099
"43124",586.4155,76.87129,188.55536
"43125",586.42883,76.81514,188.40143
"43126",586.44214,76.76143,188.24818
"43127",586.45544,76.717476,188.10303
"43128",586.46875,76.67841,187.96138
"43129",586.48206,76.63935,187.81851
"43130",586.49536,76.59785,187.67198
"43131",586.50867,76.54658,187.51439
"43132",586.522,76.48554,187.34543
"43133",586.5353,76.419624,187.16968
"43134",586.5486,76.35859,186.99675
"43135",586.5619,76.34882,186.87318
"43136",586.5752,76.48798,186.89824
"43137",586.5885,76.91524,187.21574
"43138",586.6018,77.747765,187.95187
"43139",586.6151,79.03929,189.17302
"43140",586.6284,80.73609,190.8398
"43141",586.6417,82.67216,192.79887
"43142",586.655,84.596016,194.80624
"43143",586.66833,86.24399,196.59784
"43144",586.68164,87.415886,197.96486
"43145",586.69495,88.01648,198.7972
"43146",586.70825,88.0531,199.08434
"43147",586.72156,87.6112,198.89409
"43148",586.73486,86.83482,198.35556
"43149",586.74817,85.892426,197.62675
"43150",586.7615,84.92073,196.8392
"43151",586.7748,84.03204,196.1043
"43152",586.7881,83.27764,195.47589
"43153",586.8014,82.65507,194.95575
"43154",586.8147,82.1326,194.51625
"43155",586.828,81.67849,194.12878
"43156",586.8413,81.27322,193.77597
"43157",586.8546,80.936295,193.47884
"43158",586.8679,80.689705,193.2615
"43159",586.8812,80.567635,193.161
"43160",586.89453,80.584724,193.19583
"43161",586.90784,80.71656,193.34595
"43162",586.92114,80.921646,193.57343
"43163",586.93445,81.13893,193.81952
"43164",586.94775,81.307396,194.02357
"43165",586.96106,81.375755,194.1328
"43166",586.97437,81.31716,194.1172
"43167",586.9877,81.1194,193.9606
"43168",587.001,80.797134,193.67332
"43169",587.0143,80.38453,193.28563
"43170",587.0276,79.91821,192.83133
"43171",587.0409,79.43481,192.34537
"43172",587.0542,78.96605,191.85895
"43173",587.0675,78.54124,191.40182
"43174",587.0808,78.16525,190.98026
"43175",587.0941,77.84787,190.60553
"43176",587.1074,77.576866,190.26727
"43177",587.1207,77.3547,189.96938
"43178",587.13403,77.17403,189.70604
"43179",587.14734,77.02754,189.47124
"43180",587.16064,76.90059,189.25139
"43181",587.17395,76.79317,189.0471
"43182",587.18726,76.6955,188.84923
"43183",587.20056,76.60273,188.65318
"43184",587.21387,76.51484,188.45912
"43185",587.2272,76.43427,188.26964
"43186",587.2405,76.368355,188.09229
"43187",587.2538,76.30976,187.9202
"43188",587.2671,76.26093,187.75604
"43189",587.2804,76.2121,187.59036
"43190",587.2937,76.155945,187.41583
"43191",587.307,76.09247,187.23222
"43192",587.3203,76.03876,187.0564
"43193",587.3336,76.050964,186.94481
"43194",587.3469,76.24872,187.01915
"43195",587.3602,76.77852,187.43172
"43196",587.37354,77.76486,188.31738
"43197",587.38684,79.24437,189.72704
"43198",587.40015,81.146255,191.6053
"43199",587.41345,83.26299,193.75786
"43200",587.42676,85.32601,195.92285
"43201",587.44006,87.05455,197.81783
"43202",587.45337,88.26307,199.2468
"43203",587.4667,88.86366,200.1056
"43204",587.48,88.883194,200.40213
"43205",587.4933,88.4242,200.22073
"43206",587.5066,87.64782,199.70761
"43207",587.5199,86.72495,199.02374
"43208",587.5332,85.79965,198.3086
"43209",587.5465,84.97444,197.66463
"43210",587.5598,84.298164,197.1438
"43211",587.5731,83.76105,196.741
"43212",587.5864,83.31182,196.4093
"43213",587.59973,82.89433,196.0953
"43214",587.61304,82.47196,195.76338
"43215",587.62634,82.03494,195.40361
"43216",587.63965,81.61257,195.04483
"43217",587.65295,81.248795,194.73145
"43218",587.66626,80.99489,194.51657
"43219",587.67957,80.86305,194.41583
"43220",587.6929,80.83864,194.4184
"43221",587.7062,80.88258,194.48856
"43222",587.7195,80.94606,194.57962
"43223",587.7328,80.970474,194.6336
"43224",587.7461,80.90944,194.6029
"43225",587.7594,80.73609,194.45798
"43226",587.7727,80.45045,194.19534
"43227",587.786,80.06714,193.82611
"43228",587.7993,79.61059,193.37166
"43229",587.8126,79.114975,192.86388
"43230",587.8259,78.6218,192.34305
"43231",587.83923,78.153046,191.83122
"43232",587.85254,77.730675,191.35114
"43233",587.86584,77.35958,190.90912
"43234",587.87915,77.04707,190.5141
"43235",587.89246,76.7834,190.15814
"43236",587.90576,76.558784,189.83301
"43237",587.91907,76.3708,189.53748
"43238",587.9324,76.2121,189.26537
"43239",587.9457,76.07538,189.01027
"43240",587.959,75.95331,188.76555
"43241",587.9723,75.84833,188.5341
"43242",587.9856,75.755554,188.31158
"43243",587.9989,75.67986,188.10326
"43244",588.0122,75.62615,187.91454
"43245",588.0255,75.58465,187.73634
"43246",588.0388,75.55047,187.56418
"43247",588.0521,75.526054,187.40071
"43248",588.0654,75.50652,187.24136
"43249",588.07874,75.49676,187.09117
"43250",588.09204,75.494316,186.948
"43251",588.10535,75.50408,186.81696
"43252",588.11865,75.52117,186.69354
"43253",588.13196,75.53582,186.56822
"43254",588.14526,75.5407,186.4336
"43255",588.15857,75.526054,186.27959
"43256",588.1719,75.494316,186.10803
"43257",588.1852,75.45525,185.92816
"43258",588.1985,75.45525,185.78613
"43259",588.2118,75.60174,185.79059
"43260",588.2251,76.068054,186.11946
"43261",588.2384,77.00557,186.9341
"43262",588.2517,78.49729,188.33224
"43263",588.265,80.50172,190.2897
"43264",588.2916,85.189285,195.08134
"43265",588.30493,87.2694,197.32362
"43266",588.31824,88.82216,199.10355
"43267",588.33154,89.720604,200.27768
"43268",588.34485,89.96231,200.82315
"43269",588.35815,89.64736,200.81952
"43270",588.37146,88.92714,200.40077
"43271",588.38477,87.99451,199.74712
"43272",588.3981,87.02037,199.02281
"43273",588.4114,86.13901,198.36084
"43274",588.4247,85.41634,197.83002
"43275",588.438,84.86458,197.44751
"43276",588.4513,84.43,197.16495
"43277",588.4646,84.04425,196.91763
"43278",588.4779,83.648735,196.6485
"43279",588.4912,83.2166,196.33038
"43280",588.5045,82.757614,195.97192
"43281",588.5178,82.31571,195.6162
"43282",588.5311,81.94217,195.31502
"43283",588.54443,81.67605,195.10959
"43284",588.55774,81.52468,195.0106
"43285",588.57104,81.463646,194.99722
"43286",588.58435,81.45632,195.03564
"43287",588.59766,81.446556,195.0714
"43288",588.61096,81.38552,195.05557
"43289",588.62427,81.23659,194.94994
"43290",588.6376,80.98512,194.73712
