"","Time..s.","PPG.trace","Preprocessed.PPG"
"3615",58.80017,78.14084,78.05483
"3616",58.813477,78.10666,77.962555
"3617",58.826843,78.07248,77.86921
"3618",58.84015,78.04318,77.77968
"3619",58.853516,78.01633,77.69167
"3620",58.86682,77.996796,77.61015
"3621",58.880127,77.98459,77.53535
"3622",58.893494,77.97482,77.4626
"3623",58.9068,77.96506,77.38955
"3624",58.920166,77.95529,77.31619
"3625",58.93347,77.94797,77.24497
"3626",58.94684,77.943085,77.175964
"3627",58.960144,77.943085,77.11169
"3628",58.97345,77.95041,77.05473
"3629",58.986816,77.960175,77.00045
"3630",59.000122,77.96506,76.94159
"3631",59.01349,77.9675,76.88044
"3632",59.026794,77.9675,76.816925
"3633",59.04016,77.98703,76.77294
"3634",59.053467,78.08713,76.810135
"3635",59.066833,78.37278,77.03601
"3636",59.08014,78.93675,77.54913
"3637",59.093445,79.818115,78.39727
"3638",59.10681,80.98024,79.55371
"3639",59.120117,82.31327,80.91737
"3640",59.133484,83.63409,82.31048
"3641",59.14679,84.77425,83.5642
"3642",59.160156,85.61654,84.55569
"3643",59.173462,86.11215,85.226814
"3644",59.18683,86.27085,85.576515
"3645",59.200134,86.14389,85.645515
"3646",59.21344,85.80698,85.500595
"3647",59.226807,85.347984,85.22307
"3648",59.240112,84.84993,84.892136
"3649",59.25348,84.386055,84.57982
"3650",59.266785,84.00519,84.33601
"3651",59.28015,83.719536,84.17552
"3652",59.293457,83.5169,84.08912
"3653",59.306763,83.36309,84.04521
"3654",59.32013,83.2166,84.003815
"3655",59.333435,83.04326,83.93099
"3656",59.3468,82.83574,83.81857
"3657",59.360107,82.60624,83.67769
"3658",59.373474,82.37675,83.52964
"3659",59.38678,82.178986,83.40615
"3660",59.400085,82.03006,83.32532
"3661",59.413452,81.93729,83.29598
"3662",59.426758,81.8909,83.310135
"3663",59.440125,81.87137,83.34969
"3664",59.45343,81.85672,83.393524
"3665",59.466797,81.82498,83.41981
"3666",59.480103,81.75906,83.41092
"3667",59.49347,81.636986,83.34381
"3668",59.506775,81.463646,83.22163
"3669",59.52008,81.23903,83.04275
"3670",59.533447,80.98268,82.82512
"3671",59.546753,80.70435,82.5775
"3672",59.56012,80.428474,82.32363
"3673",59.573425,80.16724,82.07578
"3674",59.586792,79.93042,81.84419
"3675",59.600098,79.72045,81.63205
"3676",59.613464,79.534904,81.43777
"3677",59.62677,79.381096,81.269424
"3678",59.640076,79.256584,81.12557
"3679",59.653442,79.15404,80.999794
"3680",59.666748,79.06615,80.88547
"3681",59.680115,78.992905,80.78304
"3682",59.69342,78.924545,80.68321
"3683",59.706787,78.856186,80.581245
"3684",59.720093,78.79271,80.482025
"3685",59.7334,78.729225,80.38081
"3686",59.746765,78.67063,80.28251
"3687",59.76007,78.61692,80.187256
"3688",59.773438,78.57053,80.09765
"3689",59.786743,78.521706,80.00415
"3690",59.80011,78.47288,79.90913
"3691",59.813416,78.42649,79.81502
"3692",59.82672,78.382545,79.7219
"3693",59.840088,78.34104,79.62985
"3694",59.853394,78.30198,79.53895
"3695",59.86676,78.2678,79.451706
"3696",59.880066,78.23605,79.36583
"3697",59.893433,78.20187,79.27653
"3698",59.90674,78.16525,79.183716
"3699",59.920105,78.12619,79.08732
"3700",59.93341,78.082245,78.98482
"3701",59.946716,78.03342,78.87606
"3702",59.960083,77.96994,78.75113
"3703",59.97339,77.840546,78.5583
"3704",59.986755,77.59884,78.24911
"3705",60.00006,77.239944,77.81518
"3706",60.013428,76.82002,77.309006
"3707",60.026733,76.436714,76.826324
"3708",60.0401,76.1828,76.46106
"3709",60.053406,76.102234,76.26121
"3710",60.06671,76.19501,76.23218
"3711",60.08008,76.41718,76.33545
"3712",60.093384,76.754105,76.56041
"3713",60.10675,77.242386,76.94726
"3714",60.120056,77.95041,77.56911
"3715",60.133423,78.89769,78.45234
"3716",60.14673,80.028076,79.54828
"3717",60.160034,81.20973,80.73081
"3718",60.1734,82.27177,81.83065
"3719",60.186707,83.07744,82.70731
"3720",60.200073,83.55352,83.279564
"3721",60.21338,83.702446,83.539536
"3722",60.226746,83.58282,83.53561
"3723",60.24005,83.27032,83.33507
"3724",60.253357,82.847946,83.01489
"3725",60.266724,82.39628,82.65222
"3726",60.28003,81.97635,82.307175
"3727",60.293396,81.636986,82.02957
"3728",60.3067,81.40017,81.84391
"3729",60.32007,81.26589,81.75339
"3730",60.333374,81.20485,81.7319
"3731",60.34674,81.17555,81.74026
"3732",60.360046,81.15114,81.75258
"3733",60.373352,81.12428,81.761696
"3734",60.38672,81.10719,81.77974
"3735",60.400024,81.13161,81.83875
"3736",60.41339,81.2195,81.962006
"3737",60.426697,81.38308,82.1637
"3738",60.440063,81.60525,82.429085
"3739",60.45337,81.866486,82.740486
"3740",60.466736,82.1326,83.064926
"3741",60.48004,82.36698,83.36595
"3742",60.493347,82.54276,83.6157
"3743",60.506714,82.63798,83.790375
"3744",60.52002,82.652626,83.88746
"3745",60.533386,82.58427,83.90199
"3746",60.54669,82.44511,83.84359
"3747",60.56006,82.25712,83.73201
"3748",60.573364,82.04471,83.59013
"3749",60.58667,81.82254,83.43186
"3750",60.600037,81.61257,83.27885
"3751",60.613342,81.42214,83.13881
"3752",60.62671,81.25857,83.01968
"3753",60.640015,81.11696,82.9174
"3754",60.65338,80.99245,82.82779
"3755",60.666687,80.8777,82.74406
"3756",60.679993,80.77028,82.66406
"3757",60.69336,80.66285,82.5807
"3758",60.706665,80.55543,82.493996
"3759",60.72003,80.45045,82.40637
"3760",60.733337,80.34547,82.31547
"3761",60.746704,80.235596,82.21639
"3762",60.76001,80.12573,82.11389
"3763",60.773376,80.01099,82.003075
"3764",60.786682,79.89868,81.89111
"3765",60.799988,79.79126,81.780525
"3766",60.813354,79.68627,81.669014
"3767",60.82666,79.59106,81.563995
"3768",60.840027,79.50317,81.463326
"3769",60.853333,79.42016,81.36479
"3770",60.8667,79.33471,81.26122
"3771",60.880005,79.24925,81.154976
"3772",60.89337,79.16136,81.043625
"3773",60.906677,79.078354,80.93441
"3774",60.919983,78.99779,80.82504
"3775",60.93335,78.91966,80.7156
"3776",60.946655,78.84154,80.603714
"3777",60.960022,78.75609,80.48206
"3778",60.973328,78.66575,80.35285
"3779",60.986694,78.57053,80.21594
"3780",61,78.47532,80.07606
"3781",61.013306,78.39475,79.947845
"3782",61.026672,78.38987,79.8928
"3783",61.039978,78.54368,79.99629
"3784",61.053345,78.96361,80.37071
"3785",61.06665,79.71557,81.09029
"3786",61.080017,80.80934,82.17517
"3787",61.093323,82.16678,83.5579
"3788",61.10663,83.64141,85.10024
"3789",61.119995,85.05745,86.63007
"3790",61.1333,86.2562,87.98687
"3791",61.146667,87.13512,89.06129
"3792",61.159973,87.64538,89.79452
"3793",61.17334,87.79187,90.17993
"3794",61.186646,87.62829,90.25984
"3795",61.200012,87.24498,90.114914
"3796",61.213318,86.73472,89.831055
"3797",61.226624,86.19272,89.49951
"3798",61.23999,85.68978,89.190094
"3799",61.253296,85.262535,88.94065
"3800",61.266663,84.91829,88.76086
"3801",61.27997,84.63264,88.6289
"3802",61.293335,84.37141,88.512436
"3803",61.30664,84.09796,88.375595
"3804",61.320007,83.80011,88.2058
"3805",61.333313,83.48272,88.007164
"3806",61.34662,83.175095,87.80837
"3807",61.359985,82.90654,87.63904
"3808",61.37329,82.69901,87.52234
"3809",61.386658,82.55741,87.46508
"3810",61.399963,82.47196,87.45955
"3811",61.41333,82.41825,87.483086
"3812",61.426636,82.3621,87.5025
"3813",61.43994,82.27665,87.49087
"3814",61.45331,82.13748,87.422844
"3815",61.466614,81.934845,87.287
"3816",61.47998,81.6614,87.07402
"3817",61.493286,81.32937,86.79391
"3818",61.506653,80.953384,86.459465
"3819",61.51996,80.55543,86.0913
"3820",61.533264,80.15503,85.70826
"3821",61.54663,79.77661,85.33469
"3822",61.559937,79.432365,84.98346
"3823",61.573303,79.12718,84.66054
"3824",61.58661,78.86107,84.36715
"3825",61.599976,78.626686,84.097176
"3826",61.61328,78.416725,83.8443
"3827",61.626648,78.22873,83.60683
"3828",61.639954,78.06271,83.38546
"3829",61.65326,77.91135,83.17355
"3830",61.666626,77.77951,82.97645
"3831",61.67993,77.65499,82.78254
"3832",61.6933,77.54513,82.599396
"3833",61.706604,77.44747,82.425026
"3834",61.71997,77.366905,82.264694
"3835",61.733276,77.29366,82.10917
"3836",61.746643,77.225296,81.95623
"3837",61.75995,77.16426,81.80849
"3838",61.773254,77.100784,81.656395
"3839",61.78662,77.03975,81.50476
"3840",61.799927,76.9836,81.3561
"3841",61.813293,76.93721,81.215454
"3842",61.8266,76.89815,81.08068
"3843",61.839966,76.87129,80.956894
"3844",61.85327,76.84932,80.83715
"3845",61.866577,76.82979,80.71916
"3846",61.879944,76.81514,80.605446
"3847",61.89325,76.805374,80.496155
"3848",61.906616,76.8127,80.40365
"3849",61.91992,76.84444,80.335785
"3850",61.93329,76.90547,80.29821
"3851",61.946594,76.99336,80.2894
"3852",61.9599,77.11543,80.31751
"3853",61.973267,77.29366,80.4056
"3854",61.986572,77.60128,80.62865
"3855",61.99994,78.15793,81.11034
"3856",62.013245,79.07103,81.96587
"3857",62.02661,80.39918,83.26499
"3858",62.039917,82.11795,84.99624
"3859",62.053284,84.1004,87.044876
"3860",62.06659,86.15854,89.23115
"3861",62.079895,88.07263,91.33769
"3862",62.09326,89.669334,93.18666
"3863",62.106567,90.829025,94.64852
"3864",62.119934,91.50042,95.658325
"3865",62.13324,91.71038,96.22768
"3866",62.146606,91.53704,96.42029
"3867",62.159912,91.10246,96.346245
"3868",62.17328,90.54337,96.13411
"3869",62.186584,89.9794,95.89962
"3870",62.19989,89.48379,95.715866
"3871",62.213257,89.07118,95.59963
"3872",62.226562,88.724495,95.53642
"3873",62.23993,88.39735,95.48192
"3874",62.253235,88.0531,95.400085
"3875",62.2666,87.66979,95.26843
"3876",62.279907,87.26696,95.105286
"3877",62.293213,86.871445,94.93686
"3878",62.30658,86.51743,94.79758
"3879",62.319885,86.21713,94.70094
"3880",62.333252,85.97543,94.65353
"3881",62.346558,85.767914,94.63274
"3882",62.359924,85.57015,94.61522
"3883",62.37323,85.35531,94.57444
"3884",62.386536,85.09407,94.48055
"3885",62.399902,84.76448,94.31015
"3886",62.413208,84.34211,94.03667
"3887",62.426575,83.8172,93.647446
"3888",62.43988,83.18486,93.13439
"3889",62.453247,82.4622,92.51125
"3890",62.466553,81.668724,91.79472
"3891",62.47992,80.82643,91.00458
"3892",62.493225,79.96948,90.173454
"3893",62.50653,79.11253,89.31555
"3894",62.519897,78.26292,88.4382
"3895",62.533203,77.435265,87.55627
"3896",62.54657,76.63691,86.677765
"3897",62.559875,75.89227,85.82803
"3898",62.573242,75.208664,85.01606
"3899",62.586548,74.59586,84.25353
"3900",62.599915,74.06119,83.54998
"3901",62.61322,73.59731,82.90052
"3902",62.626526,73.196915,82.30004
"3903",62.639893,72.86,81.750534
"3904",62.6532,72.56458,81.231995
"3905",62.666565,72.28626,80.72131
"3906",62.67987,71.990845,80.184845
"3907",62.693237,71.67101,79.61473
"3908",62.706543,71.35607,79.039505
"3909",62.71985,71.07286,78.486176
"3910",62.733215,70.85069,77.98503
"3911",62.74652,70.711525,77.55995
"3912",62.759888,70.63828,77.19644
"3913",62.773193,70.589455,76.85506
"3914",62.78656,70.52354,76.495056
"3915",62.799866,70.416115,76.09149
"3916",62.81317,70.259865,75.63574
"3917",62.826538,70.07187,75.143364
"3918",62.839844,69.88144,74.64268
"3919",62.85321,69.72518,74.17021
"3920",62.866516,69.63973,73.76367
"3921",62.879883,69.6495,73.44968
"3922",62.89319,69.78378,73.260506
"3923",62.906555,70.10849,73.26595
"3924",62.91986,70.71885,73.5672
"3925",62.933167,71.71252,74.27083
"3926",62.946533,73.128555,75.42789
"3927",62.95984,74.92302,77.00762
"3928",62.973206,76.961624,78.88757
"3929",62.98651,79.029526,80.86053
"3930",62.999878,80.90456,82.70523
"3931",63.013184,82.42069,84.24963
"3932",63.02655,83.48272,85.38731
"3933",63.039856,84.071106,86.084526
"3934",63.05316,84.242004,86.382645
"3935",63.06653,84.09308,86.36628
"3936",63.079834,83.74639,86.1475
"3937",63.0932,83.32891,85.84709
"3938",63.106506,82.93828,85.560486
"3939",63.119873,82.650185,85.36421
"3940",63.13318,82.493935,85.29078
"3941",63.146484,82.44999,85.32477
"3942",63.15985,82.47929,85.430626
"3943",63.173157,82.54032,85.56914
"3944",63.186523,82.61112,85.71932
"3945",63.19983,82.69169,85.881485
"3946",63.213196,82.82597,86.099884
"3947",63.2265,83.07988,86.4421
"3948",63.239807,83.529106,86.98757
"3949",63.253174,84.21271,87.781456
"3950",63.26648,85.101395,88.80179
"3951",63.279846,86.11948,89.97929
"3952",63.29315,87.14244,91.19348
"3953",63.30652,88.02136,92.2956
"3954",63.319824,88.653694,93.178604
"3955",63.33319,89.005264,93.8006
"3956",63.346497,89.08339,94.16014
"3957",63.359802,88.94179,94.3024
"3958",63.37317,88.63416,94.2742
"3959",63.386475,88.20447,94.11432
"3960",63.39984,87.68444,93.85068
"3961",63.413147,87.09117,93.49754
"3962",63.426514,86.42954,93.05751
"3963",63.43982,85.70443,92.53332
"3964",63.453186,84.90608,91.91323
"3965",63.46649,84.017395,91.17786
"3966",63.479797,83.02373,90.30973
"3967",63.493164,81.9202,89.30069
"3968",63.50647,80.73121,88.17171
"3969",63.519836,79.49828,86.96163
"3970",63.533142,78.26536,85.71303
"3971",63.54651,77.08125,84.47472
"3972",63.559814,75.965515,83.26777
"3973",63.57312,74.93523,82.111404
"3974",63.586487,73.99283,81.010735
"3975",63.599792,73.1432,79.97339
"3976",63.61316,72.39124,79.00716
"3977",63.626465,71.75159,78.12973
"3978",63.63983,71.23888,77.35925
"3979",63.653137,70.853134,76.69972
"3980",63.666443,70.59922,76.15997
"3981",63.67981,70.469826,75.7368
"3982",63.693115,70.450294,75.41945
"3983",63.706482,70.521095,75.19182
"3984",63.719788,70.657814,75.03232
"3985",63.733154,70.84581,74.92837
"3986",63.74646,71.07042,74.86691
"3987",63.759827,71.33166,74.849106
"3988",63.773132,71.64416,74.89072
"3989",63.786438,72.06409,75.04953
"3990",63.799805,72.723274,75.460724
"3991",63.81311,73.80484,76.314896
"3992",63.826477,75.491875,77.808334
"3993",63.839783,77.891815,80.0674
"3994",63.85315,80.953384,83.06309
"3995",63.866455,84.454414,86.59391
"3996",63.87982,88.03601,90.314705
"3997",63.893127,91.300224,93.83005
"3998",63.906433,93.91257,96.795525
"3999",63.9198,95.69726,99.014984
"4000",63.933105,96.62501,100.43327
"4001",63.946472,96.798355,101.12615
"4002",63.959778,96.38819,101.24094
"4003",63.973145,95.58495,100.94983
"4004",63.98645,94.54978,100.40169
"4005",63.999756,93.37057,99.677155
"4006",64.01312,92.07172,98.796135
"4007",64.02643,90.633705,97.73537
"4008",64.039795,89.02968,96.463646
"4009",64.0531,87.25231,94.96846
"4010",64.06647,85.34554,93.28833
"4011",64.07977,83.40215,91.511986
"4012",64.09308,81.53689,89.75304
"4013",64.106445,79.85718,88.12135
"4014",64.11975,78.42161,86.68132
"4015",64.13312,77.26681,85.477196
"4016",64.14642,76.39277,84.517746
"4017",64.15979,75.76288,83.77513
"4018",64.173096,75.33318,83.21303
"4019",64.18646,75.054855,82.788864
"4020",64.19977,74.87175,82.451225
"4021",64.21307,74.73502,82.15424
"4022",64.22644,74.61295,81.867645
"4023",64.239746,74.49088,81.57723
"4024",64.25311,74.373695,81.28789
"4025",64.26642,74.27116,81.00953
"4026",64.279785,74.20279,80.76214
"4027",64.29309,74.18326,80.56145
"4028",64.30646,74.2272,80.42362
"4029",64.31976,74.337074,80.353096
"4030",64.33307,74.52018,80.35924
"4031",64.346436,74.80339,80.47121
"4032",64.35974,75.21599,80.72141
"4033",64.37311,75.78485,81.14078
"4034",64.38641,76.524605,81.74881
"4035",64.39978,77.4255,82.5411
"4036",64.413086,78.45335,83.488495
"4037",64.42639,79.54711,84.53393
"4038",64.43976,80.62379,85.59645
"4039",64.453064,81.602806,86.59496
"4040",64.46643,82.425575,87.46782
"4041",64.47974,83.07744,88.19548
"4042",64.4931,83.580376,88.794586
"4043",64.50641,83.96857,89.29466
"4044",64.519714,84.281075,89.731186
"4045",64.53308,84.53254,90.11643
"4046",64.54639,84.69367,90.419205
"4047",64.55975,84.72053,90.592735
"4048",64.57306,84.59113,90.610855
"4049",64.586426,84.300606,90.4638
"4050",64.59973,83.87335,90.17094
"4051",64.6131,83.34112,89.75974
"4052",64.6264,82.72831,89.25134
"4053",64.63971,82.04959,88.65788
"4054",64.653076,81.30007,87.97241
"4055",64.66638,80.46021,87.17318
"4056",64.67975,79.51537,86.24272
"4057",64.693054,78.44602,85.158226
"4058",64.70642,77.25704,83.920685
"4059",64.71973,75.965515,82.54344
"4060",64.73309,74.60807,81.05992
"4061",64.7464,73.21889,79.50224
"4062",64.759705,71.8468,77.91825
"4063",64.77307,70.54063,76.357285
"4064",64.78638,69.39315,74.9142
"4065",64.79974,68.55329,73.742874
"4066",64.81305,68.209045,73.04092
"4067",64.826416,68.53132,72.99472
"4068",64.83972,69.60555,73.710556
"4069",64.85303,71.39025,75.170425
"4070",64.866394,73.7145,77.22562
"4071",64.8797,76.30732,79.62202
"4072",64.89307,78.86107,82.06037
"4073",64.90637,81.1194,84.28311
"4074",64.91974,82.896774,86.09547
"4075",64.933044,84.11505,87.40427
"4076",64.94635,84.791336,88.209145
"4077",64.95972,85.013504,88.58104
"4078",64.97302,84.94026,88.66447
"4079",64.98639,84.77913,88.657715
"4080",64.999695,84.74738,88.775314
"4081",65.01306,85.013504,89.18979
"4082",65.02637,85.660484,89.99344
"4083",65.039734,86.65659,91.166435
"4084",65.05304,87.86511,92.58297
"4085",65.066345,89.076065,94.0397
"4086",65.07971,90.09415,95.341415
"4087",65.09302,90.79973,96.36244
"4088",65.106384,91.17815,97.078354
"4089",65.11969,91.300224,97.54975
"4090",65.13306,91.27581,97.87847
"4091",65.14636,91.20744,98.162476
"4092",65.15973,91.14641,98.451675
"4093",65.173035,91.10002,98.75362
"4094",65.18634,91.019455,99.01993
"4095",65.19971,90.84123,99.186066
"4096",65.21301,90.50187,99.18549
"4097",65.22638,89.97452,98.98633
"4098",65.239685,89.25674,98.58025
"4099",65.25305,88.358284,97.97108
"4100",65.26636,87.308464,97.18245
"4101",65.27966,86.134125,96.236496
"4102",65.29303,84.84749,95.14155
"4103",65.306335,83.45342,93.898964
"4104",65.3197,81.94949,92.50295
"4105",65.33301,80.34058,90.95496
"4106",65.346375,78.64622,89.27124
"4107",65.35968,76.88838,87.4711
"4108",65.372986,75.10857,85.59405
"4109",65.38635,73.35073,83.68336
"4110",65.39966,71.67101,81.79585
"4111",65.413025,70.13046,79.995026
"4112",65.42633,68.77547,78.331604
"4113",65.4397,67.63531,76.840675
"4114",65.453,66.70756,75.52653
"4115",65.46637,65.95804,74.36162
"4116",65.479675,65.33791,73.30268
"4117",65.49298,64.813,72.31958
"4118",65.50635,64.378426,71.41041
"4119",65.51965,64.05127,70.59508
"4120",65.53302,63.858395,69.90381
"4121",65.546326,63.81689,69.35788
"4122",65.55969,63.919434,68.9547
"4123",65.573,64.15137,68.68411
"4124",65.586365,64.49073,68.528206
"4125",65.59967,64.90822,68.46103
"4126",65.612976,65.3843,68.46549
"4127",65.62634,65.899445,68.523895
"4128",65.63965,66.43656,68.62037
"4129",65.653015,66.97124,68.731186
"4130",65.66632,67.49615,68.848946
"4131",65.67969,68.02594,68.98799
"4132",65.69299,68.56794,69.1558
"4133",65.7063,69.12215,69.35275
"4134",65.719666,69.695885,69.586555
"4135",65.73297,70.28916,69.85783
"4136",65.74634,70.887314,70.15251
"4137",65.75964,71.4757,70.45613
"4138",65.77301,72.03967,70.75372
"4139",65.786316,72.57923,71.044525
"4140",65.79962,73.08705,71.32045
"4141",65.81299,73.55581,71.57318
"4142",65.826294,73.99039,71.80638
"4143",65.83966,74.40055,72.02875
"4144",65.85297,74.82048,72.2737
"4145",65.86633,75.34783,72.63919
"4146",65.87964,76.1535,73.299484
"4147",65.893005,77.44259,74.46837
"4148",65.90631,79.35912,76.304985
"4149",65.91962,81.94705,78.87289
"4150",65.93298,85.08186,82.06854
"4151",65.94629,88.50477,85.65025
"4152",65.959656,91.87396,89.28522
"4153",65.97296,94.86473,92.64705
"4154",65.98633,97.23781,95.48465
"4155",65.99963,98.880905,97.66643
"4156",66.013,99.78668,99.16223
"4157",66.026306,100.05524,100.04912
"4158",66.03961,99.84772,100.46832
"4159",66.05298,99.34722,100.588066
"4160",66.066284,98.71,100.55544
"4161",66.07965,98.04837,100.4785
"4162",66.09296,97.4136,100.40774
"4163",66.10632,96.80324,100.34155
"4164",66.11963,96.18799,100.2514
"4165",66.132935,95.536125,100.105415
"4166",66.1463,94.83055,99.885345
"4167",66.15961,94.083466,99.601715
"4168",66.17297,93.331505,99.28986
"4169",66.18628,92.611275,98.986244
"4170",66.199646,91.95697,98.72604
"4171",66.21295,91.38567,98.528404
"4172",66.22626,90.8925,98.39104
"4173",66.239624,90.457924,98.29685
"4174",66.25293,90.05997,98.22571
"4175",66.2663,89.67666,98.15678
"4176",66.2796,89.27871,98.061226
"4177",66.29297,88.84169,97.91417
"4178",66.306274,88.33875,97.68753
"4179",66.31964,87.74792,97.357285
"4180",66.33295,87.05943,96.91092
"4181",66.34625,86.275734,96.347824
"4182",66.35962,85.40902,95.67722
"4183",66.372925,84.48615,94.923386
"4184",66.38629,83.543755,94.12118
"4185",66.3996,82.60624,93.2944
"4186",66.412964,81.6907,92.460304
"4187",66.42627,80.81178,91.634224
"4188",66.43964,79.95972,90.807526
"4189",66.45294,79.1223,89.96885
"4190",66.46625,78.277565,89.09669
"4191",66.479614,77.41329,88.17859
"4192",66.49292,76.52216,87.20663
"4193",66.50629,75.60906,86.184845
"4194",66.51959,74.69108,85.12965
"4195",66.53296,73.79996,84.072624
"4196",66.546265,72.96254,83.04146
"4197",66.55957,72.19592,82.054924
"4198",66.57294,71.500114,81.115234
"4199",66.58624,70.870224,80.21973
"4200",66.59961,70.28672,79.35092
"4201",66.612915,69.72518,78.48584
"4202",66.62628,69.16609,77.60566
"4203",66.63959,68.592354,76.69336
"4204",66.65289,68.016174,75.76069
"4205",66.66626,67.48394,74.85396
"4206",66.679565,67.054245,74.033134
"4207",66.69293,66.78325,73.35758
"4208",66.70624,66.69535,72.85666
"4209",66.719604,66.7686,72.51414
"4210",66.73291,66.94194,72.273994
"4211",66.74628,67.15434,72.07833
"4212",66.75958,67.36675,71.88931
"4213",66.77289,67.58404,71.71181
"4214",66.786255,67.81598,71.55575
"4215",66.79956,68.069885,71.4289
"4216",66.81293,68.34089,71.32709
"4217",66.82623,68.62653,71.24838
"4218",66.8396,68.946365,71.21279
"4219",66.852905,69.385826,71.30682
"4220",66.86627,70.101166,71.69047
"4221",66.87958,71.27795,72.55791
"4222",66.89288,73.0309,74.0383
"4223",66.90625,75.36492,76.15454
"4224",66.919556,78.150604,78.79538
"4225",66.93292,81.13893,81.725914
"4226",66.94623,84.017395,84.63997
"4227",66.959595,86.51011,87.258224
"4228",66.9729,88.44373,89.39529
"4229",66.986206,89.77432,90.989746
"4230",66.99957,90.562904,92.08378
"4231",67.01288,90.94133,92.7923
"4232",67.026245,91.05852,93.2514
"4233",67.03955,91.04143,93.579895
"4234",67.05292,90.97307,93.85658
"4235",67.06622,90.90715,94.133575
"4236",67.07953,90.85344,94.420715
"4237",67.092896,90.794846,94.701294
"4238",67.1062,90.69962,94.94341
"4239",67.11957,90.545815,95.12397
"4240",67.13287,90.33341,95.24113
"4241",67.14624,90.09415,95.32478
"4242",67.159546,89.87686,95.42294
"4243",67.17291,89.72549,95.58022
"4244",67.18622,89.6498,95.808464
"4245",67.199524,89.61562,96.07584
"4246",67.21289,89.57168,96.33239
"4247",67.2262,89.478905,96.538734
"4248",67.23956,89.30068,96.65673
"4249",67.25287,89.022354,96.66905
"4250",67.266235,88.6244,96.55304
"4251",67.27954,88.097046,96.2952
"4252",67.29291,87.4403,95.89148
"4253",67.30621,86.66392,95.34761
"4254",67.31952,85.80942,94.701355
"4255",67.332886,84.928055,94.00153
"4256",67.34619,84.05646,93.283936
"4257",67.35956,83.228806,92.583046
"4258",67.37286,82.46708,91.92222
"4259",67.38623,81.78592,91.31815
"4260",67.399536,81.18288,90.77092
"4261",67.41284,80.65797,90.282974
"4262",67.42621,80.20386,89.84943
"4263",67.439514,79.81079,89.46273
"4264",67.45288,79.4641,89.11013
"4265",67.46619,79.15404,88.78332
"4266",67.47955,78.86839,88.47124
"4267",67.49286,78.59983,88.16731
"4268",67.506165,78.33616,87.859886
"4269",67.51953,78.07248,87.54421
"4270",67.53284,77.7966,87.2081
"4271",67.5462,77.503624,86.84627
"4272",67.55951,77.18135,86.445984
"4273",67.572876,76.82979,86.00634
"4274",67.58618,76.44648,85.523964
"4275",67.59955,76.036316,85.002754
"4276",67.612854,75.59197,84.43455
"4277",67.62616,75.11101,83.815834
"4278",67.63953,74.5861,83.138145
"4279",67.65283,74.01236,82.395226
"4280",67.6662,73.38491,81.580666
"4281",67.679504,72.723274,80.71231
"4282",67.69287,72.042114,79.80376
"4283",67.70618,71.363396,78.87636
"4284",67.71954,70.71397,77.95703
"4285",67.73285,70.11093,77.063805
"4286",67.746155,69.56893,76.21277
"4287",67.75952,69.08797,75.40583
"4288",67.77283,68.665596,74.642456
"4289",67.786194,68.279854,73.90251
"4290",67.7995,67.913635,73.17004
"4291",67.81287,67.56939,72.44809
"4292",67.82617,67.25445,71.74469
"4293",67.83948,67.000534,71.092476
"4294",67.852844,66.86626,70.55196
"4295",67.86615,66.95659,70.231865
"4296",67.87952,67.41558,70.28325
"4297",67.89282,68.39216,70.86656
"4298",67.90619,69.97421,72.08587
"4299",67.919495,72.17151,73.96986
"4300",67.9328,74.85954,76.41325
"4301",67.94617,77.81369,79.206764
"4302",67.95947,80.740974,82.06573
"4303",67.97284,83.35577,84.703674
"4304",67.986145,85.44564,86.898415
"4305",67.99951,86.888535,88.51148
"4306",68.01282,87.66735,89.50556
"4307",68.026184,87.850464,89.92828
"4308",68.03949,87.5819,89.905045
"4309",68.052795,87.02281,89.582886
"4310",68.06616,86.33677,89.1163
"4311",68.07947,85.66537,88.64292
"4312",68.092834,85.09163,88.24622
"4313",68.10614,84.64973,87.96343
"4314",68.11951,84.31037,87.76938
"4315",68.13281,84.02472,87.61842
"4316",68.14618,83.7293,87.44878
"4317",68.159485,83.39239,87.2284
"4318",68.17279,83.021286,86.96331
"4319",68.18616,82.65995,86.69639
"4320",68.19946,82.3621,86.48166
"4321",68.21283,82.16678,86.36015
"4322",68.226135,82.08621,86.3473
"4323",68.2395,82.108185,86.43446
"4324",68.25281,82.19852,86.590675
"4325",68.26611,82.31815,86.779015
"4326",68.27948,82.45243,86.98573
"4327",68.292786,82.61845,87.228386
"4328",68.30615,82.847946,87.53971
"4329",68.31946,83.16533,87.94609
"4330",68.332825,83.546196,88.42587
"4331",68.34613,83.929504,88.92
"4332",68.359436,84.2298,89.34309
"4333",68.3728,84.39094,89.636406
"4334",68.38611,84.42512,89.8078
"4335",68.399475,84.41291,89.933876
"4336",68.41278,84.43488,90.09375
"4337",68.42615,84.53498,90.332436
"4338",68.43945,84.68391,90.62308
"4339",68.45282,84.81819,90.90373
"4340",68.466125,84.84993,91.08604
"4341",68.47943,84.73762,91.12528
"4342",68.4928,84.491035,91.02675
"4343",68.5061,84.14191,90.81796
"4344",68.51947,83.719536,90.525024
"4345",68.532776,83.25567,90.17739
"4346",68.54614,82.76494,89.7884
"4347",68.55945,82.247345,89.35721
"4348",68.572815,81.70779,88.88788
"4349",68.58612,81.15358,88.38704
"4350",68.59943,80.58228,87.85179
"4351",68.61279,79.98901,87.27672
"4352",68.6261,79.37621,86.663574
"4353",68.639465,78.73655,86.00442
"4354",68.65277,78.065155,85.29354
"4355",68.66614,77.35958,84.527504
"4356",68.67944,76.610054,83.695465
"4357",68.69275,75.82147,82.80095
"4358",68.706116,75.018234,81.867134
"4359",68.71942,74.22476,80.917984
"4360",68.73279,73.46792,79.98067
"4361",68.74609,72.779434,79.08806
"4362",68.75946,72.16907,78.25205
"4363",68.772766,71.63439,77.47266
"4364",68.78607,71.17296,76.7498
"4365",68.79944,70.77501,76.076004
"4366",68.812744,70.44053,75.45325
"4367",68.82611,70.17197,74.88595
"4368",68.83942,69.979095,74.38595
"4369",68.85278,69.85947,73.95316
"4370",68.86609,69.81064,73.58744
"4371",68.879456,69.81796,73.276344
"4372",68.89276,69.86679,73.00698
"4373",68.90607,69.95712,72.78065
"4374",68.91943,70.13046,72.640144
"4375",68.93274,70.50645,72.7077
"4376",68.946106,71.258415,73.162994
"4377",68.95941,72.55482,74.18622
"4378",68.97278,74.48112,75.87985
"4379",68.986084,77.00313,78.2294
"4380",68.99945,79.9353,81.067924
"4381",69.01276,82.99443,84.12503
"4382",69.02606,85.85092,87.075096
"4383",69.03943,88.236206,89.64322
"4384",69.052734,89.969635,91.63403
"4385",69.0661,90.9926,92.96855
"4386",69.07941,91.32464,93.64411
"4387",69.09277,91.08293,93.7563
"4388",69.10608,90.42863,93.44834
"4389",69.119385,89.55215,92.89776
"4390",69.13275,88.60975,92.25387
"4391",69.14606,87.73327,91.64644
"4392",69.159424,86.98375,91.13858
"4393",69.17273,86.37339,90.74646
"4394",69.1861,85.86069,90.43292
"4395",69.1994,85.39437,90.14975
"4396",69.21271,84.93294,89.85689
"4397",69.226074,84.46418,89.54228
"4398",69.23938,84.00519,89.22279
"4399",69.25275,83.59014,88.93291
"4400",69.26605,83.25323,88.70818
"4401",69.27942,83.01396,88.57058
"4402",69.292725,82.86992,88.52072
"4403",69.30609,82.78935,88.52984
"4404",69.3194,82.718544,88.546196
"4405",69.3327,82.62821,88.54082
"4406",69.34607,82.48661,88.481346
"4407",69.359375,82.26444,88.33688
"4408",69.37274,81.94949,88.0927
"4409",69.38605,81.55398,87.7581
"4410",69.399414,81.08034,87.33302
"4411",69.41272,80.5359,86.82234
"4412",69.42609,79.93042,86.23361
"4413",69.43939,79.290764,85.59178
"4414",69.4527,78.641335,84.92019
"4415",69.466064,78.01877,84.255165
"4416",69.47937,77.44991,83.6244
"4417",69.49274,76.964066,83.05886
"4418",69.50604,76.56855,82.568474
"4419",69.51941,76.265816,82.15851
"4420",69.532715,76.03876,81.81476
"4421",69.54602,75.8703,81.522514
"4422",69.55939,75.74578,81.26894
"4423",69.57269,75.650566,81.04079
"4424",69.58606,75.579765,80.83407
"4425",69.599365,75.51873,80.6349
"4426",69.61273,75.46502,80.441154
"4427",69.62604,75.40887,80.243286
"4428",69.63934,75.355156,80.046104
"4429",69.65271,75.301445,79.847244
"4430",69.666016,75.25506,79.65403
"4431",69.67938,75.21843,79.469124
"4432",69.69269,75.191574,79.29285
"4433",69.706055,75.1696,79.12061
"4434",69.71936,75.14519,78.94525
"4435",69.73273,75.11833,78.766685
"4436",69.74603,75.08659,78.5824
"4437",69.75934,75.04997,78.392235
"4438",69.772705,75.01091,78.19849
"4439",69.78601,74.97673,78.0084
"4440",69.79938,74.94499,77.81969
"4441",69.81268,74.915695,77.63242
"4442",69.82605,74.89128,77.44913
"4443",69.839355,74.87419,77.27239
"4444",69.85272,74.85466,77.09268
"4445",69.86603,74.83757,76.9148
"4446",69.87933,74.813156,76.729065
"4447",69.8927,74.77898,76.5328
"4448",69.906006,74.73991,76.330574
"4449",69.91937,74.75456,76.180855
"4450",69.93268,74.93523,76.1976
"4451",69.946045,75.46258,76.56668
"4452",69.95935,76.52216,77.484474
"4453",69.97266,78.221405,79.075035
"4454",69.98602,80.53834,81.33639
"4455",69.99933,83.29717,84.112045
"4456",70.012695,86.20737,87.125275
"4457",70.026,88.9247,90.03658
"4458",70.03937,91.16106,92.551834
"4459",70.05267,92.733345,94.47291
"4460",70.06598,93.57809,95.71557
"4461",70.079346,93.73922,96.30102
"4462",70.09265,93.33395,96.325096
"4463",70.10602,92.53559,95.94343
"4464",70.11932,91.527275,95.32685
"4465",70.13269,90.457924,94.61773
"4466",70.145996,89.43496,93.92158
"4467",70.15936,88.50233,93.28379
"4468",70.17267,87.65026,92.69742
"4469",70.185974,86.82506,92.11128
"4470",70.19934,85.9852,91.4847
"4471",70.21265,85.120926,90.807465
"4472",70.22601,84.25422,90.100784
"4473",70.23932,83.43389,89.4134
"4474",70.252686,82.71122,88.798035
"4475",70.26599,82.1326,88.30414
"4476",70.27936,81.71755,87.955734
"4477",70.29266,81.45632,87.74818
"4478",70.30597,81.32693,87.66429
"4479",70.319336,81.28542,87.66425
"4480",70.33264,81.27322,87.692215
"4481",70.34601,81.22194,87.680725
"4482",70.359314,81.077896,87.57487
"4483",70.37268,80.81178,87.34244
"4484",70.38599,80.42603,86.982056
"4485",70.39929,79.94263,86.51196
"4486",70.41266,79.40307,85.97061
"4487",70.425964,78.84154,85.39043
"4488",70.43933,78.28977,84.80246
"4489",70.45264,77.77707,84.23631
"4490",70.466,77.32296,83.71274
"4491",70.47931,76.93721,83.24333
"4492",70.492615,76.63203,82.84244
"4493",70.50598,76.4123,82.51746
"4494",70.51929,76.2707,82.26375
"4495",70.53265,76.190125,82.066635
"4496",70.54596,76.14862,81.906075
"4497",70.559326,76.121765,81.758865
"4498",70.57263,76.09247,81.608376
"4499",70.586,76.04608,81.43988
"4500",70.599304,75.98749,81.25773
"4501",70.61261,75.92157,81.06642
"4502",70.62598,75.84833,80.86573
"4503",70.63928,75.77753,80.66519
"4504",70.65265,75.718925,80.47464
"4505",70.665955,75.6701,80.29203
"4506",70.67932,75.62371,80.11034
"4507",70.69263,75.577324,79.92719
"4508",70.70599,75.53094,79.7426
"4509",70.7193,75.47723,79.54923
"4510",70.732605,75.41131,79.34198
"4511",70.74597,75.34295,79.130226
"4512",70.75928,75.26971,78.91145
"4513",70.772644,75.18425,78.67818
"4514",70.78595,75.06706,78.4105
"4515",70.79932,74.92546,78.114746
"4516",70.81262,74.73991,77.770615
"4517",70.82593,74.49821,77.36454
"4518",70.839294,74.20279,76.897194
"4519",70.8526,73.87808,76.39133
"4520",70.86597,73.55093,75.87286
"4521",70.87927,73.23842,75.358826
"4522",70.89264,72.96498,74.87409
"4523",70.905945,72.73304,74.42231
"4524",70.91925,72.54017,74.00235
"4525",70.93262,72.379036,73.60809
"4526",70.94592,72.256966,73.24786
"4527",70.95929,72.20569,72.95462
"4528",70.972595,72.31068,72.81604
"4529",70.98596,72.72083,72.9859
"4530",70.99927,73.62173,73.65932
"4531",71.012634,75.176926,75.0152
"4532",71.02594,77.437706,77.12526
"4533",71.039246,80.31373,79.92121
"4534",71.05261,83.55596,83.17325
"4535",71.06592,86.82262,86.551025
"4536",71.079285,89.767,89.70861
"4537",71.09259,92.10834,92.35517
"4538",71.10596,93.69283,94.318054
"4539",71.11926,94.49119,95.54431
"4540",71.13263,94.574196,96.08017
"4541",71.145935,94.09567,96.05709
"4542",71.15924,93.260704,95.66261
"4543",71.17261,92.26215,95.07846
"4544",71.18591,91.266045,94.465546
"4545",71.19928,90.3798,93.931366
"4546",71.212585,89.64492,93.52086
"4547",71.22595,89.04677,93.22411
"4548",71.23926,88.52674,92.9868
"4549",71.25256,88.01648,92.743
"4550",71.26593,87.467155,92.44418
"4551",71.279236,86.87877,92.08914
"4552",71.2926,86.278175,91.70351
"4553",71.30591,85.711754,91.333275
"4554",71.319275,85.240555,91.040565
"4555",71.33258,84.89876,90.86253
"4556",71.34589,84.69123,90.80809
"4557",71.35925,84.596016,90.859474
"4558",71.37256,84.56672,90.9738
"4559",71.385925,84.53986,91.08965
"4560",71.39923,84.4593,91.150955
"4561",71.4126,84.28596,91.11697
"4562",71.4259,84.00275,90.96769
"4563",71.43927,83.62188,90.71191
"4564",71.452576,83.16289,90.3661
"4565",71.46588,82.64286,89.94491
"4566",71.47925,82.06668,89.45132
"4567",71.49255,81.45144,88.90066
"4568",71.50592,80.80934,88.30392
"4569",71.519226,80.16724,87.6871
"4570",71.53259,79.551994,87.07709
"4571",71.5459,78.98558,86.49667
"4572",71.559265,78.48264,85.962036
"4573",71.57257,78.04318,85.47516
"4574",71.58588,77.662315,85.03314
"4575",71.59924,77.3254,84.62318
"4576",71.61255,77.02266,84.236855
"4577",71.625916,76.749214,83.87037
"4578",71.63922,76.50996,83.529526
"4579",71.65259,76.29023,83.20074
"4580",71.66589,76.09735,82.89193
"4581",71.6792,75.91913,82.59175
"4582",71.692566,75.74578,82.29088
"4583",71.70587,75.56756,81.97971
"4584",71.71924,75.39178,81.66542
"4585",71.732544,75.22331,81.35295
"4586",71.74591,75.06462,81.04499
"4587",71.75922,74.92302,80.74916
"4588",71.77252,74.80095,80.46844
"4589",71.78589,74.70084,80.205864
"4590",71.799194,74.61295,79.95238
"4591",71.81256,74.53483,79.70591
"4592",71.82587,74.46647,79.46677
"4593",71.83923,74.40299,79.23037
"4594",71.85254,74.339516,78.99199
"4595",71.865906,74.2736,78.74918
"4596",71.87921,74.20523,78.50187
"4597",71.89252,74.13931,78.25487
"4598",71.90588,74.075836,78.00825
"4599",71.91919,74.019684,77.76697
"4600",71.932556,73.9733,77.5337
"4601",71.94586,73.94156,77.31363
"4602",71.95923,73.919586,77.10233
"4603",71.972534,73.9147,76.90744
"4604",71.9859,73.92691,76.729485
"4605",71.99921,73.951324,76.56412
"4606",72.01251,73.98306,76.40684
"4607",72.02588,74.02701,76.26276
"4608",72.039185,74.13199,76.18108
"4609",72.05255,74.42985,76.29557
"4610",72.06586,75.10368,76.79534
"4611",72.07922,76.35371,77.89236
"4612",72.09253,78.28489,79.709595
"4613",72.105835,80.86305,82.23416
"4614",72.1192,83.88312,85.2812
"4615",72.13251,87.02281,88.54224
"4616",72.145874,89.92813,91.667015
"4617",72.15918,92.29633,94.345474
"4618",72.17255,93.95163,96.38503
"4619",72.18585,94.83299,97.702385
"4620",72.19916,94.994125,98.32705
"4621",72.212524,94.55955,98.36104
"4622",72.22583,93.70504,97.96152
"4623",72.2392,92.630806,97.31557
"4624",72.2525,91.507744,96.58722
"4625",72.26587,90.46525,95.90434
"4626",72.279175,89.564354,95.33049
"4627",72.29254,88.80751,94.872536
"4628",72.30585,88.14099,94.48125
"4629",72.31915,87.501335,94.09599
"4630",72.33252,86.84215,93.67122
"4631",72.345825,86.151215,93.1941
"4632",72.35919,85.46029,92.6954
"4633",72.3725,84.823074,92.22881
"4634",72.385864,84.29572,91.85218
"4635",72.39917,83.895325,91.58602
"4636",72.41254,83.612114,91.42454
"4637",72.42584,83.41436,91.33966
"4638",72.43915,83.25323,91.285225
"4639",72.452515,83.075,91.20866
"4640",72.46582,82.83574,91.06549
"4641",72.47919,82.50126,90.819626
"4642",72.49249,82.056915,90.453445
"4643",72.50586,81.50515,89.96596
"4644",72.519165,80.86549,89.37334
"4645",72.53247,80.164795,88.699684
"4646",72.54584,79.43969,87.97973
"4647",72.55914,78.72678,87.24931
"4648",72.57251,78.05783,86.54057
"4649",72.585815,77.44991,85.87196
"4650",72.59918,76.91768,85.26004
"4651",72.61249,76.46113,84.70717
"4652",72.62579,76.0827,84.218155
"4653",72.63916,75.76288,83.77592
"4654",72.652466,75.49676,83.37739
"4655",72.66583,75.27703,83.01694
"4656",72.67914,75.09148,82.68379
"4657",72.692505,74.932785,82.37171
"4658",72.70581,74.79851,82.07909
"4659",72.71918,74.683754,81.80179
"4660",72.73248,74.5861,81.538
"4661",72.74579,74.50797,81.290695
"4662",72.759155,74.444496,81.055595
"4663",72.77246,74.39323,80.83072
"4664",72.78583,74.35172,80.614006
"4665",72.79913,74.322426,80.4082
"4666",72.8125,74.30045,80.20881
"4667",72.825806,74.27848,80.00873
"4668",72.83917,74.26139,79.81284
"4669",72.85248,74.251625,79.62375
"4670",72.86578,74.24185,79.43434
"4671",72.87915,74.232086,79.24464
"4672",72.892456,74.229645,79.06195
"4673",72.90582,74.229645,78.88163
"4674",72.91913,74.23453,78.70619
"4675",72.932495,74.23941,78.53091
"4676",72.9458,74.24185,78.35333
"4677",72.95911,74.2272,78.158745
"4678",72.97247,74.19058,77.94173
"4679",72.98578,74.12955,77.69915
"4680",72.999146,74.056305,77.44246
"4681",73.01245,74.00992,77.210335
"4682",73.02582,74.092926,77.106155
"4683",73.03912,74.47379,77.30243
"4684",73.05243,75.352715,78.00866
"4685",73.065796,76.85176,79.36248
"4686",73.0791,78.98802,81.40036
"4687",73.09247,81.617455,83.99817
"4688",73.105774,84.46906,86.90032
"4689",73.11914,87.201035,89.77195
"4690",73.13245,89.5082,92.304146
"4691",73.14581,91.17815,94.271225
"4692",73.15912,92.12787,95.57027
"4693",73.172424,92.37934,96.20074
"4694",73.18579,92.03998,96.24823
"4695",73.1991,91.27825,95.862755
"4696",73.21246,90.2797,95.21665
"4697",73.22577,89.21034,94.46854
"4698",73.239136,88.1947,93.74072
"4699",73.25244,87.2987,93.1008
"4700",73.26581,86.52964,92.55983
"4701",73.27911,85.84604,92.08028
"4702",73.29242,85.19905,91.615974
"4703",73.305786,84.56184,91.14123
"4704",73.31909,83.931946,90.65389
"4705",73.33246,83.34356,90.18838
"4706",73.345764,82.84062,89.789925
"4707",73.35913,82.4622,89.50027
"4708",73.37244,82.210724,89.32574
"4709",73.38574,82.06424,89.24834
"4710",73.39911,81.97635,89.22495
"4711",73.412415,81.8909,89.20126
"4712",73.42578,81.761505,89.13096
"4713",73.43909,81.54177,88.96627
"4714",73.45245,81.20485,88.67753
"4715",73.46576,80.75075,88.26108
"4716",73.479065,80.18921,87.723
"4717",73.49243,79.54467,87.08437
"4718",73.50574,78.86107,86.38654
"4719",73.519104,78.17746,85.66734
"4720",73.53241,77.52804,84.96097
"4721",73.54578,76.93721,84.29289
"4722",73.55908,76.419624,83.679596
"4723",73.57245,75.98016,83.12825
"4724",73.585754,75.613945,82.63641
"4725",73.59906,75.31121,82.19662
"4726",73.61243,75.06218,81.80106
"4727",73.62573,74.8571,81.44168
"4728",73.6391,74.67643,81.100296
"4729",73.652405,74.52018,80.77769
"4730",73.66577,74.37614,80.4624
"4731",73.67908,74.246735,80.15726
"4732",73.692444,74.13199,79.862724
"4733",73.70575,74.03433,79.581696
"4734",73.719055,73.953766,79.314705
"4735",73.73242,73.88541,79.0574
"4736",73.74573,73.831696,78.812614
"4737",73.759094,73.78775,78.57591
"4738",73.7724,73.75601,78.350044
"4739",73.78577,73.73159,78.1305
"4740",73.79907,73.7145,77.91753
"4741",73.81238,73.704735,77.71134
"4742",73.825745,73.69497,77.50485
"4743",73.83905,73.69009,77.30294
"4744",73.85242,73.6852,77.100876
"4745",73.86572,73.68032,76.89866
"4746",73.87909,73.68032,76.70117
"4747",73.892395,73.687645,76.51101
"4748",73.9057,73.69741,76.32352
"4749",73.91907,73.704735,76.13389
"4750",73.93237,73.69497,75.9274
"4751",73.94574,73.66811,75.703514
"4752",73.959045,73.62173,75.45926
"4753",73.97241,73.58022,75.21844
"4754",73.98572,73.602196,75.039795
"4755",73.999084,73.814606,75.05228
"4756",74.01239,74.39323,75.43761
"4757",74.025696,75.4992,76.36837
"4758",74.03906,77.205765,77.93429
"4759",74.05237,79.466545,80.10775
"4760",74.065735,82.09354,82.71807
"4761",74.07904,84.791336,85.48129
"4762",74.09241,87.24742,88.087105
"4763",74.10571,89.22011,90.28627
"4764",74.11908,90.57755,91.93184
"4765",74.132385,91.300224,92.98506
"4766",74.14569,91.45403,93.492004
"4767",74.15906,91.175705,93.57162
"4768",74.17236,90.62394,93.369095
"4769",74.18573,89.95743,93.034584
"4770",74.199036,89.30312,92.69145
"4771",74.2124,88.73426,92.413315
"4772",74.22571,88.27039,92.2224
"4773",74.23901,87.8822,92.09265
"4774",74.25238,87.501335,91.9581
"4775",74.265686,87.05943,91.75061
"4776",74.27905,86.522316,91.4341
"4777",74.29236,85.889984,91.005585
"4778",74.305725,85.20393,90.50359
"4779",74.31903,84.52766,89.98994
"4780",74.33234,83.92706,89.53083
"4781",74.3457,83.438774,89.16526
"4782",74.35901,83.06767,88.90162
"4783",74.372375,82.79668,88.72649
"4784",74.38568,82.581825,88.59903
"4785",74.39905,82.37919,88.47707
"4786",74.41235,82.142365,88.3146
"4787",74.42572,81.846954,88.086136
"4788",74.439026,81.47341,87.77031
"4789",74.45233,81.02663,87.36957
"4790",74.4657,80.50904,86.88406
"4791",74.479004,79.94751,86.33844
"4792",74.49237,79.361565,85.750854
"4793",74.50568,78.77562,85.14496
"4794",74.51904,78.21652,84.5476
"4795",74.53235,77.70382,83.979164
"4796",74.545715,77.24971,83.4533
"4797",74.55902,76.8542,82.97185
"4798",74.57233,76.51972,82.53906
"4799",74.58569,76.23651,82.147095
"4800",74.599,75.99481,81.78779
"4801",74.612366,75.78485,81.45267
"4802",74.62567,75.60418,81.140274
"4803",74.63904,75.44305,80.841774
"4804",74.65234,75.30389,80.56021
"4805",74.66571,75.176926,80.2865
"4806",74.679016,75.06218,80.021034
"4807",74.69238,74.96452,79.76907
"4808",74.70569,74.881516,79.52871
"4809",74.719055,74.81804,79.30528
"4810",74.73236,74.76433,79.08964
"4811",74.74573,74.71793,78.87963
"4812",74.75903,74.67399,78.67062
"4813",74.7724,74.62272,78.45292
"4814",74.785706,74.56657,78.22873
"4815",74.79907,74.50797,78.00034
"4816",74.81238,74.45426,77.77501
"4817",74.825745,74.407875,77.55532
"4818",74.83905,74.371254,77.34395
"4819",74.85242,74.34196,77.138756
"4820",74.86572,74.322426,76.94241
"4821",74.87909,74.31754,76.76011
"4822",74.892395,74.319984,76.58498
"4823",74.90576,74.32487,76.41236
"4824",74.91907,74.32487,76.235016
"4825",74.932434,74.31754,76.05035
"4826",74.94574,74.29313,75.84836
"4827",74.95911,74.25651,75.6334
"4828",74.97241,74.215,75.41241
"4829",74.98578,74.21011,75.226746
"4830",74.999084,74.32487,75.16057
"4831",75.01245,74.70084,75.3592
"4832",75.02576,75.48699,75.97975
"4833",75.03912,76.790726,77.142456
"4834",75.05243,78.61692,78.86836
"4835",75.065796,80.848404,81.056625
"4836",75.0791,83.26055,83.495285
"4837",75.09247,85.57748,85.9141
"4838",75.105774,87.55016,88.06108
"4839",75.11914,89.01747,89.76433
"4840",75.13245,89.90616,90.934814
"4841",75.14581,90.247955,91.58618
"4842",75.15912,90.14053,91.79901
"4843",75.172485,89.720604,91.69598
"4844",75.18579,89.14198,91.42113
"4845",75.19916,88.54383,91.10866
"4846",75.21246,88.01892,90.85074
"4847",75.22583,87.60143,90.68384
"4848",75.239136,87.276726,90.59668
"4849",75.2525,86.97887,90.526215
"4850",75.26581,86.63218,90.39761
"4851",75.279175,86.19516,90.16785
"4852",75.29248,85.660484,89.82677
"4853",75.30585,85.05989,89.40306
"4854",75.31915,84.45197,88.95326
"4855",75.33252,83.90021,88.54062
"4856",75.345825,83.44854,88.21083
"4857",75.35919,83.11162,87.981674
"4858",75.3725,82.86992,87.83721
"4859",75.385864,82.69169,87.748665
"4860",75.39917,82.54032,87.68141
"4861",75.41254,82.36942,87.5899
"4862",75.42584,82.142365,87.43688
"4863",75.43921,81.832306,87.19377
"4864",75.452515,81.44167,86.8604
"4865",75.46588,80.9778,86.441574
"4866",75.47919,80.45289,85.94722
"4867",75.49255,79.90112,85.40961
"4868",75.50586,79.34936,84.85475
"4869",75.519226,78.81468,84.29974
"4870",75.53253,78.314186,83.76221
"4871",75.5459,77.86496,83.2603
"4872",75.559204,77.46456,82.79318
"4873",75.57257,77.117874,82.36726
"4874",75.58588,76.824905,81.98423
"4875",75.59924,76.578316,81.63842
"4876",75.61255,76.368355,81.32153
"4877",75.625916,76.190125,81.029816
"4878",75.63922,76.036316,80.75695
"4879",75.65259,75.8996,80.49637
"4880",75.66589,75.78241,80.251045
"4881",75.67926,75.684746,80.02158
"4882",75.692566,75.5993,79.801285
"4883",75.70593,75.528496,79.592964
"4884",75.71924,75.46258,79.387314
"4885",75.732605,75.3991,79.182045
"4886",75.74591,75.338066,78.977234
"4887",75.75928,75.27947,78.77296
"4888",75.77258,75.22087,78.56684
"4889",75.78595,75.16716,78.363785
"4890",75.799255,75.11345,78.15905
"4891",75.81262,75.05974,77.95264
"4892",75.82593,75.003586,77.7421
"4893",75.839294,74.95476,77.53714
"4894",75.8526,74.91814,77.34286
"4895",75.86597,74.90105,77.16696
"4896",75.87927,74.898605,77.00518
"4897",75.89264,74.90105,76.848206
"4898",75.905945,74.90349,76.69131
"4899",75.91931,74.898605,76.52716
"4900",75.93262,74.88396,76.353096
"4901",75.945984,74.85222,76.16148
"4902",75.95929,74.810715,75.959114
"4903",75.97266,74.77165,75.75789
"4904",75.98596,74.759445,75.5823
"4905",75.99933,74.85466,75.51375
"4906",76.012634,75.176926,75.675224
"4907",76.026,75.88251,76.23009
"4908",76.03931,77.07393,77.29284
"4909",76.05267,78.76341,78.890884
"4910",76.06598,80.85573,80.94456
"4911",76.079346,83.13603,83.2516
"4912",76.09265,85.33578,85.54935
"4913",76.10602,87.2108,87.59111
"4914",76.11932,88.59266,89.1983
"4915",76.13269,89.41787,90.29204
"4916",76.145996,89.71328,90.88176
"4917",76.15936,89.56924,91.04126
"4918",76.17267,89.12001,90.891075
"4919",76.186035,88.499886,90.555954
"4920",76.19934,87.833374,90.15506
"4921",76.21271,87.21568,89.782166
"4922",76.22601,86.68833,89.4803
"4923",76.23938,86.239105,89.24008
"4924",76.252686,85.83139,89.027336
"4925",76.26605,85.42367,88.80184
"4926",76.27936,84.97688,88.52454
"4927",76.292725,84.5008,88.20399
"4928",76.30603,84.02716,87.870995
"4929",76.3194,83.60479,87.57447
"4930",76.3327,83.2752,87.35753
"4931",76.34607,83.053024,87.2377
"4932",76.359375,82.92851,87.208595
"4933",76.37274,82.86748,87.239075
"4934",76.38605,82.82353,87.28474
"4935",76.399414,82.75517,87.30461
"4936",76.41272,82.61845,87.25398
"4937",76.42609,82.37919,87.09655
"4938",76.43939,82.03006,86.82177
"4939",76.45276,81.583275,86.43842
"4940",76.466064,81.058365,85.96299
"4941",76.47943,80.49439,85.43209
"4942",76.49274,79.91821,84.87136
"4943",76.5061,79.361565,84.31216
"4944",76.51941,78.84398,83.77462
"4945",76.532776,78.382545,83.27706
"4946",76.54608,77.98215,82.82612
"4947",76.55945,77.64767,82.42858
"4948",76.572754,77.366905,82.07431
"4949",76.58612,77.13252,81.757645
"4950",76.59943,76.93233,81.46784
"4951",76.61279,76.75166,81.191315
"4952",76.6261,76.58564,80.92378
"4953",76.639465,76.436714,80.66816
"4954",76.65277,76.299995,80.42009
"4955",76.66614,76.175476,80.17995
"4956",76.67944,76.06561,79.95057
"4957",76.69281,75.96796,79.729965
"4958",76.706116,75.88495,79.52096
"4959",76.71948,75.81171,79.31912
"4960",76.73279,75.74334,79.11987
"4961",76.746155,75.684746,78.92826
"4962",76.75946,75.62859,78.73726
"4963",76.77283,75.57244,78.5445
"4964",76.78613,75.51873,78.35243
"4965",76.7995,75.46746,78.161125
"4966",76.812805,75.423515,77.97554
"4967",76.82617,75.386894,77.795906
"4968",76.83948,75.36004,77.62489
"4969",76.852844,75.338066,77.457924
"4970",76.86615,75.318535,77.29271
"4971",76.87952,75.29168,77.11956
"4972",76.89282,75.25262,76.933365
"4973",76.90619,75.1989,76.73129
"4974",76.919495,75.13054,76.5129
"4975",76.93286,75.0573,76.28749
"4976",76.94617,75.01091,76.08665
"4977",76.95953,75.06218,75.98201
"4978",76.97284,75.33318,76.09871
"4979",76.986206,75.97528,76.59497
"4980",76.99951,77.0959,77.58982
"4981",77.01288,78.72434,79.12751
"4982",77.026184,80.7776,81.14091
"4983",77.03955,83.053024,83.44063
"4984",77.05286,85.29183,85.77484
"4985",77.06622,87.24498,87.89336
"4986",77.07953,88.7367,89.61148
"4987",77.092896,89.68398,90.83179
"4988",77.1062,90.09903,91.54946
"4989",77.11957,90.06729,91.83332
"4990",77.13287,89.720604,91.80124
"4991",77.14624,89.2079,91.59231
"4992",77.159546,88.653694,91.32585
"4993",77.17291,88.15076,91.09334
"4994",77.18622,87.73815,90.93544
"4995",77.199585,87.39391,90.83302
"4996",77.21289,87.06676,90.73692
"4997",77.22626,86.70298,90.59398
"4998",77.23956,86.258644,90.35911
"4999",77.25293,85.7264,90.022446
"5000",77.266235,85.138016,89.61301
"5001",77.2796,84.55207,89.18762
"5002",77.29291,84.017395,88.7952
"5003",77.306274,83.58526,88.4886
"5004",77.31958,83.265434,88.280815
"5005",77.33295,83.0457,88.163124
"5006",77.34625,82.88945,88.10205
"5007",77.35962,82.75029,88.053185
"5008",77.372925,82.581825,87.970665
"5009",77.38629,82.34745,87.81697
"5010",77.3996,82.022736,87.56561
"5011",77.412964,81.61013,87.21622
"5012",77.42627,81.12428,86.780685
"5013",77.43964,80.58961,86.28114
"5014",77.45294,80.03052,85.74048
"5015",77.46631,79.46899,85.1799
"5016",77.479614,78.93187,84.62619
"5017",77.49298,78.43137,84.092316
"5018",77.50629,77.977264,83.58919
"5019",77.51965,77.576866,83.12558
"5020",77.53296,77.23018,82.70317
"5021",77.546326,76.93477,82.321205
"5022",77.55963,76.6833,81.973946
"5023",77.573,76.46845,81.65546
"5024",77.5863,76.27558,81.35223
"5025",77.59967,76.104675,81.06493
"5026",77.612976,75.95087,80.7894
"5027",77.62634,75.81415,80.526146
"5028",77.63965,75.69207,80.27326
"5029",77.653015,75.58221,80.02878
"5030",77.66632,75.48455,79.79307
"5031",77.67969,75.39666,79.56407
"5032",77.69299,75.32098,79.344536
"5033",77.70636,75.25506,79.1324
"5034",77.719666,75.19646,78.92552
"5035",77.73303,75.140305,78.71926
"5036",77.74634,75.08415,78.511246
"5037",77.759705,75.02556,78.299034
"5038",77.77301,74.969406,78.08743
"5039",77.78638,74.92058,77.8814
"5040",77.79968,74.879074,77.68117
"5041",77.81305,74.844894,77.48696
"5042",77.826355,74.81804,77.29901
"5043",77.83972,74.79607,77.115105
"5044",77.85303,74.78386,76.94028
"5045",77.866394,74.77898,76.77239
"5046",77.8797,74.77898,76.60924
"5047",77.89307,74.78386,76.450966
"5048",77.90637,74.79851,76.30261
"5049",77.91974,74.81804,76.1596
"5050",77.933044,74.830246,76.00987
"5051",77.94641,74.83513,75.8532
"5052",77.95972,74.83269,75.68936
"5053",77.97308,74.830246,75.525444
"5054",77.98639,74.8571,75.39075
"5055",77.999756,75.01335,75.386284
"5056",78.01306,75.44305,75.66015
"5057",78.02643,76.299995,76.374695
"5058",78.039734,77.679405,77.63848
"5059",78.0531,79.586174,79.47273
"5060",78.06641,81.89334,81.76697
"5061",78.07977,84.37141,84.3042
"5062",78.09308,86.73716,86.80656
"5063",78.106445,88.744026,89.02396
"5064",78.11975,90.228424,90.7816
"5065",78.13312,91.13176,92.00458
"5066",78.14642,91.48333,92.70402
"5067",78.15979,91.38567,92.96522
"5068",78.173096,90.982834,92.91818
"5069",78.18646,90.423744,92.70231
"5070",78.19977,89.84024,92.44455
"5071",78.213135,89.31533,92.22715
"5072",78.22644,88.88808,92.091
"5073",78.23981,88.551155,92.03183
"5074",78.25311,88.24353,91.991425
"5075",78.26648,87.90173,91.90724
"5076",78.279785,87.467155,91.71959
"5077",78.29315,86.9276,91.413376
"5078",78.30646,86.30991,91.01218
"5079",78.319824,85.66781,90.56725
"5080",78.33313,85.05745,90.13401
"5081",78.3465,84.53742,89.772026
"5082",78.3598,84.1297,89.506096
"5083",78.37317,83.81964,89.32509
"5084",78.386475,83.580376,89.205185
"5085",78.39984,83.37774,89.11443
"5086",78.41315,83.15556,88.99781
"5087",78.42651,82.879684,88.82054
"5088",78.43982,82.52567,88.55652
"5089",78.453186,82.08865,88.198425
"5090",78.46649,81.57107,87.74611
"5091",78.47986,80.99733,87.221466
"5092",78.493164,80.39185,86.647156
"5093",78.50653,79.783936,86.05148
"5094",78.51984,79.19554,85.45634
"5095",78.5332,78.63889,84.87455
"5096",78.54651,78.13107,84.324196
"5097",78.559875,77.67696,83.81168
"5098",78.57318,77.27657,83.3387
"5099",78.58655,76.93233,82.90935
"5100",78.59985,76.63447,82.515625
"5101",78.61322,76.38056,82.15655
"5102",78.626526,76.16083,81.82371
"5103",78.63989,75.965515,81.50842
"5104",78.6532,75.79462,81.21145
"5105",78.666565,75.6408,80.926216
"5106",78.67987,75.50164,80.65083
"5107",78.69324,75.38201,80.39063
"5108",78.70654,75.27459,80.1389
"5109",78.71991,75.174484,79.89113
"5110",78.733215,75.08171,79.64756
"5111",78.74658,74.9987,79.41086
"5112",78.75989,74.92058,79.176445
"5113",78.773254,74.84978,78.946915
"5114",78.78656,74.7863,78.722496
"5115",78.79993,74.73014,78.50341
"5116",78.81323,74.67643,78.28502
"5117",78.8266,74.62516,78.06739
"5118",78.839905,74.57633,77.8506
"5119",78.85327,74.529945,77.63473
"5120",78.86658,74.49088,77.42473
"5121",78.879944,74.461586,77.223274
"5122",78.89325,74.444496,77.03311
"5123",78.90662,74.43473,76.84974
"5124",78.91992,74.42985,76.670944
"5125",78.93329,74.43473,76.50176
"5126",78.946594,74.444496,76.337616
"5127",78.95996,74.46403,76.18354
"5128",78.97327,74.49088,76.0374
"5129",78.98663,74.52018,75.89454
"5130",78.99994,74.547035,75.75015
"5131",79.013306,74.564125,75.59684
"5132",79.02661,74.57145,75.434296
"5133",79.03998,74.57877,75.27198
"5134",79.05328,74.64713,75.17093
"5135",79.06665,74.879074,75.235596
"5136",79.079956,75.43572,75.63222
"5137",79.09332,76.45869,76.51255
"5138",79.10663,78.03586,77.97906
"5139",79.119995,80.13306,80.01488
"5140",79.1333,82.58671,82.47269
"5141",79.14667,85.135574,85.10239
"5142",79.15997,87.48913,87.616425
"5143",79.17334,89.40566,89.767
"5144",79.186646,90.74357,91.398834
"5145",79.20001,91.456474,92.44748
"5146",79.21332,91.60784,92.95686
"5147",79.226685,91.30999,93.02176
"5148",79.23999,90.72404,92.789246
"5149",79.25336,90.003815,92.40415
"5150",79.26666,89.28115,91.99411
"5151",79.28003,88.636604,91.6396
"5152",79.293335,88.10681,91.3797
"5153",79.3067,87.66735,91.19357
"5154",79.32001,87.2694,91.03523
"5155",79.333374,86.84703,90.84003
"5156",79.34668,86.363625,90.57059
"5157",79.36005,85.824066,90.22989
"5158",79.37335,85.25277,89.84059
"5159",79.38672,84.70588,89.45785
"5160",79.400024,84.23468,89.133705
"5161",79.41339,83.86603,88.897385
"5162",79.4267,83.59991,88.752075
"5163",79.44006,83.41436,88.67902
"5164",79.45337,83.27276,88.64412
"5165",79.466736,83.13115,88.60478
"5166",79.48004,82.94072,88.5122
"5167",79.49341,82.669716,88.33309
"5168",79.506714,82.303505,88.05031
"5169",79.52008,81.84207,87.66086
"5170",79.53339,81.29763,87.17398
"5171",79.54675,80.69947,86.61637
"5172",79.56006,80.07446,86.01322
"5173",79.573425,79.45434,85.395424
"5174",79.58673,78.870834,84.79487
"5175",79.6001,78.34104,84.22979
"5176",79.6134,77.88205,83.718956
"5177",79.62677,77.49386,83.26458
"5178",79.640076,77.16182,82.854225
"5179",79.65344,76.876175,82.47989
"5180",79.66675,76.627144,82.13324
"5181",79.680115,76.40742,81.80811
"5182",79.69342,76.209656,81.498085
"5183",79.70679,76.036316,81.2063
"5184",79.72009,75.880066,80.926186
"5185",79.73346,75.74822,80.665596
"5186",79.746765,75.631035,80.41554
"5187",79.76013,75.53338,80.18136
"5188",79.77344,75.44793,79.95633
"5189",79.786804,75.369804,79.735954
"5190",79.80011,75.29656,79.51802
"5191",79.81348,75.23064,79.305115
"5192",79.82678,75.1696,79.09504
"5193",79.84015,75.11589,78.89038
"5194",79.853455,75.06462,78.686485
"5195",79.86682,75.01335,78.48099
"5196",79.88013,74.96208,78.27389
"5197",79.89349,74.915695,78.07007
"5198",79.9068,74.881516,77.87701
"5199",79.920166,74.85954,77.69508
"5200",79.93347,74.847336,77.52224
"5201",79.94684,74.84001,77.3539
"5202",79.960144,74.83757,77.19021
"5203",79.97351,74.827805,77.01912
"5204",79.98682,74.80583,76.83552
"5205",80.00018,74.76921,76.63658
"5206",80.01349,74.72526,76.42917
"5207",80.026855,74.686195,76.22527
"5208",80.04016,74.686195,76.05922
"5209",80.05353,74.82536,76.03233
"5210",80.06683,75.245285,76.29055
"5211",80.0802,76.102234,76.99892
"5212",80.093506,77.49386,78.26874
"5213",80.10687,79.4226,80.11916
"5214",80.12018,81.75906,82.437584
"5215",80.133545,84.26887,85.00236
"5216",80.14685,86.65659,87.52348
"5217",80.16022,88.66346,89.738365
"5218",80.17352,90.10635,91.451996
"5219",80.18689,90.91936,92.580826
"5220",80.200195,91.12932,93.13202
"5221",80.21356,90.84123,93.19173
"5222",80.22687,90.21622,92.9055
"5223",80.240234,89.41299,92.42153
"5224",80.25354,88.57801,91.880714
"5225",80.26691,87.818726,91.389496
"5226",80.28021,87.17174,90.98685
"5227",80.29358,86.61753,90.65675
"5228",80.306885,86.11948,90.36549
"5229",80.32025,85.626305,90.06355
"5230",80.33356,85.10872,89.72179
"5231",80.346924,84.56672,89.33943
"5232",80.36023,84.04669,88.96211
"5233",80.3736,83.5877,88.62958
"5234",80.3869,83.23369,88.38768
"5235",80.40027,82.98955,88.24459
"5236",80.413574,82.845505,88.19397
"5237",80.42694,82.77226,88.20965
"5238",80.44025,82.718544,88.24256
"5239",80.45361,82.62333,88.2323
"5240",80.46692,82.44999,88.14094
"5241",80.480286,82.16922,87.93673
"5242",80.49359,81.77127,87.60657
"5243",80.50696,81.26589,87.15654
"5244",80.52026,80.68726,86.61747
"5245",80.53363,80.06714,86.01882
"5246",80.546936,79.447014,85.400795
"5247",80.5603,78.853745,84.790245
"5248",80.57361,78.311745,84.212425
"5249",80.586975,77.83322,83.681145
"5250",80.60028,77.420616,83.20083
"5251",80.61365,77.069046,82.768654
"5252",80.62695,76.771194,82.37921
"5253",80.64032,76.51972,82.02684
"5254",80.653625,76.30732,81.70568
"5255",80.66699,76.11688,81.39985
"5256",80.6803,75.945984,81.107605
"5257",80.693665,75.78485,80.819786
"5258",80.70697,75.63836,80.54157
"5259",80.72034,75.50652,80.27344
"5260",80.73364,75.39422,80.02071
"5261",80.74701,75.30389,79.78645
"5262",80.760315,75.23308,79.56889
"5263",80.77368,75.174484,79.361336
"5264",80.78699,75.125656,79.16171
"5265",80.800354,75.07927,78.963005
"5266",80.81366,75.035324,78.76529
"5267",80.82703,74.99626,78.57108
"5268",80.84033,74.95964,78.3781
"5269",80.8537,74.92302,78.18397
"5270",80.867004,74.88884,77.991135
"5271",80.88037,74.8571,77.799675
"5272",80.89368,74.827805,77.609665
"5273",80.90704,74.79851,77.41874
"5274",80.92035,74.77898,77.236664
"5275",80.933716,74.76677,77.0613
"5276",80.94702,74.759445,76.89044
"5277",80.96039,74.75456,76.721794
"5278",80.973694,74.75212,76.555435
"5279",80.98706,74.74967,76.38899
"5280",81.00037,74.73991,76.21516
"5281",81.01373,74.72282,76.03369
"5282",81.02704,74.70084,75.84681
"5283",81.040405,74.68864,75.66901
"5284",81.05371,74.74235,75.55674
"5285",81.06708,74.98161,75.63171
"5286",81.08038,75.57488,76.06815
"5287",81.09375,76.67353,77.02852
"5288",81.107056,78.345924,78.59696
"5289",81.12042,80.54566,80.74501
"5290",81.13373,83.09697,83.31337
"5291",81.147095,85.71908,86.03226
"5292",81.1604,88.10437,88.59627
"5293",81.17377,90.006256,90.75142
"5294",81.18707,91.2929,92.35076
"5295",81.20044,91.930115,93.34088
"5296",81.213745,91.99115,93.774734
"5297",81.22711,91.6054,93.76371
"5298",81.24042,90.948654,93.469635
"5299",81.253784,90.17227,93.0354
"5300",81.26709,89.41299,92.594
"5301",81.28046,88.74647,92.22164
"5302",81.29376,88.20203,91.95053
"5303",81.30713,87.75281,91.75763
"5304",81.320435,87.33776,91.584854
"5305",81.3338,86.88365,91.36005
"5306",81.34711,86.35142,91.04292
"5307",81.36047,85.73373,90.62371
"5308",81.37378,85.07454,90.1437
"5309",81.387146,84.42512,89.652855
"5310",81.40045,83.8465,89.21252
"5311",81.41382,83.370415,88.856636
"5312",81.427124,82.99687,88.58842
"5313",81.44049,82.701454,88.38665
"5314",81.4538,82.45487,88.22449
"5315",81.46716,82.210724,88.05705
"5316",81.48047,81.93729,87.8527
"5317",81.493835,81.600365,87.57632
"5318",81.50714,81.1902,87.21616
"5319",81.52051,80.706795,86.76995
"5320",81.53381,80.15991,86.245155
"5321",81.54718,79.569084,85.659325
"5322",81.560486,78.958725,85.0355
"5323",81.57385,78.35813,84.40237
"5324",81.58716,77.79172,83.784645
"5325",81.600525,77.27413,83.19805
"5326",81.61383,76.807816,82.64655
"5327",81.6272,76.39521,82.13419
"5328",81.6405,76.03876,81.66509
"5329",81.65387,75.72381,81.22636
"5330",81.667175,75.45037,80.81929
"5331",81.68054,75.211105,80.43785
"5332",81.69385,75.003586,80.08068
"5333",81.707214,74.8156,79.73656
"5334",81.72052,74.652016,79.410965
"5335",81.73389,74.50797,79.0998
"5336",81.74719,74.38834,78.80855
"5337",81.76056,74.28336,78.528206
"5338",81.773865,74.195465,78.261665
"5339",81.78723,74.1149,77.99971
"5340",81.80054,74.039215,77.74012
"5341",81.8139,73.96353,77.478165
"5342",81.82721,73.89029,77.216286
"5343",81.840576,73.81949,76.95456
"5344",81.85388,73.75357,76.6955
"5345",81.86725,73.69741,76.444145
"5346",81.880554,73.653465,76.20325
"5347",81.89392,73.616844,75.9683
"5348",81.90723,73.58999,75.741974
"5349",81.92059,73.57046,75.52213
"5350",81.9339,73.55581,75.306564
"5351",81.947266,73.548485,75.09786
"5352",81.96057,73.55581,74.90358
"5353",81.97394,73.57046,74.71685
"5354",81.98724,73.58755,74.53302
"5355",82.00061,73.599754,74.34484
"5356",82.013916,73.602196,74.14728
"5357",82.02728,73.59243,73.937584
"5358",82.04059,73.585106,73.73003
"5359",82.053955,73.619286,73.56374
"5360",82.06726,73.78287,73.52793
"5361",82.08063,74.19791,73.74869
"5362",82.09393,74.99138,74.36085
"5363",82.1073,76.224304,75.437256
"5364",82.120605,77.874725,76.96969
"5365",82.13397,79.81079,78.83934
"5366",82.14728,81.82742,80.85006
"5367",82.160645,83.69512,82.774864
"5368",82.17395,85.22102,84.41624
"5369",82.18732,86.2855,85.64387
"5370",82.20062,86.86656,86.42135
"5371",82.21399,87.01549,86.78485
"5372",82.227295,86.82506,86.81365
"5373",82.24066,86.42222,86.62409
"5374",82.25397,85.93637,86.338936
"5375",82.267334,85.46029,86.04836
"5376",82.28064,85.05745,85.816154
"5377",82.29401,84.74494,85.66169
"5378",82.30731,84.49836,85.563385
"5379",82.32068,84.26887,85.474464
"5380",82.333984,84.01007,85.34907
"5381",82.34735,83.682915,85.147224
"5382",82.36066,83.29717,84.87657
"5383",82.37402,82.87724,84.55968
"5384",82.38733,82.47196,84.24431
"5385",82.400696,82.127716,83.97731
"5386",82.414,81.87137,83.78745
"5387",82.42737,81.69802,83.672585
"5388",82.440674,81.58816,83.61578
"5389",82.45404,81.51003,83.58729
"5390",82.46735,81.427025,83.55147
"5391",82.48071,81.304955,83.47399
"5392",82.49402,81.12184,83.33166
"5393",82.507385,80.867935,83.11281
"5394",82.52069,80.54566,82.81766
"5395",82.53406,80.16724,82.45628
"5396",82.54736,79.7522,82.04647
"5397",82.56073,79.31518,81.60171
"5398",82.574036,78.88304,81.14817
"5399",82.5874,78.47288,80.7031
"5400",82.60071,78.1091,80.2916
"5401",82.614075,77.786835,79.91025
"5402",82.62738,77.50851,79.56276
"5403",82.64075,77.264366,79.24076
"5404",82.65405,77.051956,78.94286
"5405",82.66742,76.86397,78.66275
"5406",82.680725,76.700386,78.40117
"5407",82.69409,76.56611,78.16378
"5408",82.7074,76.46357,77.95393
"5409",82.720764,76.39277,77.77262
"5410",82.73407,76.3415,77.60863
"5411",82.74744,76.30732,77.46012
"5412",82.76074,76.280464,77.31787
"5413",82.77411,76.26093,77.182106
"5414",82.787415,76.23651,77.04084
"5415",82.80078,76.21454,76.90126
"5416",82.81409,76.1828,76.75123
"5417",82.82745,76.15106,76.600204
"5418",82.84076,76.11932,76.44819
"5419",82.854126,76.09247,76.300064
"5420",82.86743,76.070496,76.15598
"5421",82.8808,76.06073,76.02342
"5422",82.894104,76.06561,75.905205
"5423",82.90747,76.07782,75.794464
"5424",82.92078,76.09735,75.69143
"5425",82.93414,76.11932,75.591446
"5426",82.94745,76.13641,75.48727
"5427",82.960815,76.1413,75.371414
"5428",82.97412,76.138855,75.24839
"5429",82.98749,76.12421,75.11308
"5430",83.00079,76.10956,74.97732
"5431",83.01416,76.10956,74.85574
"5432",83.027466,76.17059,74.795204
"5433",83.04083,76.368355,74.8733
"5434",83.05414,76.807816,75.19927
"5435",83.067505,77.56954,75.861244
"5436",83.08081,78.69016,76.905914
"5437",83.09418,80.12085,78.29567
"5438",83.10748,81.72976,79.908356
"5439",83.12085,83.32647,81.55912
"5440",83.134155,84.72541,83.06201
"5441",83.14752,85.787445,84.27171
"5442",83.16083,86.44419,85.109314
"5443",83.174194,86.70298,85.56948
"5444",83.1875,86.62974,85.7057
"5445",83.20087,86.31968,85.60282
"5446",83.21417,85.8851,85.36573
"5447",83.22754,85.42123,85.08576
"5448",83.240845,85.00862,84.84257
"5449",83.25421,84.67902,84.66949
"5450",83.26752,84.43,84.56668
"5451",83.28088,84.224915,84.50003
"5452",83.29419,84.017395,84.42454
"5453",83.307556,83.775696,84.30838
"5454",83.32086,83.492485,84.14316
"5455",83.33423,83.192184,83.951996
"5456",83.347534,82.90654,83.766106
"5457",83.3609,82.68192,83.63232
"5458",83.37421,82.53544,83.56964
"5459",83.38757,82.46708,83.58051
"5460",83.40088,82.44999,83.64052
"5461",83.414246,82.45731,83.7244
"5462",83.42755,82.44511,83.78899
"5463",83.44092,82.38407,83.80436
"5464",83.45422,82.247345,83.742134
"5465",83.46759,82.0325,83.59752
"5466",83.480896,81.75174,83.38027
"5467",83.49426,81.4197,83.102974
"5468",83.50757,81.06081,82.788445
"5469",83.520935,80.70191,82.4627
"5470",83.53424,80.360115,82.14284
"5471",83.54761,80.04761,81.84158
"5472",83.56091,79.77417,81.56963
"5473",83.57428,79.54711,81.33552
"5474",83.587585,79.36889,81.14314
"5475",83.60095,79.22484,80.97937
"5476",83.61426,79.10765,80.83796
"5477",83.627625,79.00755,80.70998
"5478",83.6543,78.836655,80.474304
"5479",83.6676,78.76097,80.36227
"5480",83.68097,78.695045,80.25762
"5481",83.694275,78.63401,80.15581
"5482",83.70764,78.58274,80.06185
"5483",83.72095,78.53147,79.96629
"5484",83.734314,78.48264,79.871574
"5485",83.74762,78.43137,79.77289
"5486",83.76099,78.37766,79.67016
"5487",83.77429,78.31907,79.56087
"5488",83.78766,78.25559,79.44486
"5489",83.800964,78.187225,79.32198
"5490",83.81433,78.12131,79.19942
"5491",83.82764,78.065155,79.08456
"5492",83.841,78.02121,78.98015
"5493",83.85431,77.98459,78.88169
"5494",83.867676,77.95529,78.78941
"5495",83.88098,77.925995,78.69622
"5496",83.89435,77.891815,78.59723
"5497",83.90765,77.85031,78.489845
"5498",83.92102,77.79904,78.3714
"5499",83.934326,77.73556,78.239136
"5500",83.94769,77.662315,78.09513
"5501",83.961,77.591515,77.95128
"5502",83.974365,77.54269,77.82719
"5503",83.98767,77.56954,77.77725
"5504",84.00104,77.75754,77.8893
"5505",84.01434,78.20187,78.26356
"5506",84.02771,78.97337,78.97887
"5507",84.041016,80.07202,80.04543
"5508",84.05438,81.41726,81.39292
"5509",84.06769,82.86015,82.880104
"5510",84.081055,84.22247,84.3318
"5511",84.09436,85.33822,85.5795
"5512",84.10773,86.11459,86.52269
"5513",84.12103,86.522316,87.12149
"5514",84.1344,86.60288,87.405876
"5515",84.147705,86.4271,87.43643
"5516",84.16107,86.0975,87.30768
"5517",84.17438,85.711754,87.11247
"5518",84.187744,85.3431,86.92231
"5519",84.20105,85.03548,86.781654
"5520",84.21442,84.81087,86.7144
"5521",84.22772,84.6424,86.69627
"5522",84.24109,84.48371,86.682655
"5523",84.254395,84.281075,86.62013
"5524",84.26776,84.00519,86.47803
"5525",84.28107,83.65606,86.25406
"5526",84.29443,83.26055,85.9728
"5527",84.30774,82.86748,85.68162
"5528",84.321106,82.533,85.436745
"5529",84.33441,82.28153,85.264435
"5530",84.34778,82.11307,85.16727
"5531",84.361084,82.00076,85.120995
"5532",84.37445,81.91531,85.09807
"5533",84.38776,81.82498,85.06759
"5534",84.40112,81.705345,85.00498
"5535",84.41443,81.53445,84.887375
"5536",84.427795,81.31228,84.71316
"5537",84.4411,81.03883,84.48072
"5538",84.45447,80.726326,84.200676
"5539",84.46777,80.38209,83.879135
"5540",84.48114,80.03296,83.54195
"5541",84.494446,79.693596,83.20361
"5542",84.50781,79.37621,82.876656
"5543",84.52112,79.09056,82.57151
"5544",84.534485,78.84642,82.29895
"5545",84.54779,78.63889,82.055374
"5546",84.56116,78.47288,81.846825
"5547",84.57446,78.33616,81.662384
"5548",84.58783,78.22629,81.50052
"5549",84.601135,78.12375,81.34255
"5550",84.6145,78.030975,81.19115
"5551",84.62781,77.94064,81.03928
"5552",84.641174,77.85275,80.88704
"5553",84.65448,77.76486,80.73205
"5554",84.66785,77.68673,80.58407
"5555",84.68115,77.61593,80.44098
"5556",84.69452,77.55978,80.310326
"5557",84.707825,77.50851,80.1828
"5558",84.72119,77.46456,80.061
"5559",84.7345,77.42306,79.94026
"5560",84.74786,77.37911,79.81579
"5561",84.76117,77.332726,79.6875
"5562",84.774536,77.29122,79.562645
"5563",84.78784,77.25216,79.438934
"5564",84.80121,77.22041,79.32132
"5565",84.814514,77.196,79.210045
"5566",84.82788,77.17647,79.10289
"5567",84.84119,77.15938,78.99757
"5568",84.85455,77.14717,78.89659
"5569",84.86786,77.137405,78.797676
"5570",84.881226,77.12764,78.698456
"5571",84.89453,77.12276,78.60381
"5572",84.9079,77.120316,78.51146
"5573",84.9212,77.117874,78.41903
"5574",84.93457,77.11299,78.32408
"5575",84.947876,77.103226,78.2241
"5576",84.96124,77.08858,78.11893
"5577",84.97455,77.07881,78.01818
"5578",84.987915,77.10811,77.95619
"5579",85.00122,77.242386,78.0001
"5580",85.01459,77.57931,78.25085
"5581",85.02789,78.20676,78.80265
"5582",85.04126,79.166245,79.7061
"5583",85.054565,80.42359,80.93739
"5584",85.06793,81.87137,82.39841
"5585",85.08124,83.33135,83.91687
"5586",85.094604,84.62043,85.31005
"5587",85.10791,85.609215,86.44322
"5588",85.12128,86.239105,87.2484
"5589",85.13458,86.51743,87.721695
"5590",85.14795,86.51011,87.91804
"5591",85.161255,86.30503,87.9164
"5592",85.17462,85.997406,87.8058
"5593",85.18793,85.660484,87.656296
"5594",85.201294,85.35775,87.53045
"5595",85.2146,85.10628,87.4464
"5596",85.22797,84.910965,87.41066
"5597",85.24127,84.732735,87.385895
"5598",85.25464,84.52766,87.32871
"5599",85.267944,84.244446,87.18699
"5600",85.28131,83.8587,86.93388
"5601",85.29462,83.370415,86.56618
"5602",85.30798,82.81865,86.119736
"5603",85.32129,82.25956,85.64873
"5604",85.334656,81.76395,85.223724
"5605",85.34796,81.358665,84.873566
"5606",85.36133,81.058365,84.61572
"5607",85.37463,80.83864,84.42907
"5608",85.388,80.672615,84.28925
"5609",85.401306,80.52369,84.16135
"5610",85.41467,80.36988,84.0239
"5611",85.42798,80.198975,83.864555
"5612",85.441345,80.01099,83.682785
"5613",85.45465,79.80347,83.47561
"5614",85.46802,79.58373,83.24973
"5615",85.48132,79.35668,83.009674
"5616",85.49469,79.13695,82.76984
"5617",85.507996,78.92699,82.532906
"5618",85.52136,78.73655,82.30894
"5619",85.53467,78.57542,82.10832
"5620",85.548035,78.44114,81.92953
"5621",85.56134,78.328835,81.76851
"5622",85.57471,78.23361,81.62106
"5623",85.58801,78.14084,81.47309
"5624",85.60138,78.03586,81.31001
"5625",85.614685,77.908905,81.12168
"5626",85.62805,77.752655,80.900085
"5627",85.64136,77.56222,80.63942
"5628",85.654724,77.33761,80.33863
"5629",85.66803,77.09102,80.00884
"5630",85.6814,76.83467,79.66159
"5631",85.6947,76.57099,79.298996
"5632",85.70807,76.314644,78.93549
"5633",85.721375,76.07294,78.57862
"5634",85.73474,75.85077,78.233734
"5635",85.74805,75.64568,77.89899
"5636",85.76141,75.46258,77.57981
"5637",85.77472,75.30877,77.28421
"5638",85.788086,75.18181,77.01065
"5639",85.80139,75.08415,76.76243
"5640",85.81476,75.00847,76.53313
"5641",85.828064,74.949875,76.31855
"5642",85.84143,74.90349,76.11435
"5643",85.85474,74.86931,75.920906
"5644",85.8681,74.84978,75.74104
"5645",85.88141,74.84001,75.570335
"5646",85.894775,74.85222,75.421295
"5647",85.90808,74.8864,75.29461
"5648",85.92145,74.94499,75.193405
"5649",85.93475,75.020676,75.11112
"5650",85.94812,75.11101,75.04585
"5651",85.961426,75.211105,74.99317
"5652",85.97479,75.30877,74.941185
"5653",85.9881,75.39666,74.88248
"5654",86.001465,75.47723,74.81919
"5655",86.01477,75.56756,74.76819
"5656",86.02814,75.718925,74.781044
"5657",86.04144,76.02167,74.950005
"5658",86.05481,76.58076,75.38477
"5659",86.068115,77.48165,76.17882
"5660",86.08148,78.73411,77.35258
"5661",86.09479,80.27711,78.85602
"5662",86.108154,81.9617,80.54927
"5663",86.12146,83.60723,82.2561
"5664",86.13483,85.04036,83.801956
"5665",86.14813,86.14145,85.060555
"5666",86.1615,86.86656,85.977585
"5667",86.174805,87.235214,86.560814
"5668",86.18817,87.31579,86.867485
"5669",86.20148,87.2108,86.99112
"5670",86.21484,87.02525,87.03091
"5671",86.22815,86.854355,87.079544
"5672",86.241516,86.76158,87.200966
"5673",86.25482,86.77135,87.42203
"5674",86.26819,86.873886,87.73617
"5675",86.281494,87.030136,88.10722
"5676",86.29486,87.19371,88.490486
"5677",86.30817,87.327995,88.84957
"5678",86.32153,87.411,89.161575
"5679",86.33484,87.447624,89.429794
"5680",86.348206,87.44518,89.660095
"5681",86.36151,87.43542,89.882996
"5682",86.37488,87.42321,90.10315
"5683",86.38818,87.413445,90.32536
"5684",86.40155,87.398796,90.54239
"5685",86.414856,87.36462,90.739426
"5686",86.42822,87.291374,90.89633
"5687",86.44153,87.15953,90.99234
"5688",86.454895,86.95201,91.00855
"5689",86.4682,86.67124,90.94503
"5690",86.48157,86.31724,90.7995
"5691",86.49487,85.892426,90.5721
"5692",86.50824,85.40902,90.27283
"5693",86.521545,84.88655,89.91939
"5694",86.53491,84.334785,89.520325
"5695",86.54822,83.77081,89.09181
"5696",86.561584,83.22392,88.66276
"5697",86.57489,82.70878,88.24836
"5698",86.58826,82.230255,87.854485
"5699",86.60156,81.79324,87.48717
"5700",86.61493,81.40017,87.15013
"5701",86.628235,81.03883,86.83255
"5702",86.6416,80.706795,86.532974
"5703",86.65491,80.39918,86.247444
"5704",86.668274,80.11841,85.97915
"5705",86.68158,79.85962,85.72406
"5706",86.69495,79.61791,85.47797
"5707",86.70825,79.38842,85.236534
"5708",86.72162,79.17113,85.00013
"5709",86.734924,78.96361,84.76671
"5710",86.74829,78.75853,84.52924
"5711",86.7616,78.56565,84.29757
"5712",86.77496,78.38499,84.07208
"5713",86.78827,78.21652,83.85315
"5714",86.801636,78.05051,83.6314
"5715",86.81494,77.88937,83.40935
"5716",86.82831,77.73556,83.189575
"5717",86.84161,77.58419,82.967445
"5718",86.85498,77.437706,82.74547
"5719",86.868286,77.30587,82.53356
"5720",86.88165,77.188675,82.33218
"5721",86.89496,77.07881,82.13446
"5722",86.908325,76.97383,81.938194
"5723",86.92163,76.87373,81.74353
"5724",86.935,76.77608,81.54818
"5725",86.9483,76.67597,81.34733
"5726",86.96167,76.575874,81.14336
"5727",86.974976,76.47578,80.93626
"5728",86.98834,76.39765,80.748
"5729",87.00165,76.39277,80.63055
"5730",87.015015,76.55146,80.67651
"5731",87.02832,76.9836,81.000885
"5732",87.04169,77.77951,81.70254
"5733",87.05499,78.9514,82.80504
"5734",87.06836,80.44312,84.26399
"5735",87.081665,82.108185,85.9429
"5736",87.09503,83.76105,87.661644
"5737",87.10834,85.2137,89.23183
"5738",87.121704,86.32456,90.505615
"5739",87.13501,87.02525,91.403946
"5740",87.14838,87.32067,91.9189
"5741",87.16168,87.26696,92.09396
"5742",87.17505,86.96422,92.01831
"5743",87.188354,86.53208,91.8038
"5744",87.20172,86.082855,91.5587
"5745",87.21503,85.68734,91.35327
"5746",87.22839,85.37972,91.22338
"5747",87.2417,85.14534,91.15711
"5748",87.255066,84.93294,91.1055
"5749",87.26837,84.681465,91.00818
"5750",87.28174,84.35432,90.827324
"5751",87.295044,83.95392,90.562996
"5752",87.30841,83.51446,90.24709
"5753",87.32172,83.09209,89.93455
"5754",87.33508,82.735634,89.67472
"5755",87.34839,82.46952,89.494095
"5756",87.361755,82.2913,89.39304
"5757",87.37506,82.176544,89.34989
"5758",87.38843,82.08865,89.33002
"5759",87.40173,81.99344,89.30007
"5760",87.4151,81.85428,89.223206
"5761",87.428406,81.64675,89.07362
"5762",87.44177,81.358665,88.837
"5763",87.45508,80.99733,88.51812
"5764",87.468445,80.57496,88.126915
"5765",87.48175,80.11841,87.68833
"5766",87.49512,79.64721,87.22083
"5767",87.50842,79.19066,86.75326
"5768",87.52179,78.76097,86.29828
"5769",87.535095,78.37522,85.87381
"5770",87.54846,78.030975,85.47879
"5771",87.56177,77.733116,85.1194
"5772",87.575134,77.47677,84.79221
"5773",87.58844,77.2546,84.491196
"5774",87.60181,77.05684,84.20764
"5775",87.61511,76.8835,83.94233
"5776",87.62848,76.72236,83.6838
"5777",87.641785,76.57343,83.43245
"5778",87.65515,76.43427,83.18621
"5779",87.66846,76.30244,82.94295
"5780",87.68182,76.18036,82.70532
"5781",87.69513,76.068054,82.473656
"5782",87.708496,75.96307,82.245804
"5783",87.7218,75.86786,82.02444
"5784",87.73517,75.77753,81.80498
"5785",87.748474,75.68963,81.58513
"5786",87.76184,75.596855,81.35766
"5787",87.77515,75.49676,81.119965
"5788",87.78851,75.386894,80.86938
"5789",87.80182,75.26238,80.60071
"5790",87.815186,75.125656,80.31593
"5791",87.82849,74.99138,80.029335
"5792",87.84186,74.87419,79.75563
"5793",87.85516,74.81804,79.5393
"5794",87.86853,74.896164,79.45549
"5795",87.881836,75.1989,79.59873
"5796",87.8952,75.809265,80.05907
"5797",87.90851,76.749214,80.86806
"5798",87.921875,77.97482,81.99208
"5799",87.93518,79.35668,83.31065
"5800",87.94855,80.726326,84.660194
"5801",87.96185,81.91287,85.86944
"5802",87.97522,82.78691,86.80325
"5803",87.988525,83.299614,87.403046
"5804",88.00189,83.46075,87.66729
"5805",88.0152,83.34112,87.65581
"5806",88.028564,83.03105,87.45015
"5807",88.04187,82.633095,87.14691
"5808",88.05524,82.22781,86.82391
"5809",88.06854,81.86893,86.534645
"5810",88.08191,81.56863,86.29275
"5811",88.095215,81.30007,86.07321
"5812",88.10858,81.02663,85.84039
"5813",88.12189,80.719,85.56485
"5814",88.135254,80.37232,85.24064
"5815",88.14856,80.01343,84.89338
"5816",88.16193,79.676506,84.55688
"5817",88.17523,79.41039,84.280655
"5818",88.1886,79.22484,84.076675
"5819",88.201904,79.12474,83.952354
"5820",88.21527,79.08568,83.88594
"5821",88.22858,79.07103,83.84272
"5822",88.24194,79.03685,83.77951
"5823",88.25525,78.95384,83.666405
"5824",88.268616,78.802475,83.482346
"5825",88.28192,78.58274,83.22519
"5826",88.29529,78.30198,82.90014
"5827",88.30859,77.98459,82.529686
"5828",88.32196,77.64767,82.12978
"5829",88.335266,77.313194,81.7218
"5830",88.34863,76.98848,81.313126
"5831",88.36194,76.69062,80.92116
"5832",88.375305,76.42695,80.55407
"5833",88.38861,76.20477,80.22024
"5834",88.40198,76.02411,79.920975
"5835",88.41528,75.88251,79.65513
"5836",88.42865,75.7702,79.414154
"5837",88.441956,75.67498,79.18675
"5838",88.45532,75.59197,78.96859
"5839",88.46863,75.51873,78.7576
"5840",88.481995,75.44793,78.54676
"5841",88.4953,75.38201,78.33859
"5842",88.50867,75.32342,78.13569
"5843",88.52197,75.27459,77.94072
"5844",88.53534,75.23552,77.75398
"5845",88.548645,75.20622,77.5758
"5846",88.56201,75.18913,77.408905
"5847",88.57532,75.18425,77.253685
"5848",88.588684,75.18181,77.10075
"5849",88.60199,75.18425,76.95263
"5850",88.61536,75.18669,76.80458
"5851",88.62866,75.18425,76.651726
"5852",88.64203,75.176926,76.49391
"5853",88.655334,75.16472,76.330986
"5854",88.6687,75.14763,76.162796
"5855",88.68201,75.13298,75.99651
"5856",88.69537,75.123215,75.834656
"5857",88.70868,75.14519,75.70423
"5858",88.722046,75.2404,75.647736
"5859",88.73535,75.48455,75.74315
"5860",88.74872,75.945984,76.06348
"5861",88.762024,76.66865,76.659454
"5862",88.77539,77.6379,77.524605
"5863",88.7887,78.77074,78.583626
"5864",88.80206,79.93042,79.704895
"5865",88.81537,80.970474,80.742775
"5866",88.828735,81.778595,81.58122
"5867",88.84204,82.30839,82.166595
"5868",88.85541,82.57206,82.5024
"5869",88.86871,82.62333,82.63405
"5870",88.88208,82.53788,82.63058
"5871",88.895386,82.39628,82.56828
"5872",88.90875,82.25712,82.504005
"5873",88.92206,82.16434,82.48176
"5874",88.935425,82.127716,82.51277
"5875",88.94873,82.12283,82.57438
"5876",88.9621,82.11795,82.63583
"5877",88.9754,82.0618,82.64587
"5878",88.98877,81.917755,82.56625
"5879",89.002075,81.67605,82.384476
"5880",89.01544,81.36843,82.129234
"5881",89.02875,81.03639,81.83996
"5882",89.042114,80.73853,81.574486
"5883",89.05542,80.51392,81.372955
"5884",89.06879,80.38209,81.25718
"5885",89.08209,80.323494,81.210526
"5886",89.09546,80.30396,81.2011
"5887",89.108765,80.28687,81.19351
"5888",89.12213,80.24292,81.15852
"5889",89.13544,80.15503,81.078224
"5890",89.1488,80.02075,80.94879
"5891",89.16211,79.852295,80.78098
"5892",89.175476,79.656975,80.58105
"5893",89.18878,79.44457,80.357925
"5894",89.20215,79.23216,80.12816
"5895",89.215454,79.02464,79.896645
"5896",89.22882,78.82933,79.67085
"5897",89.24213,78.6511,79.45604
"5898",89.25549,78.49729,79.26008
"5899",89.2688,78.363014,79.07884
"5900",89.282166,78.24826,78.91293
"5901",89.29547,78.150604,78.76054
"5902",89.30884,78.07004,78.62218
"5903",89.32214,78.00168,78.49351
"5904",89.33551,77.945526,78.37491
"5905",89.348816,77.90646,78.271645
"5906",89.36218,77.87717,78.176926
"5907",89.37549,77.86008,78.0935
"5908",89.388855,77.840546,78.007095
"5909",89.40216,77.81857,77.91764
"5910",89.41553,77.79416,77.82506
"5911",89.42883,77.76486,77.72683
"5912",89.4422,77.733116,77.62524
"5913",89.455505,77.70382,77.5251
"5914",89.46887,77.68185,77.43137
"5915",89.48218,77.662315,77.3394
"5916",89.495544,77.64767,77.2517
"5917",89.50885,77.63302,77.16354
"5918",89.52222,77.62325,77.07981
"5919",89.53552,77.61593,76.998215
"5920",89.54889,77.611046,76.91883
"5921",89.562195,77.60616,76.839294
"5922",89.57556,77.608604,76.76693
"5923",89.58887,77.61837,76.701965
"5924",89.602234,77.628136,76.63731
"5925",89.61554,77.6379,76.57295
"5926",89.62891,77.64767,76.5089
"5927",89.64221,77.65011,76.437836
"5928",89.65558,77.645226,76.35952
"5929",89.668884,77.64034,76.28105
"5930",89.68225,77.6672,76.23417
"5931",89.69556,77.78439,76.278465
"5932",89.70892,78.06271,76.48755
"5933",89.72223,78.56077,76.925064
"5934",89.735596,79.28832,77.60764
"5935",89.7489,80.19653,78.493614
"5936",89.76227,81.17799,79.48122
"5937",89.77557,82.10086,80.440895
"5938",89.78894,82.83818,81.243866
"5939",89.802246,83.32891,81.82329
"5940",89.81561,83.563286,82.16169
"5941",89.82892,83.5877,82.297455
"5942",89.842285,83.46319,82.28506
"5943",89.85559,83.267876,82.19797
"5944",89.86896,83.072556,82.10477
"5945",89.88226,82.916306,82.04453
"5946",89.89563,82.82353,82.04289
"5947",89.908936,82.78691,82.094505
"5948",89.9223,82.77959,82.17427
"5949",89.93561,82.757614,82.23916
"5950",89.948975,82.669716,82.237434
"5951",89.96228,82.5037,82.15485
"5952",89.97565,82.26444,81.99383
"5953",89.98895,81.97879,81.77894
"5954",90.00232,81.69314,81.55512
"5955",90.015625,81.45388,81.368774
"5956",90.02899,81.287865,81.24819
"5957",90.0423,81.197525,81.1981
"5958",90.055664,81.16579,81.20378
"5959",90.06897,81.163345,81.23777
"5960",90.08234,81.15602,81.2668
"5961",90.09564,81.1194,81.266304
"5962",90.10901,81.04616,81.22804
"5963",90.122314,80.92653,81.141106
"5964",90.13568,80.77516,81.01869
"5965",90.14899,80.601814,80.86957
"5966",90.16235,80.42115,80.70771
"5967",90.17566,80.233154,80.532875
"5968",90.189026,80.05493,80.36194
"5969",90.20233,79.888916,80.19764
"5970",90.2157,79.73998,80.045235
"5971",90.229004,79.61059,79.907715
"5972",90.24237,79.50317,79.788124
"5973",90.25568,79.415276,79.68471
"5974",90.26904,79.344475,79.595634
"5975",90.28235,79.28588,79.516556
"5976",90.295715,79.234604,79.44296
"5977",90.30902,79.19066,79.3751
"5978",90.32239,79.151596,79.310745
"5979",90.33569,79.114975,79.24761
"5980",90.34906,79.08568,79.19066
"5981",90.362366,79.06615,79.142555
"5982",90.37573,79.05394,79.101166
"5983",90.38904,79.04173,79.059395
"5984",90.402405,79.01732,79.005035
"5985",90.41571,78.97826,78.935265
"5986",90.42908,78.92943,78.85451
"5987",90.44238,78.8806,78.772224
"5988",90.45575,78.836655,78.6933
"5989",90.469055,78.8098,78.63009
"5990",90.48242,78.80003,78.58313
"5991",90.49573,78.79515,78.54075
"5992",90.509094,78.79027,78.498215
"5993",90.5224,78.77806,78.448204
"5994",90.53577,78.765854,78.39781
"5995",90.54907,78.746315,78.33971
"5996",90.56244,78.7219,78.276115
"5997",90.575745,78.69749,78.21176
"5998",90.58911,78.677956,78.15153
"5999",90.60242,78.658424,78.09068
"6000",90.61578,78.63889,78.02923
"6001",90.62909,78.6218,77.969604
"6002",90.642456,78.61448,77.91921
"6003",90.65576,78.6218,77.88324
"6004",90.66913,78.67307,77.89144
"6005",90.682434,78.82933,78.00623
"6006",90.6958,79.14671,78.28703
"6007",90.70911,79.656975,78.77063
"6008",90.72247,80.35279,79.45573
"6009",90.73578,81.16823,80.28219
"6010",90.749146,82.00076,81.15123
"6011",90.76245,82.72587,81.93886
"6012",90.77582,83.25323,82.5514
"6013",90.78912,83.53399,82.93382
"6014",90.80249,83.58282,83.09309
"6015",90.815796,83.44366,83.06589
"6016",90.82916,83.192184,82.92203
"6017",90.84247,82.9041,82.733696
"6018",90.855835,82.6453,82.56565
"6019",90.86914,82.45243,82.455444
"6020",90.88251,82.340126,82.41978
"6021",90.89581,82.28397,82.43675
"6022",90.90918,82.23758,82.46173
"6023",90.922485,82.16678,82.46085
"6024",90.93585,82.039825,82.40161
"6025",90.94916,81.85428,82.27981
"6026",90.962524,81.62966,82.11314
"6027",90.97583,81.40261,81.93701
"6028",90.9892,81.20973,81.787964
"6029",91.0025,81.077896,81.69393
"6030",91.01587,81.01686,81.66658
"6031",91.029175,81.01198,81.693474
"6032",91.04254,81.03883,81.75195
"6033",91.05585,81.06569,81.81127
"6034",91.069214,81.06569,81.844574
"6035",91.08252,81.01442,81.82661
"6036",91.09589,80.90944,81.75333
"6037",91.10919,80.762955,81.63526
"6038",91.12256,80.58961,81.485756
"6039",91.135864,80.40406,81.318634
"6040",91.14923,80.22583,81.15303
"6041",91.16254,80.062256,80.99651
"6042",91.1759,79.91577,80.851974
"6043",91.18921,79.77661,80.71018
"6044",91.202576,79.64477,80.57136
"6045",91.21588,79.517815,80.433304
"6046",91.22925,79.40307,80.30349
"6047",91.24255,79.30541,80.18718
"6048",91.25592,79.22972,80.08978
"6049",91.269226,79.183334,80.019325
"6050",91.28259,79.16136,79.97183
"6051",91.2959,79.15648,79.94074
"6052",91.309265,79.151596,79.9095
"6053",91.32257,79.13939,79.87078
"6054",91.33594,79.114975,79.81947
"6055",91.34924,79.080795,79.75764
"6056",91.36261,79.046616,79.69473
"6057",91.375916,79.01732,79.63564
"6058",91.38928,78.99779,79.5854
"6059",91.40259,78.98802,79.54432
"6060",91.415955,78.98558,79.510254
"6061",91.42926,78.98558,79.47855
"6062",91.44263,78.99046,79.45174
"6063",91.45593,78.99779,79.42751
"6064",91.4693,79.00267,79.40108
"6065",91.482605,79.00267,79.36991
"6066",91.49597,78.995346,79.33142
"6067",91.50928,78.9807,79.28538
"6068",91.522644,78.95628,79.22911
"6069",91.53595,78.92699,79.1672
"6070",91.54932,78.890366,79.097046
"6071",91.56262,78.86107,79.03307
"6072",91.57599,78.8513,78.98772
"6073",91.589294,78.89769,78.99821
"6074",91.60266,79.0515,79.11757
"6075",91.61597,79.36645,79.40288
"6076",91.62933,79.871826,79.88846
"6077",91.64264,80.5481,80.56073
"6078",91.656006,81.31716,81.34692
"6079",91.66931,82.074005,82.14492
"6080",91.68268,82.703896,82.83962
"6081",91.695984,83.13359,83.35381
"6082",91.70935,83.336235,83.65438
"6083",91.72266,83.33868,83.76108
"6084",91.73602,83.1873,83.714035
"6085",91.74933,82.95293,83.57926
"6086",91.762695,82.701454,83.42007
"6087",91.776,82.4744,83.277435
"6088",91.78937,82.30595,83.1863
"6089",91.80267,82.20828,83.1607
"6090",91.81604,82.15701,83.17844
"6091",91.829346,82.10574,83.19457
"6092",91.84271,82.01785,83.172485
"6093",91.85602,81.866486,83.084175
"6094",91.869385,81.654076,82.93009
"6095",91.88269,81.40505,82.73276
"6096",91.89606,81.15846,82.530075
"6097",91.90936,80.95094,82.35876
"6098",91.92273,80.8069,82.24443
"6099",91.936035,80.726326,82.18907
"6100",91.9494,80.69703,82.18247
"6101",91.96271,80.69703,82.204254
"6102",91.976074,80.70435,82.23336
"6103",91.98938,80.69215,82.243164
"6104",92.00275,80.6482,82.22085
"6105",92.01605,80.56275,82.155655
"6106",92.02942,80.4358,82.04629
"6107",92.042725,80.28199,81.9061
"6108",92.05609,80.111084,81.744
"6109",92.0694,79.940186,81.57658
"6110",92.08276,79.77661,81.41113
"6111",92.09607,79.63012,81.25766
"6112",92.109436,79.50561,81.12159
"6113",92.12274,79.40307,81.0036
"6114",92.13611,79.3225,80.90438
"6115",92.149414,79.25414,80.81485
"6116",92.16278,79.19554,80.73294
"6117",92.17609,79.149155,80.661415
"6118",92.18945,79.11009,80.595764
"6119",92.20276,79.080795,80.53866
"6120",92.216125,79.05638,80.48552
"6121",92.22943,79.03685,80.4365
"6122",92.2428,79.01488,80.38443
"6123",92.2561,78.98802,80.32679
"6124",92.26947,78.95628,80.26343
"6125",92.282776,78.91966,80.19419
"6126",92.29614,78.88304,80.12381
"6127",92.30945,78.84886,80.054726
"6128",92.322815,78.82201,79.9919
"6129",92.33612,78.79759,79.93067
"6130",92.34949,78.7805,79.87601
"6131",92.36279,78.768295,79.82569
"6132",92.37616,78.751205,79.77011
"6133",92.389465,78.729225,79.70911
"6134",92.40283,78.70481,79.64498
"6135",92.41614,78.675514,79.57521
"6136",92.429504,78.64622,79.504524
"6137",92.44281,78.626686,79.44269
"6138",92.45618,78.61448,79.387566
"6139",92.46948,78.61204,79.34183
"6140",92.48285,78.61692,79.30334
"6141",92.496155,78.626686,79.26988
"6142",92.50952,78.63645,79.23673
"6143",92.52283,78.64622,79.20389
"6144",92.536194,78.6511,79.166466
"6145",92.5495,78.65354,79.126755
"6146",92.56287,78.6511,79.08224
"6147",92.57617,78.63889,79.02788
"6148",92.58954,78.61936,78.96581
"6149",92.602844,78.61204,78.915344
"6150",92.61621,78.62913,78.88906
"6151",92.62952,78.71702,78.93411
"6152",92.64288,78.93675,79.113754
"6153",92.65619,79.34936,79.49313
"6154",92.669556,79.96704,80.090485
"6155",92.68286,80.75563,80.878044
"6156",92.69623,81.62234,81.768364
"6157",92.70953,82.442665,82.63939
"6158",92.7229,83.09941,83.37247
"6159",92.736206,83.51446,83.88437
"6160",92.74957,83.68047,84.16021
"6161",92.76288,83.63409,84.228836
"6162",92.776245,83.44366,84.15197
"6163",92.78955,83.18242,83.998344
"6164",92.80292,82.92119,83.83656
"6165",92.81622,82.71122,83.71788
"6166",92.82959,82.57694,83.66833
"6167",92.842896,82.51835,83.69026
"6168",92.85626,82.50858,83.75919
"6169",92.86957,82.5037,83.8327
"6170",92.882935,82.46464,83.87188
"6171",92.89624,82.357216,83.84148
"6172",92.90961,82.18143,83.73935
"6173",92.92291,81.94705,83.57314
"6174",92.93628,81.685814,83.37275
"6175",92.949585,81.43435,83.173965
"6176",92.96295,81.23659,83.02103
"6177",92.97626,81.10719,82.930275
"6178",92.989624,81.04616,82.90384
"6179",93.00293,81.03639,82.926765
"6180",93.0163,81.04616,82.96892
"6181",93.0296,81.0486,83.00405
"6182",93.04297,81.01686,83.00508
"6183",93.056274,80.94362,82.963615
"6184",93.06964,80.82887,82.87836
"6185",93.08295,80.689705,82.76509
"6186",93.09631,80.52613,82.62307
"6187",93.10962,80.35523,82.46861
"6188",93.122986,80.18921,82.31369
"6189",93.13629,80.03052,82.16091
"6190",93.14966,79.89136,82.022705
"6191",93.162964,79.76929,81.89724
"6192",93.17633,79.66674,81.78748
"6193",93.18964,79.57641,81.68674
"6194",93.203,79.500725,81.59782
"6195",93.21631,79.42748,81.50897
"6196",93.229675,79.36889,81.43249
"6197",93.24298,79.32006,81.36394
"6198",93.25635,79.281,81.30363
"6199",93.26965,79.25414,81.2543
"6200",93.28302,79.22972,81.20657
"6201",93.296326,79.21019,81.16297
"6202",93.30969,79.183334,81.111435
"6203",93.323,79.15648,81.05906
"6204",93.336365,79.1223,80.99852
"6205",93.34967,79.09544,80.94424
"6206",93.36304,79.063705,80.88423
"6207",93.37634,79.03441,80.825676
"6208",93.38971,79.00267,80.76376
"6209",93.403015,78.96605,80.69598
"6210",93.41638,78.922104,80.61972
"6211",93.42969,78.86351,80.52744
"6212",93.443054,78.80003,80.42845
"6213",93.45636,78.729225,80.320145
"6214",93.46973,78.660866,80.212074
"6215",93.48303,78.61204,80.1214
"6216",93.4964,78.58518,80.05117
"6217",93.509705,78.590065,80.01184
"6218",93.52307,78.61936,79.99708
"6219",93.53638,78.658424,79.993
"6220",93.54974,78.68772,79.98037
"6221",93.56305,78.695045,79.946686
"6222",93.576416,78.67307,79.883934
"6223",93.58972,78.626686,79.79608
"6224",93.60309,78.56809,79.69457
"6225",93.616394,78.519264,79.601
"6226",93.62976,78.48997,79.52543
"6227",93.64307,78.49241,79.48068
"6228",93.65643,78.555885,79.49705
"6229",93.66974,78.72678,79.62282
"6230",93.683105,79.05882,79.91507
"6231",93.69641,79.59106,80.41789
"6232",93.70978,80.31617,81.130226
"6233",93.72308,81.17067,81.994606
"6234",93.73645,82.056915,82.917435
"6235",93.749756,82.85039,83.775185
"6236",93.76312,83.44854,84.46241
"6237",93.77643,83.807434,84.92907
"6238",93.789795,83.93439,85.175
"6239",93.8031,83.8587,85.22227
"6240",93.81647,83.65118,85.13532
"6241",93.82977,83.3753,84.97354
"6242",93.84314,83.09697,84.80069
"6243",93.856445,82.847946,84.648445
"6244",93.86981,82.65507,84.54456
"6245",93.88312,82.5037,84.476166
"6246",93.896484,82.34989,84.4006
"6247",93.90979,82.12283,84.24697
"6248",93.92316,81.778595,83.96907
"6249",93.93646,81.30251,83.54857
"6250",93.94983,80.719,83.00576
"6251",93.963135,80.09155,82.40078
"6252",93.9765,79.500725,81.81281
"6253",93.98981,79.00023,81.296715
"6254",94.003174,78.6218,80.88705
"6255",94.01648,78.37278,80.594955
"6256",94.02985,78.24338,80.4147
"6257",94.04315,78.22629,80.34272
"6258",94.05652,78.29954,80.36054
"6259",94.069824,78.42649,80.43436
"6260",94.08319,78.56809,80.52679
"6261",94.0965,78.68284,80.59679
"6262",94.10986,78.73899,80.61178
"6263",94.12317,78.73167,80.56505
"6264",94.136536,78.67063,80.46438
"6265",94.14984,78.58518,80.33739
"6266",94.16321,78.502174,80.21017
"6267",94.17651,78.44114,80.102325
"6268",94.18988,78.4094,80.02187
"6269",94.203186,78.4094,79.97217
"6270",94.21655,78.41917,79.93223
"6271",94.22986,78.42649,79.89015
"6272",94.243225,78.42649,79.84098
"6273",94.25653,78.416725,79.78204
"6274",94.2699,78.399635,79.71548
"6275",94.2832,78.380104,79.645935
"6276",94.29657,78.365456,79.580666
"6277",94.309875,78.35081,79.51494
"6278",94.32324,78.328835,79.44143
"6279",94.33655,78.2971,79.35747
"6280",94.349915,78.25559,79.26275
"6281",94.36322,78.204315,79.15696
"6282",94.37659,78.14572,79.04225
"6283",94.38989,78.08713,78.92571
"6284",94.40326,78.02365,78.80246
"6285",94.416565,77.95285,78.6699
"6286",94.42993,77.87961,78.532684
"6287",94.44324,77.803925,78.39074
"6288",94.456604,77.733116,78.251305
"6289",94.46991,77.67452,78.12187
"6290",94.48328,77.628136,78.002815
"6291",94.49658,77.5964,77.89696
"6292",94.50995,77.58175,77.8072
"6293",94.523254,77.58907,77.73895
"6294",94.53662,77.625694,77.70023
"6295",94.54993,77.68917,77.689514
"6296",94.56329,77.7673,77.695435
"6297",94.5766,77.84543,77.70379
"6298",94.589966,77.90646,77.697495
"6299",94.60327,77.94797,77.67358
"6300",94.61664,77.977264,77.63875
"6301",94.629944,78.04318,77.64146
"6302",94.64331,78.22385,77.76097
"6303",94.65662,78.590065,78.071686
"6304",94.66998,79.183334,78.620895
"6305",94.68329,79.9939,79.40594
"6306",94.696655,80.955826,80.367676
"6307",94.70996,81.94461,81.38633
"6308",94.72333,82.82597,82.32846
"6309",94.73663,83.49737,83.088165
"6310",94.75,83.90753,83.60762
"6311",94.763306,84.06134,83.88354
"6312",94.77667,84.00275,83.95186
"6313",94.78998,83.80011,83.874306
"6314",94.803345,83.52422,83.71717
"6315",94.81665,83.25323,83.556305
"6316",94.83002,83.038376,83.443115
"6317",94.84332,82.90166,83.401344
"6318",94.85669,82.83818,83.42854
"6319",94.869995,82.81377,83.49282
"6320",94.88336,82.78447,83.55145
"6321",94.89667,82.72343,83.57742
"6322",94.910034,82.61356,83.552666
"6323",94.92334,82.46464,83.48541
"6324",94.93671,82.303505,83.4013
"6325",94.95001,82.16434,83.334114
"6326",94.96338,82.06912,83.30653
"6327",94.976685,82.020294,83.322365
"6328",94.99005,82.020294,83.3855
"6329",95.00336,82.05203,83.48037
"6330",95.01672,82.08377,83.57623
"6331",95.03003,82.08377,83.64135
"6332",95.043396,82.037384,83.66008
"6333",95.0567,81.92752,83.613884
"6334",95.07007,81.76639,83.512985
"6335",95.083374,81.57351,83.375305
"6336",95.09674,81.373314,83.22428
"6337",95.11005,81.180435,83.07432
"6338",95.12341,80.99733,82.9281
"6339",95.13672,80.82643,82.78837
"6340",95.150085,80.672615,82.66038
"6341",95.16339,80.54078,82.54956
"6342",95.17676,80.42603,82.45171
"6343",95.19006,80.33814,82.37714
"6344",95.20343,80.28199,82.33155
"6345",95.216736,80.255135,82.31351
"6346",95.2301,80.255135,82.32148
"6347",95.24341,80.27711,82.351425
"6348",95.256775,80.31129,82.394264
"6349",95.27008,80.34547,82.43817
"6350",95.28345,80.360115,82.463615
"6351",95.29675,80.343025,82.45778
"6352",95.31012,80.2942,82.41967
"6353",95.323425,80.21118,82.34585
"6354",95.33679,80.10132,82.242584
"6355",95.3501,79.971924,82.116356
"6356",95.363464,79.82544,81.968994
"6357",95.37677,79.674065,81.812164
"6358",95.39014,79.517815,81.64573
"6359",95.40344,79.36645,81.479294
"6360",95.41681,79.22972,81.32277
"6361",95.430115,79.11253,81.18151
"6362",95.44348,79.01488,81.05612
"6363",95.45679,78.93919,80.94965
"6364",95.47015,78.87816,80.85547
"6365",95.48346,78.82933,80.77158
"6366",95.496826,78.78783,80.6935
"6367",95.51013,78.751205,80.618996
"6368",95.5235,78.72678,80.55555
"6369",95.536804,78.712135,80.501114
"6370",95.55017,78.69749,80.44622
"6371",95.56348,78.68528,80.39331
"6372",95.57684,78.66819,80.33514
"6373",95.59015,78.65354,80.27887
"6374",95.603516,78.68284,80.26609
"6375",95.61682,78.83421,80.376305
"6376",95.63019,79.185776,80.69144
"6377",95.64349,79.781494,81.26171
"6378",95.65686,80.61402,82.08741
"6379",95.670166,81.60525,83.097824
"6380",95.68353,82.63065,84.17339
"6381",95.69684,83.54864,85.173584
"6382",95.710205,84.24689,85.98273
"6383",95.72351,84.6717,86.54025
"6384",95.73688,84.823074,86.837616
"6385",95.75018,84.7425,86.90776
"6386",95.76355,84.5008,86.81426
"6387",95.776855,84.1712,86.62531
"6388",95.79022,83.83429,86.41875
"6389",95.80353,83.543755,86.24803
"6390",95.816895,83.34844,86.16346
"6391",95.8302,83.27276,86.19241
"6392",95.84357,83.28985,86.311775
"6393",95.85687,83.33135,86.456085
"6394",95.87024,83.34356,86.572395
"6395",95.883545,83.2752,86.60852
"6396",95.89691,83.104294,86.53996
"6397",95.91022,82.847946,86.38062
"6398",95.923584,82.55253,86.1742
"6399",95.93689,82.26444,85.96588
"6400",95.95026,82.00809,85.78029
"6401",95.96356,81.79813,85.63308
"6402",95.97693,81.634544,85.52569
"6403",95.990234,81.512474,85.4547
"6404",96.0036,81.40505,85.39454
"6405",96.01691,81.29275,85.32614
"6406",96.03027,81.15114,85.22493
"6407",96.04358,80.96803,85.0778
"6408",96.056946,80.74586,84.88587
"6409",96.07025,80.48707,84.65039
"6410",96.08362,80.216064,84.39461
"6411",96.096924,79.940186,84.12548
"6412",96.11029,79.67162,83.85505
"6413",96.1236,79.41772,83.59088
"6414",96.13696,79.1931,83.34807
"6415",96.15027,79.00023,83.12998
"6416",96.163635,78.84154,82.94005
"6417",96.17694,78.71458,82.776886
"6418",96.19031,78.61936,82.6415
"6419",96.20361,78.555885,82.53488
"6420",96.21698,78.538795,82.472664
"6421",96.230286,78.55833,82.44653
"6422",96.24365,78.59251,82.43566
"6423",96.25696,78.62913,82.4283
"6424",96.270325,78.6511,82.40743
"6425",96.28363,78.64622,82.3604
"6426",96.297,78.61448,82.286354
"6427",96.3103,78.572975,82.20155
"6428",96.32367,78.53147,82.115456
"6429",96.336975,78.485085,82.02318
"6430",96.35034,78.43137,81.92213
"6431",96.36365,78.382545,81.82428
"6432",96.377014,78.36057,81.75176
"6433",96.39032,78.37278,81.71274
"6434",96.40369,78.416725,81.70583
"6435",96.41699,78.46555,81.705185
"6436",96.43036,78.49241,81.68409
"6437",96.443665,78.470436,81.615005
"6438",96.45703,78.40208,81.49885
"6439",96.47034,78.2971,81.34393
"6440",96.4837,78.184784,81.178406
"6441",96.49701,78.082245,81.01914
"6442",96.510376,78.00412,80.88109
"6443",96.52368,77.94797,80.762566
"6444",96.53705,77.9382,80.688675
"6445",96.550354,78.011444,80.69749
"6446",96.56372,78.23605,80.859955
"6447",96.57703,78.675514,81.24429
"6448",96.59039,79.35668,81.88407
"6449",96.6037,80.24536,82.75265
"6450",96.617065,81.25124,83.7662
"6451",96.63037,82.252235,84.80629
"6452",96.64374,83.123825,85.74826
"6453",96.65704,83.77081,86.49287
"6454",96.67041,84.16144,87.00133
"6455",96.683716,84.31281,87.282745
"6456",96.69708,84.266426,87.37113
"6457",96.71039,84.088196,87.326225
"6458",96.723755,83.85138,87.21716
"6459",96.73706,83.617,87.103134
"6460",96.75043,83.42901,87.028175
"6461",96.76373,83.302055,87.00838
"6462",96.7771,83.228806,87.038315
"6463",96.790405,83.17265,87.08306
"6464",96.80377,83.10185,87.111404
"6465",96.81708,82.97734,87.083824
"6466",96.830444,82.78447,86.98399
"6467",96.84375,82.533,86.819534
"6468",96.85712,82.25468,86.62037
"6469",96.87042,81.98367,86.41982
"6470",96.88379,81.75906,86.2572
"6471",96.897095,81.59792,86.15103
"6472",96.91046,81.50027,86.10331
"6473",96.92377,81.449,86.09892
"6474",96.93713,81.42458,86.11979
"6475",96.95044,81.392845,86.13257
"6476",96.963806,81.32937,86.11262
"6477",96.97711,81.22682,86.05161
"6478",96.99048,81.08034,85.94347
"6479",97.003784,80.89967,85.79656
"6480",97.01715,80.706795,85.6318
"6481",97.03046,80.52125,85.46834
"6482",97.04382,80.35767,85.32105
"6483",97.05713,80.216064,85.19062
"6484",97.070496,80.08179,85.063095
"6485",97.0838,79.94751,84.93137
"6486",97.09717,79.7937,84.775925
"6487",97.11047,79.61303,84.588806
"6488",97.12384,79.40551,84.369194
"6489",97.137146,79.1931,84.13821
"6490",97.15051,78.98802,83.90791
"6491",97.16382,78.81224,83.70051
"6492",97.177185,78.67307,83.52422
"6493",97.19049,78.572975,83.38266
"6494",97.20386,78.519264,83.284355
"6495",97.21716,78.52415,83.242966
"6496",97.23053,78.59983,83.27253
"6497",97.243835,78.73899,83.367935
"6498",97.2572,78.92943,83.51897
"6499",97.27051,79.13939,83.69547
"6500",97.283875,79.32983,83.85902
"6501",97.29718,79.4641,83.97235
"6502",97.31055,79.537346,84.02885
"6503",97.32385,79.55688,84.03392
"6504",97.33722,79.537346,84.00054
"6505",97.350525,79.48852,83.937256
"6506",97.36389,79.42016,83.85291
"6507",97.3772,79.34203,83.75667
"6508",97.390564,79.24925,83.643326
"6509",97.40387,79.14183,83.51244
"6510",97.41724,79.01976,83.363556
"6511",97.43054,78.8806,83.19376
"6512",97.44391,78.73655,83.01473
"6513",97.457214,78.590065,82.828766
"6514",97.47058,78.47288,82.66752
"6515",97.48389,78.43137,82.57829
"6516",97.49725,78.54612,82.64402
"6517",97.51056,78.86351,82.91598
"6518",97.523926,79.41039,83.427345
"6519",97.53723,80.147705,84.14623
"6520",97.5506,80.99489,84.99803
"6521",97.5639,81.82742,85.86166
"6522",97.57727,82.52079,86.61213
"6523",97.590576,82.99687,87.166985
"6524",97.60394,83.22392,87.487686
"6525",97.61725,83.21416,87.57867
"6526",97.630615,83.02373,87.48868
"6527",97.64392,82.718544,87.277985
"6528",97.65729,82.37675,87.02114
"6529",97.67059,82.05203,86.7707
"6530",97.68396,81.7908,86.57359
"6531",97.697266,81.59792,86.436676
"6532",97.71063,81.461205,86.34989
"6533",97.72394,81.35378,86.28813
"6534",97.737305,81.24635,86.22301
"6535",97.75061,81.112076,86.12768
"6536",97.76398,80.94362,85.99397
"6537",97.77728,80.75807,85.83791
"6538",97.79065,80.57252,85.67605
"6539",97.803955,80.4065,85.52792
"6540",97.81732,80.27955,85.41367
"6541",97.83063,80.19165,85.33451
"6542",97.843994,80.14038,85.28923
"6543",97.8573,80.10376,85.256996
"6544",97.87067,80.059814,85.21629
"6545",97.88397,79.98901,85.14736
"6546",97.89734,79.88159,85.0396
"6547",97.910645,79.73266,84.88696
"6548",97.92401,79.54223,84.68818
"6549",97.93732,79.327385,84.45903
"6550",97.95068,79.10277,84.213394
"6551",97.96399,78.88304,83.96563
"6552",97.977356,78.6804,83.72808
"6553",97.99066,78.502174,83.50862
"6554",98.00403,78.35081,83.31045
"6555",98.017334,78.22873,83.13683
"6556",98.0307,78.12619,82.97894
"6557",98.04401,78.048065,82.84226
"6558",98.05737,77.99191,82.72511
"6559",98.07068,77.95285,82.6233
"6560",98.084045,77.92111,82.52759
"6561",98.09735,77.89426,82.43577
"6562",98.11072,77.86496,82.34067
"6563",98.12402,77.83078,82.23977
"6564",98.13739,77.7966,82.1378
"6565",98.150696,77.76242,82.03477
"6566",98.16406,77.730675,81.9331
"6567",98.17737,77.70382,81.83533
"6568",98.20404,77.67208,81.65947
"6569",98.21741,77.662315,81.57696
"6570",98.23071,77.65743,81.49902
"6571",98.24408,77.65011,81.418495
"6572",98.257385,77.6379,81.332855
"6573",98.27075,77.62081,81.24195
"6574",98.28406,77.591515,81.138306
"6575",98.297424,77.55978,81.0313
"6576",98.31073,77.5256,80.92087
"6577",98.3241,77.49874,80.81669
"6578",98.3374,77.503624,80.74341
"6579",98.35077,77.591515,80.75329
"6580",98.364075,77.82834,80.91485
"6581",98.37744,78.26536,81.284004
"6582",98.39075,78.922104,81.88654
"6583",98.40411,79.742424,82.67318
"6584",98.41742,80.64088,83.56358
"6585",98.430786,81.48806,84.43079
"6586",98.44409,82.16922,85.158455
"6587",98.45746,82.61845,85.67547
"6588",98.470764,82.81621,85.955055
"6589",98.48413,82.794235,86.02109
"6590",98.49744,82.60624,85.92041
"6591",98.5108,82.32548,85.72109
"6592",98.52411,82.022736,85.49102
"6593",98.537476,81.75906,85.29056
"6594",98.55078,81.566185,85.15265
"6595",98.56415,81.446556,85.08196
"6596",98.57745,81.3782,85.05881
"6597",98.59082,81.324486,85.048164
"6598",98.604126,81.23903,85.0041
"6599",98.61749,81.10231,84.9061
"6600",98.6308,80.91432,84.752556
"6601",98.644165,80.69459,84.56139
"6602",98.65747,80.479744,84.368256
"6603",98.67084,80.306404,84.20991
"6604",98.68414,80.18921,84.10229
"6605",98.69751,80.128174,84.047165
"6606",98.710815,80.111084,84.03408
"6607",98.72418,80.12085,84.04732
"6608",98.73749,80.12329,84.053535
"6609",98.750854,80.10132,84.035416
"6610",98.76416,80.042725,83.97999
"6611",98.77753,79.937744,83.87634
"6612",98.79083,79.781494,83.71815
"6613",98.8042,79.60082,83.53065
"6614",98.817505,79.40795,83.3253
"6615",98.83087,79.219955,83.118805
"6616",98.84418,79.04173,82.91621
"6617",98.857544,78.887924,82.73245
"6618",98.87085,78.75365,82.56342
"6619",98.88422,78.63645,82.40728
"6620",98.89752,78.53391,82.26213
"6621",98.91089,78.44358,82.125984
"6622",98.924194,78.363014,81.99678
"6623",98.93756,78.294655,81.877266
"6624",98.95087,78.24094,81.770256
"6625",98.96423,78.20676,81.68111
"6626",98.97754,78.18234,81.600655
"6627",98.990906,78.16281,81.52432
"6628",99.00421,78.135956,81.440056
"6629",99.01758,78.09689,81.34274
"6630",99.03088,78.04562,81.232
"6631",99.04425,77.98947,81.11478
"6632",99.057556,77.94064,81.00312
"6633",99.07092,77.91379,80.91191
"6634",99.08423,77.91379,80.84672
"6635",99.097595,77.94797,80.815704
"6636",99.1109,78.009,80.812614
"6637",99.12427,78.08957,80.83096
"6638",99.13757,78.17502,80.85671
"6639",99.15094,78.25803,80.8827
"6640",99.164246,78.32639,80.89662
"6641",99.17761,78.380104,80.89803
"6642",99.19092,78.42161,80.888916
"6643",99.204285,78.45335,80.87133
"6644",99.21759,78.487526,80.85718
"6645",99.23096,78.52903,80.85142
"6646",99.24426,78.58518,80.8616
"6647",99.25763,78.65354,80.88575
"6648",99.270935,78.73411,80.92424
"6649",99.2843,78.81224,80.962814
"6650",99.29761,78.87816,80.991615
"6651",99.310974,78.922104,81.0005
"6652",99.32428,78.94652,80.991234
"6653",99.33765,78.96849,80.980286
"6654",99.35095,79.029526,81.00909
"6655",99.36432,79.202866,81.1521
"6656",99.377625,79.5642,81.488525
"6657",99.39099,80.15747,82.06818
"6658",99.4043,80.95827,82.87389
"6659",99.41766,81.89334,83.83891
"6660",99.43097,82.83574,84.84048
"6661",99.444336,83.65118,85.74453
"6662",99.45764,84.224915,86.432365
"6663",99.47101,84.52277,86.86225
"6664",99.484314,84.55207,87.03288
"6665",99.49768,84.36408,86.987144
"6666",99.51099,84.02472,86.78416
"6667",99.52435,83.614555,86.49976
"6668",99.53766,83.19707,86.19523
"6669",99.551025,82.82597,85.92404
"6670",99.56433,82.533,85.719376
"6671",99.5777,82.33524,85.60078
"6672",99.591,82.20584,85.54435
"6673",99.60437,82.091095,85.498535
"6674",99.617676,81.934845,85.40763
"6675",99.63104,81.70779,85.241035
"6676",99.64435,81.41482,85.001434
"6677",99.657715,81.0901,84.72093
"6678",99.67102,80.78737,84.45226
"6679",99.68439,80.550545,84.24004
"6680",99.69769,80.396736,84.10344
"6681",99.71106,80.31617,84.03527
"6682",99.724365,80.28199,84.01097
"6683",99.73773,80.2649,84.00269
"6684",99.75104,80.2478,83.99387
"6685",99.764404,80.21118,83.965
"6686",99.77771,80.147705,83.90812
"6687",99.79108,80.0647,83.82973
"6688",99.80438,79.96216,83.72921
"6689",99.81775,79.84497,83.61084
"6690",99.831055,79.71557,83.47659
"6691",99.84442,79.58129,83.33343
"6692",99.85773,79.449455,83.18851
"6693",99.87109,79.34203,83.06388
"6694",99.8844,79.26879,82.97008
"6695",99.897766,79.237045,82.91548
"6696",99.91107,79.22972,82.884315
"6697",99.92444,79.23949,82.87001
"6698",99.937744,79.24681,82.85357
"6699",99.95111,79.237045,82.82027
"6700",99.96442,79.202866,82.762245
"6701",99.97778,79.16136,82.69583
"6702",99.99109,79.114975,82.62324
"6703",100.004456,79.07347,82.55408
"6704",100.01776,79.03685,82.4885
"6705",100.03113,79.00511,82.42667
"6706",100.04443,78.975815,82.36628
"6707",100.0578,78.941635,82.300095
"6708",100.071106,78.90013,82.22552
"6709",100.08447,78.853745,82.14476
"6710",100.09778,78.80492,82.06011
"6711",100.111145,78.751205,81.969055
"6712",100.12445,78.692604,81.87143
"6713",100.13782,78.63157,81.76954
"6714",100.15112,78.572975,81.66818
"6715",100.16449,78.51438,81.564995
"6716",100.177795,78.46311,81.4673
"6717",100.19116,78.42161,81.37777
"6718",100.20447,78.38987,81.29671
"6719",100.217834,78.365456,81.22198
"6720",100.23114,78.348366,81.15381
"6721",100.24451,78.33372,81.08755
"6722",100.25781,78.32151,81.02327
"6723",100.27118,78.3093,80.95861
"6724",100.284485,78.29954,80.89601
"6725",100.29785,78.28489,80.828224
"6726",100.31116,78.26292,80.752655
"6727",100.324524,78.23605,80.67151
"6728",100.33783,78.2092,80.58953
"6729",100.3512,78.20676,80.53113
"6730",100.3645,78.27512,80.54346
"6731",100.37787,78.49241,80.70684
"6732",100.391174,78.93431,81.10163
"6733",100.40454,79.622795,81.75681
"6734",100.41785,80.533455,82.655685
"6735",100.43121,81.57351,83.71241
"6736",100.44452,82.616005,84.80408
"6737",100.457886,83.52422,85.794044
"6738",100.47119,84.19806,86.57801
"6739",100.48456,84.593575,87.10471
"6740",100.49786,84.72541,87.3801
"6741",100.51123,84.63752,87.43987
"6742",100.524536,84.39338,87.34065
"6743",100.5379,84.07843,87.162994
"6744",100.55121,83.76349,86.9755
"6745",100.564575,83.49981,86.82943
"6746",100.57788,83.31182,86.75081
"6747",100.59125,83.194626,86.73711
"6748",100.60455,83.12138,86.763695
"6749",100.61792,83.05058,86.790436
"6750",100.631226,82.93828,86.77346
"6751",100.64459,82.774704,86.701706
"6752",100.6579,82.55497,86.56868
"6753",100.671265,82.303505,86.39706
"6754",100.68457,82.04715,86.212685
"6755",100.69794,81.82498,86.05449
"6756",100.71124,81.654076,85.94061
"6757",100.72461,81.53445,85.87267
"6758",100.737915,81.463646,85.84982
"6759",100.75128,81.41482,85.84673
"6760",100.76459,81.36843,85.84456
"6761",100.777954,81.29275,85.81164
"6762",100.79126,81.180435,85.73972
"6763",100.80463,81.024185,85.62036
"6764",100.81793,80.831314,85.459496
"6765",100.8313,80.60914,85.2633
"6766",100.844604,80.37232,85.04552
"6767",100.85797,80.13306,84.81789
"6768",100.87128,79.903564,84.59255
"6769",100.88464,79.68627,84.372246
"6770",100.89795,79.4934,84.16957
"6771",100.911316,79.32494,83.98528
"6772",100.92462,79.18089,83.82014
"6773",100.93799,79.05882,83.67247
"6774",100.951294,78.958725,83.54296
"6775",100.96466,78.870834,83.42253
"6776",100.97797,78.79515,83.31156
"6777",100.99133,78.729225,83.207985
"6778",101.00464,78.66575,83.1048
"6779",101.018005,78.60471,83.00207
"6780",101.03131,78.54856,82.90231
"6781",101.04468,78.49241,82.800804
"6782",101.05798,78.4387,82.69998
"6783",101.07135,78.38743,82.59992
"6784",101.084656,78.33616,82.49826
"6785",101.09802,78.28001,82.390114
"6786",101.11133,78.23117,82.28753
"6787",101.124695,78.187225,82.18831
"6788",101.138,78.15549,82.09992
"6789",101.15137,78.12863,82.01543
"6790",101.16467,78.11154,81.93986
"6791",101.17804,78.09445,81.863754
"6792",101.191345,78.07248,81.782234
"6793",101.20471,78.04074,81.69026
"6794",101.21802,78.00412,81.592415
"6795",101.231384,77.95773,81.48366
"6796",101.24469,77.908905,81.37101
"6797",101.25806,77.86984,81.2666
"6798",101.27136,77.86496,81.19515
"6799",101.28473,77.95285,81.216324
"6800",101.298035,78.20187,81.401375
"6801",101.3114,78.677956,81.821266
"6802",101.32471,79.40551,82.50751
"6803",101.33807,80.343025,83.426445
"6804",101.35138,81.40261,84.49675
"6805",101.364746,82.44511,85.58308
"6806",101.37805,83.34112,86.5555
"6807",101.39142,83.9881,87.306885
"6808",101.404724,84.351875,87.79529
"6809",101.41809,84.43488,88.01429
"6810",101.4314,84.28596,88.00395
"6811",101.44476,83.98566,87.837585
"6812",101.45807,83.617,87.593475
"6813",101.471436,83.25323,87.342735
"6814",101.48474,82.950485,87.141655
"6815",101.49811,82.718544,87.001915
"6816",101.51141,82.55009,86.91841
"6817",101.52478,82.41093,86.85894
"6818",101.538086,82.266884,86.79024
"6819",101.55145,82.09354,86.68773
"6820",101.56476,81.898224,86.55784
"6821",101.578125,81.6907,86.40963
"6822",101.59143,81.50271,86.274475
"6823",101.6048,81.35134,86.17007
"6824",101.6181,81.248795,86.10975
"6825",101.63147,81.19264,86.09262
"6826",101.644775,81.16823,86.10548
"6827",101.65814,81.1487,86.12245
"6828",101.67145,81.112076,86.12173
"6829",101.684814,81.041275,86.08568
"6830",101.69812,80.91676,85.993706
"6831",101.71149,80.73121,85.8368
"6832",101.72479,80.50172,85.63016
"6833",101.73816,80.24048,85.3846
"6834",101.751465,79.9646,85.116234
"6835",101.76483,79.693596,84.844124
"6836",101.77814,79.43725,84.5782
"6837",101.791504,79.20531,84.328674
"6838",101.80481,79.00267,84.101204
"6839",101.81818,78.83421,83.90158
"6840",101.83148,78.695045,83.72598
"6841",101.84485,78.5803,83.57046
"6842",101.858154,78.48264,83.42844
"6843",101.87152,78.399635,83.29801
"6844",101.88483,78.31663,83.16499
"6845",101.89819,78.23605,83.031815
"6846",101.9115,78.15549,82.896126
"6847",101.924866,78.0798,82.7628
"6848",101.93817,78.00412,82.62711
"6849",101.95154,77.92844,82.48906
"6850",101.96484,77.857635,82.35352
"6851",101.97821,77.789276,82.218216
"6852",101.991516,77.72823,82.08809
"6853",102.00488,77.68185,81.97071
"6854",102.01819,77.642784,81.85921
"6855",102.031555,77.61349,81.75625
"6856",102.04486,77.591515,81.6597
"6857",102.05823,77.56954,81.56246
"6858",102.07153,77.540245,81.457214
"6859",102.0849,77.503624,81.34373
"6860",102.098206,77.46456,81.226654
"6861",102.11157,77.42306,81.10592
"6862",102.12488,77.37667,80.979004
"6863",102.138245,77.32784,80.8482
"6864",102.15155,77.28634,80.72319
"6865",102.16492,77.281456,80.63351
"6866",102.17822,77.35958,80.62668
"6867",102.19159,77.59884,80.783424
"6868",102.204895,78.07248,81.18203
"6869",102.21826,78.81224,81.86156
"6870",102.23157,79.78882,82.80102
"6871",102.244934,80.91188,83.91748
"6872",102.25824,82.03494,85.06904
"6873",102.27161,83.01152,86.10921
"6874",102.28491,83.7293,86.9211
"6875",102.29828,84.14191,87.45024
"6876",102.311584,84.263985,87.70175
"6877",102.32495,84.14923,87.720245
"6878",102.33826,83.88068,87.58135
"6879",102.35162,83.55108,87.373024
"6880",102.36493,83.228806,87.16172
"6881",102.378296,82.97002,87.00383
"6882",102.3916,82.791794,86.91842
"6883",102.40497,82.686806,86.90067
"6884",102.418274,82.62333,86.92116
"6885",102.43164,82.547646,86.92745
"6886",102.44495,82.425575,86.884995
"6887",102.45831,82.2327,86.767914
"6888",102.47162,81.97879,86.58378
"6889",102.484985,81.688255,86.35508
"6890",102.49829,81.40017,86.11975
"6891",102.51166,81.146255,85.90959
"6892",102.52496,80.9485,85.74766
"6893",102.53833,80.8069,85.6357
"6894",102.551636,80.71412,85.56813
"6895",102.565,80.64576,85.52209
"6896",102.57831,80.57984,85.47635
"6897",102.591675,80.48951,85.40414
"6898",102.60498,80.365,85.29492
"6899",102.61835,80.19653,85.13786
"6900",102.63165,79.98901,84.936485
"6901",102.64502,79.74731,84.694435
"6902",102.658325,79.49096,84.43019
"6903",102.67169,79.234604,84.15793
"6904",102.685,78.97826,83.87766
"6905",102.698364,78.73899,83.60647
"6906",102.71167,78.52415,83.35222
"6907",102.72504,78.328835,83.11079
"6908",102.73834,78.16037,82.8901
"6909",102.75171,78.01633,82.68857
"6910",102.765015,77.8967,82.50695
"6911",102.77838,77.7966,82.341125
"6912",102.79169,77.7087,82.18437
"6913",102.80505,77.63302,82.03709
"6914",102.81836,77.5671,81.8972
"6915",102.831726,77.506065,81.76014
"6916",102.84503,77.44991,81.62605
"6917",102.8584,77.3962,81.49265
"6918",102.871704,77.347374,81.36246
"6919",102.88507,77.298546,81.230736
"6920",102.89838,77.25216,81.09993
"6921",102.91174,77.21309,80.97499
"6922",102.92505,77.18379,80.858604
"6923",102.938416,77.16182,80.74863
"6924",102.95172,77.14229,80.6404
"6925",102.96509,77.1252,80.53401
"6926",102.97839,77.10567,80.424644
"6927",102.99176,77.08125,80.309784
"6928",103.005066,77.049515,80.18684
"6929",103.01843,77.01289,80.058014
"6930",103.03174,76.97383,79.925606
"6931",103.045105,76.94942,79.806625
"6932",103.05841,76.97383,79.73571
"6933",103.07178,77.10811,79.77542
"6934",103.08508,77.42794,80.00488
"6935",103.09845,77.977264,80.47383
"6936",103.111755,78.751205,81.18456
"6937",103.12512,79.691154,82.08549
"6938",103.13843,80.689705,83.07439
"6939",103.151794,81.61501,84.02125
"6940",103.1651,82.35233,84.80904
"6941",103.17847,82.84306,85.373276
"6942",103.19177,83.075,85.69405
"6943",103.20514,83.08476,85.79991
"6944",103.218445,82.930954,85.7425
"6945",103.23181,82.67948,85.58262
"6946",103.24512,82.40116,85.38803
"6947",103.258484,82.14725,85.20915
"6948",103.27179,81.951935,85.08094
"6949",103.28516,81.81766,85.00766
"6950",103.29846,81.72732,84.97412
"6951",103.31183,81.64675,84.94753
"6952",103.325134,81.54421,84.896454
"6953",103.3385,81.392845,84.79334
"6954",103.35181,81.19264,84.636665
"6955",103.36517,80.96071,84.442
"6956",103.37848,80.726326,84.23764
"6957",103.391846,80.516365,84.05038
"6958",103.40515,80.35035,83.9005
"6959",103.41852,80.235596,83.79669
"6960",103.43182,80.16724,83.735695
"6961",103.44519,80.130615,83.7043
"6962",103.458496,80.1062,83.68397
"6963",103.47186,80.07202,83.65311
"6964",103.48517,80.008545,83.59188
"6965",103.498535,79.906006,83.48961
"6966",103.51184,79.76196,83.34263
"6967",103.52521,79.588615,83.16184
"6968",103.53851,79.3933,82.953674
"6969",103.55188,79.18822,82.72963
"6970",103.565186,78.995346,82.51139
"6971",103.57855,78.82201,82.306656
"6972",103.59186,78.66575,82.11359
"6973",103.605225,78.53147,81.937614
"6974",103.61853,78.42161,81.78186
"6975",103.6319,78.331276,81.642204
"6976",103.6452,78.25559,81.51437
"6977",103.65857,78.19455,81.39882
"6978",103.671875,78.14328,81.29113
"6979",103.68524,78.10422,81.194046
"6980",103.69855,78.07736,81.10795
"6981",103.711914,78.05051,81.02101
"6982",103.72522,78.02609,80.93568
"6983",103.73859,78.00168,80.84958
