"","Time..s.","PPG.trace","Preprocessed.PPG"
"65769",876.4448,81.48562,157.7142
"65770",876.4581,80.706795,156.98181
"65771",876.47144,79.920654,156.21776
"65772",876.48474,79.168686,155.46332
"65773",876.49805,78.47532,154.74397
"65774",876.51135,77.86008,154.08109
"65775",876.52466,77.32784,153.48198
"65776",876.53796,76.89082,152.96146
"65777",876.5513,76.54902,152.52249
"65778",876.5646,76.297554,152.16318
"65779",876.5779,76.12421,151.87413
"65780",876.5912,76.0119,151.6407
"65781",876.6045,75.96063,151.4648
"65782",876.6178,75.965515,151.34344
"65783",876.6311,76.01434,151.26619
"65784",876.6444,76.09735,151.22464
"65785",876.6577,76.21454,151.21986
"65786",876.671,76.34882,151.23586
"65787",876.6843,76.49287,151.2658
"65788",876.69763,76.63691,151.30023
"65789",876.71094,76.773636,151.33186
"65790",876.72424,76.876175,151.33357
"65791",876.73755,76.93477,151.29454
"65792",876.75085,76.944534,151.20851
"65793",876.76416,76.91524,151.08372
"65794",876.77747,76.895706,150.96779
"65795",876.7908,77.00801,150.98308
"65796",876.8041,77.44747,151.32904
"65797",876.8174,78.42893,152.23073
"65798",876.8307,80.09155,153.84425
"65799",876.844,82.42802,156.18358
"65800",876.8573,85.23567,159.06711
"65801",876.8706,88.162964,162.15802
"65802",876.8839,90.80217,165.05232
"65803",876.8972,92.8188,167.40652
"65804",876.9105,94.01511,169.00342
"65805",876.9238,94.36912,169.7954
"65806",876.93713,93.98093,169.85623
"65807",876.95044,93.014114,169.32632
"65808",876.96375,91.65423,168.37312
"65809",876.97705,90.072174,167.15526
"65810",876.99036,88.40223,165.80006
"65811",877.00366,86.73228,164.39268
"65812",877.01697,85.118484,162.98927
"65813",877.0303,83.614555,161.6453
"65814",877.0436,82.29618,160.43988
"65815",877.0569,81.253685,159.46915
"65816",877.0702,80.5774,158.83205
"65817",877.0835,80.33814,158.61084
"65818",877.0968,80.54322,158.82649
"65819",877.1101,81.10719,159.40744
"65820",877.1234,81.883575,160.21843
"65821",877.1367,82.69657,161.09029
"65822",877.15,83.3753,161.85329
"65823",877.1633,83.79523,162.3787
"65824",877.17664,83.895325,162.5974
"65825",877.18994,83.67559,162.49939
"65826",877.20325,83.17021,162.10887
"65827",877.21655,82.44999,161.48772
"65828",877.22986,81.59792,160.71222
"65829",877.24316,80.68238,159.84662
"65830",877.2565,79.75952,158.94508
"65831",877.2698,78.88304,158.0611
"65832",877.2831,78.08469,157.22783
"65833",877.2964,77.39132,156.47461
"65834",877.3097,76.81026,155.81203
"65835",877.323,76.33906,155.24115
"65836",877.3363,75.97284,154.76053
"65837",877.3496,75.70672,154.36856
"65838",877.3629,75.51873,154.0464
"65839",877.3762,75.40154,153.78917
"65840",877.3895,75.35027,153.5942
"65841",877.40283,75.35027,153.44888
"65842",877.41614,75.389336,153.34264
"65843",877.42944,75.46502,153.27423
"65844",877.44275,75.56512,153.2326
"65845",877.45605,75.67986,153.20876
"65846",877.46936,75.792175,153.18607
"65847",877.48267,75.88251,153.1449
"65848",877.496,75.93622,153.06993
"65849",877.5093,75.93866,152.94537
"65850",877.5226,75.88739,152.76718
"65851",877.5359,75.79706,152.54832
"65852",877.5492,75.701836,152.32176
"65853",877.5625,75.67254,152.15814
"65854",877.5758,75.84589,152.19626
"65855",877.5891,76.404976,152.62553
"65856",877.6024,77.52071,153.62892
"65857",877.6157,79.281,155.31172
"65858",877.629,81.61501,157.62326
"65859",877.64233,84.29084,160.34956
"65860",877.65564,86.96178,163.15459
"65861",877.66895,89.25674,165.6671
"65862",877.68225,90.89006,167.58969
"65863",877.69556,91.71526,168.7552
"65864",877.70886,91.75189,169.15793
"65865",877.72217,91.121994,168.89528
"65866",877.7355,89.98917,168.11002
"65867",877.7488,88.54383,166.97684
"65868",877.7621,86.939804,165.6398
"65869",877.7754,85.28939,164.20625
"65870",877.7887,83.65362,162.73578
"65871",877.802,82.08621,161.28255
"65872",877.8153,80.65797,159.9195
"65873",877.8286,79.46899,158.75108
"65874",877.8419,78.63157,157.89706
"65875",877.8552,78.24094,157.46367
"65876",877.8685,78.34104,157.5088
"65877",877.88184,78.86839,157.98431
"65878",877.89514,79.68139,158.76195
"65879",877.90845,80.59693,159.66753
"65880",877.92175,81.43679,160.52605
"65881",877.93506,82.04471,161.17886
"65882",877.94836,82.33524,161.5333
"65883",877.9617,82.28397,161.55501
"65884",877.975,81.9202,161.2626
"65885",877.9883,81.30007,160.70248
"65886",878.0016,80.50904,159.95209
"65887",878.0149,79.63012,159.08908
"65888",878.0282,78.74143,158.18883
"65889",878.0415,77.88693,157.295
"65890",878.0548,77.100784,156.44281
"65891",878.0681,76.40742,155.65884
"65892",878.0814,75.82147,154.96063
"65893",878.0947,75.34539,154.35397
"65894",878.10803,74.97917,153.8423
"65895",878.12134,74.720375,153.4266
"65896",878.13464,74.547035,153.08827
"65897",878.14795,74.45182,152.82265
"65898",878.16125,74.42008,152.61752
"65899",878.17456,74.444496,152.46756
"65900",878.18787,74.52018,152.36963
"65901",878.2012,74.63981,152.31801
"65902",878.2145,74.7863,152.297
"65903",878.2278,74.94743,152.2952
"65904",878.2411,75.10124,152.2911
"65905",878.2544,75.22575,152.26253
"65906",878.2677,75.301445,152.18903
"65907",878.281,75.318535,152.05928
"65908",878.2943,75.28191,151.87636
"65909",878.3076,75.23064,151.67764
"65910",878.3209,75.20378,151.50174
"65911",878.3342,75.299,151.44708
"65912",878.34753,75.66033,151.6615
"65913",878.36084,76.44404,152.30959
"65914",878.37415,77.75021,153.50464
"65915",878.38745,79.59106,155.27518
"65916",878.40076,81.85428,157.52562
"65917",878.41406,84.27863,160.00792
"65918",878.42737,86.55161,162.41461
"65919",878.4407,88.377815,164.44556
"65920",878.454,89.56191,165.89146
"65921",878.4673,90.03067,166.65903
"65922",878.4806,89.82803,166.76985
"65923",878.4939,89.07118,166.32013
"65924",878.5072,87.9115,165.44392
"65925",878.5205,86.485695,164.26535
"65926",878.5338,84.90608,162.88841
"65927",878.5471,83.250786,161.38643
"65928",878.5604,81.600365,159.8376
"65929",878.5737,80.045166,158.33241
"65930",878.58704,78.712135,157.0008
"65931",878.60034,77.74288,155.99129
"65932",878.61365,77.25948,155.43735
"65933",878.62695,77.31808,155.4103
"65934",878.64026,77.87717,155.88557
"65935",878.65356,78.80492,156.74698
"65936",878.6669,79.91089,157.8156
"65937",878.6802,80.9778,158.87973
"65938",878.6935,81.83475,159.76724
"65939",878.7068,82.36942,160.35925
"65940",878.7201,82.547646,160.61153
"65941",878.7334,82.391396,160.5349
"65942",878.7467,81.9617,160.17993
"65943",878.76,81.32937,159.6089
"65944",878.7733,80.570076,158.89116
"65945",878.7866,79.74731,158.08621
"65946",878.7999,78.91478,157.24579
"65947",878.81323,78.12131,156.4184
"65948",878.82654,77.3962,155.63458
"65949",878.83984,76.771194,154.9282
"65950",878.85315,76.25849,154.3146
"65951",878.86646,75.85565,153.79485
"65952",878.87976,75.560234,153.36992
"65953",878.89307,75.36248,153.03342
"65954",878.9064,75.25262,152.77863
"65955",878.9197,75.21843,152.59608
"65956",878.933,75.24773,152.47595
"65957",878.9463,75.3283,152.40802
"65958",878.9596,75.44549,152.37921
"65959",878.9729,75.58221,152.3736
"65960",878.9862,75.70916,152.36249
"65961",878.9995,75.81171,152.33095
"65962",879.0128,75.88251,152.27086
"65963",879.0261,75.92645,152.18613
"65964",879.0394,75.97528,152.10765
"65965",879.05273,76.05585,152.06244
"65966",879.06604,76.24628,152.12961
"65967",879.07935,76.65156,152.41759
"65968",879.09265,77.40353,153.06491
"65969",879.10596,78.59739,154.17763
"65970",879.11926,80.255135,155.79153
"65971",879.13257,82.27665,157.82103
"65972",879.1459,84.46174,160.07727
"65973",879.1592,86.53452,162.28949
"65974",879.1725,88.236206,164.19537
"65975",879.1858,89.37881,165.59535
"65976",879.1991,89.89151,166.40114
"65977",879.2124,89.79385,166.6126
"65978",879.2257,89.17616,166.30096
"65979",879.239,88.162964,165.57452
"65980",879.2523,86.869,164.53566
"65981",879.2656,85.39193,163.27324
"65982",879.27893,83.807434,161.85724
"65983",879.29224,82.193634,160.36243
"65984",879.30554,80.64088,158.87822
"65985",879.31885,79.281,157.53838
"65986",879.33215,78.25803,156.49294
"65987",879.34546,77.70138,155.88184
"65988",879.35876,77.67208,155.7807
"65989",879.3721,78.153046,156.18892
"65990",879.3854,79.012436,156.99059
"65991",879.3987,80.059814,158.0071
"65992",879.412,81.094986,159.04413
"65993",879.4253,81.94949,159.93286
"65994",879.4386,82.50126,160.54555
"65995",879.4519,82.71122,160.83368
"65996",879.4652,82.598915,160.8061
"65997",879.4785,82.213165,160.50157
"65998",879.4918,81.61501,159.97258
"65999",879.5051,80.8777,159.28574
"66000",879.51843,80.07446,158.50993
"66001",879.53174,79.256584,157.69438
"66002",879.54504,78.467995,156.88255
"66003",879.55835,77.747765,156.11444
"66004",879.57166,77.1252,155.4215
"66005",879.58496,76.612495,154.81895
"66006",879.59827,76.2121,154.3127
"66007",879.6116,75.92645,153.90868
"66008",879.6249,75.74334,153.59827
"66009",879.6382,75.650566,153.37247
"66010",879.6515,75.63348,153.21945
"66011",879.6648,75.667656,153.11717
"66012",879.6781,75.72625,153.04037
"66013",879.6914,75.792175,152.97275
"66014",879.7047,75.84833,152.8974
"66015",879.718,75.89227,152.8116
"66016",879.7313,75.9411,152.73206
"66017",879.7446,76.02167,152.68578
"66018",879.75793,76.17792,152.7177
"66019",879.77124,76.48798,152.90833
"66020",879.78455,77.07637,153.38696
"66021",879.79785,78.06271,154.28194
"66022",879.81116,79.51537,155.67406
"66023",879.82446,81.41238,157.55591
"66024",879.83777,83.61944,159.80711
"66025",879.8511,85.89487,162.19565
"66026",879.8644,87.96765,164.45265
"66027",879.8777,89.59121,166.3252
"66028",879.891,90.614174,167.64789
"66029",879.9043,90.99016,168.35556
"66030",879.9176,90.77043,168.47928
"66031",879.9309,90.055084,168.10051
"66032",879.9442,88.96864,167.3283
"66033",879.9575,87.63561,166.27553
"66034",879.9708,86.16098,165.0395
"66035",879.98413,84.61799,163.68904
"66036",879.99744,83.07744,162.2928
"66037",880.01074,81.62478,160.93631
"66038",880.02405,80.36744,159.72975
"66039",880.03735,79.42504,158.79884
"66040",880.05066,78.89281,158.24864
"66041",880.06396,78.82201,158.14323
"66042",880.0773,79.19066,158.47507
"66043",880.0906,79.89136,159.15047
"66044",880.1039,80.75807,160.0138
"66045",880.1172,81.61257,160.89198
"66046",880.1305,82.30595,161.63576
"66047",880.1438,82.72831,162.13019
"66048",880.1571,82.84306,162.3302
"66049",880.1704,82.652626,162.2286
"66050",880.1837,82.20096,161.85983
"66051",880.197,81.56374,161.2914
"66052",880.2103,80.81911,160.59563
"66053",880.22363,80.025635,159.82776
"66054",880.23694,79.22972,159.03265
"66055",880.25024,78.470436,158.2493
"66056",880.26355,77.7673,157.49837
"66057",880.27686,77.13985,156.80113
"66058",880.29016,76.60517,156.17708
"66059",880.30347,76.18768,155.6535
"66060",880.3168,75.88739,155.23407
"66061",880.3301,75.699394,154.91756
"66062",880.3434,75.60906,154.69283
"66063",880.3567,75.59197,154.53851
"66064",880.37,75.60906,154.41785
"66065",880.3833,75.6408,154.31236
"66066",880.3966,75.665215,154.20055
"66067",880.4099,75.67742,154.07729
"66068",880.4232,75.68963,153.9544
"66069",880.4365,75.73846,153.86853
"66070",880.4498,75.88983,153.88673
"66071",880.46313,76.24872,154.11717
"66072",880.47644,76.9543,154.70552
"66073",880.48975,78.12375,155.77979
"66074",880.50305,79.80591,157.4033
"66075",880.51636,81.92752,159.51886
"66076",880.52966,84.29328,161.94485
"66077",880.54297,86.63462,164.42036
"66078",880.5563,88.6659,166.65898
"66079",880.5696,90.16983,168.43372
"66080",880.5829,91.036545,169.61824
"66081",880.5962,91.25872,170.1853
"66082",880.6095,90.91203,170.19044
"66083",880.6228,90.121,169.74042
"66084",880.6361,89.01991,168.95561
"66085",880.6494,87.73815,167.95572
"66086",880.6627,86.3563,166.81569
"66087",880.676,84.93538,165.5934
"66088",880.68933,83.526665,164.33891
"66089",880.70264,82.20828,163.13074
"66090",880.71594,81.07057,162.06204
"66091",880.72925,80.216064,161.241
"66092",880.74255,79.73266,160.76434
"66093",880.75586,79.64477,160.66809
"66094",880.76917,79.91821,160.93044
"66095",880.7825,80.45533,161.465
"66096",880.7958,81.10719,162.13109
"66097",880.8091,81.72488,162.78337
"66098",880.8224,82.18143,163.29382
"66099",880.8357,82.39628,163.57684
"66100",880.849,82.32304,163.57849
"66101",880.8623,81.97635,163.3044
"66102",880.8756,81.40505,162.79486
"66103",880.8889,80.67017,162.1039
"66104",880.9022,79.83765,161.29231
"66105",880.9155,78.96605,160.41565
"66106",880.92883,78.11154,159.52882
"66107",880.94214,77.31075,158.66902
"66108",880.95544,76.592964,157.86719
"66109",880.96875,75.982605,157.15036
"66110",880.98206,75.491875,156.53409
"66111",880.99536,75.13054,156.03188
"66112",881.00867,74.88396,155.63312
"66113",881.022,74.73991,155.3292
"66114",881.0353,74.67155,155.09645
"66115",881.0486,74.6569,154.91528
"66116",881.0619,74.66422,154.75563
"66117",881.0752,74.67399,154.59865
"66118",881.0885,74.68864,154.44685
"66119",881.1018,74.720375,154.3126
"66120",881.1151,74.80095,154.2282
"66121",881.1284,75.00847,154.27324
"66122",881.1417,75.47234,154.58113
"66123",881.155,76.32441,155.2917
"66124",881.16833,77.662315,156.51474
"66125",881.18164,79.49584,158.2752
"66126",881.19495,81.71755,160.48116
"66127",881.20825,84.11017,162.92744
"66128",881.22156,86.40757,165.35329
"66129",881.23486,88.35096,167.49692
"66130",881.24817,89.762115,169.16904
"66131",881.2615,90.5507,170.26268
"66132",881.2748,90.71427,170.75597
"66133",881.2881,90.31876,170.69528
"66134",881.3014,89.481346,170.18033
"66135",881.3147,88.343636,169.33891
"66136",881.328,87.04234,168.29836
"66137",881.3413,85.66537,167.14145
"66138",881.3546,84.26887,165.922
"66139",881.3679,82.899216,164.68575
"66140",881.3812,81.619896,163.49702
"66141",881.39453,80.51148,162.43924
"66142",881.40784,79.676506,161.62025
"66143",881.42114,79.19798,161.13162
"66144",881.43445,79.10277,161.01134
"66145",881.44775,79.33959,161.22012
"66146",881.46106,79.7937,161.6536
"66147",881.47437,80.32838,162.18182
"66148",881.4877,80.799576,162.66328
"66149",881.501,81.094986,162.98369
"66150",881.5143,81.15602,163.07895
"66151",881.5276,80.96071,162.91977
"66152",881.5409,80.52369,162.51277
"66153",881.5542,79.89868,161.90413
"66154",881.5675,79.13695,161.13922
"66155",881.5808,78.30686,160.28217
"66156",881.5941,77.467,159.38939
"66157",881.6074,76.663765,158.50699
"66158",881.6207,75.9411,157.68007
"66159",881.63403,75.32098,156.9331
"66160",881.64734,74.82292,156.28883
"66161",881.66064,74.45182,155.75595
"66162",881.67395,74.20035,155.3311
"66163",881.68726,74.05386,155.00337
"66164",881.70056,73.987946,154.75163
"66165",881.71387,73.968414,154.54422
"66166",881.7272,73.96353,154.35085
"66167",881.7405,73.96597,154.16464
"66168",881.7538,73.9733,153.9834
"66169",881.7671,74.002594,153.82436
"66170",881.7804,74.08804,153.72238
"66171",881.7937,74.30045,153.75005
"66172",881.807,74.757,154.02849
"66173",881.8203,75.58221,154.68985
"66174",881.8336,76.876175,155.84576
"66175",881.8469,78.65598,157.52795
"66176",881.8602,80.84108,159.67105
"66177",881.87354,83.250786,162.10704
"66178",881.88684,85.64095,164.5988
"66179",881.90015,87.745476,166.87961
"66180",881.91345,89.33486,168.71104
"66181",881.92676,90.27482,169.94272
"66182",881.94006,90.52384,170.51283
"66183",881.95337,90.13809,170.45595
"66184",881.9667,89.249405,169.88408
"66185",881.98,88.04578,168.9695
"66186",881.9933,86.693214,167.86836
"66187",882.0066,85.29183,166.67615
"66188",882.0199,83.895325,165.445
"66189",882.0332,82.53788,164.20929
"66190",882.0465,81.27322,163.02394
"66191",882.0598,80.17212,161.96263
"66192",882.0731,79.327385,161.12328
"66193",882.0864,78.82445,160.59932
"66194",882.09973,78.68284,160.42097
"66195",882.11304,78.86595,160.56293
"66196",882.12634,79.26635,160.92789
"66197",882.13965,79.7522,161.39081
"66198",882.15295,80.18921,161.82007
"66199",882.16626,80.47242,162.10919
"66200",882.17957,80.52125,162.17279
"66201",882.1929,80.323494,161.99133
"66202",882.2062,79.90112,161.57907
"66203",882.2195,79.30053,160.97539
"66204",882.2328,78.58762,160.24062
"66205",882.2461,77.82834,159.4372
"66206",882.2594,77.08125,158.62224
"66207",882.2727,76.385445,157.83522
"66208",882.286,75.772644,157.10947
"66209",882.2993,75.2575,156.46222
"66210",882.3126,74.847336,155.90385
"66211",882.3259,74.53971,155.43521
"66212",882.33923,74.32487,155.04973
"66213",882.35254,74.19302,154.74054
"66214",882.36584,74.12955,154.49559
"66215",882.37915,74.11246,154.29504
"66216",882.39246,74.11734,154.11594
"66217",882.40576,74.13199,153.94675
"66218",882.41907,74.14908,153.78046
"66219",882.4324,74.1857,153.63423
"66220",882.4457,74.27848,153.54532
"66221",882.459,74.49821,153.58624
"66222",882.4723,74.96208,153.87819
"66223",882.4856,75.7995,154.55817
"66224",882.4989,77.11543,155.74283
"66225",882.5122,78.941635,157.47888
"66226",882.5255,81.22438,159.72855
"66227",882.5388,83.78302,162.32545
"66228",882.5521,86.31968,164.98033
"66229",882.5654,88.516975,167.37512
"66230",882.57874,90.10391,169.22821
"66231",882.59204,90.93645,170.3765
"66232",882.60535,91.002365,170.78418
"66233",882.61865,90.423744,170.54938
"66234",882.63196,89.410545,169.86192
"66235",882.64526,88.17029,168.91574
"66236",882.65857,86.84703,167.84781
"66237",882.6719,85.504234,166.71898
"66238",882.6852,84.1712,165.55795
"66239",882.6985,82.865036,164.38214
"66240",882.7118,81.634544,163.24118
"66241",882.7251,80.550545,162.20827
"66242",882.7384,79.708244,161.38318
"66243",882.7517,79.185776,160.8516
"66244",882.765,79.00755,160.64792
"66245",882.7783,79.13695,160.74629
"66246",882.7916,79.46899,161.05136
"66247",882.80493,79.871826,161.4376
"66248",882.81824,80.21362,161.77539
"66249",882.83154,80.38697,161.95541
"66250",882.84485,80.33082,161.91136
"66251",882.85815,80.03784,161.62872
"66252",882.87146,79.53979,161.13185
"66253",882.88477,78.890366,160.46805
"66254",882.8981,78.15549,159.69849
"66255",882.9114,77.39132,158.87668
"66256",882.9247,76.654,158.05783
"66257",882.938,75.97528,157.27455
"66258",882.9513,75.37713,156.55063
"66259",882.9646,74.87663,155.90567
"66260",882.9779,74.486,155.35493
"66261",882.9912,74.195465,154.89209
"66262",883.0045,74.00748,154.5227
"66263",883.0178,73.90738,154.23534
"66264",883.0311,73.87808,154.01564
"66265",883.04443,73.89761,153.84386
"66266",883.05774,73.93912,153.69466
"66267",883.07104,73.987946,153.55408
"66268",883.08435,74.03433,153.41258
"66269",883.09766,74.07828,153.2701
"66270",883.11096,74.127106,153.13387
"66271",883.12427,74.21744,153.04066
"66272",883.1376,74.407875,153.0504
"66273",883.1509,74.813156,153.28093
"66274",883.1642,75.58465,153.89034
"66275",883.1775,76.839554,155.00726
"66276",883.1908,78.64622,156.71516
"66277",883.2041,80.970474,158.99712
"66278",883.2174,83.6292,161.68617
"66279",883.2307,86.29038,164.46077
"66280",883.244,88.59754,166.96451
"66281",883.2573,90.26261,168.89825
"66282",883.2706,91.13664,170.09299
"66283",883.28394,91.21965,170.52402
"66284",883.29724,90.65568,170.31065
"66285",883.31055,89.67666,169.66463
"66286",883.32385,88.49012,168.78049
"66287",883.33716,87.220566,167.77625
"66288",883.35046,85.943695,166.72502
"66289",883.3638,84.681465,165.64853
"66290",883.3771,83.43633,164.5497
"66291",883.3904,82.23514,163.45589
"66292",883.4037,81.13893,162.42953
"66293",883.417,80.24292,161.56912
"66294",883.4303,79.62035,160.95415
"66295",883.4436,79.32494,160.64687
"66296",883.4569,79.32983,160.63065
"66297",883.4702,79.55688,160.83675
"66298",883.4835,79.87915,161.14517
"66299",883.4968,80.17944,161.44168
"66300",883.51013,80.33814,161.60599
"66301",883.52344,80.291756,161.57018
"66302",883.53674,80.01587,161.3034
"66303",883.55005,79.534904,160.82294
"66304",883.56335,78.890366,160.16386
"66305",883.57666,78.150604,159.38942
"66306",883.58997,77.37667,158.5577
"66307",883.6033,76.61982,157.71886
"66308",883.6166,75.911804,156.90521
"66309",883.6299,75.2868,156.15245
"66310",883.6432,74.76433,155.4827
"66311",883.6565,74.35172,154.90648
"66312",883.6698,74.04898,154.42723
"66313",883.6831,73.8439,154.03618
"66314",883.6964,73.73159,153.73149
"66315",883.7097,73.69253,153.49654
"66316",883.723,73.71694,153.32384
"66317",883.7363,73.780426,153.19098
"66318",883.74963,73.87564,153.09183
"66319",883.76294,73.97574,153.00053
"66320",883.77625,74.06607,152.9026
"66321",883.78955,74.13443,152.78552
"66322",883.80286,74.175934,152.64372
"66323",883.81616,74.1857,152.47148
"66324",883.82947,74.175934,152.28001
"66325",883.8428,74.18326,152.10533
"66326",883.8561,74.27116,152.01146
"66327",883.8694,74.56168,152.12296
"66328",883.8827,75.20378,152.59511
"66329",883.896,76.35615,153.5976
"66330",883.9093,78.1091,155.23668
"66331",883.9226,80.45777,157.52626
"66332",883.9359,83.23125,160.31404
"66333",883.9492,86.08774,163.27151
"66334",883.9625,88.621956,165.99597
"66335",883.9758,90.50675,168.1502
"66336",883.98914,91.55169,169.52348
"66337",884.00244,91.747,170.07979
"66338",884.01575,91.23674,169.93661
"66339",884.02905,90.27238,169.3234
"66340",884.04236,89.08339,168.45541
"66341",884.05566,87.82361,167.47949
"66342",884.069,86.56138,166.46175
"66343",884.0823,85.32113,165.42654
"66344",884.0956,84.09552,164.36722
"66345",884.1089,82.89433,163.29402
"66346",884.1222,81.75906,162.2492
"66347",884.1355,80.77272,161.31784
"66348",884.1488,80.03296,160.60223
"66349",884.1621,79.61059,160.1809
"66350",884.1754,79.50561,160.06374
"66351",884.1887,79.64477,160.18744
"66352",884.202,79.920654,160.45222
"66353",884.21533,80.201416,160.7305
"66354",884.22864,80.37476,160.91014
"66355",884.24194,80.365,160.9121
"66356",884.25525,80.14526,160.70377
"66357",884.26855,79.71557,160.27861
"66358",884.28186,79.12474,159.6789
"66359",884.29517,78.42649,158.9533
"66360",884.3085,77.67208,158.1497
"66361",884.3218,76.92012,157.325
"66362",884.3351,76.2121,156.52072
"66363",884.3484,75.57488,155.76514
"66364",884.3617,75.020676,155.07265
"66365",884.375,74.56901,154.46538
"66366",884.3883,74.21744,153.94409
"66367",884.4016,73.96109,153.50703
"66368",884.4149,73.797516,153.15474
"66369",884.4282,73.7145,152.8779
"66370",884.4415,73.704735,152.6717
"66371",884.45483,73.74868,152.51892
"66372",884.46814,73.83902,152.41391
"66373",884.48145,73.953766,152.33612
"66374",884.49475,74.08072,152.27412
"66375",884.50806,74.20279,152.21121
"66376",884.52136,74.31266,152.13992
"66377",884.53467,74.39811,152.04764
"66378",884.548,74.45426,151.92873
"66379",884.5613,74.47135,151.7725
"66380",884.5746,74.45182,151.5802
"66381",884.5879,74.40055,151.35555
"66382",884.6012,74.33219,151.1122
"66383",884.6145,74.26139,150.86427
"66384",884.6278,74.20523,150.62878
"66385",884.6411,74.212555,150.45502
"66386",884.6544,74.37858,150.44019
"66387",884.6677,74.86687,150.7528
"66388",884.681,75.862976,151.5885
"66389",884.69434,77.50851,153.10475
"66390",884.70764,79.84985,155.36824
"66391",884.72095,82.75029,158.26398
"66392",884.73425,85.86313,161.46277
"66393",884.74756,88.72694,164.5098
"66394",884.76086,90.94133,166.9969
"66395",884.7742,92.26704,168.66452
"66396",884.7875,92.65034,169.43117
"66397",884.8008,92.22797,169.40411
"66398",884.8141,91.266045,168.82431
"66399",884.8274,90.02579,167.93611
"66400",884.8407,88.6952,166.91882
"66401",884.854,87.379265,165.87462
"66402",884.8673,86.11459,164.84055
"66403",884.8806,84.89876,163.8158
"66404",884.8939,83.72198,162.7921
"66405",884.9072,82.60136,161.7878
"66406",884.92053,81.583275,160.85101
"66407",884.93384,80.75319,160.0704
"66408",884.94714,80.18677,159.52753
"66409",884.96045,79.92798,159.27457
"66410",884.97375,79.94507,159.2894
"66411",884.98706,80.15259,159.49521
"66412",885.00037,80.428474,159.77586
"66413",885.0137,80.655525,160.01631
"66414",885.027,80.726326,160.1076
"66415",885.0403,80.57984,159.98383
"66416",885.0536,80.21362,159.63573
"66417",885.0669,79.67162,159.1004
"66418",885.0802,79.00511,158.42363
"66419",885.0935,78.2678,157.65523
"66420",885.1068,77.5256,156.85889
"66421",885.1201,76.81758,156.07355
"66422",885.1334,76.173035,155.32954
"66423",885.1467,75.60906,154.64598
"66424",885.16003,75.14519,154.04489
"66425",885.17334,74.78386,153.53185
"66426",885.18665,74.51774,153.10272
"66427",885.19995,74.33463,152.74829
"66428",885.21326,74.23453,152.47115
"66429",885.22656,74.20035,152.25679
"66430",885.23987,74.22232,152.09752
"66431",885.2532,74.28092,151.97557
"66432",885.2665,74.36149,151.87741
"66433",885.2798,74.44694,151.78665
"66434",885.2931,74.527504,151.69368
"66435",885.3064,74.600746,151.5959
"66436",885.3197,74.669106,151.49553
"66437",885.333,74.7277,151.38753
"66438",885.3463,74.776535,151.2716
"66439",885.3596,74.813156,151.14499
"66440",885.3729,74.84001,151.00975
"66441",885.3862,74.8571,150.86559
"66442",885.39954,74.86687,150.71463
"66443",885.41284,74.86931,150.55666
"66444",885.42615,74.861984,150.38899
"66445",885.43945,74.84245,150.2089
"66446",885.45276,74.80583,150.0111
"66447",885.46606,74.75212,149.79506
"66448",885.4794,74.67887,149.55782
"66449",885.4927,74.598305,149.31096
"66450",885.506,74.527504,149.07135
"66451",885.5193,74.512856,148.88568
"66452",885.5326,74.652016,148.85336
"66453",885.5459,75.123215,149.15744
"66454",885.5592,76.11688,149.9987
"66455",885.5725,77.78195,151.54242
"66456",885.5858,80.16724,153.85838
"66457",885.5991,83.15556,156.85193
"66458",885.6124,86.39536,160.19034
"66459",885.62573,89.40078,163.39561
"66460",885.63904,91.747,166.03561
"66461",885.65234,93.16792,167.82362
"66462",885.66565,93.592735,168.65993
"66463",885.67896,93.155716,168.64767
"66464",885.69226,92.12787,168.03094
"66465",885.70557,90.80217,167.08424
"66466",885.7189,89.376366,165.996
"66467",885.7322,87.9823,164.89494
"66468",885.7455,86.67368,163.83577
"66469",885.7588,85.45052,162.82117
"66470",885.7721,84.300606,161.84158
"66471",885.7854,83.22392,160.89929
"66472",885.7987,82.247345,160.02347
"66473",885.812,81.427025,159.27338
"66474",885.8253,80.84352,158.73447
"66475",885.8386,80.54078,158.45808
"66476",885.8519,80.5066,158.44081
"66477",885.86523,80.67506,158.6251
"66478",885.87854,80.94118,158.91232
"66479",885.89185,81.1902,159.19077
"66480",885.90515,81.3196,159.35736
"66481",885.91846,81.26833,159.34734
"66482",885.93176,81.01198,159.13062
"66483",885.94507,80.56519,158.71545
"66484",885.9584,79.974365,158.14229
"66485",885.9717,79.29809,157.46521
"66486",885.985,78.58762,156.7328
"66487",885.9983,77.88693,155.98798
"66488",886.0116,77.23506,155.27007
"66489",886.0249,76.65644,154.60504
"66490",886.0382,76.16083,154.00494
"66491",886.0515,75.757996,153.48213
"66492",886.0648,75.457695,153.04927
"66493",886.0781,75.24284,152.69247
"66494",886.09143,75.10124,152.4022
"66495",886.10474,75.02312,152.17099
"66496",886.11804,75.003586,151.99593
"66497",886.13135,75.02312,151.85931
"66498",886.14465,75.071945,151.75261
"66499",886.15796,75.140305,151.66696
"66500",886.17126,75.22331,151.5981
"66501",886.1846,75.30877,151.53429
"66502",886.1979,75.386894,151.4658
"66503",886.2112,75.45525,151.39
"66504",886.2245,75.511406,151.30412
"66505",886.2378,75.55047,151.20291
"66506",886.2511,75.562675,151.07607
"66507",886.2644,75.55779,150.93251
"66508",886.2777,75.53338,150.76927
"66509",886.291,75.50164,150.59795
"66510",886.3043,75.457695,150.41342
"66511",886.3176,75.41375,150.22752
"66512",886.33093,75.372246,150.0427
"66513",886.34424,75.33318,149.85901
"66514",886.35754,75.29656,149.67654
"66515",886.37085,75.25506,149.48805
"66516",886.38416,75.20622,149.29094
"66517",886.39746,75.15251,149.08742
"66518",886.41077,75.10857,148.89198
"66519",886.4241,75.10368,148.73424
"66520",886.4374,75.21599,148.69353
"66521",886.4507,75.59197,148.92001
"66522",886.464,76.41718,149.60747
"66523",886.4773,77.84543,150.92375
"66524",886.4906,79.937744,152.94873
"66525",886.5039,82.62333,155.63237
"66526",886.5172,85.660484,158.75151
"66527",886.5305,88.63416,161.90208
"66528",886.5438,91.107346,164.64508
"66529",886.5571,92.76753,166.65237
"66530",886.57043,93.48531,167.76913
"66531",886.58374,93.30709,168.01233
"66532",886.59705,92.43305,167.55414
"66533",886.61035,91.1635,166.67311
"66534",886.62366,89.74258,165.60104
"66535",886.63696,88.326546,164.48947
"66536",886.65027,86.993515,163.41664
"66537",886.6636,85.770355,162.41203
"66538",886.6769,84.6424,161.4644
"66539",886.6902,83.59991,160.56699
"66540",886.7035,82.66239,159.74197
"66541",886.7168,81.87381,159.03659
"66542",886.7301,81.28542,158.50676
"66543",886.7434,80.938736,158.20024
"66544",886.7567,80.83864,158.12949
"66545",886.77,80.94362,158.26068
"66546",886.7833,81.17311,158.51967
"66547",886.79663,81.42458,158.8078
"66548",886.80994,81.600365,159.0281
"66549",886.82324,81.62722,159.10498
"66550",886.83655,81.461205,158.98982
"66551",886.84985,81.09987,158.67415
"66552",886.86316,80.57496,158.18361
"66553",886.87646,79.94751,157.57413
"66554",886.8898,79.26879,156.89377
"66555",886.9031,78.58762,156.18974
"66556",886.9164,77.945526,155.50351
"66557",886.9297,77.36446,154.85825
"66558",886.943,76.85176,154.26318
"66559",886.9563,76.422066,153.7351
"66560",886.9696,76.07294,153.27417
"66561",886.9829,75.79706,152.87556
"66562",886.9962,75.58465,152.53181
"66563",887.0095,75.44305,152.25223
"66564",887.0228,75.36736,152.03413
"66565",887.03613,75.35027,151.87227
"66566",887.04944,75.38201,151.7587
"66567",887.06274,75.45281,151.68518
"66568",887.07605,75.53826,151.62852
"66569",887.08936,75.61883,151.56966
"66570",887.10266,75.68963,151.50354
"66571",887.11597,75.74334,151.42255
"66572",887.1293,75.775085,151.32127
"66573",887.1426,75.792175,151.20633
"66574",887.1559,75.79706,151.07971
"66575",887.1692,75.79462,150.94592
"66576",887.1825,75.78241,150.80229
"66577",887.1958,75.76288,150.65096
"66578",887.2091,75.733574,150.48924
"66579",887.2224,75.69695,150.31929
"66580",887.2357,75.648125,150.13599
"66581",887.249,75.59441,149.94627
"66582",887.2623,75.543144,149.75732
"66583",887.27563,75.491875,149.56677
"66584",887.28894,75.44549,149.3795
"66585",887.30225,75.406425,149.1981
"66586",887.31555,75.37469,149.02281
"66587",887.32886,75.34783,148.85141
"66588",887.34216,75.34051,148.6987
"66589",887.35547,75.386894,148.59947
"66590",887.3688,75.560234,148.62865
"66591",887.3821,76.019226,148.9489
"66592",887.3954,76.961624,149.76689
"66593",887.4087,78.53391,151.24423
"66594",887.422,80.765396,153.4299
"66595",887.4353,83.5584,156.24683
"66596",887.4486,86.63218,159.43181
"66597",887.4619,89.57656,162.58345
"66598",887.4752,91.966736,165.27289
"66599",887.4885,93.51461,167.19472
"66600",887.50183,94.12985,168.23228
"66601",887.51514,93.873505,168.4175
"66602",887.52844,92.95064,167.92818
"66603",887.54175,91.646904,167.02914
"66604",887.55505,90.211334,165.95753
"66605",887.56836,88.78554,164.85085
"66606",887.58167,87.44274,163.7826
"66607",887.595,86.19516,162.7676
"66608",887.6083,85.033035,161.79907
"66609",887.6216,83.95392,160.87724
"66610",887.6349,82.97978,160.02667
"66611",887.6482,82.1741,159.31412
"66612",887.6615,81.59304,158.801
"66613",887.6748,81.28054,158.53828
"66614",887.6881,81.23903,158.53679
"66615",887.7014,81.409935,158.74641
"66616",887.7147,81.69558,159.07613
"66617",887.728,81.98367,159.4172
"66618",887.74133,82.178986,159.67451
"66619",887.75464,82.20584,159.76947
"66620",887.76794,82.037384,159.66995
"66621",887.78125,81.668724,159.36496
"66622",887.79456,81.13649,158.88487
"66623",887.80786,80.48707,158.27097
"66624",887.82117,79.77173,157.57085
"66625",887.8345,79.04173,156.83371
"66626",887.8478,78.33616,156.09819
"66627",887.8611,77.68917,155.3992
"66628",887.8744,77.11055,154.74837
"66629",887.8877,76.61738,154.1649
"66630",887.901,76.21454,153.65636
"66631",887.9143,75.894714,153.21823
"66632",887.9276,75.65789,152.85312
"66633",887.9409,75.491875,152.5514
"66634",887.9542,75.39178,152.31042
"66635",887.9675,75.34783,152.12247
"66636",887.98083,75.34539,151.97464
"66637",887.99414,75.37713,151.86092
"66638",888.00745,75.43084,151.77016
"66639",888.02075,75.491875,151.6884
"66640",888.03406,75.55047,151.60611
"66641",888.04736,75.60418,151.52077
"66642",888.06067,75.650566,151.42978
"66643",888.074,75.67986,151.32315
"66644",888.0873,75.699394,151.20767
"66645",888.1006,75.68963,151.0635
"66646",888.1139,75.65545,150.89462
"66647",888.1272,75.5993,150.7027
"66648",888.1405,75.53582,150.5017
"66649",888.1538,75.46746,150.29382
"66650",888.1671,75.39666,150.08138
"66651",888.1804,75.33074,149.8716
"66652",888.1937,75.26971,149.66464
"66653",888.20703,75.211105,149.45822
"66654",888.22034,75.15007,149.24753
"66655",888.23364,75.09148,149.03737
"66656",888.24695,75.03044,148.82294
"66657",888.26025,74.96452,148.60172
"66658",888.27356,74.896164,148.37599
"66659",888.28687,74.86687,148.1872
"66660",888.3002,74.96208,148.122
"66661",888.3135,75.35027,148.35275
"66662",888.3268,76.224304,149.08148
"66663",888.3401,77.72579,150.46498
"66664",888.3534,79.85962,152.52774
"66665",888.3667,82.48417,155.1479
"66666",888.38,85.316246,158.05762
"66667",888.3933,87.989624,160.89713
"66668",888.4066,90.162506,163.31969
"66669",888.4199,91.6054,165.08015
"66670",888.4332,92.23529,166.07271
"66671",888.44653,92.09857,166.31834
"66672",888.45984,91.34905,165.9469
"66673",888.47314,90.18936,165.14186
"66674",888.48645,88.82948,164.1004
"66675",888.49976,87.42565,162.97249
"66676",888.51306,86.065765,161.84465
"66677",888.52637,84.78645,160.7549
"66678",888.5397,83.60235,159.72037
"66679",888.553,82.54032,158.77092
"66680",888.5663,81.64675,157.95674
"66681",888.5796,80.98512,157.34657
"66682",888.5929,80.604256,156.99649
"66683",888.6062,80.52857,156.9397
"66684",888.6195,80.719,157.14665
"66685",888.6328,81.09743,157.54755
"66686",888.6461,81.55154,158.03595
"66687",888.6594,81.95926,158.49216
"66688",888.6727,82.22049,158.81462
"66689",888.68604,82.269325,158.93285
"66690",888.69934,82.09354,158.82797
"66691",888.71265,81.705345,158.5052
"66692",888.72595,81.15602,158.00917
"66693",888.73926,80.499275,157.38855
"66694",888.75256,79.79614,156.70102
"66695",888.76587,79.093,155.99152
"66696",888.7792,78.42893,155.2991
"66697",888.7925,77.81857,154.63965
"66698",888.8058,77.27657,154.02948
"66699",888.8191,76.8127,153.4805
"66700",888.8324,76.42939,152.99759
"66701",888.8457,76.12665,152.58327
"66702",888.859,75.90204,152.23761
"66703",888.8723,75.74822,151.95573
"66704",888.8856,75.65545,151.73009
"66705",888.8989,75.60418,151.54305
"66706",888.91223,75.58709,151.38858
"66707",888.92554,75.5993,151.26288
"66708",888.93884,75.631035,151.15709
"66709",888.95215,75.67986,151.06938
"66710",888.96545,75.7409,150.9954
"66711",888.97876,75.81171,150.93312
"66712",888.99207,75.87518,150.8657
"66713",889.0054,75.92157,150.78319
"66714",889.0187,75.95819,150.69235
"66715",889.032,75.97528,150.58313
"66716",889.0453,75.98016,150.46223
"66717",889.0586,75.9704,150.32684
"66718",889.0719,75.95331,150.18382
"66719",889.0852,75.92645,150.0305
"66720",889.0985,75.88739,149.86414
"66721",889.1118,75.83124,149.67946
"66722",889.1251,75.757996,149.47594
"66723",889.1384,75.66033,149.24571
"66724",889.15173,75.543144,148.9929
"66725",889.16504,75.41375,148.72423
"66726",889.17834,75.29168,148.45883
"66727",889.19165,75.22575,148.24577
"66728",889.20496,75.29656,148.16739
"66729",889.21826,75.65301,148.37685
"66730",889.23157,76.470894,149.05888
"66731",889.2449,77.8674,150.34511
"66732",889.2582,79.84741,152.25847
"66733",889.2715,82.266884,154.67317
"66734",889.2848,84.84749,157.32462
"66735",889.2981,87.2401,159.86871
"66736",889.3114,89.127335,161.98221
"66737",889.3247,90.321205,163.4613
"66738",889.338,90.78264,164.24527
"66739",889.3513,90.57755,164.37714
"66740",889.3646,89.847565,163.97769
"66741",889.3779,88.763565,163.20143
"66742",889.39124,87.48913,162.20085
"66743",889.40454,86.14145,161.0872
"66744",889.41785,84.79378,159.93146
"66745",889.43115,83.49493,158.78241
"66746",889.44446,82.29618,157.69289
"66747",889.45776,81.26101,156.72948
"66748",889.47107,80.462654,155.97054
"66749",889.4844,79.97681,155.49915
"66750",889.4977,79.852295,155.3739
"66751",889.511,80.076904,155.5939
"66752",889.5243,80.570076,156.08948
"66753",889.5376,81.20485,156.74207
"66754",889.5509,81.83475,157.40962
"66755",889.5642,82.340126,157.97234
"66756",889.5775,82.62821,158.33356
"66757",889.5908,82.669716,158.4572
"66758",889.6041,82.46952,158.34044
"66759",889.61743,82.06668,158.01477
"66760",889.63074,81.512474,157.52515
"66761",889.64404,80.86305,156.92299
"66762",889.65735,80.16724,156.25415
"66763",889.67065,79.48119,155.57333
"66764",889.68396,78.82933,154.90526
"66765",889.69727,78.23605,154.27539
"66766",889.7106,77.71847,153.70268
"66767",889.7239,77.27657,153.18948
"66768",889.7372,76.90791,152.73572
"66769",889.7505,76.61494,152.34612
"66770",889.7638,76.40009,152.02548
"66771",889.7771,76.25605,151.76894
"66772",889.7904,76.16815,151.56404
"66773",889.8037,76.13641,151.41255
"66774",889.817,76.14618,151.30157
"66775",889.8303,76.18524,151.2202
"66776",889.8436,76.25117,151.16692
"66777",889.85693,76.334175,151.13277
"66778",889.87024,76.43427,151.1183
"66779",889.88354,76.53681,151.1094
"66780",889.89685,76.63203,151.09639
"66781",889.91016,76.70771,151.06682
"66782",889.92346,76.756546,151.01277
"66783",889.93677,76.78096,150.93582
"66784",889.9501,76.7834,150.83766
"66785",889.9634,76.771194,150.72493
"66786",889.9767,76.74677,150.59961
"66787",889.99,76.715034,150.4662
"66788",890.0033,76.663765,150.31227
"66789",890.0166,76.59052,150.13477
"66790",890.0299,76.48554,149.92323
"66791",890.0432,76.35859,149.68645
"66792",890.0565,76.21698,149.43105
"66793",890.0698,76.0827,149.17854
"66794",890.0831,76.0119,148.98532
"66795",890.09644,76.09979,148.94858
"66796",890.10974,76.50507,149.23198
"66797",890.12305,77.39132,150.009
"66798",890.13635,78.870834,151.407
"66799",890.14966,80.90944,153.41031
"66800",890.16296,83.33379,155.86308
"66801",890.1763,85.841156,158.47462
"66802",890.1896,88.079956,160.89597
"66803",890.2029,89.75723,162.82574
"66804",890.2162,90.71183,164.08525
"66805",890.2295,90.93645,164.6446
"66806",890.2428,90.531166,164.58109
"66807",890.2561,89.6498,164.02882
"66808",890.2694,88.45838,163.13896
"66809",890.2827,87.10338,162.04828
"66810",890.296,85.68246,160.84933
"66811",890.3093,84.2591,159.60356
"66812",890.32263,82.88945,158.367
"66813",890.33594,81.64675,157.2146
"66814",890.34924,80.61646,156.23578
"66815",890.36255,79.89136,155.52994
"66816",890.37585,79.54467,155.17986
"66817",890.38916,79.60082,155.22177
"66818",890.40247,80.008545,155.61702
"66819",890.4158,80.66773,156.27647
"66820",890.4291,81.43435,157.06396
"66821",890.4424,82.15701,157.83145
"66822",890.4557,82.71366,158.4555
"66823",890.469,83.021286,158.84793
"66824",890.4823,83.04814,158.96921
"66825",890.4956,82.80888,158.82521
"66826",890.5089,82.354774,158.45888
"66827",890.5222,81.75662,157.93431
"66828",890.5355,81.077896,157.31049
"66829",890.5488,80.37476,156.64104
"66830",890.56213,79.69848,155.97647
"66831",890.57544,79.07591,155.34448
"66832",890.58875,78.519264,154.75896
"66833",890.60205,78.03586,154.22928
"66834",890.61536,77.628136,153.76018
"66835",890.62866,77.296104,153.35402
"66836",890.64197,77.03487,153.00829
"66837",890.6553,76.83711,152.71786
"66838",890.6686,76.6955,152.47742
"66839",890.6819,76.60761,152.28625
"66840",890.6952,76.55634,152.12897
"66841",890.7085,76.53925,152.00426
"66842",890.7218,76.55146,151.90831
"66843",890.7351,76.58808,151.83716
"66844",890.7484,76.64912,151.79156
"66845",890.7617,76.71992,151.75764
"66846",890.775,76.79805,151.73328
"66847",890.7883,76.88106,151.71622
"66848",890.80164,76.961624,151.69931
"66849",890.81494,77.02998,151.67271
"66850",890.82825,77.086136,151.63605
"66851",890.84155,77.120316,151.57916
"66852",890.85486,77.12764,151.49649
"66853",890.86816,77.11055,151.38963
"66854",890.8815,77.066605,151.25539
"66855",890.8948,76.98848,151.08559
"66856",890.9081,76.88106,150.88405
"66857",890.9214,76.75166,150.65718
"66858",890.9347,76.61982,150.42383
"66859",890.948,76.53681,150.23518
"66860",890.9613,76.60029,150.19043
"66861",890.9746,76.97139,150.45529
"66862",890.9879,77.81613,151.20538
"66863",891.0012,79.23216,152.55316
"66864",891.0145,81.18776,154.48476
"66865",891.02783,83.5169,156.85101
"66866",891.04114,85.93149,159.3755
"66867",891.05444,88.10193,161.73131
"66868",891.06775,89.74258,163.62514
"66869",891.08105,90.69962,164.88664
"66870",891.09436,90.95354,165.47491
"66871",891.10767,90.579994,165.44366
"66872",891.121,89.71328,164.90758
"66873",891.1343,88.50965,164.00749
"66874",891.1476,87.12535,162.88911
"66875",891.1609,85.64828,161.6347
"66876",891.1742,84.16144,160.32437
"66877",891.1875,82.72343,159.0164
"66878",891.2008,81.40505,157.78314
"66879",891.2141,80.30152,156.72353
"66880",891.2274,79.520256,155.95169
"66881",891.2407,79.14671,155.56316
"66882",891.254,79.21507,155.60484
"66883",891.26733,79.68139,156.04663
"66884",891.28064,80.42603,156.78131
"66885",891.29395,81.290306,157.6589
"66886",891.30725,82.09598,158.5049
"66887",891.32056,82.70878,159.1832
"66888",891.33386,83.05058,159.60965
"66889",891.34717,83.09453,159.74893
"66890",891.3605,82.862595,159.61371
"66891",891.3738,82.41581,159.25638
"66892",891.3871,81.82498,158.74104
"66893",891.4004,81.143814,158.11691
"66894",891.4137,80.430916,157.43976
"66895",891.427,79.72289,156.74521
"66896",891.4403,79.05882,156.07248
"66897",891.4536,78.46067,155.44492
"66898",891.4669,77.94064,154.87679
"66899",891.4802,77.50851,154.3803
"66900",891.4935,77.16182,153.95575
"66901",891.50684,76.88838,153.59361
"66902",891.52014,76.6833,153.29129
"66903",891.53345,76.53925,153.0436
"66904",891.54675,76.456245,152.85243
"66905",891.56006,76.42939,152.71483
"66906",891.57336,76.45136,152.62521
"66907",891.5867,76.50507,152.56802
"66908",891.6,76.58564,152.53937
"66909",891.6133,76.67841,152.52544
"66910",891.6266,76.77852,152.52174
"66911",891.6399,76.87373,152.51628
"66912",891.6532,76.96651,152.51135
"66913",891.6665,77.049515,152.49956
"66914",891.6798,77.10811,152.46594
"66915",891.6931,77.12764,152.3951
"66916",891.7064,77.09834,152.27603
"66917",891.7197,77.01045,152.09746
"66918",891.73303,76.876175,151.86975
"66919",891.74634,76.717476,151.61343
"66920",891.75964,76.56855,151.36192
"66921",891.77295,76.49287,151.179
"66922",891.78625,76.610054,151.18658
"66923",891.79956,77.06416,151.53476
"66924",891.81287,78.00168,152.38052
"66925",891.8262,79.47631,153.79271
"66926",891.8395,81.427025,155.72705
"66927",891.8528,83.648735,157.99336
"66928",891.8661,85.85092,160.30957
"66929",891.8794,87.728386,162.36987
"66930",891.8927,89.05165,163.93465
"66931",891.906,89.71328,164.87914
"66932",891.9193,89.72549,165.19489
"66933",891.9326,89.181046,164.95436
"66934",891.9459,88.21179,164.27202
"66935",891.9592,86.9691,163.28595
"66936",891.97253,85.57748,162.1121
"66937",891.98584,84.119934,160.82886
"66938",891.99915,82.66239,159.50006
"66939",892.01245,81.26101,158.18188
"66940",892.02576,79.9939,156.95418
"66941",892.03906,78.975815,155.93591
"66942",892.05237,78.314186,155.24228
"66943",892.0657,78.08713,154.96254
"66944",892.079,78.31907,155.1347
"66945",892.0923,78.93675,155.69986
"66946",892.1056,79.80347,156.53334
"66947",892.1189,80.743416,157.46715
"66948",892.1322,81.583275,158.33025
"66949",892.1455,82.19119,158.98764
"66950",892.1588,82.50858,159.3735
"66951",892.1721,82.51835,159.46167
"66952",892.1854,82.25468,159.2767
"66953",892.1987,81.778595,158.87108
"66954",892.21204,81.15846,158.30653
"66955",892.22534,80.462654,157.64693
"66956",892.23865,79.73998,156.93872
"66957",892.25195,79.03929,156.2299
"66958",892.26526,78.39231,155.5529
"66959",892.27856,77.821014,154.93137
"66960",892.2919,77.330284,154.37254
"66961",892.3052,76.929886,153.88872
"66962",892.3185,76.612495,153.47539
"66963",892.3318,76.37812,153.13515
"66964",892.3451,76.21454,152.85838
"66965",892.3584,76.11444,152.63998
"66966",892.3717,76.06561,152.46973
"66967",892.385,76.053406,152.33456
"66968",892.3983,76.07294,152.23076
"66969",892.4116,76.11932,152.15442
"66970",892.4249,76.190125,152.10394
"66971",892.43823,76.27802,152.07278
"66972",892.45154,76.38056,152.059
"66973",892.46484,76.49775,152.06308
"66974",892.47815,76.60517,152.06105
"66975",892.49146,76.6955,152.04529
"66976",892.50476,76.75166,151.99818
"66977",892.51807,76.76631,151.91132
"66978",892.5314,76.734566,151.77852
"66979",892.5447,76.680855,151.62276
"66980",892.558,76.64912,151.48729
"66981",892.5713,76.72968,151.46313
"66982",892.5846,77.0544,151.68565
"66983",892.5979,77.76486,152.30406
"66984",892.6112,78.94896,153.4183
"66985",892.6245,80.6067,155.0432
"66986",892.6378,82.61112,157.06659
"66987",892.6511,84.735176,159.27225
"66988",892.6644,86.695656,161.3807
"66989",892.67773,88.24109,163.13538
"66990",892.69104,89.21767,164.36949
"66991",892.70435,89.57168,165.01155
"66992",892.71765,89.34951,165.0885
"66993",892.73096,88.656136,164.6873
"66994",892.74426,87.60876,163.91043
"66995",892.75757,86.327,162.86646
"66996",892.7709,84.90608,161.64325
"66997",892.7842,83.4168,160.30728
"66998",892.7975,81.934845,158.9321
"66999",892.8108,80.552986,157.6107
"67000",892.8241,79.381096,156.4561
"67001",892.8374,78.54368,155.59933
"67002",892.8507,78.14328,155.15343
"67003",892.864,78.21164,155.16376
"67004",892.8773,78.709694,155.60593
"67005",892.8906,79.52758,156.38348
"67006",892.90393,80.48707,157.3282
"67007",892.91724,81.409935,158.2663
"67008",892.93054,82.15457,159.055
"67009",892.94385,82.63065,159.5984
"67010",892.95715,82.804,159.85396
"67011",892.97046,82.69169,159.82927
"67012",892.98376,82.34257,159.56427
"67013",892.9971,81.82254,159.11745
"67014",893.0104,81.18776,158.53963
"67015",893.0237,80.49439,157.88338
"67016",893.037,79.78882,157.19325
"67017",893.0503,79.10765,156.5055
"67018",893.0636,78.47532,155.84528
"67019",893.0769,77.91623,155.23854
"67020",893.0902,77.44503,154.70222
"67021",893.1035,77.05928,154.23663
"67022",893.1168,76.76143,153.84688
"67023",893.1301,76.53925,153.5235
"67024",893.14343,76.39277,153.26886
"67025",893.15674,76.30488,153.06824
"67026",893.17004,76.2707,152.91858
"67027",893.18335,76.28779,152.81912
"67028",893.19666,76.34638,152.7617
"67029",893.20996,76.439156,152.7403
"67030",893.22327,76.54658,152.73643
"67031",893.2366,76.65156,152.73349
"67032",893.2499,76.73945,152.71674
"67033",893.2632,76.79805,152.67345
"67034",893.2765,76.82979,152.60512
"67035",893.2898,76.85176,152.52802
"67036",893.3031,76.88838,152.46625
"67037",893.3164,76.995804,152.47643
"67038",893.3297,77.279015,152.66576
"67039",893.343,77.85275,153.15446
"67040",893.3563,78.819565,154.05417
"67041",893.3696,80.20386,155.40157
"67042",893.38293,81.95438,157.15845
"67043",893.39624,83.90021,159.16536
"67044",893.40955,85.81186,161.1989
"67045",893.42285,87.45251,163.02116
"67046",893.43616,88.64393,164.44548
"67047",893.44946,89.28359,165.35527
"67048",893.46277,89.37148,165.73328
"67049",893.4761,88.971085,165.62573
"67050",893.4894,88.17273,165.10773
"67051",893.5027,87.081406,164.2718
"67052",893.516,85.787445,163.19914
"67053",893.5293,84.37141,161.96396
"67054",893.5426,82.9041,160.63326
"67055",893.5559,81.47585,159.29576
"67056",893.5692,80.198975,158.065
"67057",893.5825,79.1931,157.06534
"67058",893.5958,78.56809,156.41512
"67059",893.60913,78.380104,156.18237
"67060",893.62244,78.63645,156.38809
"67061",893.63574,79.2517,156.96072
"67062",893.64905,80.08911,157.77475
"67063",893.66235,80.98268,158.67111
"67064",893.67566,81.78348,159.50262
"67065",893.68896,82.37675,160.15163
"67066",893.7023,82.703896,160.55305
"67067",893.7156,82.75029,160.68394
"67068",893.7289,82.547646,160.56725
"67069",893.7422,82.13992,160.23914
"67070",893.7555,81.58816,159.75424
"67071",893.7688,80.94118,159.15689
"67072",893.7821,80.255135,158.50026
"67073",893.7954,79.55688,157.80998
"67074",893.8087,78.88304,157.1223
"67075",893.822,78.25803,156.46239
"67076",893.8353,77.71603,155.86594
"67077",893.84863,77.25948,155.33801
"67078",893.86194,76.90059,154.89348
"67079",893.87524,76.63447,154.5305
"67080",893.88855,76.453804,154.24466
"67081",893.90186,76.3415,154.02153
"67082",893.91516,76.28535,153.85104
"67083",893.92847,76.27314,153.72275
"67084",893.9418,76.29511,153.62825
"67085",893.9551,76.334175,153.55153
"67086",893.9684,76.383,153.4858
"67087",893.9817,76.43427,153.42403
"67088",893.995,76.48554,153.36386
"67089",894.0083,76.55146,153.31995
"67090",894.0216,76.65644,153.31715
"67091",894.0349,76.84444,153.40067
"67092",894.0482,77.22041,153.67802
"67093",894.0615,77.8967,154.26744
"67094",894.0748,78.96605,155.27106
"67095",894.08813,80.448006,156.7207
"67096",894.10144,82.269325,158.55603
"67097",894.11475,84.24689,160.6045
"67098",894.12805,86.151215,162.64156
"67099",894.14136,87.76257,164.44514
"67100",894.15466,88.902725,165.82788
"67101",894.16797,89.49355,166.69691
"67102",894.1813,89.53994,167.03998
"67103",894.1946,89.10048,166.89864
"67104",894.2079,88.28016,166.3627
"67105",894.2212,87.19127,165.53256
"67106",894.2345,85.924164,164.49019
"67107",894.2478,84.55451,163.30566
"67108",894.2611,83.15068,162.04416
"67109",894.2744,81.78592,160.77786
"67110",894.2877,80.55787,159.60562
"67111",894.301,79.58129,158.64648
"67112",894.31433,78.96117,158.01328
"67113",894.32764,78.765854,157.78549
"67114",894.34094,78.992905,157.97397
"67115",894.35425,79.56176,158.51135
"67116",894.36755,80.34058,159.27647
"67117",894.38086,81.16579,160.11232
"67118",894.39417,81.898224,160.8812
"67119",894.4075,82.423134,161.46542
"67120",894.4208,82.6746,161.79262
"67121",894.4341,82.64774,161.84935
"67122",894.4474,82.37675,161.6611
"67123",894.4607,81.90799,161.26662
"67124",894.474,81.307396,160.72565
"67125",894.4873,80.62867,160.08778
"67126",894.5006,79.91821,159.39697
"67127",894.5139,79.21019,158.6864
"67128",894.5272,78.536354,157.98788
"67129",894.5405,77.91867,157.32446
"67130",894.55383,77.38155,156.7223
"67131",894.56714,76.93477,156.1937
"67132",894.58044,76.58808,155.75122
"67133",894.59375,76.3415,155.39801
"67134",894.60706,76.18768,155.12987
"67135",894.62036,76.10956,154.9326
"67136",894.63367,76.087585,154.78905
"67137",894.647,76.09491,154.6741
"67138",894.6603,76.10712,154.56427
"67139",894.6736,76.10712,154.44261
"67140",894.6869,76.102234,154.31607
"67141",894.7002,76.102234,154.19426
"67142",894.7135,76.12909,154.0993
"67143",894.7268,76.23895,154.0882
"67144",894.7401,76.51484,154.24655
"67145",894.7534,77.07149,154.69429
"67146",894.7667,78.013885,155.54517
"67147",894.78,79.39086,156.86008
"67148",894.79333,81.163345,158.61353
"67149",894.80664,83.177536,160.66408
"67150",894.81995,85.20882,162.79466
"67151",894.83325,87.02281,164.77144
"67152",894.84656,88.41932,166.3874
"67153",894.85986,89.28359,167.51479
"67154",894.87317,89.59121,168.11252
"67155",894.8865,89.38613,168.20717
"67156",894.8998,88.75624,167.87059
"67157",894.9131,87.80896,167.19695
"67158",894.9264,86.64683,166.27884
"67159",894.9397,85.36263,165.20236
"67160",894.953,84.0296,164.03691
"67161",894.9663,82.703896,162.83713
"67162",894.9796,81.46853,161.68626
"67163",894.9929,80.42115,160.68478
"67164",895.0062,79.65209,159.9289
"67165",895.01953,79.23949,159.50542
"67166",895.03284,79.202866,159.44502
"67167",895.04614,79.517815,159.73506
"67168",895.05945,80.079346,160.28152
"67169",895.07275,80.75563,160.9603
"67170",895.08606,81.40749,161.63577
"67171",895.09937,81.9202,162.19246
"67172",895.1127,82.210724,162.543
"67173",895.126,82.2449,162.64627
"67174",895.1393,82.03006,162.50159
"67175",895.1526,81.602806,162.13777
"67176",895.1659,81.02174,161.6068
"67177",895.1792,80.33814,160.95512
"67178",895.1925,79.61059,160.23814
"67179",895.2058,78.88304,159.49843
"67180",895.2191,78.19455,158.77502
"67181",895.2324,77.56954,158.0936
"67182",895.2457,77.02754,157.47565
"67183",895.25903,76.58076,156.93597
"67184",895.27234,76.23651,156.48488
"67185",895.28564,75.99481,156.12556
"67186",895.29895,75.84833,155.85391
"67187",895.31226,75.77997,155.6558
"67188",895.32556,75.76288,155.50684
"67189",895.33887,75.772644,155.38419
"67190",895.3522,75.775085,155.25452
"67191",895.3655,75.76288,155.11028
"67192",895.3788,75.75067,154.96565
"67193",895.3921,75.76044,154.84262
"67194",895.4054,75.843445,154.79314
"67195",895.4187,76.09003,154.90982
"67196",895.432,76.6247,155.32231
"67197",895.4453,77.557335,156.14946
"67198",895.4586,78.95628,157.47208
"67199",895.4719,80.797134,159.2803
"67200",895.4852,82.94072,161.4488
"67201",895.49854,85.15999,163.75998
"67202",895.51184,87.19615,165.9574
"67203",895.52515,88.82216,167.80829
"67204",895.53845,89.88907,169.1509
"67205",895.55176,90.34806,169.91891
"67206",895.56506,90.24307,170.1373
"67207",895.57837,89.66445,169.87877
"67208",895.5917,88.7367,169.25304
"67209",895.605,87.586784,168.37614
"67210",895.6183,86.312355,167.3388
"67211",895.6316,84.981766,166.20547
"67212",895.6449,83.65362,165.033
"67213",895.6582,82.39384,163.8874
"67214",895.6715,81.28054,162.84892
"67215",895.6848,80.411385,162.01979
"67216",895.6981,79.85718,161.47844
"67217",895.7114,79.66674,161.28354
"67218",895.72473,79.82544,161.43182
"67219",895.73804,80.24536,161.84628
"67220",895.75134,80.80202,162.41061
"67221",895.76465,81.358665,162.99232
"67222",895.77795,81.795685,163.4718
"67223",895.79126,82.02518,163.75742
"67224",895.80457,82.005646,163.80118
"67225",895.8179,81.739525,163.59773
"67226",895.8312,81.25857,163.17114
"67227",895.8445,80.61646,162.56837
"67228",895.8578,79.87427,161.84544
"67229",895.8711,79.09056,161.0578
"67230",895.8844,78.311745,160.25056
"67231",895.8977,77.58907,159.47513
"67232",895.911,76.944534,158.75525
"67233",895.9243,76.387886,158.10312
"67234",895.9376,75.93378,157.53613
"67235",895.9509,75.58465,157.05994
"67236",895.96423,75.33318,156.67049
"67237",895.97754,75.16472,156.35619
"67238",895.99084,75.06706,156.10742
"67239",896.00415,75.01579,155.902
"67240",896.01746,74.99138,155.72182
"67241",896.03076,74.97673,155.55064
"67242",896.04407,74.969406,155.38634
"67243",896.0574,74.97673,155.23645
"67244",896.0707,75.03044,155.13318
"67245",896.084,75.1989,155.14633
"67246",896.0973,75.59197,155.38937
"67247",896.1106,76.35615,156.0158
"67248",896.1239,77.593956,157.13972
"67249",896.1372,79.344475,158.81505
"67250",896.1505,81.529564,160.97964
"67251",896.1638,83.946594,163.44447
"67252",896.1771,86.31724,165.93845
"67253",896.1904,88.360725,168.17935
"67254",896.20374,89.85489,169.93478
"67255",896.21704,90.68009,171.06795
"67256",896.23035,90.84367,171.56528
"67257",896.24365,90.42863,171.48909
"67258",896.25696,89.58633,170.97269
"67259",896.27026,88.47791,170.16385
"67260",896.28357,87.235214,169.18608
"67261",896.2969,85.95102,168.12799
"67262",896.3102,84.66926,167.0322
"67263",896.3235,83.424126,165.93298
"67264",896.3368,82.25956,164.87543
"67265",896.3501,81.248795,163.93527
"67266",896.3634,80.4773,163.2028
"67267",896.3767,80.01099,162.7514
"67268",896.39,79.88403,162.62479
"67269",896.4033,80.04761,162.78473
"67270",896.4166,80.411385,163.15
"67271",896.42993,80.84108,163.59254
"67272",896.44324,81.22438,164.00214
"67273",896.45654,81.446556,164.26257
"67274",896.46985,81.446556,164.30779
"67275",896.48315,81.20973,164.11617
"67276",896.49646,80.74586,163.6901
"67277",896.50977,80.10132,163.06886
"67278",896.5231,79.33471,162.30542
"67279",896.5364,78.5095,161.45941
"67280",896.5497,77.68673,160.59006
"67281",896.563,76.910355,159.7414
"67282",896.5763,76.207214,158.9417
"67283",896.5896,75.5993,158.21526
"67284",896.6029,75.09392,157.57236
"67285",896.6162,74.69352,157.01865
"67286",896.6295,74.39567,156.55496
"67287",896.6428,74.19302,156.17719
"67288",896.6561,74.073395,155.87608
"67289",896.66943,74.02457,155.64204
"67290",896.68274,74.01724,155.44798
"67291",896.69604,74.02945,155.27322
"67292",896.70935,74.03189,155.08908
"67293",896.72266,74.02457,154.89525
"67294",896.73596,74.01724,154.70119
"67295",896.74927,74.0441,154.54108
"67296",896.7626,74.17105,154.4819
"67297",896.7759,74.5153,154.644
"67298",896.7892,75.22575,155.18306
"67299",896.8025,76.43427,156.24239
"67300",896.8158,78.2092,157.90588
"67301",896.8291,80.49439,160.13512
"67302",896.8424,83.12138,162.77756
"67303",896.8557,85.79965,165.55338
"67304",896.869,88.216675,168.15164
"67305",896.8823,90.10391,170.29565
"67306",896.8956,91.28802,171.7955
"67307",896.90894,91.73235,172.59259
"67308",896.92224,91.50042,172.7273
"67309",896.93555,90.73136,172.31763
"67310",896.94885,89.60586,171.52748
"67311",896.96216,88.3119,170.5337
"67312",896.97546,86.976425,169.45798
"67313",896.9888,85.660484,168.36005
"67314",897.0021,84.386055,167.26251
"67315",897.0154,83.18242,166.19594
"67316",897.0287,82.08377,165.19675
"67317",897.042,81.163345,164.34145
"67318",897.0553,80.49439,163.70885
"67319",897.0686,80.13306,163.36296
"67320",897.0819,80.079346,163.31342
"67321",897.0952,80.26246,163.49901
"67322",897.1085,80.56519,163.80995
"67323",897.1218,80.87038,164.1328
"67324",897.13513,81.06081,164.35043
"67325",897.14844,81.05104,164.37383
"67326",897.16174,80.81178,164.16742
"67327",897.17505,80.34791,163.72891
"67328",897.18835,79.70092,163.0928
"67329",897.20166,78.924545,162.30708
"67330",897.21497,78.082245,161.43117
"67331",897.2283,77.23506,160.52405
"67332",897.2416,76.439156,159.64174
"67333",897.2549,75.716484,158.80779
"67334",897.2682,75.09148,158.04892
"67335",897.2815,74.581215,157.38527
"67336",897.2948,74.178375,156.8131
"67337",897.3081,73.87564,156.32843
"67338",897.3214,73.66567,155.92708
"67339",897.3347,73.5436,155.60706
"67340",897.348,73.494774,155.35646
"67341",897.3613,73.49966,155.15805
"67342",897.37463,73.548485,155.00374
"67343",897.38794,73.616844,154.87048
"67344",897.40125,73.68276,154.73692
"67345",897.41455,73.724266,154.58101
"67346",897.42786,73.7438,154.40442
"67347",897.44116,73.73647,154.20158
"67348",897.45447,73.71694,153.98631
"67349",897.4678,73.724266,153.79729
"67350",897.4811,73.846344,153.72325
"67351",897.4944,74.215,153.8996
"67352",897.5077,74.9987,154.50252
"67353",897.521,76.3415,155.68903
"67354",897.5343,78.2971,157.53029
"67355",897.5476,80.78737,159.96735
"67356",897.5609,83.60235,162.80693
"67357",897.5742,86.42954,165.7467
"67358",897.5875,88.92226,168.44034
"67359",897.6008,90.78752,170.58443
"67360",897.61414,91.85687,171.99089
"67361",897.62744,92.10101,172.60556
"67362",897.64075,91.62005,172.50275
"67363",897.65405,90.61173,171.85756
"67364",897.66736,89.305565,170.88301
"67365",897.68066,87.89685,169.76509
"67366",897.694,86.49546,168.61047
"67367",897.7073,85.135574,167.45357
"67368",897.7206,83.81964,166.29813
"67369",897.7339,82.57206,165.1699
"67370",897.7472,81.449,164.12723
"67371",897.7605,80.52613,163.24965
"67372",897.7738,79.88403,162.624
"67373",897.7871,79.571526,162.30786
"67374",897.8004,79.569084,162.29202
"67375",897.8137,79.78638,162.49585
"67376",897.827,80.093994,162.79678
"67377",897.84033,80.35767,163.0634
"67378",897.85364,80.4773,163.19421
"67379",897.86694,80.38941,163.12125
"67380",897.88025,80.07202,162.81602
"67381",897.89355,79.554436,162.30069
"67382",897.90686,78.88548,161.61781
"67383",897.92017,78.1091,160.8066
"67384",897.9335,77.2839,159.9223
"67385",897.9468,76.46357,159.01709
"67386",897.9601,75.69207,158.13507
"67387",897.9734,75.003586,157.31197
"67388",897.9867,74.41764,156.56989
"67389",898,73.94156,155.91936
"67390",898.0133,73.58022,155.3687
"67391",898.0266,73.323875,154.91173
"67392",898.0399,73.16518,154.5444
"67393",898.0532,73.091934,154.25757
"67394",898.0665,73.08461,154.03436
"67395",898.07983,73.131,153.86464
"67396",898.09314,73.20912,153.7281
"67397",898.10645,73.304344,153.61111
"67398",898.11975,73.409325,153.50685
"67399",898.13306,73.51675,153.40831
"67400",898.14636,73.619286,153.30824
"67401",898.15967,73.70718,153.19673
"67402",898.173,73.7731,153.06601
"67403",898.1863,73.80484,152.90315
"67404",898.1996,73.8024,152.7071
"67405",898.2129,73.74868,152.45972
"67406",898.2262,73.65835,152.17403
"67407",898.2395,73.565575,151.88307
"67408",898.2528,73.56313,151.67955
"67409",898.2661,73.8024,151.71767
"67410",898.2794,74.486,152.2076
"67411",898.2927,75.79706,153.34634
"67412",898.306,77.81125,155.22919
"67413",898.31934,80.465096,157.81464
"67414",898.33264,83.55108,160.91516
"67415",898.34595,86.71519,164.19025
"67416",898.35925,89.547264,167.23218
"67417",898.37256,91.69817,169.68144
"67418",898.38586,92.962845,171.31168
"67419",898.3992,93.297325,172.05124
"67420",898.4125,92.8188,171.98825
"67421",898.4258,91.75433,171.32437
"67422",898.4391,90.372475,170.30983
"67423",898.4524,88.885635,169.14713
"67424",898.4657,87.413445,167.9526
"67425",898.479,85.99985,166.77068
"67426",898.4923,84.64973,165.60805
"67427",898.5056,83.37774,164.48137
"67428",898.5189,82.230255,163.43944
"67429",898.5322,81.27566,162.55453
"67430",898.54553,80.59693,161.91568
"67431",898.55884,80.235596,161.573
"67432",898.57214,80.184326,161.52908
"67433",898.58545,80.360115,161.71063
"67434",898.59875,80.6482,162.00998
"67435",898.61206,80.921646,162.30368
"67436",898.62537,81.07057,162.48141
"67437",898.6387,81.0193,162.46361
"67438",898.652,80.73853,162.21469
"67439",898.6653,80.235596,161.73483
"67440",898.6786,79.56176,161.06836
"67441",898.6919,78.77562,160.26852
"67442",898.7052,77.945526,159.40016
"67443",898.7185,77.12276,158.51318
"67444",898.7318,76.351265,157.65178
"67445",898.7451,75.65545,156.84193
"67446",898.7584,75.0573,156.10802
"67447",898.7717,74.56168,155.45795
"67448",898.78503,74.17105,154.89737
"67449",898.79834,73.88541,154.42957
"67450",898.81165,73.69253,154.04561
"67451",898.82495,73.58755,153.74352
"67452",898.83826,73.55825,153.51382
"67453",898.85156,73.58755,153.34181
"67454",898.86487,73.65591,153.20978
"67455",898.8782,73.75113,153.10675
"67456",898.8915,73.85611,153.01645
"67457",898.9048,73.96109,152.92943
"67458",898.9181,74.06851,152.84813
"67459",898.9314,74.17105,152.7653
"67460",898.9447,74.25895,152.67105
"67461",898.958,74.33219,152.56488
"67462",898.9713,74.37614,152.4317
"67463",898.9846,74.390785,152.2706
"67464",898.9979,74.36637,152.07089
"67465",899.0112,74.30045,151.82892
"67466",899.02454,74.19791,151.54826
"67467",899.03784,74.06119,151.23022
"67468",899.05115,73.90738,150.89082
"67469",899.06445,73.77554,150.56859
"67470",899.07776,73.741356,150.33989
"67471",899.09106,73.93912,150.34207
"67472",899.1044,74.57389,150.78745
"67473",899.1177,75.83856,151.88255
"67474",899.131,77.840546,153.75449
"67475",899.1443,80.54566,156.39212
"67476",899.1576,83.756165,159.61967
"67477",899.1709,87.1107,163.0916
"67478",899.1842,90.15518,166.35829
"67479",899.1975,92.49653,169.01698
"67480",899.2108,93.90036,170.81133
"67481",899.2241,94.312965,171.65831
"67482",899.2374,93.84665,171.63927
"67483",899.25073,92.74555,170.97087
"67484",899.26404,91.2929,169.91652
"67485",899.27734,89.71816,168.69469
"67486",899.29065,88.16052,167.44073
"67487",899.30396,86.68101,166.21623
"67488",899.31726,85.29183,165.03584
"67489",899.33057,83.99054,163.89992
"67490",899.3439,82.811325,162.84541
"67491",899.3572,81.82254,161.94449
"67492",899.3705,81.09743,161.27634
"67493",899.3838,80.689705,160.90291
"67494",899.3971,80.60914,160.8439
"67495",899.4104,80.78981,161.04361
"67496",899.4237,81.11696,161.39545
"67497",899.437,81.45144,161.76483
"67498",899.4503,81.67849,162.03725
"67499",899.4636,81.7029,162.11412
"67500",899.4769,81.48806,161.9525
"67501",899.49023,81.03151,161.54245
"67502",899.50354,80.37476,160.91794
"67503",899.51685,79.586174,160.14107
"67504",899.53015,78.73167,159.27362
"67505",899.54346,77.874725,158.37704
"67506",899.55676,77.06416,157.50006
"67507",899.57007,76.33173,156.67589
"67508",899.5834,75.69451,155.92403
"67509",899.5967,75.16716,155.26213
"67510",899.61,74.75212,154.69606
"67511",899.6233,74.444496,154.22444
"67512",899.6366,74.24185,153.84819
"67513",899.6499,74.13199,153.55838
"67514",899.6632,74.09781,153.34082
"67515",899.6765,74.11978,153.17834
"67516",899.6898,74.18326,153.05806
"67517",899.7031,74.26383,152.95686
"67518",899.71643,74.356606,152.87038
"67519",899.72974,74.45182,152.78923
"67520",899.74304,74.54215,152.70618
"67521",899.75635,74.62516,152.61862
"67522",899.76965,74.69596,152.52145
"67523",899.78296,74.757,152.41675
"67524",899.79626,74.79851,152.2944
"67525",899.8096,74.82292,152.15627
"67526",899.8229,74.82292,151.99448
"67527",899.8362,74.80339,151.81316
"67528",899.8495,74.759445,151.60681
"67529",899.8628,74.69108,151.37468
"67530",899.8761,74.600746,151.11844
"67531",899.8894,74.49088,150.83984
"67532",899.9027,74.36393,150.54073
"67533",899.916,74.22232,150.22299
"67534",899.9293,74.090485,149.9106
"67535",899.9426,74.01236,149.6478
"67536",899.95593,74.09537,149.54369
"67537",899.96924,74.512856,149.77666
"67538",899.98254,75.47723,150.56955
"67539",899.99585,77.14961,152.1006
"67540",900.00916,79.55932,154.42123
"67541",900.02246,82.58427,157.4324
"67542",900.03577,85.93637,160.86526
"67543",900.0491,89.198135,164.31255
"67544",900.0624,91.93988,167.34174
"67545",900.0757,93.84421,169.61919
"67546",900.089,94.77196,170.97957
"67547",900.1023,94.74265,171.4119
"67548",900.1156,93.91745,171.0474
"67549",900.1289,92.56245,170.1273
"67550",900.1422,90.951096,168.90852
"67551",900.1555,89.28603,167.58568
"67552",900.1688,87.66735,166.25719
"67553",900.1821,86.136566,164.966
"67554",900.19543,84.71076,163.73196
"67555",900.20874,83.41192,162.58034
"67556",900.22205,82.29374,161.56879
"67557",900.23535,81.43191,160.77864
"67558",900.24866,80.90944,160.30092
"67559",900.26196,80.743416,160.16331
"67560",900.27527,80.89723,160.34036
"67561",900.2886,81.26345,160.73462
"67562",900.3019,81.705345,161.216
"67563",900.3152,82.07645,161.6404
"67564",900.3285,82.269325,161.89816
"67565",900.3418,82.213165,161.91292
"67566",900.3551,81.8909,161.65982
"67567",900.3684,81.33425,161.16226
"67568",900.3817,80.59937,160.46909
"67569",900.395,79.75464,159.64308
"67570",900.4083,78.86839,158.74918
"67571",900.42163,78.00168,157.84709
"67572",900.43494,77.19112,156.97408
"67573",900.44824,76.46601,156.1612
"67574",900.46155,75.84833,155.43307
"67575",900.47485,75.338066,154.79308
"67576",900.48816,74.94255,154.25188
"67577",900.50146,74.66422,153.8155
"67578",900.5148,74.49821,153.48274
"67579",900.5281,74.424965,153.23756
"67580",900.5414,74.43229,153.07066
"67581",900.5547,74.49821,152.96259
"67582",900.568,74.5861,152.87854
"67583",900.5813,74.683754,152.807
"67584",900.5946,74.78386,152.74098
"67585",900.6079,74.86931,152.66342
"67586",900.6212,74.932785,152.56656
"67587",900.6345,74.98161,152.45703
"67588",900.6478,75.018234,152.33682
"67589",900.66113,75.04265,152.20555
"67590",900.67444,75.052414,152.0604
"67591",900.68774,75.052414,151.90578
"67592",900.70105,75.04021,151.73895
"67593",900.71436,75.00603,151.54977
"67594",900.72766,74.95476,151.34244
"67595",900.74097,74.898605,151.12862
"67596",900.7543,74.84001,150.9106
"67597",900.7676,74.78142,150.69075
"67598",900.7809,74.71793,150.46419
"67599",900.7942,74.64469,150.22588
"67600",900.8075,74.55924,149.97307
"67601",900.8208,74.46647,149.71027
"67602",900.8341,74.38346,149.45433
"67603",900.8474,74.38102,149.27637
"67604",900.8607,74.58366,149.3034
"67605",900.874,75.18913,149.73962
"67606",900.8873,76.39765,150.7978
"67607",900.90063,78.3386,152.62617
"67608",900.91394,80.98268,155.21834
"67609",900.92725,84.11261,158.37898
"67610",900.94055,87.39147,161.78636
"67611",900.95386,90.40421,165.03009
"67612",900.96716,92.77974,167.73074
"67613",900.98047,94.28611,169.63647
"67614",900.9938,94.86717,170.66397
"67615",901.0071,94.588844,170.85025
"67616",901.0204,93.62447,170.34178
"67617",901.0337,92.21088,169.35394
"67618",901.047,90.57023,168.09488
"67619",901.0603,88.883194,166.73816
"67620",901.0736,87.24498,165.37755
"67621",901.0869,85.70199,164.06096
"67622",901.1002,84.283516,162.82068
"67623",901.1135,83.035934,161.70695
"67624",901.12683,82.02518,160.79108
"67625",901.14014,81.322044,160.15123
"67626",901.15344,80.98024,159.85074
"67627",901.16675,80.99245,159.89359
"67628",901.18005,81.287865,160.22002
"67629",901.19336,81.73708,160.70949
"67630",901.20667,82.2034,161.23009
"67631",901.22,82.55009,161.64563
"67632",901.2333,82.67948,161.85472
"67633",901.2466,82.54276,161.80174
"67634",901.2599,82.14725,161.48569
"67635",901.2732,81.53689,160.94243
"67636",901.2865,80.77028,160.22385
"67637",901.2998,79.91577,159.39342
"67638",901.3131,79.03441,158.50943
"67639",901.3264,78.17502,157.61986
"67640",901.3397,77.366905,156.75471
"67641",901.353,76.63935,155.94487
"67642",901.36633,76.00946,155.20996
"67643",901.37964,75.494316,154.57011
"67644",901.39294,75.09392,154.02892
"67645",901.40625,74.80583,153.58751
"67646",901.41956,74.62516,153.24452
"67647",901.43286,74.53727,152.98866
"67648",901.44617,74.52506,152.80574
"67649",901.4595,74.57389,152.68347
"67650",901.4728,74.6569,152.59691
"67651",901.4861,74.76921,152.54225
"67652",901.4994,74.89372,152.5033
"67653",901.5127,75.01579,152.46579
"67654",901.526,75.1281,152.42233
"67655",901.5393,75.22575,152.36774
"67656",901.5526,75.30389,152.29668
"67657",901.5659,75.355156,152.20119
"67658",901.5792,75.38445,152.08533
"67659",901.5925,75.39666,151.9533
"67660",901.60583,75.39666,151.80943
"67661",901.61914,75.37469,151.6436
"67662",901.63245,75.32586,151.45023
"67663",901.64575,75.25506,151.23335
"67664",901.65906,75.16472,150.99474
"67665",901.67236,75.0573,150.7362
"67666",901.68567,74.93767,150.46211
"67667",901.699,74.813156,150.1794
"67668",901.7123,74.69352,149.89767
"67669",901.7256,74.57145,149.60977
"67670",901.7389,74.47135,149.34003
"67671",901.7522,74.459145,149.15504
"67672",901.7655,74.66422,149.18697
"67673",901.7788,75.284355,149.64035
"67674",901.7921,76.53193,150.74055
"67675",901.8054,78.52659,152.62683
"67676",901.8187,81.22926,155.28346
"67677",901.83203,84.403145,158.49576
"67678",901.84534,87.67223,161.90245
"67679",901.85864,90.60197,165.07195
"67680",901.87195,92.840775,167.64206
"67681",901.88525,94.19333,169.39589
"67682",901.89856,94.642555,170.28865
"67683",901.91187,94.28855,170.39223
"67684",901.9252,93.3193,169.86949
"67685",901.9385,91.949646,168.91606
"67686",901.9518,90.374916,167.71475
"67687",901.9651,88.74647,166.41052
"67688",901.9784,87.15221,165.08958
"67689",901.9917,85.643394,163.80428
"67690",902.005,84.25178,162.58902
"67691",902.0183,83.03105,161.50116
"67692",902.0316,82.04715,160.61198
"67693",902.0449,81.3782,160.007
"67694",902.0582,81.06569,159.73756
"67695",902.07153,81.109634,159.81482
"67696",902.08484,81.44167,160.18153
"67697",902.09814,81.93973,160.72464
"67698",902.11145,82.44755,161.29308
"67699",902.12476,82.8333,161.75531
"67700",902.13806,82.99687,162.00743
"67701",902.15137,82.882126,161.98634
"67702",902.1647,82.49149,161.68578
"67703",902.178,81.86893,161.14107
"67704",902.1913,81.08278,160.41333
"67705",902.2046,80.2063,159.5707
"67706",902.2179,79.29565,158.66649
"67707",902.2312,78.41184,157.76067
"67708",902.2445,77.58663,156.88582
"67709",902.2578,76.85176,156.07553
"67710",902.2711,76.224304,155.34969
"67711",902.2844,75.7116,154.719
"67712",902.2977,75.30389,154.17726
"67713",902.31104,75.001144,153.72777
"67714",902.32434,74.7863,153.3567
"67715",902.33765,74.64713,153.05461
"67716",902.35095,74.57145,152.81165
"67717",902.36426,74.5568,152.62735
"67718",902.37756,74.58366,152.4841
"67719",902.39087,74.652016,152.3832
"67720",902.4042,74.74235,152.3064
"67721",902.4175,74.84245,152.2422
"67722",902.4308,74.94011,152.17868
"67723",902.4441,75.03044,152.11089
"67724",902.4574,75.11101,152.03615
"67725",902.4707,75.17204,151.9444
"67726",902.484,75.208664,151.83014
"67727",902.4973,75.21599,151.68773
"67728",902.5106,75.19646,151.51869
"67729",902.5239,75.142746,151.31487
"67730",902.53723,75.06706,151.08739
"67731",902.55054,74.98161,150.84778
"67732",902.56384,74.89128,150.60062
"67733",902.57715,74.78874,150.33842
"67734",902.59045,74.67399,150.06082
"67735",902.60376,74.54459,149.76498
"67736",902.61707,74.407875,149.45778
"67737",902.6304,74.28092,149.15607
"67738",902.6437,74.22476,148.92119
"67739",902.657,74.37614,148.89209
"67740",902.6703,74.94011,149.28032
"67741",902.6836,76.1535,150.33559
"67742",902.6969,78.15549,152.21736
"67743",902.7102,80.92653,154.93076
"67744",902.7235,84.23224,158.26543
"67745",902.7368,87.67712,161.84256
"67746",902.7501,90.78508,165.19043
"67747",902.7634,93.172806,167.91519
"67748",902.77673,94.63279,169.78682
"67749",902.79004,95.13817,170.74947
"67750",902.80334,94.803696,170.88806
"67751",902.81665,93.83688,170.38387
"67752",902.82996,92.46479,169.44417
"67753",902.84326,90.88274,168.25163
"67754",902.85657,89.24208,166.95107
"67755",902.8699,87.63561,165.6334
"67756",902.8832,86.10239,164.33879
"67757",902.8965,84.67902,163.10612
"67758",902.9098,83.407036,161.98036
"67759",902.9231,82.354774,161.03458
"67760",902.9364,81.600365,160.35376
"67761",902.9497,81.20729,160.0107
"67762",902.963,81.19264,160.03378
"67763",902.9763,81.49294,160.37135
"67764",902.9896,81.991,160.91606
"67765",903.0029,82.530556,161.51784
"67766",903.01624,82.967575,162.03394
"67767",903.02954,83.192184,162.35129
"67768",903.04285,83.14336,162.40222
"67769",903.05615,82.80644,162.16354
"67770",903.06946,82.21805,161.66286
"67771",903.08276,81.43435,160.94847
"67772",903.09607,80.52857,160.08752
"67773",903.1094,79.571526,159.147
"67774",903.1227,78.626686,158.18877
"67775",903.136,77.7551,157.27426
"67776",903.1493,76.981155,156.43016
"67777",903.1626,76.314644,155.66931
"67778",903.1759,75.76776,155.00726
"67779",903.1892,75.34051,154.44775
"67780",903.2025,75.020676,153.98232
"67781",903.2158,74.80339,153.60942
"67782",903.2291,74.67399,153.31763
"67783",903.24243,74.61051,153.0877
"67784",903.25574,74.60319,152.91196
"67785",903.26904,74.634926,152.77504
"67786",903.28235,74.69352,152.66597
"67787",903.29565,74.77409,152.58072
"67788",903.30896,74.86687,152.51018
"67789",903.32227,74.96452,152.44742
"67790",903.3356,75.054855,152.38039
"67791",903.3489,75.13786,152.30885
"67792",903.3622,75.20378,152.22282
"67793",903.3755,75.250175,152.11934
"67794",903.3888,75.27459,151.99532
"67795",903.4021,75.27703,151.85008
"67796",903.4154,75.25506,151.68051
"67797",903.4287,75.208664,151.48584
"67798",903.442,75.13542,151.26286
"67799",903.4553,75.02556,151.00098
"67800",903.4686,74.87419,150.69415
"67801",903.48193,74.683754,150.34354
"67802",903.49524,74.47379,149.96744
"67803",903.50854,74.2736,149.59454
"67804",903.52185,74.15396,149.29596
"67805",903.53516,74.23941,149.19872
"67806",903.54846,74.737465,149.51675
"67807",903.56177,75.87518,150.49002
"67808",903.5751,77.77951,152.26544
"67809",903.5884,80.42359,154.84013
"67810",903.6017,83.58526,158.01505
"67811",903.615,86.87877,161.4206
"67812",903.6283,89.84512,164.60191
"67813",903.6416,92.11566,167.18011
"67814",903.6549,93.49752,168.94058
"67815",903.6682,93.96628,169.83113
"67816",903.6815,93.626915,169.9282
"67817",903.6948,92.66743,169.39456
"67818",903.7081,91.30511,168.4281
"67819",903.72144,89.72549,167.20177
"67820",903.73474,88.05554,165.83574
"67821",903.74805,86.39292,164.42485
"67822",903.76135,84.79378,163.02548
"67823",903.77466,83.319145,161.70065
"67824",903.78796,82.04471,160.52994
"67825",903.8013,81.075455,159.62459
"67826",903.8146,80.48707,159.06981
"67827",903.8279,80.323494,158.92146
"67828",903.8412,80.56031,159.1684
"67829",903.8545,81.09987,159.72546
"67830",903.8678,81.78348,160.44345
"67831",903.8811,82.44511,161.16081
"67832",903.8944,82.94072,161.73283
"67833",903.9077,83.17021,162.05423
"67834",903.921,83.089645,162.07274
"67835",903.9343,82.7161,161.79575
"67836",903.94763,82.09354,161.25806
"67837",903.96094,81.29763,160.52757
"67838",903.97424,80.40406,159.67456
"67839",903.98755,79.47631,158.75945
"67840",904.00085,78.572975,157.83974
"67841",904.01416,77.733116,156.95528
"67842",904.02747,76.98848,156.1398
"67843",904.0408,76.35615,155.41336
"67844",904.0541,75.841,154.78435
"67845",904.0674,75.440605,154.25398
"67846",904.0807,75.14763,153.81853
"67847",904.094,74.949875,153.46913
"67848",904.1073,74.83269,153.19412
"67849",904.1206,74.776535,152.97649
"67850",904.1339,74.776535,152.81325
"67851",904.1472,74.81804,152.69151
"67852",904.1605,74.89128,152.60281
"67853",904.1738,74.99138,152.54326
"67854",904.18713,75.12077,152.51613
"67855",904.20044,75.2575,152.50038
"67856",904.21375,75.39178,152.48645
"67857",904.22705,75.508965,152.45963
"67858",904.24036,75.59441,152.40472
"67859",904.25366,75.64324,152.31587
"67860",904.26697,75.64324,152.17972
"67861",904.2803,75.60174,152.00206
"67862",904.2936,75.51629,151.77916
"67863",904.3069,75.39178,151.51453
"67864",904.3202,75.22331,151.20206
"67865",904.3335,75.020676,150.85014
"67866",904.3468,74.810715,150.48457
"67867",904.3601,74.6276,150.1393
"67868",904.3734,74.55924,149.90305
"67869",904.3867,74.76433,149.93811
"67870",904.4,75.45037,150.46054
"67871",904.4133,76.79561,151.6636
"67872",904.42664,78.86839,153.63625
"67873",904.43994,81.56374,156.29623
"67874",904.45325,84.58625,159.36761
"67875",904.46655,87.52819,162.45288
"67876",904.47986,89.986725,165.14667
"67877",904.49316,91.68597,167.15799
"67878",904.5065,92.51118,168.34839
"67879",904.5198,92.508736,168.73692
"67880",904.5331,91.827576,168.44666
"67881",904.5464,90.65324,167.64192
"67882",904.5597,89.17372,166.49532
"67883",904.573,87.535515,165.14378
"67884",904.5863,85.841156,163.6849
"67885",904.5996,84.14923,162.17552
"67886",904.6129,82.533,160.68895
"67887",904.6262,81.0901,159.32521
"67888",904.6395,79.92798,158.19716
"67889",904.65283,79.166245,157.43317
"67890",904.66614,78.89525,157.13611
"67891",904.67944,79.12474,157.33107
"67892",904.69275,79.75708,157.93605
"67893",904.70605,80.621346,158.79272
"67894",904.71936,81.51736,159.70816
"67895",904.73267,82.25712,160.49535
"67896",904.746,82.70634,161.0151
"67897",904.7593,82.811325,161.20467
"67898",904.7726,82.57694,161.05814
"67899",904.7859,82.05936,160.62108
"67900",904.7992,81.33181,159.95789
"67901",904.8125,80.482185,159.14989
"67902",904.8258,79.57885,158.26163
"67903",904.8391,78.68284,157.35245
"67904",904.8524,77.840546,156.469
"67905",904.8657,77.0959,155.65686
"67906",904.879,76.46357,154.93378
"67907",904.89233,75.948425,154.30812
"67908",904.90564,75.543144,153.77623
"67909",904.91895,75.24284,153.33665
"67910",904.93225,75.03044,152.97559
"67911",904.94556,74.89372,152.68356
"67912",904.95886,74.82048,152.45074
"67913",904.97217,74.80095,152.26935
"67914",904.9855,74.82536,152.13129
"67915",904.9988,74.898605,152.04282
"67916",905.0121,75.01091,151.9957
"67917",905.0254,75.140305,151.96918
"67918",905.0387,75.284355,151.96136
"67919",905.052,75.423515,151.95316
"67920",905.0653,75.55047,151.93709
"67921",905.0786,75.65789,151.90546
"67922",905.0919,75.74334,151.85521
"67923",905.1052,75.79706,151.77591
"67924",905.1185,75.7995,151.647
"67925",905.13184,75.7409,151.45714
"67926",905.14514,75.62615,151.20929
"67927",905.15845,75.4699,150.91635
"67928",905.17175,75.31609,150.62097
"67929",905.18506,75.24284,150.40135
"67930",905.19836,75.389336,150.39919
"67931",905.2117,75.93866,150.80443
"67932",905.225,77.07637,151.81522
"67933",905.2383,78.89769,153.54517
"67934",905.2516,81.341576,155.9546
"67935",905.2649,84.1712,158.82616
"67936",905.2782,87.02525,161.81056
"67937",905.2915,89.51064,164.51549
"67938",905.3048,91.319756,166.62181
"67939",905.3181,92.29633,167.95213
"67940",905.3314,92.44038,168.48044
"67941",905.3447,91.859314,168.28813
"67942",905.35803,90.736244,167.53566
"67943",905.37134,89.249405,166.38432
"67944",905.38464,87.56237,164.98633
"67945",905.39795,85.79233,163.4526
"67946",905.41125,84.02716,161.86845
"67947",905.42456,82.34501,160.31215
"67948",905.43787,80.84596,158.88638
"67949",905.4512,79.65453,157.72139
"67950",905.4645,78.90013,156.95619
"67951",905.4778,78.66575,156.68744
"67952",905.4911,78.9514,156.9314
"67953",905.5044,79.656975,157.6042
"67954",905.5177,80.6067,158.5432
"67955",905.531,81.583275,159.53874
"67956",905.5443,82.39628,160.40123
"67957",905.5576,82.91142,160.99126
"67958",905.5709,83.070114,161.24094
"67959",905.5842,82.879684,161.14645
"67960",905.59753,82.391396,160.74815
"67961",905.61084,81.68093,160.11243
"67962",905.62415,80.8362,159.32022
"67963",905.63745,79.93042,158.44058
"67964",905.65076,79.0222,157.53018
"67965",905.66406,78.15793,156.63535
"67966",905.67737,77.38644,155.80629
"67967",905.6907,76.71992,155.05809
"67968",905.704,76.17059,154.40627
"67969",905.7173,75.7409,153.8569
"67970",905.7306,75.423515,153.40642
"67971",905.7439,75.1989,153.03879
"67972",905.7572,75.054855,152.7447
"67973",905.7705,74.97185,152.50716
"67974",905.7838,74.94743,152.3256
"67975",905.7971,74.97429,152.19456
"67976",905.8104,75.04021,152.10342
"67977",905.8237,75.13786,152.04608
"67978",905.83704,75.2575,152.01378
"67979",905.85034,75.39422,152.00229
"67980",905.86365,75.53582,151.99995
"67981",905.87695,75.6701,151.99472
"67982",905.89026,75.78241,151.97173
"67983",905.90356,75.860535,151.91805
"67984",905.9169,75.880066,151.80821
"67985",905.9302,75.83612,151.63551
"67986",905.9435,75.73113,151.4004
"67987",905.9568,75.59441,151.13028
"67988",905.9701,75.4699,150.86809
"67989",905.9834,75.46746,150.72408
"67990",905.9967,75.755554,150.87053
"67991",906.01,76.53681,151.51915
"67992",906.0233,77.960175,152.83429
"67993",906.0366,80.059814,154.87018
"67994",906.0499,82.686806,157.49904
"67995",906.06323,85.53353,160.42973
"67996",906.07654,88.19714,163.26627
"67997",906.08984,90.32365,165.64893
"67998",906.10315,91.68108,167.32898
"67999",906.11646,92.20355,168.21648
"68000",906.12976,91.95453,168.34882
"68001",906.14307,91.07805,167.84592
"68002",906.1564,89.74746,166.86151
"68003",906.1697,88.13855,165.5572
"68004",906.183,86.3856,164.05858
"68005",906.1963,84.59113,162.46367
"68006",906.2096,82.828415,160.84442
"68007",906.2229,81.19508,159.29948
"68008",906.2362,79.80591,157.94766
"68009",906.2495,78.79027,156.92596
"68010",906.2628,78.2678,156.36569
"68011",906.2761,78.29954,156.34329
"68012",906.2894,78.83177,156.82239
"68013",906.30273,79.72289,157.677
"68014",906.31604,80.77028,158.71573
"68015",906.32935,81.75418,159.72371
"68016",906.34265,82.50614,160.53049
"68017",906.35596,82.92119,161.02385
"68018",906.36926,82.97734,161.1713
"68019",906.38257,82.68925,160.97624
"68020",906.3959,82.12283,160.49387
"68021",906.4092,81.35378,159.79115
"68022",906.4225,80.46998,158.94966
"68023",906.4358,79.53246,158.02684
"68024",906.4491,78.607155,157.08691
"68025",906.4624,77.74532,156.18155
"68026",906.4757,76.9836,155.34937
"68027",906.489,76.334175,154.60568
"68028",906.5023,75.809265,153.96622
"68029",906.5156,75.3991,153.4251
"68030",906.52893,75.09148,152.9737
"68031",906.54224,74.87419,152.60301
"68032",906.55554,74.737465,152.3061
"68033",906.56885,74.67887,152.08305
"68034",906.58215,74.67887,151.91676
"68035",906.59546,74.73014,151.80174
"68036",906.60876,74.82536,151.73228
"68037",906.6221,74.95964,151.70485
"68038",906.6354,75.12077,151.70847
"68039",906.6487,75.29656,151.73178
"68040",906.662,75.4699,151.75813
"68041",906.6753,75.6115,151.75816
"68042",906.6886,75.69695,151.70647
"68043",906.7019,75.7116,151.58664
"68044",906.7152,75.66277,151.4038
"68045",906.7285,75.57,151.17548
"68046",906.7418,75.48455,150.95158
"68047",906.7551,75.4992,150.82512
"68048",906.76843,75.77997,150.96524
"68049",906.78174,76.51972,151.57312
"68050",906.79504,77.87717,152.82181
"68051",906.80835,79.888916,154.76721
"68052",906.82166,82.43778,157.3126
"68053",906.83496,85.23079,160.1818
"68054",906.84827,87.90173,163.0162
"68055",906.8616,90.08682,165.44823
"68056",906.8749,91.544365,167.22098
"68057",906.8882,92.1767,168.21407
"68058",906.9015,92.03021,168.4481
"68059",906.9148,91.23674,168.03058
"68060",906.9281,89.96719,167.11218
"68061",906.9414,88.3827,165.83916
"68062",906.9547,86.641945,164.36037
"68063",906.968,84.84749,162.77347
"68064",906.9813,83.072556,161.15002
"68065",906.9946,81.39773,159.57121
"68066",907.00793,79.94995,158.16711
"68067",907.02124,78.86595,157.08154
"68068",907.03455,78.27024,156.4504
"68069",907.04785,78.24094,156.36703
"68070",907.06116,78.75853,156.82965
"68071",907.07446,79.68627,157.7186
"68072",907.08777,80.80934,158.83186
"68073",907.1011,81.90555,159.95337
"68074",907.1144,82.774704,160.88208
"68075",907.1277,83.302055,161.49614
"68076",907.141,83.43633,161.73361
"68077",907.1543,83.19707,161.60173
"68078",907.1676,82.6453,161.14987
"68079",907.1809,81.866486,160.45372
"68080",907.1942,80.953384,159.59895
"68081",907.2075,79.98657,158.66194
"68082",907.2208,79.027084,157.70203
"68083",907.23413,78.12131,156.76584
"68084",907.24744,77.313194,155.89902
"68085",907.26074,76.627144,155.129
"68086",907.27405,76.07538,154.47183
"68087",907.28735,75.65789,153.9317
"68088",907.30066,75.372246,153.51036
"68089",907.31396,75.19646,153.18996
"68090",907.3273,75.11101,152.95439
"68091",907.3406,75.08415,152.77475
"68092",907.3539,75.10857,152.64554
"68093",907.3672,75.174484,152.5586
"68094",907.3805,75.27215,152.50546
"68095",907.3938,75.3991,152.48466
"68096",907.4071,75.53826,152.48004
"68097",907.4204,75.6701,152.47244
"68098",907.4337,75.77753,152.44456
"68099",907.447,75.85077,152.38585
"68100",907.4603,75.88495,152.29036
"68101",907.47363,75.88983,152.16664
"68102",907.48694,75.894714,152.04308
"68103",907.50024,75.95819,151.97826
"68104",907.51355,76.20477,152.09853
"68105",907.52686,76.788284,152.56343
"68106",907.54016,77.86252,153.5373
"68107",907.55347,79.50317,155.11115
"68108",907.5668,81.65652,157.24896
"68109",907.5801,84.119934,159.76414
"68110",907.5934,86.590675,162.36363
"68111",907.6067,88.744026,164.72295
"68112",907.62,90.31632,166.5685
"68113",907.6333,91.175705,167.75026
"68114",907.6466,91.30511,168.2289
"68115",907.6599,90.78264,168.05971
"68116",907.6732,89.7499,167.36392
"68117",907.6865,88.360725,166.27943
"68118",907.6998,86.74204,164.92203
"68119",907.71313,84.99397,163.38464
"68120",907.72644,83.209274,161.75601
"68121",907.73975,81.480736,160.12776
"68122",907.75305,79.93286,158.62616
"68123",907.76636,78.71458,157.40578
"68124",907.77966,77.97482,156.62585
"68125",907.79297,77.79904,156.38678
"68126",907.8063,78.187225,156.70618
"68127",907.8196,79.01976,157.48206
"68128",907.8329,80.10376,158.53542
"68129",907.8462,81.21706,159.65195
"68130",907.8595,82.15213,160.62506
"68131",907.8728,82.77959,161.31978
"68132",907.8861,83.03105,161.65811
"68133",907.8994,82.91875,161.64053
"68134",907.9127,82.48417,161.29716
"68135",907.926,81.80789,160.69852
"68136",907.93933,80.96559,159.91272
"68137",907.95264,80.03296,159.01027
"68138",907.96594,79.07347,158.05182
"68139",907.97925,78.153046,157.10243
"68140",907.99255,77.313194,156.20486
"68141",908.00586,76.58808,155.39578
"68142",908.01917,75.999695,154.70078
"68143",908.0325,75.545586,154.12166
"68144",908.0458,75.208664,153.64554
"68145",908.0591,74.97917,153.26631
"68146",908.0724,74.85222,152.98245
"68147",908.0857,74.813156,152.78252
"68148",908.099,74.844894,152.65216
"68149",908.1123,74.93523,152.58139
"68150",908.1256,75.06218,152.55006
"68151",908.1389,75.191574,152.52515
"68152",908.1522,75.301445,152.48476
"68153",908.1655,75.38201,152.41849
"68154",908.17883,75.44549,152.33765
"68155",908.19214,75.508965,152.25879
"68156",908.20544,75.60662,152.2161
"68157",908.21875,75.792175,152.26436
"68158",908.23206,76.17059,152.51128
"68159",908.24536,76.87862,153.09962
"68160",908.25867,78.04562,154.16908
"68161",908.272,79.73998,155.80237
"68162",908.2853,81.90799,157.96225
"68163",908.2986,84.36164,160.47552
"68164",908.3119,86.80553,163.05571
"68165",908.3252,88.93202,165.39488
"68166",908.3385,90.48722,167.2292
"68167",908.3518,91.34173,168.41144
"68168",908.3651,91.47845,168.90259
"68169",908.3784,90.985275,168.76811
"68170",908.3917,89.99405,168.12018
"68171",908.405,88.66102,167.09946
"68172",908.41833,87.1107,165.8198
"68173",908.43164,85.4432,164.3745
"68174",908.44495,83.7293,162.8307
"68175",908.45825,82.05203,161.26997
"68176",908.47156,80.52125,159.80331
"68177",908.48486,79.273674,158.57204
"68178",908.49817,78.45579,157.73145
"68179",908.5115,78.16037,157.38777
"68180",908.5248,78.40696,157.57687
"68181",908.5381,79.09544,158.21558
"68182",908.5514,80.05737,159.14923
"68183",908.5647,81.08522,160.17886
"68184",908.578,81.988556,161.11612
"68185",908.5913,82.62821,161.81792
"68186",908.6046,82.92363,162.19547
"68187",908.6179,82.86015,162.22336
"68188",908.6312,82.46952,161.9221
"68189",908.64453,81.82742,161.35718
"68190",908.65784,81.01686,160.60373
"68191",908.67114,80.113525,159.73218
"68192",908.68445,79.183334,158.80554
"68193",908.69775,78.27268,157.86937
"68194",908.71106,77.418175,156.96088
"68195",908.72437,76.64912,156.11113
"68196",908.7377,75.99237,155.34967
"68197",908.751,75.46746,154.69952
"68198",908.7643,75.08415,154.17458
"68199",908.7776,74.83513,153.77193
"68200",908.7909,74.70084,153.47624
"68201",908.8042,74.66422,153.27402
"68202",908.8175,74.70084,153.14389
"68203",908.8308,74.78386,153.06131
"68204",908.8441,74.88884,153.00328
"68205",908.8574,74.9987,152.95341
"68206",908.8707,75.0988,152.89722
"68207",908.88403,75.18913,152.83438
"68208",908.89734,75.28924,152.78415
"68209",908.91064,75.44793,152.79562
"68210",908.92395,75.757996,152.96344
"68211",908.93726,76.35615,153.42903
"68212",908.95056,77.383995,154.343
"68213",908.96387,78.93919,155.81645
"68214",908.9772,80.990005,157.8341
"68215",908.9905,83.387505,160.26254
"68216",909.0038,85.872894,162.85379
"68217",909.0171,88.15076,165.31519
"68218",909.0304,89.95499,167.37413
"68219",909.0437,91.11955,168.8498
"68220",909.057,91.598076,169.6758
"68221",909.0703,91.42718,169.86734
"68222",909.0836,90.70695,169.50421
"68223",909.0969,89.58144,168.7133
"68224",909.1102,88.18982,167.6211
"68225",909.12354,86.64683,166.33403
"68226",909.13684,85.03548,164.93039
"68227",909.15015,83.42657,163.47884
"68228",909.16345,81.900665,162.06001
"68229",909.17676,80.570076,160.78882
"68230",909.19006,79.55932,159.79588
"68231",909.20337,78.98314,159.20593
"68232",909.2167,78.89525,159.08626
"68233",909.23,79.26635,159.42284
"68234",909.2433,79.96704,160.1006
"68235",909.2566,80.82399,160.95651
"68236",909.2699,81.654076,161.81235
"68237",909.2832,82.29862,162.50859
"68238",909.2965,82.65751,162.93932
"68239",909.3098,82.69657,163.06143
"68240",909.3231,82.423134,162.87227
"68241",909.3364,81.881134,162.40599
"68242",909.34973,81.13649,161.72014
"68243",909.36304,80.257576,160.87674
"68244",909.37634,79.31274,159.93996
"68245",909.38965,78.363014,158.96875
"68246",909.40295,77.45968,158.01425
"68247",909.41626,76.64179,157.11697
"68248",909.42957,75.94354,156.31378
"68249",909.4429,75.37713,155.6206
"68250",909.4562,74.949875,155.04889
"68251",909.4695,74.66178,154.60298
"68252",909.4828,74.50065,154.27502
"68253",909.4961,74.444496,154.04701
"68254",909.5094,74.46647,153.89537
"68255",909.5227,74.52506,153.78104
"68256",909.536,74.59098,153.67586
"68257",909.5493,74.64713,153.56297
"68258",909.5626,74.686195,153.43475
"68259",909.5759,74.74235,153.32484
"68260",909.58923,74.86931,153.2875
"68261",909.60254,75.176926,153.43478
"68262",909.61584,75.82391,153.93105
"68263",909.62915,76.95918,154.9358
"68264",909.64246,78.67063,156.55223
"68265",909.65576,80.93141,158.77147
"68266",909.66907,83.57061,161.43977
"68267",909.6824,86.30503,164.28578
"68268",909.6957,88.80751,166.98529
"68269",909.709,90.79973,169.25275
"68270",909.7223,92.103455,170.89397
"68271",909.7356,92.662544,171.83128
"68272",909.7489,92.53559,172.10004
"68273",909.7622,91.844666,171.80084
"68274",909.7755,90.74845,171.07477
"68275",909.7888,89.410545,170.07275
"68276",909.8021,87.953,168.90929
"68277",909.8154,86.44663,167.65144
"68278",909.82874,84.947586,166.35385
"68279",909.84204,83.50469,165.06557
"68280",909.85535,82.2034,163.8738
"68281",909.86865,81.15602,162.89528
"68282",909.88196,80.45777,162.23315
"68283",909.89526,80.16724,161.95692
"68284",909.90857,80.272224,162.06714
"68285",909.9219,80.68726,162.49069
"68286",909.9352,81.26589,163.0908
"68287",909.9485,81.85428,163.71875
"68288",909.9618,82.31083,164.23325
"68289",909.9751,82.53544,164.53008
"68290",909.9884,82.4622,164.53607
"68291",910.0017,82.08621,164.23703
"68292",910.015,81.444115,163.66013
"68293",910.0283,80.601814,162.86296
"68294",910.0416,79.64233,161.92229
"68295",910.05493,78.63889,160.90767
"68296",910.06824,77.659874,159.88611
"68297",910.08154,76.749214,158.90231
"68298",910.09485,75.94354,157.99506
"68299",910.10815,75.27459,157.19934
"68300",910.12146,74.75212,156.5292
"68301",910.13477,74.37614,155.98923
"68302",910.1481,74.13199,155.56934
"68303",910.1614,74.00015,155.25412
"68304",910.1747,73.95621,155.02267
"68305",910.188,73.968414,154.84601
"68306",910.2013,74.005035,154.69414
"68307",910.2146,74.0441,154.54585
"68308",910.2279,74.07095,154.38658
"68309",910.2412,74.090485,154.22083
"68310",910.2545,74.13199,154.07765
"68311",910.2678,74.25895,154.02124
"68312",910.2811,74.59586,154.17874
"68313",910.29443,75.31121,154.7252
"68314",910.30774,76.5539,155.82137
"68315",910.32104,78.39475,157.55452
"68316",910.33435,80.782486,159.89209
"68317",910.34766,83.53155,162.6656
"68318",910.36096,86.348976,165.5934
"68319",910.37427,88.90517,168.34799
"68320",910.3876,90.916916,170.63803
"68321",910.4009,92.20599,172.26826
"68322",910.4142,92.716255,173.15996
"68323",910.4275,92.49409,173.33517
"68324",910.4408,91.6762,172.90773
"68325",910.4541,90.45548,172.0519
"68326",910.4674,89.01747,170.94061
"68327",910.4807,87.50866,169.7136
"68328",910.494,86.00961,168.44919
"68329",910.5073,84.54719,167.17456
"68330",910.5206,83.15068,165.92015
"68331",910.53394,81.881134,164.74907
"68332",910.54724,80.82155,163.74828
"68333",910.56055,80.062256,163.01466
"68334",910.57385,79.66918,162.62354
"68335",910.58716,79.639885,162.5839
"68336",910.60046,79.888916,162.82167
"68337",910.6138,80.28687,163.21616
"68338",910.6271,80.68238,163.62064
"68339",910.6404,80.9485,163.90808
"68340",910.6537,80.990005,163.97923
"68341",910.667,80.75807,163.77824
"68342",910.6803,80.26734,163.3112
"68343",910.6936,79.55932,162.61154
"68344",910.7069,78.70481,161.74326
"68345",910.7202,77.77707,160.77504
"68346",910.7335,76.839554,159.76805
"68347",910.7468,75.94354,158.77327
"68348",910.76013,75.1281,157.83105
"68349",910.77344,74.424965,156.97568
"68350",910.78674,73.848785,156.22528
"68351",910.80005,73.409325,155.5936
"68352",910.81335,73.09926,155.07758
"68353",910.82666,72.91127,154.67393
"68354",910.83997,72.82582,154.36696
"68355",910.8533,72.8185,154.13544
"68356",910.8666,72.86488,153.9574
"68357",910.8799,72.938126,153.80766
"68358",910.8932,73.006485,153.65533
"68359",910.9065,73.05531,153.48561
"68360",910.9198,73.091934,153.3052
"68361",910.9331,73.13832,153.13571
"68362",910.9464,73.248184,153.03114
"68363",910.9597,73.52895,153.10092
"68364",910.973,74.13687,153.50662
"68365",910.9863,75.2404,154.42693
"68366",910.99963,76.94942,155.9872
"68367",911.01294,79.26391,158.20636
"68368",911.02625,82.04959,160.96904
"68369",911.03955,85.04036,164.02386
"68370",911.05286,87.87244,167.01346
"68371",911.06616,90.194244,169.58128
"68372",911.07947,91.75433,171.45995
"68373",911.0928,92.45014,172.52307
"68374",911.1061,92.315865,172.77786
"68375",911.1194,91.51507,172.36194
"68376",911.1327,90.27726,171.48398
"68377",911.146,88.84169,170.36957
"68378",911.1593,87.362175,169.16635
"68379",911.1726,85.91196,167.9462
"68380",911.1859,84.51057,166.72955
"68381",911.1992,83.158005,165.51794
"68382",911.2125,81.8909,164.34953
"68383",911.2258,80.78493,163.30266
"68384",911.23914,79.93042,162.47269
"68385",911.25244,79.40063,161.94072
"68386",911.26575,79.2224,161.74376
"68387",911.27905,79.33959,161.83665
"68388",911.29236,79.635,162.11142
"68389",911.30566,79.971924,162.43694
"68390",911.319,80.22339,162.68753
"68391",911.3323,80.289314,162.76044
"68392",911.3456,80.12329,162.60345
"68393",911.3589,79.710686,162.1947
"68394",911.3722,79.08812,161.5631
"68395",911.3855,78.3093,160.75578
"68396",911.3988,77.44747,159.84111
"68397",911.4121,76.561226,158.87509
"68398",911.4254,75.70916,157.91556
"68399",911.4387,74.93767,157.00998
"68400",911.452,74.26139,156.1755
"68401",911.46533,73.70229,155.43707
"68402",911.47864,73.26284,154.80081
"68403",911.49194,72.955215,154.28265
"68404",911.50525,72.764786,153.87207
"68405",911.51855,72.68421,153.5654
"68406",911.53186,72.69886,153.35143
"68407",911.54517,72.781876,153.20628
"68408",911.5585,72.89906,153.0979
"68409",911.5718,73.03578,153.01271
"68410",911.5851,73.16518,152.92447
"68411",911.5984,73.26772,152.81343
"68412",911.6117,73.33608,152.6714
"68413",911.625,73.36538,152.49245
"68414",911.6383,73.36294,152.28267
"68415",911.6516,73.3605,152.07281
"68416",911.6649,73.42397,151.9288
"68417",911.6782,73.673,151.97232
"68418",911.6915,74.28092,152.38252
"68419",911.70483,75.423515,153.34639
"68420",911.71814,77.21553,154.99539
"68421",911.73145,79.64965,157.3425
"68422",911.74475,82.57694,160.25883
"68423",911.75806,85.67025,163.43268
"68424",911.77136,88.52186,166.46149
"68425",911.78467,90.76311,168.96904
"68426",911.798,92.16693,170.70921
"68427",911.8113,92.682076,171.60457
"68428",911.8246,92.39887,171.71768
"68429",911.8379,91.53216,171.23843
"68430",911.8512,90.32609,170.39275
"68431",911.8645,88.98085,169.3702
"68432",911.8778,87.606316,168.2763
"68433",911.8911,86.24887,167.15656
"68434",911.9044,84.91829,166.02126
"68435",911.9177,83.62432,164.88098
"68436",911.931,82.39628,163.7662
"68437",911.94434,81.30984,162.75465
"68438",911.95764,80.45777,161.94353
"68439",911.97095,79.923096,161.42316
"68440",911.98425,79.725334,161.22299
"68441",911.99756,79.815674,161.30475
"68442",912.01086,80.08423,161.56754
"68443",912.0242,80.38941,161.87535
"68444",912.0375,80.601814,162.09993
"68445",912.0508,80.618904,162.13583
"68446",912.0641,80.39185,161.92813
"68447",912.0774,79.92554,161.47406
"68448",912.0907,79.26391,160.8101
"68449",912.104,78.467995,159.99118
"68450",912.1173,77.611046,159.08635
"68451",912.1306,76.754105,158.15475
"68452",912.1439,75.94354,157.24275
"68453",912.1572,75.211105,156.38354
"68454",912.17053,74.57145,155.59424
"68455",912.18384,74.04166,154.8948
"68456",912.19714,73.62417,154.29112
"68457",912.21045,73.32632,153.79402
"68458",912.22375,73.13344,153.3926
"68459",912.23706,73.03822,153.0828
"68460",912.25037,73.0309,152.85791
"68461",912.2637,73.08949,152.69872
"68462",912.277,73.18959,152.58286
"68463",912.2903,73.31411,152.49455
"68464",912.3036,73.460594,152.4321
"68465",912.3169,73.60464,152.37178
"68466",912.3302,73.741356,152.30864
"68467",912.3435,73.85855,152.23026
"68468",912.3568,73.94888,152.12866
"68469",912.3701,74.00015,151.99083
"68470",912.3834,74.00992,151.8131
"68471",912.3967,73.970856,151.58684
"68472",912.41003,73.88785,151.31541
"68473",912.42334,73.77066,151.00722
"68474",912.43665,73.64614,150.68803
"68475",912.44995,73.5729,150.41623
"68476",912.46326,73.687645,150.33012
"68477",912.47656,74.18814,150.63336
"68478",912.48987,75.28924,151.55284
"68479",912.5032,77.120316,153.23671
"68480",912.5165,79.69848,155.72488
"68481",912.5298,82.85039,158.86737
"68482",912.5431,86.204926,162.31099
"68483",912.5564,89.2958,165.59576
"68484",912.5697,91.71038,168.30084
"68485",912.583,93.204544,170.16095
"68486",912.5963,93.71969,171.08873
"68487",912.6096,93.38033,171.17812
"68488",912.6229,92.43061,170.64653
"68489",912.6362,91.14397,169.74834
"68490",912.64954,89.72549,168.6781
"68491",912.66284,88.30457,167.56111
"68492",912.67615,86.925156,166.44121
"68493",912.68945,85.59701,165.32947
"68494",912.70276,84.31037,164.21774
"68495",912.71606,83.09453,163.1366
"68496",912.7294,82.01053,162.1493
"68497",912.7427,81.146255,161.34787
"68498",912.756,80.584724,160.82216
"68499",912.7693,80.35523,160.61095
"68500",912.7826,80.41627,160.68309
"68501",912.7959,80.66285,160.94269
"68502",912.8092,80.96071,161.26126
"68503",912.8225,81.180435,161.51102
"68504",912.8358,81.22194,161.58942
"68505",912.8491,81.03395,161.43962
"68506",912.8624,80.61402,161.052
"68507",912.87573,79.98901,160.44618
"68508",912.88904,79.217514,159.67435
"68509",912.90234,78.365456,158.79784
"68510",912.91565,77.4963,157.8776
"68511",912.92896,76.66132,156.96437
"68512",912.94226,75.90448,156.1032
"68513",912.95557,75.24773,155.31845
"68514",912.9689,74.70573,154.62794
"68515",912.9822,74.28092,154.03769
"68516",912.9955,73.968414,153.54646
"68517",913.0088,73.760895,153.15045
"68518",913.0221,73.64858,152.84317
"68519",913.0354,73.61196,152.60806
"68520",913.0487,73.636375,152.43285
"68521",913.062,73.70229,152.2999
"68522",913.0753,73.79263,152.19344
"68523",913.0886,73.89761,152.10443
"68524",913.1019,74.005035,152.02115
"68525",913.11523,74.10513,151.9339
"68526",913.12854,74.195465,151.84001
"68527",913.14185,74.26383,151.72699
"68528",913.15515,74.3151,151.599
"68529",913.16846,74.34684,151.45308
"68530",913.18176,74.36393,151.2935
"68531",913.19507,74.35905,151.11249
"68532",913.2084,74.33463,150.91179
"68533",913.2217,74.29557,150.69568
"68534",913.235,74.23941,150.46126
"68535",913.2483,74.16373,150.20555
"68536",913.2616,74.075836,149.93527
"68537",913.2749,73.97574,149.65004
"68538",913.2882,73.865875,149.35191
"68539",913.3015,73.75601,149.05035
"68540",913.3148,73.67788,148.7771
"68541",913.3281,73.7145,148.61615
"68542",913.34143,74.022125,148.72736
"68543",913.35474,74.8156,149.33401
"68544",913.36804,76.30976,150.66617
"68545",913.38135,78.59739,152.83847
"68546",913.39465,81.62478,155.82202
"68547",913.40796,85.135574,159.38359
"68548",913.42126,88.68543,163.09393
"68549",913.4346,91.77875,166.45866
"68550",913.4479,94.03464,169.08264
"68551",913.4612,95.27245,170.75903
"68552",913.4745,95.484856,171.4487
"68553",913.4878,94.85741,171.30515
"68554",913.5011,93.66842,170.58044
"68555",913.5144,92.20355,169.54271
"68556",913.5277,90.663,168.38351
"68557",913.541,89.1664,167.22012
"68558",913.5543,87.75769,166.09787
"68559",913.5676,86.42466,165.00726
"68560",913.58093,85.15022,163.9336
"68561",913.59424,83.96124,162.90556
"68562",913.60754,82.91875,161.98686
"68563",913.62085,82.10086,161.2602
"68564",913.63416,81.58572,160.8107
"68565",913.64746,81.3904,160.66495
"68566",913.66077,81.46609,160.78409
"68567",913.6741,81.70779,161.07161
"68568",913.6874,81.986115,161.4033
"68569",913.7007,82.18143,161.66069
"68570",913.714,82.2034,161.75084
"68571",913.7273,81.99344,161.60974
"68572",913.7406,81.54177,161.22037
"68573",913.7539,80.87038,160.59715
"68574",913.7672,80.045166,159.79915
"68575",913.7805,79.13939,158.89478
"68576",913.7938,78.22629,157.95477
"68577",913.8071,77.35958,157.03264
"68578",913.82043,76.58564,156.17618
"68579",913.83374,75.92157,155.40541
"68580",913.84705,75.37469,154.73108
"68581",913.86035,74.94011,154.15196
"68582",913.87366,74.62272,153.67645
"68583",913.88696,74.40543,153.29112
"68584",913.90027,74.28336,152.99422
"68585",913.9136,74.23941,152.77162
"68586",913.9269,74.26139,152.61359
"68587",913.9402,74.32975,152.50261
"68588",913.9535,74.42741,152.42307
"68589",913.9668,74.529945,152.35146
"68590",913.9801,74.632484,152.28305
"68591",913.9934,74.72282,152.20564
"68592",914.0067,74.79118,152.1091
"68593",914.02,74.84001,151.99515
"68594",914.0333,74.86931,151.86319
"68595",914.04663,74.881516,151.71506
"68596",914.05994,74.86931,151.5429
"68597",914.07324,74.83513,151.34837
"68598",914.08655,74.78142,151.13326
"68599",914.09985,74.71549,150.90425
"68600",914.11316,74.634926,150.65854
"68601",914.12646,74.547035,150.40298
"68602",914.1398,74.46647,150.15201
"68603",914.1531,74.39567,149.90828
"68604",914.1664,74.322426,149.6599
"68605",914.1797,74.24185,149.4019
"68606",914.193,74.1564,149.1365
"68607",914.2063,74.06851,148.866
"68608",914.2196,73.987946,148.60007
"68609",914.2329,73.968414,148.39265
"68610",914.2462,74.11734,148.35309
"68611",914.2595,74.62516,148.67708
"68612",914.2728,75.7116,149.59555
"68613",914.28613,77.54269,151.29262
"68614",914.29944,80.14282,153.81596
"68615",914.31274,83.370415,157.04802
"68616",914.32605,86.90318,160.68611
"68617",914.33936,90.29435,164.293
"68618",914.35266,93.0898,167.41014
"68619",914.36597,94.977036,169.70644
"68620",914.3793,95.836426,171.03386
"68621",914.3926,95.72411,171.41644
"68622",914.4059,94.84276,171.02646
"68623",914.4192,93.470665,170.1182
"68624",914.4325,91.878845,168.94733
"68625",914.4458,90.25529,167.69498
"68626",914.4591,88.69276,166.45293
"68627",914.4724,87.21568,165.2475
"68628",914.4857,85.81918,164.07649
"68629",914.499,84.52033,162.95949
"68630",914.5123,83.36553,161.94595
"68631",914.52563,82.43046,161.11606
"68632",914.53894,81.78592,160.54747
"68633",914.55225,81.480736,160.2981
"68634",914.56555,81.495384,160.35902
"68635",914.57886,81.74929,160.65967
"68636",914.59216,82.11063,161.07567
"68637",914.60547,82.44511,161.4761
"68638",914.6188,82.62577,161.73318
"68639",914.6321,82.58427,161.77374
"68640",914.6454,82.27909,161.54933
"68641",914.6587,81.7322,161.07367
"68642",914.672,80.99733,160.39293
"68643",914.6853,80.15015,159.57692
"68644",914.6986,79.24437,158.67584
"68645",914.7119,78.3386,157.74646
"68646",914.7252,77.488976,156.84491
"68647",914.7385,76.72236,155.99982
"68648",914.75183,76.06073,155.23576
"68649",914.76514,75.51629,154.56822
"68650",914.77844,75.09392,154.00574
"68651",914.79175,74.78386,153.54236
"68652",914.80505,74.57877,153.17427
"68653",914.81836,74.46647,152.89255
"68654",914.83167,74.43473,152.68788
"68655",914.845,74.46891,152.54814
"68656",914.8583,74.53483,152.44121
"68657",914.8716,74.62272,152.3583
"68658",914.8849,74.72282,152.29036
"68659",914.8982,74.827805,152.23044
"68660",914.9115,74.92302,152.16402
"68661",914.9248,75.001144,152.08348
"68662",914.9381,75.06218,151.9883
"68663",914.9514,75.0988,151.8706
"68664",914.9647,75.10857,151.7272
"68665",914.978,75.089035,151.55481
"68666",914.99133,75.0573,151.3696
"68667",915.00464,75.00847,151.1663
"68668",915.01794,74.94255,150.9444
"68669",915.03125,74.861984,150.70578
"68670",915.04456,74.77409,150.45732
"68671",915.05786,74.67887,150.19879
"68672",915.07117,74.57389,149.92752
"68673",915.0845,74.4567,149.64076
"68674",915.0978,74.33219,149.34302
"68675",915.1111,74.20523,149.03894
"68676",915.1244,74.08804,148.74066
"68677",915.1377,74.01724,148.4851
"68678",915.151,74.07095,148.35185
"68679",915.1643,74.41276,148.50838
"68680",915.1776,75.25994,149.18095
"68681",915.1909,76.80293,150.57582
"68682",915.2042,79.12718,152.80016
"68683",915.2175,82.1326,155.77829
"68684",915.23083,85.53597,159.2483
"68685",915.24414,88.92226,162.80759
"68686",915.25745,91.859314,166.02347
"68687",915.27075,94.00534,168.5401
"68688",915.28406,95.19188,170.1643
"68689",915.29736,95.41894,170.86612
"68690",915.31067,94.820786,170.74982
"68691",915.324,93.61471,170.0069
"68692",915.3373,92.052185,168.86983
"68693",915.3506,90.35783,167.5521
"68694",915.3639,88.670784,166.18874
"68695",915.3772,87.064316,164.85323
"68696",915.3905,85.555504,163.56517
"68697",915.4038,84.1712,162.35448
"68698",915.4171,82.96025,161.27388
"68699",915.4304,82.005646,160.41179
"68700",915.4437,81.3782,159.84702
"68701",915.45703,81.11696,159.62885
"68702",915.47034,81.20729,159.75409
"68703",915.48364,81.549095,160.13362
"68704",915.49695,82.01297,160.6459
"68705",915.51025,82.44511,161.14095
"68706",915.52356,82.72587,161.49812
"68707",915.53687,82.777145,161.63458
"68708",915.5502,82.55741,161.50163
"68709",915.5635,82.07645,161.10059
"68710",915.5768,81.38796,160.47699
"68711",915.5901,80.55543,159.68784
"68712",915.6034,79.64721,158.79698
"68713",915.6167,78.72678,157.86552
"68714",915.63,77.85031,156.94926
"68715",915.6433,77.049515,156.08128
"68716",915.6566,76.34882,155.28839
"68717",915.6699,75.76288,154.58835
"68718",915.6832,75.28924,153.9823
"68719",915.69653,74.92058,153.46643
"68720",915.70984,74.6569,153.04402
"68721",915.72314,74.48844,152.70859
"68722",915.73645,74.39323,152.44113
"68723",915.74976,74.36149,152.23418
"68724",915.76306,74.38102,152.0775
"68725",915.77637,74.43229,151.95317
"68726",915.7897,74.50553,151.85242
"68727",915.803,74.59098,151.76616
"68728",915.8163,74.67887,151.68501
"68729",915.8296,74.76677,151.60663
"68730",915.8429,74.85222,151.52853
"68731",915.8562,74.92546,151.4409
"68732",915.8695,74.97673,151.33359
"68733",915.8828,74.9987,151.19858
"68734",915.8961,74.99138,151.03496
"68735",915.9094,74.9572,150.84425
"68736",915.9227,74.898605,150.62807
"68737",915.93604,74.82292,150.39296
"68738",915.94934,74.74235,150.1506
"68739",915.96265,74.65934,149.90329
"68740",915.97595,74.5568,149.63385
"68741",915.98926,74.43473,149.34167
"68742",916.00256,74.29069,149.02371
"68743",916.01587,74.12955,148.68416
"68744",916.0292,73.96353,148.33469
"68745",916.0425,73.84146,148.02397
"68746",916.0558,73.85367,147.84372
"68747",916.0691,74.16617,147.96414
"68748",916.0824,75.01579,148.63145
"68749",916.0957,76.61738,150.07729
"68750",916.109,79.05882,152.41302
"68751",916.1223,82.22293,155.54771
"68752",916.1356,85.79477,159.18903
"68753",916.1489,89.32021,162.89555
"68754",916.16223,92.33051,166.19711
"68755",916.17554,94.483864,168.7358
"68756",916.18884,95.638664,170.34322
"68757",916.20215,95.82422,171.01749
"68758",916.21545,95.20409,170.89186
"68759",916.22876,93.99802,170.16092
"68760",916.24207,92.44526,169.0456
"68761",916.2554,90.75334,167.74258
"68762",916.2687,89.06874,166.39403
"68763",916.282,87.464714,165.0734
"68764",916.2953,85.96567,163.80762
"68765",916.3086,84.596016,162.62439
"68766",916.3219,83.39239,161.56439
"68767",916.3352,82.41825,160.69627
"68768",916.3485,81.74929,160.10289
"68769",916.3618,81.43191,159.84018
"68770",916.3751,81.461205,159.91423
"68771",916.3884,81.75662,160.25531
"68772",916.40173,82.2034,160.75699
"68773",916.41504,82.650185,161.27263
"68774",916.42834,82.97002,161.67528
"68775",916.44165,83.06523,161.86331
"68776",916.45496,82.88945,161.78333
"68777",916.46826,82.44022,161.4244
"68778",916.48157,81.75662,160.81705
"68779",916.4949,80.907,160.02232
"68780",916.5082,79.96216,159.10583
"68781",916.5215,78.99779,158.14029
"68782",916.5348,78.06027,157.17145
"68783",916.5481,77.19356,156.24411
"68784",916.5614,76.42939,155.39224
"68785",916.5747,75.78485,154.63612
"68786",916.588,75.2575,153.97705
"68787",916.6013,74.844894,153.41624
"68788",916.6146,74.53971,152.94997
"68789",916.6279,74.33463,152.57425
"68790",916.64124,74.212555,152.27513
"68791",916.65454,74.15396,152.03568
"68792",916.66785,74.144196,151.84322
"68793",916.68115,74.175934,151.69196
"68794",916.69446,74.24185,151.57587
"68795",916.70776,74.33219,151.48627
"68796",916.72107,74.43717,151.41412
"68797",916.7344,74.547035,151.35014
"68798",916.7477,74.64469,151.27739
"68799",916.761,74.71549,151.18083
"68800",916.7743,74.76189,151.06209
"68801",916.7876,74.78386,150.92036
"68802",916.8009,74.78142,150.75491
"68803",916.8142,74.757,150.56741
"68804",916.8275,74.71549,150.36206
"68805",916.8408,74.65934,150.14076
"68806",916.8541,74.59342,149.90794
"68807",916.86743,74.512856,149.65842
"68808",916.88074,74.4152,149.38928
"68809",916.89404,74.29557,149.09512
"68810",916.90735,74.15152,148.77281
"68811",916.92065,73.99039,148.42891
"68812",916.93396,73.831696,148.08241
"68813",916.94727,73.71206,147.77002
"68814",916.9606,73.72915,147.5906
"68815",916.9739,74.06119,147.72668
"68816",916.9872,74.95964,148.43954
"68817",917.0005,76.64179,149.96419
"68818",917.0138,79.18089,152.39835
"68819",917.0271,82.43534,155.6272
"68820",917.0404,86.05844,159.3264
"68821",917.0537,89.56191,163.0192
"68822",917.067,92.477,166.2331
"68823",917.0803,94.4741,168.6201
"68824",917.0936,95.43847,170.03679
"68825",917.10693,95.43603,170.5168
"68826",917.12024,94.6572,170.22035
"68827",917.13354,93.33395,169.35513
"68828",917.14685,91.700615,168.13849
"68829",917.16016,89.95499,166.7585
"68830",917.17346,88.21912,165.33372
"68831",917.18677,86.56382,163.93527
"68832",917.2001,85.013504,162.59007
"68833",917.2134,83.60479,161.33803
"68834",917.2267,82.40116,160.24706
"68835",917.24,81.47585,159.39679
"68836",917.2533,80.90944,158.8765
"68837",917.2666,80.7483,158.74377
"68838",917.2799,80.96315,158.98201
"68839",917.2932,81.444115,159.49307
"68840",917.3065,82.039825,160.13391
"68841",917.3198,82.59403,160.75186
"68842",917.3331,82.97002,161.20891
"68843",917.34644,83.08476,161.41647
"68844",917.35974,82.89433,161.32245
"68845",917.37305,82.41825,160.93681
"68846",917.38635,81.705345,160.29948
"68847",917.39966,80.82399,159.47142
"68848",917.41296,79.84985,158.52304
"68849",917.4263,78.856186,157.52469
"68850",917.4396,77.89914,156.53189
"68851",917.4529,77.02266,155.58975
"68852",917.4662,76.25117,154.72522
"68853",917.4795,75.5993,153.95619
"68854",917.4928,75.07439,153.29376
"68855",917.5061,74.669106,152.73456
"68856",917.5194,74.38346,152.28232
"68857",917.5327,74.20767,151.93102
"68858",917.546,74.11978,151.66211
"68859",917.5593,74.10025,151.45882
"68860",917.57263,74.13931,151.3135
"68861",917.58594,74.212555,151.2036
"68862",917.59924,74.305336,151.11552
"68863",917.61255,74.4152,151.04742
"68864",917.62585,74.53727,150.99496
"68865",917.63916,74.666664,150.95364
"68866",917.65247,74.78874,150.90906
"68867",917.6658,74.896164,150.85362
"68868",917.6791,74.98161,150.77957
"68869",917.6924,75.04265,150.68378
"68870",917.7057,75.06706,150.55327
"68871",917.719,75.06706,150.39911
"68872",917.7323,75.04509,150.22298
"68873",917.7456,74.9987,150.02174
"68874",917.7589,74.92058,149.78732
"68875",917.7722,74.80095,149.50896
"68876",917.7855,74.632484,149.17802
"68877",917.7988,74.43473,148.81253
"68878",917.81213,74.23697,148.44086
"68879",917.82544,74.10025,148.12404
"68880",917.83875,74.14908,147.9885
"68881",917.85205,74.5861,148.24268
"68882",917.86536,75.64568,149.13307
"68883",917.87866,77.48409,150.8354
"68884",917.89197,80.11597,153.38866
"68885",917.9053,83.33868,156.61499
"68886",917.9186,86.766464,160.14711
"68887",917.9319,89.933014,163.52512
"68888",917.9452,92.4184,166.3209
"68889",917.9585,93.9736,168.26418
"68890",917.9718,94.5449,169.27214
"68891",917.9851,94.237274,169.41904
"68892",917.9984,93.23872,168.8654
"68893",918.0117,91.776306,167.8167
"68894",918.025,90.04532,166.45372
"68895",918.0383,88.20691,164.92923
"68896",918.05164,86.35386,163.33264
"68897",918.06494,84.55207,161.72942
"68898",918.07825,82.86992,160.18951
"68899",918.09155,81.39529,158.80457
"68900",918.10486,80.24292,157.6958
"68901",918.11816,79.52758,156.98805
"68902",918.1315,79.32494,156.77065
"68903",918.1448,79.62035,157.04495
"68904",918.1581,80.2942,157.70692
"68905",918.1714,81.160904,158.58282
"68906",918.1847,82.022736,159.48094
"68907",918.198,82.69901,160.22043
"68908",918.2113,83.072556,160.67831
"68909",918.2246,83.09697,160.79875
"68910",918.2379,82.791794,160.59036
"68911",918.2512,82.20096,160.08678
"68912",918.2645,81.39773,159.35233
"68913",918.27783,80.465096,158.46338
"68914",918.29114,79.483635,157.49646
"68915",918.30444,78.519264,156.51595
"68916",918.31775,77.62081,155.57121
"68917",918.33105,76.81514,154.6912
"68918",918.34436,76.11932,153.89584
"68919",918.35767,75.53582,153.19107
"68920",918.371,75.0573,152.57304
"68921",918.3843,74.68131,152.0426
"68922",918.3976,74.41276,151.60783
"68923",918.4109,74.246735,151.26721
"68924",918.4242,74.161285,151.00197
"68925",918.4375,74.15152,150.80974
"68926",918.4508,74.19791,150.67336
"68927",918.4641,74.28092,150.57506
"68928",918.4774,74.390785,150.5062
"68929",918.4907,74.52506,150.46518
"68930",918.504,74.67155,150.44057
"68931",918.51733,74.82292,150.42543
"68932",918.53064,74.97673,150.41745
"68933",918.54395,75.11833,150.40207
"68934",918.55725,75.24284,150.37402
"68935",918.57056,75.35027,150.3328
"68936",918.58386,75.4284,150.26561
"68937",918.59717,75.46502,150.15936
"68938",918.6105,75.45525,150.00787
"68939",918.6238,75.389336,149.79993
"68940",918.6371,75.26238,149.52888
"68941",918.6504,75.07927,149.19772
"68942",918.6637,74.864426,148.8291
"68943",918.677,74.67643,148.48062
"68944",918.6903,74.64225,148.28008
"68945",918.7036,74.969406,148.4398
"68946",918.7169,75.90692,149.22011
"68947",918.7302,77.62325,150.80853
"68948",918.7435,80.14038,153.25139
"68949",918.75684,83.25811,156.3735
"68950",918.77014,86.60532,159.82254
"68951",918.78345,89.7084,163.13203
"68952",918.79675,92.1474,165.87442
"68953",918.81006,93.678185,167.7848
"68954",918.82336,94.2446,168.77866
"68955",918.8367,93.941864,168.92107
"68956",918.85,92.95064,168.36552
"68957",918.8633,91.48821,167.3078
"68958",918.8766,89.74258,165.92117
"68959",918.8899,87.85535,164.3384
"68960",918.9032,85.9144,162.64293
"68961",918.9165,84.000305,160.91367
"68962",918.9298,82.19852,159.2369
"68963",918.9431,80.62867,157.73575
"68964",918.9564,79.43725,156.56398
"68965",918.9697,78.75853,155.86768
"68966",918.98303,78.66575,155.7361
"68967",918.99634,79.12962,156.15828
"68968",919.00964,80.008545,157.01
"68969",919.02295,81.08522,158.08694
"68970",919.03625,82.127716,159.16336
"68971",919.04956,82.9456,160.04774
"68972",919.06287,83.41924,160.61343
"68973",919.0762,83.51446,160.8155
"68974",919.0895,83.25567,160.66655
"68975",919.1028,82.703896,160.21652
"68976",919.1161,81.93729,159.53441
"68977",919.1294,81.03639,158.69406
"68978",919.1427,80.07446,157.76453
"68979",919.156,79.11253,156.80493
"68980",919.1693,78.20187,155.86653
"68981",919.1826,77.37911,154.98758
"68982",919.1959,76.66621,154.19276
"68983",919.2092,76.07294,153.49532
"68984",919.22253,75.596855,152.89651
