"","Time..s.","PPG.trace","Preprocessed.PPG"
"69522",936.0236,80.113525,154.81743
"69523",936.0369,79.991455,154.69891
"69524",936.05023,79.94263,154.64981
"69525",936.06354,79.97681,154.68219
"69526",936.07684,80.079346,154.784
"69527",936.09015,80.22827,154.9354
"69528",936.10345,80.37965,155.0939
"69529",936.11676,80.49683,155.22296
"69530",936.13007,80.552986,155.29465
"69531",936.1434,80.53101,155.28996
"69532",936.1567,80.430916,155.20647
"69533",936.17,80.26978,155.0588
"69534",936.1833,80.05737,154.85483
"69535",936.1966,79.823,154.62225
"69536",936.2099,79.586174,154.3799
"69537",936.2232,79.35424,154.13503
"69538",936.2365,79.13939,153.9
"69539",936.2498,78.95628,153.68999
"69540",936.2631,78.81224,153.51332
"69541",936.2764,78.70725,153.37122
"69542",936.28973,78.641335,153.2649
"69543",936.30304,78.6096,153.19069
"69544",936.31635,78.59739,153.13503
"69545",936.32965,78.590065,153.08386
"69546",936.34296,78.590065,153.0398
"69547",936.35626,78.58518,152.99084
"69548",936.36957,78.57786,152.9393
"69549",936.3829,78.56809,152.88509
"69550",936.3962,78.551,152.82324
"69551",936.4095,78.52903,152.75598
"69552",936.4228,78.49485,152.67583
"69553",936.4361,78.450905,152.58484
"69554",936.4494,78.397194,152.48271
"69555",936.4627,78.331276,152.3667
"69556",936.476,78.25559,152.23886
"69557",936.4893,78.17502,152.10378
"69558",936.5026,78.1091,151.98082
"69559",936.5159,78.09689,151.90952
"69560",936.52924,78.19455,151.9477
"69561",936.54254,78.450905,152.14763
"69562",936.55585,78.89769,152.546
"69563",936.56915,79.50805,153.12192
"69564",936.58246,80.20874,153.80724
"69565",936.59576,80.89479,154.49982
"69566",936.6091,81.45632,155.08931
"69567",936.6224,81.80789,155.48639
"69568",936.6357,81.92996,155.66496
"69569",936.649,81.849396,155.64471
"69570",936.6623,81.617455,155.47057
"69571",936.6756,81.30251,155.20618
"69572",936.6889,80.95827,154.90263
"69573",936.7022,80.63355,154.60786
"69574",936.7155,80.34058,154.3347
"69575",936.7288,80.08667,154.09143
"69576",936.7421,79.869385,153.87686
"69577",936.75543,79.69848,153.70187
"69578",936.76874,79.58373,153.5777
"69579",936.78204,79.534904,153.51585
"69580",936.79535,79.55932,153.52573
"69581",936.80865,79.64965,153.60228
"69582",936.82196,79.77905,153.72073
"69583",936.83527,79.90845,153.84323
"69584",936.8486,80.01587,153.94778
"69585",936.8619,80.059814,153.99222
"69586",936.8752,80.03296,153.96722
"69587",936.8885,79.93042,153.86572
"69588",936.9018,79.76929,153.70242
"69589",936.9151,79.5642,153.49013
"69590",936.9284,79.344475,153.25677
"69591",936.9417,79.132065,153.02388
"69592",936.955,78.93919,152.80388
"69593",936.9683,78.77562,152.60715
"69594",936.9816,78.643776,152.43704
"69595",936.99493,78.54856,152.29944
"69596",937.00824,78.48264,152.18816
"69597",937.02155,78.45335,152.11143
"69598",937.03485,78.44602,152.05577
"69599",937.04816,78.45823,152.01941
"69600",937.06146,78.4802,151.9932
"69601",937.07477,78.51194,151.97743
"69602",937.0881,78.54124,151.96022
"69603",937.1014,78.56321,151.9366
"69604",937.1147,78.57786,151.90634
"69605",937.128,78.58518,151.86922
"69606",937.1413,78.58518,151.825
"69607",937.1546,78.58274,151.77834
"69608",937.1679,78.572975,151.72427
"69609",937.1812,78.555885,151.66258
"69610",937.1945,78.53147,151.59303
"69611",937.2078,78.48997,151.50563
"69612",937.2211,78.42893,151.3974
"69613",937.23444,78.36057,151.27994
"69614",937.24774,78.2971,151.16522
"69615",937.26105,78.24826,151.06317
"69616",937.27435,78.24338,151.00354
"69617",937.28766,78.33372,151.03899
"69618",937.30096,78.57542,151.2286
"69619",937.3143,79.00267,151.61134
"69620",937.3276,79.60815,152.18565
"69621",937.3409,80.32838,152.89363
"69622",937.3542,81.058365,153.63388
"69623",937.3675,81.671165,154.27975
"69624",937.3808,82.07645,154.73726
"69625",937.3941,82.24002,154.96573
"69626",937.4074,82.18143,154.97714
"69627",937.4207,81.951935,154.81583
"69628",937.434,81.62478,154.54967
"69629",937.4473,81.26833,154.244
"69630",937.46063,80.93141,153.94672
"69631",937.47394,80.638435,153.68285
"69632",937.48724,80.396736,153.4611
"69633",937.50055,80.198975,153.27574
"69634",937.51385,80.04028,153.12326
"69635",937.52716,79.93286,153.01709
"69636",937.54047,79.88403,152.96616
"69637",937.5538,79.91577,152.99426
"69638",937.5671,80.02319,153.09906
"69639",937.5804,80.19165,153.26825
"69640",937.5937,80.37232,153.45491
"69641",937.607,80.533455,153.62769
"69642",937.6203,80.638435,153.74934
"69643",937.6336,80.66285,153.79372
"69644",937.6469,80.6067,153.75829
"69645",937.6602,80.482185,153.65274
"69646",937.6735,80.30152,153.48715
"69647",937.6868,80.08423,153.27928
"69648",937.70013,79.85718,153.05487
"69649",937.71344,79.639885,152.83311
"69650",937.72675,79.43969,152.62166
"69651",937.74005,79.27123,152.43568
"69652",937.75336,79.13939,152.28107
"69653",937.76666,79.046616,152.16139
"69654",937.77997,78.98802,152.073
"69655",937.7933,78.958725,152.01207
"69656",937.8066,78.958725,151.97952
"69657",937.8199,78.9807,151.96895
"69658",937.8332,79.01732,151.97371
"69659",937.8465,79.05394,151.97961
"69660",937.8598,79.09056,151.98666
"69661",937.8731,79.10765,151.97533
"69662",937.8864,79.11009,151.94987
"69663",937.8997,79.09056,151.90253
"69664",937.913,79.05882,151.84236
"69665",937.92633,79.01488,151.769
"69666",937.93964,78.958725,151.68205
"69667",937.95294,78.89769,151.58847
"69668",937.96625,78.82689,151.48322
"69669",937.97955,78.75609,151.37575
"69670",937.99286,78.692604,151.27339
"69671",938.00616,78.658424,151.19835
"69672",938.0195,78.70237,151.20036
"69673",938.0328,78.8806,151.33804
"69674",938.0461,79.23949,151.66194
"69675",938.0594,79.77661,152.1753
"69676",938.0727,80.445564,152.83727
"69677",938.086,81.143814,153.54944
"69678",938.0993,81.75418,154.19556
"69679",938.1126,82.176544,154.67274
"69680",938.1259,82.371864,154.93608
"69681",938.1392,82.34745,154.9858
"69682",938.1525,82.15213,154.86383
"69683",938.16583,81.85184,154.6308
"69684",938.17914,81.514915,154.35175
"69685",938.19244,81.17799,154.06216
"69686",938.20575,80.8777,153.79869
"69687",938.21906,80.618904,153.56732
"69688",938.23236,80.39918,153.36694
"69689",938.24567,80.216064,153.1963
"69690",938.259,80.08423,153.07123
"69691",938.2723,80.02075,153.01038
"69692",938.2856,80.03784,153.0281
"69693",938.2989,80.130615,153.12207
"69694",938.3122,80.28687,153.28241
"69695",938.3255,80.46754,153.47205
"69696",938.3388,80.635994,153.65512
"69697",938.3521,80.75319,153.79219
"69698",938.3654,80.797134,153.85968
"69699",938.3787,80.762955,153.85042
"69700",938.392,80.65308,153.76439
"69701",938.40533,80.479744,153.61147
"69702",938.41864,80.2649,153.41162
"69703",938.43195,80.028076,153.18307
"69704",938.44525,79.79614,152.95203
"69705",938.45856,79.57885,152.72836
"69706",938.47186,79.38842,152.52477
"69707",938.48517,79.237045,152.35428
"69708",938.4985,79.12718,152.22057
"69709",938.5118,79.061264,152.12737
"69710",938.5251,79.03685,152.07361
"69711",938.5384,79.044174,152.05083
"69712",938.5517,79.07591,152.05269
"69713",938.565,79.11986,152.06775
"69714",938.5783,79.16136,152.08174
"69715",938.5916,79.19066,152.08482
"69716",938.6049,79.202866,152.07173
"69717",938.6182,79.18822,152.03217
"69718",938.63153,79.151596,151.97017
"69719",938.64484,79.093,151.88506
"69720",938.65814,79.01976,151.78346
"69721",938.67145,78.93187,151.66493
"69722",938.68475,78.84642,151.5461
"69723",938.69806,78.77074,151.43436
"69724",938.71136,78.729225,151.35443
"69725",938.7247,78.77806,151.36356
"69726",938.738,78.97093,151.51823
"69727",938.7513,79.34936,151.8645
"69728",938.7646,79.903564,152.39838
"69729",938.7779,80.56519,153.05699
"69730",938.7912,81.231705,153.74117
"69731",938.8045,81.78348,154.33144
"69732",938.8178,82.13504,154.73874
"69733",938.8311,82.25956,154.92998
"69734",938.8444,82.178986,154.92001
"69735",938.8577,81.94461,154.75374
"69736",938.87103,81.619896,154.48979
"69737",938.88434,81.26101,154.18153
"69738",938.89764,80.91676,153.8767
"69739",938.91095,80.6067,153.59528
"69740",938.92426,80.343025,153.35057
"69741",938.93756,80.12329,153.14156
"69742",938.95087,79.95239,152.97452
"69743",938.9642,79.83032,152.85095
"69744",938.9775,79.77417,152.78949
"69745",938.9908,79.79126,152.79953
"69746",939.0041,79.88159,152.88333
"69747",939.0174,80.03052,153.02856
"69748",939.0307,80.20386,153.20285
"69749",939.044,80.365,153.37036
"69750",939.0573,80.47486,153.49164
"69751",939.0706,80.51148,153.5431
"69752",939.0839,80.465096,153.51271
"69753",939.0972,80.34058,153.40274
"69754",939.11053,80.15747,153.23027
"69755",939.12384,79.94263,153.02036
"69756",939.13715,79.71801,152.79395
"69757",939.15045,79.49584,152.56296
"69758",939.16376,79.290764,152.34212
"69759",939.17706,79.11253,152.14172
"69760",939.19037,78.96605,151.9675
"69761",939.2037,78.86107,151.8302
"69762",939.217,78.80003,151.73357
"69763",939.2303,78.77806,151.67409
"69764",939.2436,78.78783,151.64566
"69765",939.2569,78.81712,151.63707
"69766",939.2702,78.86595,151.64893
"69767",939.2835,78.91966,151.66719
"69768",939.2968,78.97337,151.68713
"69769",939.3101,79.01976,151.70143
"69770",939.3234,79.05638,151.70741
"69771",939.33673,79.07103,151.69257
"69772",939.35004,79.061264,151.65376
"69773",939.36334,79.03441,151.59756
"69774",939.37665,78.99779,151.53076
"69775",939.38995,78.958725,151.46037
"69776",939.40326,78.91478,151.38388
"69777",939.41656,78.873276,151.30846
"69778",939.4299,78.82933,151.2293
"69779",939.4432,78.78783,151.1512
"69780",939.4565,78.75365,151.07913
"69781",939.4698,78.77074,151.05727
"69782",939.4831,78.9099,151.158
"69783",939.4964,79.24193,151.45596
"69784",939.5097,79.78638,151.97672
"69785",939.523,80.51392,152.69759
"69786",939.5363,81.31472,153.51445
"69787",939.5496,82.056915,154.29773
"69788",939.5629,82.6038,154.90889
"69789",939.57623,82.88701,155.27347
"69790",939.58954,82.9041,155.38078
"69791",939.60284,82.71122,155.27866
"69792",939.61615,82.38163,155.0338
"69793",939.62946,81.991,154.71759
"69794",939.64276,81.602806,154.39162
"69795",939.65607,81.26101,154.09991
"69796",939.6694,80.970474,153.84879
"69797",939.6827,80.72877,153.6374
"69798",939.696,80.52125,153.45267
"69799",939.7093,80.34058,153.2883
"69800",939.7226,80.201416,153.15977
"69801",939.7359,80.113525,153.07819
"69802",939.7492,80.09888,153.06708
"69803",939.7625,80.15991,153.1312
"69804",939.7758,80.28199,153.25827
"69805",939.7891,80.42359,153.40869
"69806",939.8024,80.54566,153.544
"69807",939.81573,80.621346,153.63675
"69808",939.82904,80.62623,153.66106
"69809",939.84235,80.55543,153.60983
"69810",939.85565,80.41871,153.49048
"69811",939.86896,80.233154,153.31801
"69812",939.88226,80.01099,153.10312
"69813",939.89557,79.77417,152.86664
"69814",939.9089,79.54711,152.63252
"69815",939.9222,79.3518,152.42305
"69816",939.9355,79.200424,152.25142
"69817",939.9488,79.08812,152.11412
"69818",939.9621,79.01488,152.01237
"69819",939.9754,78.975815,151.94252
"69820",939.9887,78.96117,151.89586
"69821",940.002,78.96849,151.87071
"69822",940.0153,78.995346,151.86533
"69823",940.0286,79.03929,151.87787
"69824",940.04193,79.08324,151.89178
"69825",940.05524,79.1223,151.90219
"69826",940.06854,79.14671,151.89917
"69827",940.08185,79.15648,151.88226
"69828",940.09515,79.151596,151.85101
"69829",940.10846,79.12962,151.80252
"69830",940.12177,79.09544,151.74113
"69831",940.1351,79.0515,151.66891
"69832",940.1484,79.00267,151.59044
"69833",940.1617,78.94896,151.50555
"69834",940.175,78.89281,151.41655
"69835",940.1883,78.83177,151.3209
"69836",940.2016,78.77318,151.2258
"69837",940.2149,78.71702,151.1313
"69838",940.2282,78.68528,151.05946
"69839",940.2415,78.709694,151.04279
"69840",940.2548,78.8513,151.14407
"69841",940.2681,79.17357,151.43044
"69842",940.28143,79.70092,151.93196
"69843",940.29474,80.39185,152.61354
"69844",940.30804,81.15846,153.3924
"69845",940.32135,81.866486,154.13663
"69846",940.33466,82.39872,154.72719
"69847",940.34796,82.6746,155.07803
"69848",940.36127,82.69657,155.1836
"69849",940.3746,82.513466,155.08476
"69850",940.3879,82.196075,154.84592
"69851",940.4012,81.812775,154.53125
"69852",940.4145,81.42458,154.1997
"69853",940.4278,81.07057,153.89021
"69854",940.4411,80.77028,153.62338
"69855",940.4544,80.52125,153.39842
"69856",940.4677,80.31373,153.2072
"69857",940.481,80.15015,153.05342
"69858",940.4943,80.028076,152.93604
"69859",940.5076,79.957275,152.86612
"69860",940.52094,79.94751,152.85501
"69861",940.53424,80.01343,152.91928
"69862",940.54755,80.14282,153.0491
"69863",940.56085,80.30396,153.2147
"69864",940.57416,80.45777,153.37802
"69865",940.58746,80.56275,153.49731
"69866",940.60077,80.59205,153.5442
"69867",940.6141,80.52857,153.49924
"69868",940.6274,80.38209,153.36928
"69869",940.6407,80.177,153.17613
"69870",940.654,79.937744,152.94241
"69871",940.6673,79.68139,152.68411
"69872",940.6806,79.43481,152.42757
"69873",940.6939,79.21019,152.18529
"69874",940.7072,79.012436,151.96284
"69875",940.7205,78.8513,151.77084
"69876",940.7338,78.73899,151.62263
"69877",940.74713,78.66819,151.51242
"69878",940.76044,78.641335,151.44394
"69879",940.77374,78.65354,151.41368
"69880",940.78705,78.695045,151.4131
"69881",940.80035,78.75609,151.43336
"69882",940.81366,78.82445,151.46284
"69883",940.82697,78.88548,151.48714
"69884",940.8403,78.93431,151.50113
"69885",940.8536,78.96849,151.502
"69886",940.8669,78.98558,151.48685
"69887",940.8802,78.98314,151.4527
"69888",940.8935,78.96117,151.39894
"69889",940.9068,78.91966,151.32497
"69890",940.9201,78.86595,151.23749
"69891",940.9334,78.802475,151.13857
"69892",940.9467,78.73411,151.03278
"69893",940.96,78.658424,150.91753
"69894",940.9733,78.58762,150.8048
"69895",940.98663,78.52415,150.69717
"69896",940.99994,78.4802,150.6071
"69897",941.01324,78.504616,150.58401
"69898",941.02655,78.66575,150.69841
"69899",941.03986,79.0222,151.01317
"69900",941.05316,79.588615,151.54903
"69901",941.06647,80.31861,152.26616
"69902",941.0798,81.09987,153.05737
"69903",941.0931,81.80301,153.79489
"69904",941.1064,82.30595,154.35417
"69905",941.1197,82.547646,154.66794
"69906",941.133,82.53788,154.7378
"69907",941.1463,82.3328,154.61203
"69908",941.1596,82.00076,154.35289
"69909",941.1729,81.60769,154.02234
"69910",941.1862,81.21217,153.67706
"69911",941.1995,80.84596,153.34874
"69912",941.2128,80.54078,153.06999
"69913",941.22614,80.29908,152.8452
"69914",941.23944,80.11841,152.67387
"69915",941.25275,79.991455,152.55063
"69916",941.26605,79.920654,152.47955
"69917",941.27936,79.90845,152.46487
"69918",941.29266,79.95239,152.50595
"69919",941.30597,80.05493,152.607
"69920",941.3193,80.19653,152.7503
"69921",941.3326,80.35035,152.91026
"69922",941.3459,80.4773,153.04817
"69923",941.3592,80.55543,153.14122
"69924",941.3725,80.56031,153.16347
"69925",941.3858,80.48463,153.1053
"69926",941.3991,80.343025,152.97885
"69927",941.4124,80.15259,152.79913
"69928",941.4257,79.9353,152.58661
"69929",941.439,79.71557,152.36485
"69930",941.45233,79.51293,152.15332
"69931",941.46564,79.33227,151.95743
"69932",941.47894,79.17845,151.78275
"69933",941.49225,79.063705,151.64232
"69934",941.50555,78.98314,151.53249
"69935",941.51886,78.93675,151.45432
"69936",941.53217,78.924545,151.40887
"69937",941.5455,78.93431,151.38503
"69938",941.5588,78.958725,151.37613
"69939",941.5721,78.98802,151.37288
"69940",941.5854,79.01732,151.37054
"69941",941.5987,79.046616,151.36913
"69942",941.612,79.06859,151.3613
"69943",941.6253,79.08812,151.35172
"69944",941.6386,79.10277,151.33786
"69945",941.6519,79.10521,151.31226
"69946",941.6652,79.097885,151.27696
"69947",941.6785,79.078354,151.22923
"69948",941.69183,79.05394,151.17601
"69949",941.70514,79.0222,151.1147
"69950",941.71844,78.992905,151.05484
"69951",941.73175,78.958725,150.98918
"69952",941.74506,78.93187,150.92978
"69953",941.75836,78.907455,150.87198
"69954",941.77167,78.89281,150.82318
"69955",941.785,78.88548,150.78125
"69956",941.7983,78.8806,150.74153
"69957",941.8116,78.87572,150.70166
"69958",941.8249,78.870834,150.66164
"69959",941.8382,78.85863,150.61414
"69960",941.8515,78.84398,150.56381
"69961",941.8648,78.839096,150.5228
"69962",941.8781,78.89281,150.54022
"69963",941.8914,79.07591,150.68872
"69964",941.9047,79.4641,151.04803
"69965",941.918,80.079346,151.64653
"69966",941.93134,80.87038,152.44003
"69967",941.94464,81.72976,153.32661
"69968",941.95795,82.50858,154.1595
"69969",941.97125,83.075,154.8043
"69970",941.98456,83.36065,155.18605
"69971",941.99786,83.372856,155.30328
"69972",942.01117,83.16289,155.19872
"69973",942.0245,82.80644,154.94112
"69974",942.0378,82.374306,154.59668
"69975",942.0511,81.92996,154.22653
"69976",942.0644,81.52712,153.884
"69977",942.0777,81.19997,153.60457
"69978",942.091,80.96071,153.40282
"69979",942.1043,80.79225,153.26439
"69980",942.1176,80.67994,153.17683
"69981",942.1309,80.60914,153.12729
"69982",942.1442,80.567635,153.10483
"69983",942.15753,80.56275,153.11769
"69984",942.17084,80.59449,153.16702
"69985",942.18414,80.66285,153.25397
"69986",942.19745,80.7483,153.36014
"69987",942.21075,80.82155,153.45677
"69988",942.22406,80.85573,153.51663
"69989",942.23737,80.84108,153.52873
"69990",942.2507,80.77028,153.48422
"69991",942.264,80.6482,153.38622
"69992",942.2773,80.4773,153.23558
"69993",942.2906,80.274666,153.04787
"69994",942.3039,80.05493,152.83672
"69995",942.3172,79.83032,152.61383
"69996",942.3305,79.622795,152.401
"69997",942.3438,79.4519,152.2183
"69998",942.3571,79.3225,152.07178
"69999",942.3704,79.23216,151.96027
"70000",942.3837,79.17601,151.88011
"70001",942.39703,79.14671,151.82506
"70002",942.41034,79.132065,151.78374
"70003",942.42365,79.12718,151.75172
"70004",942.43695,79.13451,151.73177
"70005",942.45026,79.15404,151.72424
"70006",942.46356,79.18089,151.72466
"70007",942.47687,79.21263,151.73079
"70008",942.4902,79.24437,151.73792
"70009",942.5035,79.26635,151.73628
"70010",942.5168,79.27856,151.72556
"70011",942.5301,79.273674,151.69812
"70012",942.5434,79.25414,151.65588
"70013",942.5567,79.219955,151.59839
"70014",942.57,79.17601,151.53006
"70015",942.5833,79.1223,151.45059
"70016",942.5966,79.07347,151.37433
"70017",942.6099,79.0222,151.2941
"70018",942.6232,78.98314,151.22447
"70019",942.63654,78.94896,151.15851
"70020",942.64984,78.924545,151.10124
"70021",942.66315,78.91478,151.05786
"70022",942.67645,78.91722,151.02638
"70023",942.68976,78.92699,151.0023
"70024",942.70306,78.93919,150.98097
"70025",942.7164,78.94652,150.95514
"70026",942.7297,78.94896,150.92465
"70027",942.743,78.94408,150.88692
"70028",942.7563,78.97093,150.88077
"70029",942.7696,79.097885,150.97556
"70030",942.7829,79.40551,151.25499
"70031",942.7962,79.93286,151.76376
"70032",942.8095,80.65308,152.48189
"70033",942.8228,81.47097,153.32019
"70034",942.8361,82.262,154.1572
"70035",942.8494,82.882126,154.848
"70036",942.86273,83.24101,155.29697
"70037",942.87604,83.33135,155.48859
"70038",942.88934,83.19707,155.4584
"70039",942.90265,82.88945,155.2507
"70040",942.91595,82.47196,154.92351
"70041",942.92926,82.01053,154.53932
"70042",942.94257,81.55642,154.14804
"70043",942.9559,81.15114,153.7914
"70044",942.9692,80.816666,153.4929
"70045",942.9825,80.55543,153.25719
"70046",942.9958,80.36744,153.08656
"70047",943.0091,80.24048,152.97108
"70048",943.0224,80.16968,152.9078
"70049",943.0357,80.15503,152.89847
"70050",943.049,80.19653,152.94482
"70051",943.0623,80.2942,153.04863
"70052",943.0756,80.42359,153.18723
"70053",943.0889,80.55787,153.33475
"70054",943.10223,80.66529,153.45961
"70055",943.11554,80.71412,153.52924
"70056",943.12885,80.68482,153.52226
"70057",943.14215,80.5774,153.43625
"70058",943.15546,80.40406,153.28096
"70059",943.16876,80.18921,153.07874
"70060",943.18207,79.957275,152.85272
"70061",943.1954,79.72289,152.617
"70062",943.2087,79.50805,152.3935
"70063",943.222,79.32006,152.19012
"70064",943.2353,79.166245,152.01506
"70065",943.2486,79.05394,151.8767
"70066",943.2619,78.98314,151.77632
"70067",943.2752,78.9514,151.7128
"70068",943.2885,78.93919,151.66782
"70069",943.3018,78.941635,151.6371
"70070",943.3151,78.9514,151.61378
"70071",943.3284,78.97093,151.60054
"70072",943.34174,78.99046,151.5879
"70073",943.35504,79.01732,151.5832
"70074",943.36835,79.05394,151.58911
"70075",943.38165,79.08812,151.59372
"70076",943.39496,79.11253,151.58963
"70077",943.40826,79.1223,151.57166
"70078",943.4216,79.11986,151.54178
"70079",943.4349,79.097885,151.4923
"70080",943.4482,79.07103,151.43724
"70081",943.4615,79.04173,151.3789
"70082",943.4748,79.01976,151.32698
"70083",943.4881,79.00023,151.27681
"70084",943.5014,78.98802,151.23335
"70085",943.5147,78.97337,151.18707
"70086",943.528,78.95384,151.13545
"70087",943.5413,78.93187,151.08078
"70088",943.5546,78.907455,151.02298
"70089",943.56793,78.88548,150.96686
"70090",943.58124,78.86839,150.91493
"70091",943.59454,78.86107,150.87224
"70092",943.60785,78.85863,150.8342
"70093",943.62115,78.85863,150.79852
"70094",943.63446,78.85863,150.76285
"70095",943.64777,78.86351,150.73206
"70096",943.6611,78.9099,150.74292
"70097",943.6744,79.05882,150.85777
"70098",943.6877,79.38598,151.15552
"70099",943.701,79.93042,151.68077
"70100",943.7143,80.65797,152.40614
"70101",943.7276,81.47585,153.2446
"70102",943.7409,82.252235,154.06711
"70103",943.7542,82.85039,154.73564
"70104",943.7675,83.18486,155.1592
"70105",943.7808,83.243454,155.31732
"70106",943.7941,83.06767,155.2429
"70107",943.80743,82.7161,154.9872
"70108",943.82074,82.262,154.61798
"70109",943.83405,81.76395,154.19061
"70110",943.84735,81.27322,153.755
"70111",943.86066,80.831314,153.35289
"70112",943.87396,80.45533,153.00288
"70113",943.88727,80.15259,152.71437
"70114",943.9006,79.923096,152.48965
"70115",943.9139,79.76929,152.33344
"70116",943.9272,79.69604,152.25298
"70117",943.9405,79.71557,152.263
"70118",943.9538,79.83765,152.37619
"70119",943.9671,80.042725,152.5762
"70120",943.9804,80.2942,152.82901
"70121",943.9937,80.54566,153.08968
"70122",944.007,80.743416,153.30449
"70123",944.0203,80.850845,153.43515
"70124",944.0336,80.85573,153.46663
"70125",944.04694,80.765396,153.40305
"70126",944.06024,80.59937,153.26094
"70127",944.07355,80.38453,153.06483
"70128",944.08685,80.13794,152.83026
"70129",944.10016,79.886475,152.5831
"70130",944.11346,79.65209,152.34517
"70131",944.1268,79.44457,152.12677
"70132",944.1401,79.26879,151.93362
"70133",944.1534,79.13451,151.77649
"70134",944.1667,79.04173,151.65666
"70135",944.18,78.98558,151.57056
"70136",944.1933,78.95628,151.50955
"70137",944.2066,78.95384,151.47449
"70138",944.2199,78.97337,151.46132
"70139",944.2332,79.012436,151.46829
"70140",944.2465,79.05882,151.48381
"70141",944.2598,79.11009,151.50566
"70142",944.27313,79.166245,151.534
"70143",944.28644,79.21263,151.55432
"70144",944.29974,79.24681,151.56389
"70145",944.31305,79.26635,151.55989
"70146",944.32635,79.273674,151.54428
"70147",944.33966,79.27123,151.51913
"70148",944.35297,79.259026,151.48415
"70149",944.3663,79.24681,151.44878
"70150",944.3796,79.22972,151.40814
"70151",944.3929,79.21019,151.36453
"70152",944.4062,79.18822,151.31787
"70153",944.4195,79.1638,151.26808
"70154",944.4328,79.132065,151.2102
"70155",944.4461,79.097885,151.1489
"70156",944.4594,79.06859,151.0914
"70157",944.4727,79.03685,151.03055
"70158",944.486,79.00755,150.97115
"70159",944.4993,78.9807,150.91327
"70160",944.51263,78.96117,150.86188
"70161",944.52594,78.94896,150.8172
"70162",944.53925,78.96361,150.799
"70163",944.55255,79.046616,150.84961
"70164",944.56586,79.27123,151.04443
"70165",944.57916,79.68871,151.43913
"70166",944.59247,80.30152,152.0422
"70167",944.6058,81.05592,152.80603
"70168",944.6191,81.83475,153.61786
"70169",944.6324,82.50614,154.34659
"70170",944.6457,82.95781,154.87657
"70171",944.659,83.15312,155.16432
"70172",944.6723,83.09697,155.20671
"70173",944.6856,82.84306,155.04959
"70174",944.6989,82.44999,154.74536
"70175",944.7122,81.98123,154.35316
"70176",944.7255,81.48562,153.91946
"70177",944.73883,81.01442,153.49469
"70178",944.75214,80.59693,153.1089
"70179",944.76544,80.2478,152.77843
"70180",944.77875,79.9646,152.50296
"70181",944.79205,79.7522,152.28946
"70182",944.80536,79.62035,152.14987
"70183",944.81866,79.58129,152.09894
"70184",944.832,79.64965,152.1542
"70185",944.8453,79.82788,152.32149
"70186",944.8586,80.08667,152.57489
"70187",944.8719,80.38209,152.87302
"70188",944.8852,80.66041,153.16328
"70189",944.8985,80.867935,153.39145
"70190",944.9118,80.97536,153.526
"70191",944.9251,80.970474,153.5516
"70192",944.9384,80.86549,153.47696
"70193",944.9517,80.67994,153.31845
"70194",944.965,80.445564,153.10533
"70195",944.97833,80.18677,152.86046
"70196",944.99164,79.93042,152.60995
"70197",945.00494,79.69604,152.3734
"70198",945.01825,79.49584,152.1637
"70199",945.03156,79.32983,151.98192
"70200",945.04486,79.20531,151.83646
"70201",945.05817,79.11253,151.71884
"70202",945.0715,79.04906,151.62762
"70203",945.0848,79.012436,151.56128
"70204",945.0981,79.00511,151.52309
"70205",945.1114,79.01976,151.50664
"70206",945.1247,79.05394,151.51018
"70207",945.138,79.10521,151.53188
"70208",945.1513,79.168686,151.56738
"70209",945.1646,79.23216,151.60487
"70210",945.1779,79.293205,151.64192
"70211",945.1912,79.34203,151.66866
"70212",945.2045,79.37621,151.68227
"70213",945.21783,79.3933,151.67986
"70214",945.23114,79.3933,151.66089
"70215",945.24445,79.38598,151.6346
"70216",945.25775,79.37377,151.6032
"70217",945.27106,79.35424,151.56409
"70218",945.28436,79.327385,151.51704
"70219",945.29767,79.29565,151.46428
"70220",945.311,79.26147,151.40808
"70221",945.3243,79.22484,151.34837
"70222",945.3376,79.1931,151.2924
"70223",945.3509,79.1638,151.23788
"70224",945.3642,79.13451,151.18245
"70225",945.3775,79.114975,151.13586
"70226",945.3908,79.132065,151.12529
"70227",945.4041,79.237045,151.20314
"70228",945.4174,79.49584,151.4381
"70229",945.4307,79.94995,151.87645
"70230",945.44403,80.587166,152.5121
"70231",945.45734,81.32693,153.27022
"70232",945.47064,82.05203,154.03679
"70233",945.48395,82.63798,154.68686
"70234",945.49725,82.99199,155.1233
"70235",945.51056,83.089645,155.31447
"70236",945.52386,82.96025,155.28163
"70237",945.5372,82.66239,155.07628
"70238",945.5505,82.25712,154.75421
"70239",945.5638,81.79324,154.36087
"70240",945.5771,81.31228,153.93594
"70241",945.5904,80.848404,153.51308
"70242",945.6037,80.41871,153.1099
"70243",945.617,80.03784,152.74211
"70244",945.6303,79.725334,152.43079
"70245",945.6436,79.49096,152.18782
"70246",945.6569,79.35424,152.03519
"70247",945.6702,79.32983,151.99059
"70248",945.68353,79.432365,152.07217
"70249",945.69684,79.64965,152.27171
"70250",945.71014,79.94995,152.56107
"70251",945.72345,80.274666,152.88422
"70252",945.73676,80.57252,153.19066
"70253",945.75006,80.78737,153.4234
"70254",945.76337,80.89479,153.55544
"70255",945.7767,80.88991,153.57852
"70256",945.79,80.78737,153.5038
"70257",945.8033,80.61402,153.35506
"70258",945.8166,80.39185,153.15208
"70259",945.8299,80.147705,152.92018
"70260",945.8432,79.90845,152.68555
"70261",945.8565,79.68139,152.45563
"70262",945.8698,79.48119,152.24547
"70263",945.8831,79.31518,152.06323
"70264",945.8964,79.18822,151.91487
"70265",945.9097,79.08812,151.7894
"70266",945.92303,79.009995,151.68277
"70267",945.93634,78.96117,151.603
"70268",945.94965,78.93675,151.54611
"70269",945.96295,78.93675,151.51288
"70270",945.97626,78.958725,151.50162
"70271",945.98956,79.00267,151.51302
"70272",946.00287,79.05638,151.53555
"70273",946.0162,79.11742,151.5671
"70274",946.0295,79.168686,151.59077
"70275",946.0428,79.21507,151.61118
"70276",946.0561,79.256584,151.62816
"70277",946.0694,79.28832,151.63666
"70278",946.0827,79.31762,151.6437
"70279",946.096,79.34203,151.64679
"70280",946.1093,79.35424,151.63843
"70281",946.1226,79.35424,151.61824
"70282",946.1359,79.33227,151.57608
"70283",946.14923,79.293205,151.51614
"70284",946.16254,79.259026,151.45987
"70285",946.17584,79.27123,151.44891
"70286",946.18915,79.3933,151.5482
"70287",946.20245,79.691154,151.82709
"70288",946.21576,80.184326,152.31061
"70289",946.22906,80.84352,152.97556
"70290",946.2424,81.583275,153.74167
"70291",946.2557,82.286415,154.4943
"70292",946.269,82.828415,155.10774
"70293",946.2823,83.1458,155.51352
"70294",946.2956,83.22392,155.68996
"70295",946.3089,83.09453,155.66132
"70296",946.3222,82.80156,155.46506
"70297",946.3355,82.41581,155.16685
"70298",946.3488,81.986115,154.81265
"70299",946.3621,81.55398,154.44258
"70300",946.3754,81.143814,154.08098
"70301",946.38873,80.77028,153.7432
"70302",946.40204,80.445564,153.44255
"70303",946.41534,80.181885,153.1928
"70304",946.42865,79.991455,153.00806
"70305",946.44196,79.8938,152.91013
"70306",946.45526,79.91089,152.92389
"70307",946.46857,80.03296,153.04318
"70308",946.4819,80.24536,153.25662
"70309",946.4952,80.50904,153.52797
"70310",946.5085,80.77272,153.80756
"70311",946.5218,80.98024,154.03923
"70312",946.5351,81.09743,154.18706
"70313",946.5484,81.11452,154.23845
"70314",946.5617,81.03883,154.1976
"70315",946.575,80.885025,154.07626
"70316",946.5883,80.672615,153.89151
"70317",946.6016,80.4358,153.67572
"70318",946.6149,80.18677,153.4403
"70319",946.62823,79.94751,153.20688
"70320",946.64154,79.73022,152.98795
"70321",946.65485,79.551994,152.80128
"70322",946.66815,79.412834,152.64812
"70323",946.68146,79.30785,152.52478
"70324",946.69476,79.22972,152.42502
"70325",946.70807,79.17113,152.34235
"70326",946.7214,79.13451,152.27982
"70327",946.7347,79.1223,152.24055
"70328",946.748,79.12962,152.22044
"70329",946.7613,79.15404,152.21765
"70330",946.7746,79.19554,152.23271
"70331",946.7879,79.24193,152.25395
"70332",946.8012,79.28832,152.27666
"70333",946.8145,79.3225,152.28859
"70334",946.8278,79.34203,152.28694
"70335",946.8411,79.34203,152.26637
"70336",946.85443,79.32494,152.22871
"70337",946.86774,79.30053,152.1832
"70338",946.88104,79.27123,152.13203
"70339",946.89435,79.23949,152.07751
"70340",946.90765,79.20775,152.022
"70341",946.92096,79.18089,151.97038
"70342",946.93427,79.18089,151.94478
"70343",946.9476,79.26147,151.99976
"70344",946.9609,79.4934,152.2086
"70345",946.9742,79.91089,152.61026
"70346",946.9875,80.50416,153.20074
"70347",947.0008,81.20485,153.91719
"70348",947.0141,81.8909,154.6409
"70349",947.0274,82.45487,155.26396
"70350",947.0407,82.81621,155.70201
"70351",947.054,82.950485,155.9243
"70352",947.0673,82.88457,155.95059
"70353",947.0806,82.66483,155.821
"70354",947.09393,82.337685,155.57713
"70355",947.10724,81.94705,155.25955
"70356",947.12054,81.53445,154.90779
"70357",947.13385,81.129166,154.55046
"70358",947.14716,80.76051,154.2171
"70359",947.16046,80.43824,153.9186
"70360",947.17377,80.17212,153.66617
"70361",947.1871,79.971924,153.47134
"70362",947.2004,79.86206,153.3606
"70363",947.2137,79.852295,153.34653
"70364",947.227,79.957275,153.4469
"70365",947.2403,80.164795,153.65308
"70366",947.2536,80.43336,153.92679
"70367",947.2669,80.709236,154.21622
"70368",947.2802,80.936295,154.46544
"70369",947.2935,81.077896,154.6363
"70370",947.3068,81.11452,154.70662
"70371",947.3201,81.04372,154.67065
"70372",947.33344,80.885025,154.54459
"70373",947.34674,80.67017,154.35739
"70374",947.36005,80.430916,154.13908
"70375",947.37335,80.181885,153.90352
"70376",947.38666,79.94751,153.67484
"70377",947.39996,79.73998,153.46567
"70378",947.41327,79.55932,153.27687
"70379",947.4266,79.412834,153.11661
"70380",947.4399,79.30053,152.98595
"70381",947.4532,79.22484,152.8884
"70382",947.4665,79.17845,152.81778
"70383",947.4798,79.15892,152.77257
"70384",947.4931,79.15648,152.74384
"70385",947.5064,79.17113,152.73212
"70386",947.5197,79.202866,152.73795
"70387",947.533,79.24193,152.75209
"70388",947.5463,79.28344,152.76991
"70389",947.55963,79.31274,152.77681
"70390",947.57294,79.33227,152.77486
"70391",947.58624,79.33715,152.75887
"70392",947.59955,79.33471,152.7357
"70393",947.61285,79.32006,152.70026
"70394",947.62616,79.29809,152.65703
"70395",947.63947,79.26635,152.60335
"70396",947.6528,79.2224,152.53647
"70397",947.6661,79.17357,152.46333
"70398",947.6794,79.15404,152.41797
"70399",947.6927,79.21507,152.45256
"70400",947.706,79.415276,152.62823
"70401",947.7193,79.7937,152.98839
"70402",947.7326,80.34547,153.5337
"70403",947.7459,81.007095,154.20613
"70404",947.7592,81.67849,154.909
"70405",947.7725,82.252235,155.5352
"70406",947.7858,82.64042,155.99377
"70407",947.79913,82.81621,156.25208
"70408",947.81244,82.78935,156.31323
"70409",947.82574,82.60868,156.21973
"70410",947.83905,82.31571,156.00829
"70411",947.85236,81.9617,155.72664
"70412",947.86566,81.58083,155.40707
"70413",947.87897,81.21217,155.08781
"70414",947.8923,80.87526,154.78879
"70415",947.9056,80.57252,154.5134
"70416",947.9189,80.323494,154.28227
"70417",947.9322,80.14038,154.10927
"70418",947.9455,80.03784,154.01111
"70419",947.9588,80.028076,154.00253
"70420",947.9721,80.11841,154.09375
"70421",947.9854,80.30152,154.28056
"70422",947.9987,80.53834,154.52681
"70423",948.012,80.780045,154.78534
"70424",948.0253,80.98268,155.01236
"70425",948.03864,81.10719,155.16759
"70426",948.05194,81.13893,155.23393
"70427",948.06525,81.075455,155.20605
"70428",948.07855,80.93141,155.09563
"70429",948.09186,80.73121,154.92453
"70430",948.10516,80.49683,154.71301
"70431",948.11847,80.2478,154.4795
"70432",948.1318,80.008545,154.24799
"70433",948.1451,79.7937,154.03342
"70434",948.1584,79.60815,153.84142
"70435",948.1717,79.46166,153.68268
"70436",948.185,79.35424,153.55843
"70437",948.1983,79.281,153.465
"70438",948.2116,79.237045,153.39857
"70439",948.2249,79.22484,153.36252
"70440",948.2382,79.23216,153.34561
"70441",948.2515,79.25414,153.3436
"70442",948.26483,79.28344,153.34958
"70443",948.27814,79.31518,153.35892
"70444",948.29144,79.344475,153.3668
"70445",948.30475,79.36645,153.36829
"70446",948.31805,79.38598,153.36801
"70447",948.33136,79.38842,153.35126
"70448",948.34467,79.378654,153.32237
"70449",948.358,79.34936,153.27365
"70450",948.3713,79.30297,153.20692
"70451",948.3846,79.23949,153.12166
"70452",948.3979,79.168686,153.02708
"70453",948.4112,79.10521,152.93762
"70454",948.4245,79.078354,152.8828
"70455",948.4378,79.14671,152.92235
"70456",948.4511,79.37133,153.1203
"70457",948.4644,79.77905,153.50838
"70458",948.4777,80.34791,154.07033
"70459",948.491,81.01198,154.74527
"70460",948.50433,81.66628,155.4312
"70461",948.51764,82.20096,156.01794
"70462",948.53094,82.545204,156.43097
"70463",948.54425,82.67948,156.64479
"70464",948.55756,82.62333,156.67238
"70465",948.57086,82.41337,156.5444
"70466",948.58417,82.09842,156.30487
"70467",948.5975,81.72976,156.00179
"70468",948.6108,81.339134,155.66522
"70469",948.6241,80.96315,155.33109
"70470",948.6374,80.61646,155.0145
"70471",948.6507,80.31617,154.73347
"70472",948.664,80.07446,154.50165
"70473",948.6773,79.91089,154.3404
"70474",948.6906,79.84009,154.26682
"70475",948.7039,79.88159,154.30331
"70476",948.7172,80.028076,154.4461
"70477",948.7305,80.2478,154.66672
"70478",948.74384,80.499275,154.92593
"70479",948.75714,80.73121,155.17348
"70480",948.77045,80.89723,155.36235
"70481",948.78375,80.97536,155.46852
"70482",948.79706,80.953384,155.47704
"70483",948.81036,80.84596,155.39941
"70484",948.82367,80.672615,155.2525
"70485",948.837,80.45533,155.05624
"70486",948.8503,80.216064,154.8312
"70487",948.8636,79.97681,154.5987
"70488",948.8769,79.75464,154.3758
"70489",948.8902,79.554436,154.16792
"70490",948.9035,79.38354,153.9831
"70491",948.9168,79.2517,153.83199
"70492",948.9301,79.15892,153.71582
"70493",948.9434,79.10033,153.63094
"70494",948.9567,79.07347,153.57596
"70495",948.97003,79.07347,153.547
"70496",948.98334,79.08812,153.53268
"70497",948.99664,79.11253,153.5286
"70498",949.00995,79.13695,153.52527
"70499",949.02325,79.15404,153.51538
"70500",949.03656,79.16136,153.49626
"70501",949.04987,79.151596,153.46028
"70502",949.0632,79.12962,153.41179
"70503",949.0765,79.097885,153.35284
"70504",949.0898,79.061264,153.28802
"70505",949.1031,79.01488,153.2123
"70506",949.1164,78.96117,153.12779
"70507",949.1297,78.89769,153.03185
"70508",949.143,78.83421,152.93391
"70509",949.1563,78.785385,152.84865
"70510",949.1696,78.79027,152.81557
"70511",949.1829,78.90257,152.89006
"70512",949.1962,79.168686,153.12187
"70513",949.20953,79.60815,153.53535
"70514",949.22284,80.19165,154.10661
"70515",949.23615,80.84352,154.76447
"70516",949.24945,81.461205,155.40851
"70517",949.26276,81.94461,155.93758
"70518",949.27606,82.22537,156.27911
"70519",949.28937,82.29374,156.41702
"70520",949.3027,82.18143,156.37639
"70521",949.316,81.934845,156.19798
"70522",949.3293,81.602806,155.9264
"70523",949.3426,81.23659,155.61028
"70524",949.3559,80.86305,155.27539
"70525",949.3692,80.5066,154.9459
"70526",949.3825,80.184326,154.63947
"70527",949.3958,79.91577,154.37668
"70528",949.4091,79.71313,154.1714
"70529",949.4224,79.59838,154.04768
"70530",949.4357,79.58373,154.02048
"70531",949.44904,79.674065,154.0978
"70532",949.46234,79.85474,154.26828
"70533",949.47565,80.093994,154.50299
"70534",949.48895,80.34547,154.7574
"70535",949.50226,80.55543,154.97816
"70536",949.51556,80.68238,155.12248
"70537",949.5289,80.71168,155.17311
"70538",949.5422,80.64088,155.12456
"70539",949.5555,80.48463,154.98834
"70540",949.5688,80.274666,154.79353
"70541",949.5821,80.04028,154.56773
"70542",949.5954,79.79614,154.32486
"70543",949.6087,79.55688,154.07922
"70544",949.622,79.32983,153.83832
"70545",949.6353,79.13451,153.62206
"70546",949.6486,78.98558,153.44608
"70547",949.6619,78.88304,153.31183
"70548",949.67523,78.82933,153.2232
"70549",949.68854,78.819565,153.17685
"70550",949.70184,78.839096,153.15948
"70551",949.71515,78.86595,153.15005
"70552",949.72845,78.90257,153.15123
"70553",949.74176,78.941635,153.15599
"70554",949.75507,78.97826,153.15953
"70555",949.7684,79.01488,153.16422
"70556",949.7817,79.03929,153.15784
"70557",949.795,79.0515,153.14001
"70558",949.8083,79.04906,153.10793
"70559",949.8216,79.029526,153.05867
"70560",949.8349,78.98802,152.98683
"70561",949.8482,78.92943,152.8966
"70562",949.8615,78.86107,152.79478
"70563",949.8748,78.79027,152.68839
"70564",949.8881,78.73655,152.59686
"70565",949.9014,78.72678,152.5476
"70566",949.91473,78.81224,152.59328
"70567",949.92804,79.04906,152.79297
"70568",949.94135,79.45922,153.17342
"70569",949.95465,80.02319,153.72049
"70570",949.96796,80.67506,154.37308
"70571",949.98126,81.31716,155.03629
"70572",949.99457,81.829865,155.59015
"70573",950.0079,82.142365,155.95984
"70574",950.0212,82.24246,156.12689
"70575",950.0345,82.15457,156.10909
"70576",950.0478,81.92996,155.95181
"70577",950.0611,81.619896,155.70206
"70578",950.0744,81.270775,155.40356
"70579",950.0877,80.919205,155.0917
"70580",950.101,80.57984,154.78107
"70581",950.1143,80.26978,154.48914
"70582",950.1276,80.0061,154.23389
"70583",950.1409,79.81323,154.0412
"70584",950.15424,79.7058,153.92793
"70585",950.16754,79.691154,153.90408
"70586",950.18085,79.781494,153.98477
"70587",950.19415,79.95972,154.15616
"70588",950.20746,80.19653,154.39172
"70589",950.22076,80.44068,154.64201
"70590",950.2341,80.64332,154.85843
"70591",950.2474,80.765396,155.00061
"70592",950.2607,80.78737,155.04651
"70593",950.274,80.706795,154.99054
"70594",950.2873,80.54322,154.84906
"70595",950.3006,80.32838,154.6512
"70596",950.3139,80.09155,154.42464
"70597",950.3272,79.852295,154.18823
"70598",950.3405,79.62524,153.95656
"70599",950.3538,79.4226,153.7422
"70600",950.3671,79.25414,153.5557
"70601",950.38043,79.1223,153.40054
"70602",950.39374,79.02464,153.27545
"70603",950.40704,78.958725,153.17905
"70604",950.42035,78.922104,153.10988
"70605",950.43365,78.90013,153.05421
"70606",950.44696,78.90013,153.01984
"70607",950.46027,78.91966,153.00499
"70608",950.4736,78.94652,152.99808
"70609",950.4869,78.98558,153.00421
"70610",950.5002,79.02464,153.01157
"70611",950.5135,79.05638,153.01282
"70612",950.5268,79.07347,153.00041
"70613",950.5401,79.07347,152.97145
"70614",950.5534,79.0515,152.92052
"70615",950.5667,79.009995,152.84937
"70616",950.58,78.95384,152.76227
"70617",950.5933,78.89281,152.66853
"70618",950.6066,78.8513,152.59242
"70619",950.61993,78.87572,152.58093
"70620",950.63324,79.0222,152.69228
"70621",950.64655,79.33471,152.97423
"70622",950.65985,79.82056,153.43929
"70623",950.67316,80.430916,154.04404
"70624",950.68646,81.07301,154.6996
"70625",950.69977,81.64675,155.30687
"70626",950.7131,82.054474,155.76605
"70627",950.7264,82.247345,156.02313
"70628",950.7397,82.23514,156.08116
"70629",950.753,82.06668,155.98256
"70630",950.7663,81.78836,155.76883
"70631",950.7796,81.45388,155.49023
"70632",950.7929,81.10719,155.18898
"70633",950.8062,80.77272,154.88911
"70634",950.8195,80.45777,154.59831
"70635",950.8328,80.16968,154.32452
"70636",950.8461,79.91821,154.07837
"70637",950.85944,79.73022,153.88782
"70638",950.87274,79.62768,153.77684
"70639",950.88605,79.635,153.77252
"70640",950.89935,79.74731,153.87341
"70641",950.91266,79.95239,154.0706
"70642",950.92596,80.20386,154.32059
"70643",950.9393,80.448006,154.5711
"70644",950.9526,80.638435,154.77554
"70645",950.9659,80.74586,154.90292
"70646",950.9792,80.75563,154.936
"70647",950.9925,80.67506,154.87904
"70648",951.0058,80.52613,154.75122
"70649",951.0191,80.33326,154.5748
"70650",951.0324,80.12085,154.3728
"70651",951.0457,79.903564,154.1593
"70652",951.059,79.691154,153.94388
"70653",951.0723,79.49584,153.7389
"70654",951.08563,79.327385,153.55469
"70655",951.09894,79.19554,153.40182
"70656",951.11224,79.097885,153.27902
"70657",951.12555,79.03441,153.18735
"70658",951.13885,78.995346,153.1181
"70659",951.15216,78.975815,153.06717
"70660",951.16547,78.97337,153.03271
"70661",951.1788,78.9807,153.00795
"70662",951.1921,78.99779,152.99318
"70663",951.2054,79.0222,152.98627
"70664",951.2187,79.04173,152.97523
"70665",951.232,79.046616,152.95016
"70666",951.2453,79.03441,152.90816
"70667",951.2586,79.00023,152.8438
"70668",951.2719,78.95384,152.76616
"70669",951.2852,78.91478,152.6944
"70670",951.2985,78.91722,152.66292
"70671",951.3118,79.027084,152.73894
"70672",951.32513,79.293205,152.97466
"70673",951.33844,79.727776,153.38713
"70674",951.35175,80.30152,153.95236
"70675",951.36505,80.936295,154.59656
"70676",951.37836,81.529564,155.21909
"70677",951.39166,81.988556,155.72588
"70678",951.40497,82.24979,156.04926
"70679",951.4183,82.31083,156.1806
"70680",951.4316,82.193634,156.13562
"70681",951.4449,81.94949,155.96004
"70682",951.4582,81.62722,155.69868
"70683",951.4715,81.2781,155.40042
"70684",951.4848,80.94362,155.10588
"70685",951.4981,80.64088,154.83263
"70686",951.5114,80.377205,154.58899
"70687",951.5247,80.15503,154.3786
"70688",951.538,79.98413,154.21255
"70689",951.55133,79.886475,154.11441
"70690",951.56464,79.88159,154.10599
"70691",951.57794,79.98169,154.2024
"70692",951.59125,80.17212,154.39224
"70693",951.60455,80.42115,154.64665
"70694",951.61786,80.67506,154.91373
"70695",951.63116,80.89235,155.15211
"70696",951.6445,81.03395,155.32161
"70697",951.6578,81.08278,155.40276
"70698",951.6711,81.03395,155.38777
"70699",951.6844,80.902115,155.28825
"70700",951.6977,80.70191,155.11624
"70701",951.711,80.465096,154.90137
"70702",951.7243,80.218506,154.66931
"70703",951.7376,79.98169,154.43933
"70704",951.7509,79.766846,154.2239
"70705",951.7642,79.58373,154.03351
"70706",951.7775,79.43969,153.87645
"70707",951.79083,79.33959,153.75883
"70708",951.80414,79.276115,153.67471
"70709",951.81744,79.24681,153.62279
"70710",951.83075,79.24681,153.59924
"70711",951.84406,79.259026,153.58792
"70712",951.85736,79.273674,153.5794
"70713",951.87067,79.28344,153.56647
"70714",951.884,79.28832,153.54895
"70715",951.8973,79.28832,153.5267
"70716",951.9106,79.273674,153.4898
"70717",951.9239,79.2517,153.44513
"70718",951.9372,79.23949,153.40953
"70719",951.9505,79.26391,153.41019
"70720",951.9638,79.38598,153.50925
"70721",951.9771,79.656975,153.76105
"70722",951.9904,80.096436,154.18979
"70723",952.0037,80.68238,154.77875
"70724",952.017,81.33669,155.45439
"70725",952.03033,81.95682,156.11629
"70726",952.04364,82.442665,156.66328
"70727",952.05695,82.73075,157.02771
"70728",952.07025,82.811325,157.19362
"70729",952.08356,82.71122,157.18137
"70730",952.09686,82.46952,157.0244
"70731",952.11017,82.13748,156.76953
"70732",952.1235,81.77127,156.47012
"70733",952.1368,81.40261,156.15681
"70734",952.1501,81.058365,155.8564
"70735",952.1634,80.75563,155.58675
"70736",952.1767,80.49683,155.35156
"70737",952.19,80.2942,155.16446
"70738",952.2033,80.15747,155.03693
"70739",952.2166,80.10132,154.98569
"70740",952.2299,80.13794,155.02548
"70741",952.2432,80.26002,155.15187
"70742",952.25653,80.445564,155.34555
"70743",952.26984,80.65064,155.56456
"70744",952.28314,80.84108,155.77533
"70745",952.29645,80.97536,155.9359
"70746",952.30975,81.02907,156.0201
"70747",952.32306,80.987564,156.01076
"70748",952.33636,80.85573,155.90979
"70749",952.3497,80.64576,155.72656
"70750",952.363,80.37965,155.48064
"70751",952.3763,80.093994,155.20685
"70752",952.3896,79.818115,154.9339
"70753",952.4029,79.57641,154.68651
"70754",952.4162,79.378654,154.47551
"70755",952.4295,79.23216,154.3096
"70756",952.4428,79.132065,154.1855
"70757",952.4561,79.07347,154.09978
"70758",952.4694,79.04906,154.0464
"70759",952.4827,79.046616,154.01424
"70760",952.49603,79.063705,154.00153
"70761",952.50934,79.09544,154.004
"70762",952.52264,79.132065,154.01234
"70763",952.53595,79.15404,154.00719
"70764",952.54926,79.15892,153.98563
"70765",952.56256,79.13939,153.9398
"70766",952.57587,79.10033,153.87384
"70767",952.5892,79.05882,153.80421
"70768",952.6025,79.05638,153.77235
"70769",952.6158,79.15404,153.84052
"70770",952.6291,79.40795,154.068
"70771",952.6424,79.83765,154.47919
"70772",952.6557,80.41627,155.05273
"70773",952.669,81.077896,155.72737
"70774",952.6823,81.71511,156.39827
"70775",952.6956,82.230255,156.96701
"70776",952.7089,82.562294,157.36874
"70777",952.7222,82.69169,157.57822
"70778",952.73553,82.64042,157.61107
"70779",952.74884,82.44999,157.50316
"70780",952.76215,82.16922,157.29895
"70781",952.77545,81.846954,157.04448
"70782",952.78876,81.52224,156.77748
"70783",952.80206,81.22682,156.52963
"70784",952.81537,80.970474,156.31163
"70785",952.8287,80.75563,156.12712
"70786",952.842,80.59205,155.98715
"70787",952.8553,80.48463,155.89824
"70788",952.8686,80.445564,155.87433
"70789",952.8819,80.47486,155.91756
"70790",952.8952,80.57496,156.0325
"70791",952.9085,80.73121,156.20673
"70792",952.9218,80.90456,156.40292
"70793",952.9351,81.06325,156.58989
"70794",952.9484,81.16823,156.7281
"70795",952.96173,81.20241,156.7988
"70796",952.97504,81.15358,156.78755
"70797",952.98834,81.02174,156.69177
"70798",953.00165,80.82399,156.52596
"70799",953.01495,80.57252,156.30023
"70800",953.02826,80.291756,156.03737
"70801",953.04156,80.00122,155.75595
"70802",953.0549,79.73266,155.48743
"70803",953.0682,79.49828,155.24469
"70804",953.0815,79.310295,155.04102
"70805",953.0948,79.17357,154.88274
"70806",953.1081,79.08324,154.76657
"70807",953.1214,79.0222,154.67688
"70808",953.1347,78.99046,154.61458
"70809",953.148,78.975815,154.56837
"70810",953.1613,78.97337,154.53392
"70811",953.1746,78.97337,154.50183
"70812",953.1879,78.96605,154.46242
"70813",953.20123,78.94408,154.40813
"70814",953.21454,78.90257,154.33362
"70815",953.22784,78.839096,154.23584
"70816",953.24115,78.75609,154.11655
"70817",953.25446,78.65598,153.97757
"70818",953.26776,78.54856,153.82814
"70819",953.28107,78.467995,153.70221
"70820",953.2944,78.46311,153.64944
"70821",953.3077,78.60471,153.74301
"70822",953.321,78.93919,154.03389
"70823",953.3343,79.46899,154.53053
"70824",953.3476,80.147705,155.19266
"70825",953.3609,80.87282,155.9224
"70826",953.3742,81.52224,156.59909
"70827",953.3875,81.99344,157.11786
"70828",953.4008,82.24002,157.42674
"70829",953.4141,82.262,157.51872
"70830",953.4274,82.10086,157.42827
"70831",953.44073,81.81766,157.21072
"70832",953.45404,81.47585,156.92572
"70833",953.46735,81.129166,156.62515
"70834",953.48065,80.814224,156.3455
"70835",953.49396,80.54322,156.09995
"70836",953.50726,80.32105,155.89476
"70837",953.52057,80.14038,155.72412
"70838",953.5339,80.00366,155.5918
"70839",953.5472,79.920654,155.50891
"70840",953.5605,79.903564,155.48935
"70841",953.5738,79.96216,155.54492
"70842",953.5871,80.093994,155.67557
"70843",953.6004,80.27711,155.86162
"70844",953.6137,80.46754,156.06071
"70845",953.627,80.62379,156.23158
"70846",953.6403,80.71412,156.34142
"70847",953.6536,80.719,156.36862
"70848",953.66693,80.635994,156.30809
"70849",953.68024,80.479744,156.17172
"70850",953.69354,80.26734,155.97432
"70851",953.70685,80.01831,155.73364
"70852",953.72015,79.75952,155.47543
"70853",953.73346,79.50317,155.21156
"70854",953.74677,79.26391,154.95677
"70855",953.7601,79.061264,154.73112
"70856",953.7734,78.90013,154.54065
"70857",953.7867,78.78294,154.38908
"70858",953.8,78.712135,154.28024
"70859",953.8133,78.677956,154.20581
"70860",953.8266,78.67063,154.15717
"70861",953.8399,78.677956,154.12294
"70862",953.8532,78.68528,154.08894
"70863",953.8665,78.68528,154.04785
"70864",953.8798,78.67307,153.99455
"70865",953.8931,78.64866,153.92867
"70866",953.90643,78.61448,153.85225
"70867",953.91974,78.572975,153.76744
"70868",953.93304,78.521706,153.67157
"70869",953.94635,78.46067,153.56433
"70870",953.95966,78.38987,153.44542
"70871",953.97296,78.30686,153.31209
"70872",953.98627,78.21896,153.17128
"70873",953.9996,78.12863,153.02528
"70874",954.0129,78.04318,152.88135
"70875",954.0262,77.9675,152.7445
"70876",954.0395,77.89914,152.61263
"70877",954.0528,77.83566,152.48349
"70878",954.0661,77.769745,152.34993
"70879",954.0794,77.70382,152.21431
"70880",954.0927,77.645226,152.08395
"70881",954.106,77.64034,152.00548
"70882",954.1193,77.76486,152.05626
"70883",954.1326,78.08713,152.30867
"70884",954.14594,78.64622,152.80798
"70885",954.15924,79.40551,153.52496
"70886",954.17255,80.27711,154.37798
"70887",954.18585,81.12428,155.23381
"70888",954.19916,81.815216,155.95988
"70889",954.21246,82.25956,156.46095
"70890",954.22577,82.44755,156.71956
"70891",954.2391,82.4036,156.7521
"70892",954.2524,82.176544,156.60016
"70893",954.2657,81.83475,156.32639
"70894",954.279,81.44167,155.99065
"70895",954.2923,81.04372,155.63774
"70896",954.3056,80.67506,155.3017
"70897",954.3189,80.365,155.01274
"70898",954.3322,80.1062,154.76535
"70899",954.3455,79.90112,154.5636
"70900",954.3588,79.744865,154.40425
"70901",954.37213,79.65453,154.30594
"70902",954.38544,79.63744,154.27805
"70903",954.39874,79.7058,154.33507
"70904",954.41205,79.84741,154.46748
"70905",954.42535,80.03784,154.65314
"70906",954.43866,80.233154,154.84964
"70907",954.45197,80.396736,155.02051
"70908",954.4653,80.49439,155.13057
"70909",954.4786,80.50904,155.16068
"70910",954.4919,80.430916,155.09846
"70911",954.5052,80.272224,154.95325
"70912",954.5185,80.042725,154.73225
"70913",954.5318,79.77417,154.46503
"70914",954.5451,79.483635,154.16743
"70915",954.5584,79.202866,153.87053
"70916",954.5717,78.96117,153.60391
"70917",954.585,78.76341,153.37369
"70918",954.5983,78.61692,153.18855
"70919",954.61163,78.521706,153.05011
"70920",954.62494,78.470436,152.95264
"70921",954.63824,78.45335,152.88774
"70922",954.65155,78.467995,152.85405
"70923",954.66486,78.502174,152.84035
"70924",954.67816,78.54612,152.83748
"70925",954.69147,78.59251,152.83842
"70926",954.7048,78.63157,152.8335
"70927",954.7181,78.65354,152.8127
"70928",954.7314,78.6511,152.76817
"70929",954.7447,78.626686,152.7016
"70930",954.758,78.58274,152.61473
"70931",954.7713,78.51682,152.50452
"70932",954.7846,78.44114,152.38248
"70933",954.7979,78.36057,152.25319
"70934",954.8112,78.28489,152.12627
"70935",954.8245,78.221405,152.00919
"70936",954.8378,78.167694,151.89989
"70937",954.85114,78.12619,151.80112
"70938",954.86444,78.09445,151.71082
"70939",954.87775,78.07004,151.62685
"70940",954.89105,78.05295,151.54944
"70941",954.90436,78.0383,151.47394
"70942",954.91766,78.02609,151.40042
"70943",954.93097,78.01877,151.3314
"70944",954.9443,78.01633,151.26704
"70945",954.9576,78.009,151.19772
"70946",954.9709,77.994354,151.12085
"70947",954.9842,77.977264,151.04108
"70948",954.9975,77.95285,150.95345
"70949",955.0108,77.925995,150.86261
"70950",955.0241,77.93576,150.80756
"70951",955.0374,78.05783,150.86511
"70952",955.0507,78.3679,151.11449
"70953",955.064,78.90013,151.59572
"70954",955.07733,79.63744,152.29866
"70955",955.09064,80.49683,153.14671
"70956",955.10394,81.33181,153.99722
"70957",955.11725,82.01541,154.72244
"70958",955.13055,82.45487,155.22488
"70959",955.14386,82.62577,155.4725
"70960",955.15717,82.547646,155.47644
"70961",955.1705,82.286415,155.29483
"70962",955.1838,81.90555,154.98541
"70963",955.1971,81.47097,154.61038
"70964",955.2104,81.04372,154.2291
"70965",955.2237,80.67017,153.88817
"70966",955.237,80.36744,153.60638
"70967",955.2503,80.128174,153.3786
"70968",955.2636,79.94263,153.19705
"70969",955.2769,79.80835,153.06097
"70970",955.2902,79.725334,152.97197
"70971",955.3035,79.7058,152.94385
"70972",955.31683,79.75464,152.98349
"70973",955.33014,79.871826,153.09302
"70974",955.34344,80.03052,153.24771
"70975",955.35675,80.198975,153.41711
"70976",955.37006,80.3357,153.56006
"70977",955.38336,80.41871,153.65356
"70978",955.39667,80.430916,153.67886
"70979",955.41,80.360115,153.62154
"70980",955.4233,80.216064,153.48874
"70981",955.4366,80.008545,153.28796
"70982",955.4499,79.75952,153.03922
"70983",955.4632,79.4934,152.76558
"70984",955.4765,79.23949,152.49583
"70985",955.4898,79.01976,152.25233
"70986",955.5031,78.84154,152.04347
"70987",955.5164,78.70481,151.87054
"70988",955.5297,78.61448,151.73973
"70989",955.543,78.56321,151.64516
"70990",955.55634,78.54612,151.58316
"70991",955.56964,78.57053,151.56213
"70992",955.58295,78.62913,151.57605
"70993",955.59625,78.71458,151.61865
"70994",955.60956,78.80492,151.66882
"70995",955.62286,78.890366,151.71692
"70996",955.63617,78.95628,151.74815
"70997",955.6495,78.995346,151.7546
"70998",955.6628,79.00023,151.72807
"70999",955.6761,78.9807,151.67729
"71000",955.6894,78.94408,151.60881
"71001",955.7027,78.89281,151.52454
"71002",955.716,78.82689,151.42401
"71003",955.7293,78.75365,151.3141
"71004",955.7426,78.675514,151.19702
"71005",955.7559,78.59983,151.07994
"71006",955.7692,78.53391,150.97026
"71007",955.78253,78.487526,150.87805
"71008",955.79584,78.46067,150.80392
"71009",955.80914,78.45335,150.74849
"71010",955.82245,78.46311,150.70992
"71011",955.83575,78.48997,150.68874
"71012",955.84906,78.53147,150.68304
"71013",955.86237,78.57542,150.68109
"71014",955.8757,78.6218,150.68295
"71015",955.889,78.66331,150.68138
"71016",955.9023,78.695045,150.67134
"71017",955.9156,78.712135,150.64764
"71018",955.9289,78.709694,150.60495
"71019",955.9422,78.70237,150.5573
"71020",955.9555,78.729225,150.5436
"71021",955.9688,78.856186,150.63084
"71022",955.9821,79.166245,150.90515
"71023",955.9954,79.70336,151.41621
"71024",956.0087,80.45533,152.1589
"71025",956.02203,81.32693,153.04474
"71026",956.03534,82.18631,153.94559
"71027",956.04865,82.899216,154.72682
"71028",956.06195,83.370415,155.28862
"71029",956.07526,83.56573,155.58926
"71030",956.08856,83.51202,155.64699
"71031",956.10187,83.27276,155.51749
"71032",956.1152,82.90654,155.25354
"71033",956.1285,82.476845,154.91467
"71034",956.1418,82.037384,154.55261
"71035",956.1551,81.6321,154.211
"71036",956.1684,81.29275,153.92265
"71037",956.1817,81.02663,153.69693
"71038",956.195,80.833755,153.53615
"71039",956.2083,80.70191,153.43036
"71040",956.2216,80.62867,153.37906
"71041",956.2349,80.6067,153.37674
"71042",956.2482,80.62867,153.41768
"71043",956.26154,80.689705,153.49837
"71044",956.27484,80.782486,153.6127
"71045",956.28815,80.8777,153.73238
"71046",956.30145,80.9485,153.83061
"71047",956.31476,80.970474,153.88223
"71048",956.32806,80.936295,153.87839
"71049",956.3414,80.831314,153.80267
"71050",956.3547,80.66285,153.66019
"71051",956.368,80.448006,153.46606
"71052",956.3813,80.201416,153.23347
"71053",956.3946,79.94263,152.98099
"71054",956.4079,79.693596,152.73016
"71055",956.4212,79.4641,152.49109
"71056",956.4345,79.26391,152.27414
"71057",956.4478,79.10033,152.08755
"71058",956.4611,78.98558,151.94469
"71059",956.4744,78.91234,151.83974
"71060",956.48773,78.87572,151.76912
"71061",956.50104,78.86595,151.72421
"71062",956.51434,78.8806,151.70341
"71063",956.52765,78.90013,151.68796
"71064",956.54095,78.92943,151.68288
"71065",956.55426,78.96361,151.6836
"71066",956.56757,78.992905,151.6805
"71067",956.5809,79.012436,151.66855
"71068",956.5942,79.01732,151.64256
"71069",956.6075,79.00511,151.59964
"71070",956.6208,78.975815,151.53925
"71071",956.6341,78.92943,151.46085
"71072",956.6474,78.86351,151.36147
"71073",956.6607,78.77074,151.23317
"71074",956.674,78.65598,151.08
"71075",956.6873,78.52659,150.9086
"71076",956.7006,78.40696,150.74292
"71077",956.7139,78.3093,150.59547
"71078",956.72723,78.24826,150.4816
"71079",956.74054,78.22385,150.40244
"71080",956.75385,78.22873,150.3518
"71081",956.76715,78.24826,150.31598
"71082",956.78046,78.27024,150.28322
"71083",956.79376,78.2971,150.25601
"71084",956.80707,78.32395,150.22964
"71085",956.8204,78.35081,150.20412
"71086",956.8337,78.3679,150.16966
"71087",956.847,78.37766,150.12842
"71088",956.8603,78.37522,150.07527
"71089",956.8736,78.37278,150.02205
"71090",956.8869,78.37766,149.97607
"71091",956.9002,78.433815,149.98152
"71092",956.9135,78.6096,150.10835
"71093",956.9268,78.975815,150.43112
"71094",956.9401,79.55932,150.98262
"71095",956.9534,80.32838,151.7379
"71096",956.96674,81.1902,152.60999
"71097",956.98004,82.01297,153.46996
"71098",956.99335,82.66239,154.18228
"71099",957.00665,83.055466,154.65855
"71100",957.01996,83.177536,154.87611
"71101",957.03326,83.06767,154.86555
"71102",957.0466,82.78447,154.67822
"71103",957.0599,82.391396,154.37216
"71104",957.0732,81.95926,154.01476
"71105",957.0865,81.53933,153.65605
"71106",957.0998,81.17067,153.3355
"71107",957.1131,80.87526,153.07668
"71108",957.1264,80.65308,152.88185
"71109",957.1397,80.48951,152.7387
"71110",957.153,80.37965,152.64413
"71111",957.1663,80.31861,152.59497
"71112",957.1796,80.308846,152.59517
"71113",957.19293,80.35767,152.65366
"71114",957.20624,80.462654,152.76982
"71115",957.21954,80.6067,152.92833
"71116",957.23285,80.75319,153.09378
"71117",957.24615,80.87282,153.23695
"71118",957.25946,80.938736,153.33015
"71119",957.27277,80.93385,153.35461
"71120",957.2861,80.850845,153.3008
"71121",957.2994,80.70191,153.17845
"71122",957.3127,80.50416,153.00264
"71123",957.326,80.274666,152.78891
"71124",957.3393,80.03296,152.55579
"71125",957.3526,79.80591,152.32977
"71126",957.3659,79.60082,152.11862
"71127",957.3792,79.429924,151.93524
"71128",957.3925,79.29565,151.78314
"71129",957.4058,79.19798,151.66347
"71130",957.4191,79.132065,151.57248
"71131",957.43243,79.093,151.50629
"71132",957.44574,79.07347,151.4584
"71133",957.45905,79.07103,151.427
"71134",957.47235,79.078354,151.40529
"71135",957.48566,79.09544,151.39357
"71136",957.49896,79.11986,151.38971
"71137",957.51227,79.14671,151.38905
"71138",957.5256,79.17357,151.38924
"71139",957.5389,79.19066,151.3805
"71140",957.5522,79.19066,151.3552
"71141",957.5655,79.17845,151.31769
"71142",957.5788,79.16136,151.27492
"71143",957.5921,79.13695,151.22429
"71144",957.6054,79.10765,151.16801
"71145",957.6187,79.078354,151.11082
"71146",957.632,79.05394,151.0576
"71147",957.6453,79.02464,150.99873
"71148",957.6586,78.992905,150.93651
"71149",957.67194,78.96361,150.87573
"71150",957.68524,78.941635,150.82137
"71151",957.69855,78.91966,150.76631
"71152",957.71185,78.905014,150.7179
"71153",957.72516,78.89525,150.6739
"71154",957.73846,78.890366,150.63449
"71155",957.7518,78.887924,150.59737
"71156",957.7651,78.89281,150.56749
"71157",957.7784,78.89769,150.53777
"71158",957.7917,78.905014,150.51064
"71159",957.805,78.9099,150.4813
"71160",957.8183,78.91722,150.45454
"71161",957.8316,78.95384,150.45732
"71162",957.8449,79.078354,150.54913
"71163",957.8582,79.36889,150.81087
"71164",957.8715,79.87427,151.29652
"71165",957.8848,80.58228,152.00061
"71166",957.89813,81.409935,152.84647
"71167",957.91144,82.24246,153.72305
"71168",957.92474,82.93584,154.48651
"71169",957.93805,83.389946,155.03236
"71170",957.95135,83.57305,155.32141
"71171",957.96466,83.5169,155.37692
"71172",957.97797,83.26299,155.23293
"71173",957.9913,82.87724,154.94914
"71174",958.0046,82.41581,154.57762
"71175",958.0179,81.92752,154.16483
"71176",958.0312,81.45144,153.74898
"71177",958.0445,81.01686,153.35976
"71178",958.0578,80.63355,153.00822
"71179",958.0711,80.31129,152.70576
"71180",958.0844,80.05737,152.46158
"71181",958.0977,79.88159,152.2876
"71182",958.111,79.80591,152.20822
"71183",958.1243,79.83276,152.229
"71184",958.13763,79.971924,152.36295
"71185",958.15094,80.19653,152.58667
"71186",958.16425,80.45777,152.85405
"71187",958.17755,80.70191,153.1125
"71188",958.19086,80.88258,153.31511
"71189",958.20416,80.96803,153.42815
"71190",958.21747,80.9485,153.43887
"71191",958.2308,80.831314,153.35133
"71192",958.2441,80.635994,153.18199
"71193",958.2574,80.38941,152.95529
"71194",958.2707,80.11841,152.69646
"71195",958.284,79.84497,152.42673
"71196",958.2973,79.5935,152.17041
"71197",958.3106,79.378654,151.94286
"71198",958.3239,79.20775,151.75253
"71199",958.3372,79.078354,151.59837
"71200",958.3505,78.98558,151.47679
"71201",958.36383,78.924545,151.38405
"71202",958.37714,78.887924,151.31381
"71203",958.39044,78.87816,151.26929
"71204",958.40375,78.89769,151.25375
"71205",958.41705,78.94408,151.26569
"71206",958.43036,79.00023,151.28883
"71207",958.44366,79.06615,151.3235
"71208",958.457,79.12962,151.35779
"71209",958.4703,79.18089,151.38185
"71210",958.4836,79.217514,151.39287
"71211",958.4969,79.23949,151.39038
"71212",958.5102,79.24681,151.37393
"71213",958.5235,79.24193,151.3455
"71214",958.5368,79.22484,151.30472
"71215",958.5501,79.19554,151.25119
"71216",958.5634,79.15892,151.18942
"71217",958.5767,79.114975,151.11919
"71218",958.59,79.07591,151.05246
"71219",958.60333,79.03685,150.98451
"71220",958.61664,79.00511,150.92267
"71221",958.62994,78.98802,150.87448
"71222",958.64325,78.98314,150.83797
"71223",958.65656,78.975815,150.79886
"71224",958.66986,78.96361,150.75464
"71225",958.68317,78.94652,150.70515
"71226",958.6965,78.922104,150.64781
"71227",958.7098,78.88304,150.57506
"71228",958.7231,78.84642,150.50352
"71229",958.7364,78.81224,150.43329
"71230",958.7497,78.81712,150.40105
"71231",958.763,78.907455,150.4544
"71232",958.7763,79.15648,150.66928
"71233",958.7896,79.605705,151.09215
"71234",958.8029,80.2478,151.72192
"71235",958.8162,81.007095,152.48895
"71236",958.8295,81.77371,153.28705
"71237",958.84283,82.406044,153.97481
"71238",958.85614,82.81377,154.45772
"71239",958.86945,82.967575,154.69946
"71240",958.88275,82.88945,154.71408
"71241",958.89606,82.63798,154.5529
"71242",958.90936,82.27421,154.27158
"71243",958.92267,81.85184,153.92027
"71244",958.936,81.41726,153.54356
"71245",958.9493,81.007095,153.17769
"71246",958.9626,80.635994,152.83806
"71247",958.9759,80.31129,152.53323
"71248",958.9892,80.04028,152.27196
"71249",959.0025,79.82788,152.06082
"71250",959.0158,79.68871,151.91628
"71251",959.0291,79.64233,151.86015
"71252",959.0424,79.708244,151.91489
"71253",959.0557,79.888916,152.08644
"71254",959.06903,80.15503,152.34909
"71255",959.08234,80.46021,152.65912
"71256",959.09564,80.75563,152.96892
"71257",959.10895,80.987564,153.22447
"71258",959.12225,81.1194,153.38718
"71259",959.13556,81.13893,153.4417
"71260",959.14886,81.05348,153.39185
"71261",959.1622,80.87526,153.24655
"71262",959.1755,80.64088,153.03952
"71263",959.1888,80.37965,152.79832
"71264",959.2021,80.11841,152.54895
"71265",959.2154,79.871826,152.30606
"71266",959.2287,79.656975,152.0872
"71267",959.242,79.47143,151.89093
"71268",959.2553,79.31518,151.71815
"71269",959.2686,79.185776,151.56735
"71270",959.2819,79.08568,151.4418
"71271",959.2952,79.01732,151.34486
"71272",959.30853,78.9807,151.27753
"71273",959.32184,78.975815,151.24078
"71274",959.33514,78.99779,151.23074
"71275",959.34845,79.03685,151.23848
"71276",959.36176,79.093,151.26453
"71277",959.37506,79.15892,151.3021
"71278",959.38837,79.22728,151.34416
"71279",959.4017,79.28588,151.37862
"71280",959.415,79.327385,151.3978
"71281",959.4283,79.34692,151.3963
"71282",959.4416,79.33959,151.36856
"71283",959.4549,79.31762,151.32594
"71284",959.4682,79.28588,151.27287
"71285",959.4815,79.259026,151.2237
"71286",959.4948,79.22972,151.17123
"71287",959.5081,79.20775,151.12518
"71288",959.5214,79.185776,151.07845
"71289",959.5347,79.1638,151.03102
"71290",959.54803,79.14671,150.9878
"71291",959.56134,79.12962,150.94403
"71292",959.57465,79.11009,150.8973
"71293",959.58795,79.09056,150.84995
"71294",959.60126,79.06615,150.7971
"71295",959.61456,79.03929,150.74106
"71296",959.62787,79.009995,150.68173
"71297",959.6412,78.995346,150.63614
"71298",959.6545,79.03929,150.64868
"71299",959.6678,79.21263,150.79199
"71300",959.6811,79.586174,151.14093
"71301",959.6944,80.181885,151.72371
"71302",959.7077,80.9485,152.496
"71303",959.721,81.78836,153.36551
"71304",959.7343,82.562294,154.19533
"71305",959.7476,83.14824,154.86134
"71306",959.7609,83.48028,155.29176
"71307",959.77423,83.5584,155.47865
"71308",959.78754,83.41924,155.4507
"71309",959.80084,83.12627,155.26457
"71310",959.81415,82.72831,154.96431
"71311",959.82745,82.27665,154.59792
"71312",959.84076,81.815216,154.20763
"71313",959.85406,81.38308,153.83221
"71314",959.8674,80.99977,153.49213
"71315",959.8807,80.67506,153.19865
"71316",959.894,80.411385,152.95609
"71317",959.9073,80.20874,152.7663
"71318",959.9206,80.08667,152.65076
"71319",959.9339,80.05249,152.6193
"71320",959.9472,80.12085,152.6893
"71321",959.9605,80.291756,152.86398
"71322",959.9738,80.54566,153.12701
"71323",959.9871,80.82643,153.42484
"71324",960.0004,81.08522,153.70946
"71325",960.01373,81.27566,153.9338
"71326",960.02704,81.36843,154.06645
"71327",960.04034,81.3489,154.08969
"71328",960.05365,81.22926,154.0122
"71329",960.06696,81.03151,153.85287
"71330",960.08026,80.79225,153.64586
"71331",960.09357,80.53834,153.4167
"71332",960.1069,80.291756,153.18695
"71333",960.1202,80.06958,152.97389
"71334",960.1335,79.87427,152.78076
"71335",960.1468,79.708244,152.61081
"71336",960.1601,79.569084,152.46252
"71337",960.1734,79.45434,152.3343
"71338",960.1867,79.36645,152.22935
"71339",960.2,79.30297,152.14607
"71340",960.2133,79.26635,152.08766
"71341",960.2266,79.256584,152.05496
"71342",960.2399,79.27123,152.04637
"71343",960.25323,79.310295,152.06265
"71344",960.26654,79.35912,152.08992
"71345",960.27985,79.41772,152.12848
"71346",960.29315,79.47387,152.16643
"71347",960.30646,79.520256,152.19637
"71348",960.31976,79.54711,152.20822
"71349",960.33307,79.55688,152.20383
"71350",960.3464,79.54467,152.17776
"71351",960.3597,79.51537,152.13423
"71352",960.373,79.466545,152.07025
"71353",960.3863,79.40307,151.9901
"71354",960.3996,79.327385,151.89575
"71355",960.4129,79.24193,151.78928
"71356",960.4262,79.15648,151.68013
"71357",960.4395,79.07591,151.5732
"71358",960.4528,78.99779,151.46619
"71359",960.4661,78.924545,151.36162
"71360",960.47943,78.856186,151.25964
"71361",960.49274,78.80492,151.17262
"71362",960.50604,78.785385,151.11574
"71363",960.51935,78.8513,151.14369
"71364",960.53265,79.06615,151.32263
"71365",960.54596,79.48119,151.7085
"71366",960.55927,80.1062,152.31729
"71367",960.5726,80.88014,153.09454
"71368",960.5859,81.69558,153.93748
"71369",960.5992,82.42802,154.72292
"71370",960.6125,82.96025,155.33102
"71371",960.6258,83.24101,155.7043
"71372",960.6391,83.27764,155.84221
"71373",960.6524,83.1165,155.7835
"71374",960.6657,82.81377,155.57816
"71375",960.679,82.425575,155.2779
"71376",960.6923,82.00076,154.92888
"71377",960.7056,81.57839,154.56903
"71378",960.71893,81.18288,154.22284
"71379",960.73224,80.82399,153.90092
"71380",960.74554,80.516365,153.61905
"71381",960.75885,80.26246,153.38129
"71382",960.77216,80.079346,153.20638
"71383",960.78546,79.98169,153.1112
"71384",960.79877,79.991455,153.12039
"71385",960.8121,80.11597,153.24463
"71386",960.8254,80.33814,153.47043
"71387",960.8387,80.61646,153.75932
"71388",960.852,80.90456,154.06668
"71389",960.8653,81.146255,154.33665
"71390",960.8786,81.29519,154.52141
"71391",960.8919,81.33425,154.60095
"71392",960.9052,81.26833,154.57674
"71393",960.9185,81.11452,154.46255
"71394",960.9318,80.902115,154.28499
"71395",960.9451,80.65308,154.06415
"71396",960.95844,80.394295,153.82578
"71397",960.97174,80.14282,153.58662
"71398",960.98505,79.91089,153.35916
"71399",960.99835,79.7058,153.15129
"71400",961.01166,79.53246,152.96875
"71401",961.02496,79.38842,152.81009
"71402",961.03827,79.273674,152.67622
"71403",961.0516,79.183334,152.56319
"71404",961.0649,79.12718,152.4815
"71405",961.0782,79.10277,152.42981
"71406",961.0915,79.10765,152.40665
"71407",961.1048,79.13451,152.40561
"71408",961.1181,79.17601,152.42006
"71409",961.1314,79.2224,152.44069
"71410",961.1447,79.27123,152.46523
"71411",961.158,79.31518,152.48639
"71412",961.1713,79.34936,152.49916
"71413",961.18463,79.37621,152.50568
"71414",961.19794,79.38598,152.49594
"71415",961.21124,79.37621,152.46698
"71416",961.22455,79.34936,152.42062
"71417",961.23785,79.30785,152.35878
"71418",961.25116,79.256584,152.28587
"71419",961.26447,79.19798,152.20404
"71420",961.2778,79.13939,152.12038
"71421",961.2911,79.07591,152.03
"71422",961.3044,79.009995,151.9352
"71423",961.3177,78.94896,151.84322
"71424",961.331,78.89281,151.75421
"71425",961.3443,78.85863,151.68542
"71426",961.3576,78.890366,151.68149
"71427",961.3709,79.06615,151.82259
"71428",961.3842,79.43969,152.16695
"71429",961.3975,80.03296,152.7427
"71430",961.4108,80.80202,153.51279
"71431",961.42413,81.65652,154.39235
"71432",961.43744,82.45487,155.24248
"71433",961.45074,83.07988,155.9442
"71434",961.46405,83.46319,156.42375
"71435",961.47736,83.597466,156.66626
"71436",961.49066,83.51446,156.69568
"71437",961.50397,83.27276,156.56381
"71438",961.5173,82.92363,156.31696
"71439",961.5306,82.52079,156.00548
"71440",961.5439,82.108185,155.67165
"71441",961.5572,81.71267,155.34201
"71442",961.5705,81.3489,155.03177
"71443",961.5838,81.03151,154.75653
"71444",961.5971,80.76784,154.5251
"71445",961.6104,80.567635,154.34889
"71446",961.6237,80.448006,154.24701
"71447",961.637,80.42359,154.2366
"71448",961.6503,80.49683,154.32309
"71449",961.66364,80.66285,154.50464
"71450",961.67694,80.88747,154.74997
"71451",961.69025,81.12428,155.01453
"71452",961.70355,81.33181,155.25719
"71453",961.71686,81.46853,155.43553
"71454",961.73016,81.50759,155.5205
"71455",961.74347,81.449,155.50902
"71456",961.7568,81.30007,155.40538
"71457",961.7701,81.08278,155.22871
"71458",961.7834,80.82643,155.00621
"71459",961.7967,80.550545,154.75615
"71460",961.81,80.27955,154.50237
"71461",961.8233,80.02075,154.2523
"71462",961.8366,79.78638,154.01859
"71463",961.8499,79.58129,153.80682
"71464",961.8632,79.412834,153.62527
"71465",961.8765,79.28588,153.47997
"71466",961.88983,79.200424,153.3722
"71467",961.90314,79.151596,153.29837
"71468",961.91644,79.13695,153.2572
"71469",961.92975,79.14671,153.23999
"71470",961.94305,79.17357,153.24017
"71471",961.95636,79.20775,153.24852
"71472",961.96967,79.24193,153.25793
"71473",961.983,79.26879,153.26111
"71474",961.9963,79.28832,153.25778
"71475",962.0096,79.290764,153.23798
"71476",962.0229,79.276115,153.20116
"71477",962.0362,79.2517,153.15411
"71478",962.0495,79.21507,153.0941
"71479",962.0628,79.1638,153.0183
"71480",962.0761,79.10521,152.93356
"71481",962.0894,79.04173,152.84212
"71482",962.1027,78.97337,152.7438
"71483",962.116,78.905014,152.64336
"71484",962.12933,78.83421,152.53833
"71485",962.14264,78.76097,152.42865
"71486",962.15594,78.69016,152.31912
"71487",962.16925,78.641335,152.22935
"71488",962.18256,78.66331,152.20886
"71489",962.19586,78.82933,152.33311
"71490",962.20917,79.19554,152.66273
"71491",962.2225,79.77661,153.21866
"71492",962.2358,80.52857,153.96364
"71493",962.2491,81.356224,154.80782
"71494",962.2624,82.1326,155.62657
"71495",962.2757,82.74784,156.30846
"71496",962.289,83.13603,156.78252
"71497",962.3023,83.28985,157.03433
"71498",962.3156,83.23125,157.07854
"71499",962.3289,83.00664,156.95491
"71500",962.3422,82.67704,156.71927
"71501",962.3555,82.2913,156.41719
"71502",962.36884,81.88602,156.08351
"71503",962.38214,81.50271,155.75914
"71504",962.39545,81.15846,155.46185
"71505",962.40875,80.86061,155.20021
"71506",962.42206,80.621346,154.98784
"71507",962.43536,80.45045,154.83636
"71508",962.44867,80.360115,154.76012
"71509",962.462,80.365,154.77626
"71510",962.4753,80.465096,154.88777
"71511",962.4886,80.64332,155.08054
"71512",962.5019,80.867935,155.32526
"71513",962.5152,81.092545,155.577
"71514",962.5285,81.26833,155.78693
"71515",962.5418,81.36111,155.91934
"71516",962.5551,81.358665,155.95944
"71517",962.5684,81.26101,155.90425
"71518",962.5817,81.08278,155.76543
"71519",962.59503,80.848404,155.5649
"71520",962.60834,80.58228,155.32529
"71521",962.62164,80.31129,155.0725
"71522",962.63495,80.05493,154.82587
"71523",962.64825,79.823,154.59564
"71524",962.66156,79.61791,154.38503
"71525",962.67487,79.447014,154.20218
"71526",962.6882,79.30541,154.04329
"71527",962.7015,79.19554,153.91171
"71528",962.7148,79.114975,153.806
"71529",962.7281,79.06859,153.73195
"71530",962.7414,79.046616,153.68086
"71531",962.7547,79.046616,153.65106
"71532",962.768,79.05394,153.62859
"71533",962.7813,79.07103,153.6161
"71534",962.7946,79.08812,153.60416
"71535",962.8079,79.10277,153.5903
"71536",962.8212,79.114975,153.57446
"71537",962.83453,79.11742,153.54924
"71538",962.84784,79.11009,153.51433
"71539",962.86115,79.08324,153.45966
"71540",962.87445,79.044174,153.39194
"71541",962.88776,78.99046,153.30835
"71542",962.90106,78.92699,153.21332
"71543",962.91437,78.85863,153.11142
"71544",962.9277,78.79027,153.00739
"71545",962.941,78.7219,152.90121
"71546",962.9543,78.6511,152.79047
"71547",962.9676,78.5803,152.6775
"71548",962.9809,78.51194,152.56477
"71549",962.9942,78.467995,152.47432
"71550",963.0075,78.487526,152.44597
"71551",963.0208,78.62913,152.5403
"71552",963.0341,78.95384,152.82217
"71553",963.0474,79.48852,153.32416
"71554",963.0607,80.2063,154.02596
"71555",963.07404,81.02174,154.84784
"71556",963.08734,81.82254,155.68057
"71557",963.10065,82.496376,156.41136
"71558",963.11395,82.96269,156.95569
"71559",963.12726,83.192184,157.27777
"71560",963.14056,83.20195,157.3873
"71561",963.1539,83.02861,157.31403
"71562",963.1672,82.72343,157.10349
"71563",963.1805,82.340126,156.8053
"71564",963.1938,81.92752,156.46582
"71565",963.2071,81.52712,156.12566
"71566",963.2204,81.160904,155.80716
"71567",963.2337,80.8362,155.51874
"71568",963.247,80.56275,155.27142
"71569",963.2603,80.35279,155.07906
"71570",963.2736,80.23804,154.97533
"71571",963.2869,80.22583,154.97055
"71572",963.30023,80.323494,155.07527
"71573",963.31354,80.51148,155.27338
"71574",963.32684,80.7483,155.52618
"71575",963.34015,80.987564,155.78883
"71576",963.35345,81.17799,156.01013
"71577",963.36676,81.29275,156.1617
"71578",963.38007,81.307396,156.21675
"71579",963.3934,81.22926,156.17947
"71580",963.4067,81.058365,156.047
"71581",963.42,80.81911,155.84082
"71582",963.4333,80.53834,155.58565
"71583",963.4466,80.24292,155.30705
"71584",963.4599,79.957275,155.02899
"71585",963.4732,79.693596,154.76398
"71586",963.4865,79.46899,154.52979
"71587",963.4998,79.28588,154.33008
"71588",963.5131,79.14183,154.16371
"71589",963.5264,79.029526,154.02458
"71590",963.53973,78.9514,153.91612
"71591",963.55304,78.90013,153.83208
"71592",963.56635,78.873276,153.77084
"71593",963.57965,78.86839,153.73074
"71594",963.59296,78.87572,153.7027
"71595",963.60626,78.890366,153.6822
"71596",963.61957,78.905014,153.66217
"71597",963.6329,78.91478,153.63771
"71598",963.6462,78.91478,153.60379
"71599",963.6595,78.89769,153.55278
"71600",963.6728,78.870834,153.49147
"71601",963.6861,78.82689,153.41223
"71602",963.6994,78.77562,153.3243
"71603",963.7127,78.7219,153.23232
"71604",963.726,78.66331,153.13377
"71605",963.7393,78.60227,153.03096
"71606",963.7526,78.536354,152.92136
"71607",963.7659,78.46311,152.80237
"71608",963.77924,78.37766,152.66888
"71609",963.79254,78.29221,152.53273
"71610",963.80585,78.21164,152.39879
"71611",963.81915,78.17258,152.30383
"71612",963.83246,78.22385,152.29799
"71613",963.84576,78.43626,152.4549
"71614",963.8591,78.84886,152.81863
"71615",963.8724,79.46899,153.40279
"71616",963.8857,80.24292,154.16013
"71617",963.899,81.07057,154.99536
"71618",963.9123,81.829865,155.78812
"71619",963.9256,82.42069,156.43613
"71620",963.9389,82.791794,156.88287
"71621",963.9522,82.92851,157.10684
"71622",963.9655,82.847946,157.1178
"71623",963.9788,82.6038,156.96265
"71624",963.9921,82.24979,156.69
"71625",964.00543,81.846954,156.35748
"71626",964.01874,81.43923,156.00748
"71627",964.03204,81.06813,155.68135
"71628",964.04535,80.73853,155.38513
"71629",964.05865,80.45777,155.12746
"71630",964.07196,80.24292,154.92691
"71631",964.08527,80.09888,154.79047
"71632",964.0986,80.04761,154.74228
"71633",964.1119,80.09888,154.79504
"71634",964.1252,80.24536,154.94461
"71635",964.1385,80.462654,155.16957
"71636",964.1518,80.70435,155.42574
"71637",964.1651,80.91676,155.66016
"71638",964.1784,81.06081,155.83286
"71639",964.1917,81.11452,155.91972
"71640",964.205,81.06813,155.90817
"71641",964.2183,80.93385,155.80728
"71642",964.2316,80.73365,155.63626
"71643",964.24493,80.48707,155.41261
"71644",964.25824,80.20874,155.1495
"71645",964.27155,79.92798,154.87527
"71646",964.28485,79.656975,154.60202
"71647",964.29816,79.40795,154.34227
"71648",964.31146,79.200424,154.11624
"71649",964.32477,79.03929,153.93011
"71650",964.3381,78.924545,153.78534
"71651",964.3514,78.84642,153.6736
"71652",964.3647,78.80492,153.59604
"71653",964.378,78.79027,153.54404
"71654",964.3913,78.79515,153.51111
"71655",964.4046,78.81224,153.49054
"71656",964.4179,78.83421,153.47539
"71657",964.4312,78.856186,153.46092
"71658",964.4445,78.873276,153.44226
"71659",964.4578,78.8806,153.41437
"71660",964.4711,78.87816,153.37694
"71661",964.48444,78.86595,153.32967
"71662",964.49774,78.836655,153.26492
"71663",964.51105,78.79515,153.18706
"71664",964.52435,78.74387,153.09813
"71665",964.53766,78.677956,152.99295
"71666",964.55096,78.59983,152.8735
"71667",964.5643,78.51438,152.7443
"71668",964.5776,78.43137,152.61485
"71669",964.5909,78.35569,152.49014
"71670",964.6042,78.2971,152.38016
"71671",964.6175,78.28977,152.31961
"71672",964.6308,78.39231,152.3687
"71673",964.6441,78.66331,152.58945
"71674",964.6574,79.13695,153.02132
"71675",964.6707,79.798584,153.65598
"71676",964.684,80.57984,154.43094
"71677",964.6973,81.37087,155.2401
"71678",964.71063,82.0618,155.97386
"71679",964.72394,82.55497,156.53146
"71680",964.73724,82.82597,156.88231
"71681",964.75055,82.87724,157.0219
"71682",964.76385,82.75029,156.98486
"71683",964.77716,82.48417,156.80469
"71684",964.79047,82.142365,156.54051
"71685",964.8038,81.76639,156.23149
"71686",964.8171,81.40261,155.92291
"71687",964.8304,81.06325,155.62738
"71688",964.8437,80.762955,155.36032
"71689",964.857,80.516365,155.13757
"71690",964.8703,80.3357,154.97305
"71691",964.8836,80.22827,154.87611
"71692",964.8969,80.218506,154.87347
"71693",964.9102,80.31373,154.97552
"71694",964.9235,80.49195,155.16356
"71695",964.9368,80.72144,155.40843
"71696",964.95013,80.96071,155.67024
"71697",964.96344,81.15846,155.89803
"71698",964.97675,81.2781,156.05386
"71699",964.99005,81.304955,156.12067
"71700",965.00336,81.234146,156.09064
"71701",965.01666,81.08034,155.9754
"71702",965.02997,80.87038,155.79921
"71703",965.0433,80.62623,155.58226
"71704",965.0566,80.36988,155.34549
"71705",965.0699,80.12085,155.10802
"71706",965.0832,79.89868,154.88962
"71707",965.0965,79.7058,154.69357
"71708",965.1098,79.54955,154.52812
"71709",965.1231,79.42504,154.38953
"71710",965.1364,79.327385,154.2739
"71711",965.1497,79.256584,154.18207
"71712",965.163,79.20775,154.11
"71713",965.17633,79.17601,154.0535
"71714",965.18964,79.1638,154.01553
"71715",965.20294,79.16136,153.98695
"71716",965.21625,79.168686,153.96806
"71717",965.22955,79.17357,153.94696
"71718",965.24286,79.17113,153.91869
"71719",965.25616,79.15892,153.88057
"71720",965.2695,79.13451,153.82986
"71721",965.2828,79.097885,153.76619
"71722",965.2961,79.04906,153.68916
"71723",965.3094,78.99046,153.60085
"71724",965.3227,78.91722,153.49605
"71725",965.336,78.84154,153.38652
"71726",965.3493,78.76097,153.26974
"71727",965.3626,78.68772,153.15778
"71728",965.3759,78.643776,153.07281
"71729",965.3892,78.67063,153.05728
"71730",965.4025,78.82933,153.17444
"71731",965.41583,79.17113,153.47964
"71732",965.42914,79.71313,153.99574
"71733",965.44244,80.41627,154.68991
"71734",965.45575,81.197525,155.48418
"71735",965.46906,81.934845,156.25893
"71736",965.48236,82.52323,156.90778
"71737",965.49567,82.899216,157.36261
"71738",965.509,83.04814,157.60214
"71739",965.5223,82.98955,157.63881
"71740",965.5356,82.76738,157.51007
"71741",965.5489,82.43778,157.26695
"71742",965.5622,82.04959,156.95494
"71743",965.5755,81.64431,156.61371
"71744",965.5888,81.26345,156.28424
"71745",965.6021,80.92409,155.98436
"71746",965.6154,80.635994,155.72514
"71747",965.6287,80.411385,155.52042
"71748",965.642,80.2649,155.3868
"71749",965.65533,80.21118,155.34135
"71750",965.66864,80.257576,155.39435
"71751",965.68195,80.40162,155.54645
"71752",965.69525,80.61158,155.76897
"71753",965.70856,80.848404,156.0249
"71754",965.72186,81.058365,156.26138
"71755",965.73517,81.20241,156.4385
"71756",965.7485,81.253685,156.52736
"71757",965.7618,81.20485,156.5177
"71758",965.7751,81.06569,156.4162
"71759",965.7884,80.85817,156.24199
"71760",965.8017,80.59693,156.00757
"71761",965.815,80.31129,155.74059
"71762",965.8283,80.025635,155.46466
"71763",965.8416,79.75708,155.1969
"71764",965.8549,79.51537,154.9476
"71765",965.8682,79.310295,154.72737
"71766",965.88153,79.14427,154.5398
"71767",965.89484,79.012436,154.38121
"71768",965.90814,78.91478,154.25269
"71769",965.92145,78.84154,154.14552
"71770",965.93475,78.80003,154.06781
"71771",965.94806,78.78294,154.01321
"71772",965.96136,78.77806,153.97029
"71773",965.9747,78.785385,153.93942
"71774",965.988,78.79271,153.90878
"71775",966.0013,78.79515,153.87349
"71776",966.0146,78.78783,153.8285
"71777",966.0279,78.77562,153.77841
"71778",966.0412,78.751205,153.71573
"71779",966.0545,78.71702,153.64252
"71780",966.0678,78.66575,153.55115
"71781",966.0811,78.59495,153.43864
"71782",966.0944,78.5095,153.30928
"71783",966.1077,78.41428,153.16748
"71784",966.12103,78.328835,153.03247
"71785",966.13434,78.30198,152.95338
"71786",966.14764,78.382545,152.98088
"71787",966.16095,78.63645,153.18423
"71788",966.17426,79.097885,153.60306
"71789",966.18756,79.74731,154.22429
"71790",966.20087,80.51392,154.983
"71791",966.2142,81.28542,155.77057
"71792",966.2275,81.94217,156.46748
"71793",966.2408,82.39872,156.98473
"71794",966.2541,82.62333,157.2843
"71795",966.2674,82.62577,157.36873
"71796",966.2807,82.45243,157.27745
"71797",966.294,82.15457,157.05623
"71798",966.3073,81.78348,156.75247
"71799",966.3206,81.392845,156.41757
"71800",966.3339,81.007095,156.07535
"71801",966.3472,80.65064,155.75037
"71802",966.36053,80.3357,155.45576
"71803",966.37384,80.07202,155.20258
"71804",966.38715,79.87915,155.01196
"71805",966.40045,79.783936,154.91296
"71806",966.41376,79.798584,154.92087
"71807",966.42706,79.92798,155.04398
"71808",966.44037,80.15259,155.26633
"71809",966.4537,80.428474,155.54698
"71810",966.467,80.69947,155.83138
"71811",966.4803,80.919205,156.07297
"71812",966.4936,81.0486,156.2311
"71813",966.5069,81.07301,156.28828
"71814",966.5202,80.987564,156.23637
"71815",966.5335,80.80934,156.08902
"71816",966.5468,80.56275,155.86772
"71817",966.5601,80.274666,155.59723
"71818",966.5734,79.974365,155.30551
"71819",966.58673,79.68627,155.01662
"71820",966.60004,79.429924,154.75046
"71821",966.61334,79.217514,154.52023
"71822",966.62665,79.0515,154.32976
"71823",966.63995,78.924545,154.17316
"71824",966.65326,78.84154,154.05653
"71825",966.66656,78.79515,153.97394
"71826",966.6799,78.7805,153.92163
"71827",966.6932,78.78783,153.89084
"71828",966.7065,78.81224,153.87737
"71829",966.7198,78.84642,153.87442
"71830",966.7331,78.87816,153.8701
"71831",966.7464,78.887924,153.8448
"71832",966.7597,78.87816,153.80028
"71833",966.773,78.84154,153.72859
"71834",966.7863,78.78294,153.63379
"71835",966.7996,78.71702,153.52983
"71836",966.8129,78.68284,153.45555
"71837",966.82623,78.72434,153.45589
"71838",966.83954,78.89769,153.58937
"71839",966.85284,79.24681,153.90404
"71840",966.86615,79.77173,154.40541
"71841",966.87946,80.42115,155.0477
"71842",966.89276,81.11452,155.75423
"71843",966.90607,81.75174,156.42628
"71844",966.9194,82.24246,156.97176
"71845",966.9327,82.530556,157.32993
"71846",966.946,82.616005,157.49446
"71847",966.9593,82.511024,157.47124
"71848",966.9726,82.25956,157.29825
"71849",966.9859,81.91043,157.01973
"71850",966.9992,81.514915,156.68391
"71851",967.0125,81.10231,156.31865
"71852",967.0258,80.70435,155.95514
"71853",967.0391,80.33814,155.61095
"71854",967.0524,80.02075,155.30412
"71855",967.06573,79.76929,155.05331
"71856",967.07904,79.61303,154.88985
"71857",967.09235,79.569084,154.8338
"71858",967.10565,79.64477,154.89601
"71859",967.11896,79.823,155.06314
"71860",967.13226,80.076904,155.31152
"71861",967.14557,80.35523,155.59225
"71862",967.1589,80.61402,155.86215
"71863",967.1722,80.80934,156.07666
"71864",967.1855,80.90944,156.20206
"71865",967.1988,80.89723,156.21828
"71866",967.2121,80.78493,156.13402
"71867",967.2254,80.584724,155.95834
"71868",967.2387,80.32838,155.72028
"71869",967.252,80.045166,155.44733
"71870",967.2653,79.75708,155.16064
"71871",967.2786,79.48852,154.88449
"71872",967.29193,79.2517,154.63168
"71873",967.30524,79.06615,154.42274
"71874",967.31854,78.93187,154.25928
"71875",967.33185,78.84642,154.14044
"71876",967.34515,78.80492,154.06288
"71877",967.35846,78.79027,154.01088
"71878",967.37177,78.79027,153.97307
"71879",967.3851,78.79271,153.9377
"71880",967.3984,78.79759,153.90485
"71881",967.4117,78.79515,153.86482
"71882",967.425,78.78783,153.81984
"71883",967.4383,78.76341,153.75754
"71884",967.4516,78.7219,153.67738
"71885",967.4649,78.658424,153.57396
"71886",967.4782,78.57786,153.45146
"71887",967.4915,78.487526,153.31668
"71888",967.5048,78.40452,153.1864
"71889",967.5181,78.382545,153.11456
"71890",967.53143,78.48997,153.17143
"71891",967.54474,78.77806,153.41234
"71892",967.55804,79.26879,153.86488
"71893",967.57135,79.93042,154.50366
"71894",967.58466,80.68482,155.25589
"71895",967.59796,81.41726,156.00974
"71896",967.61127,82.02518,156.66194
"71897",967.6246,82.442665,157.14272
"71898",967.6379,82.64774,157.42413
"71899",967.6512,82.64286,157.502
"71900",967.6645,82.46464,157.40637
"71901",967.6778,82.1741,157.19286
"71902",967.6911,81.8201,156.9068
"71903",967.7044,81.45144,156.59502
"71904",967.7177,81.10231,156.29124
"71905",967.731,80.79469,156.01808
"71906",967.7443,80.52369,155.77191
"71907",967.7576,80.289314,155.55391
"71908",967.77094,80.1062,155.37984
"71909",967.78424,79.99878,155.27573
"71910",967.79755,79.98413,155.26105
"71911",967.81085,80.06714,155.34357
"71912",967.82416,80.22583,155.50436
"71913",967.83746,80.42603,155.71162
"71914",967.85077,80.621346,155.92026
"71915",967.8641,80.762955,156.08128
"71916",967.8774,80.81911,156.16129
"71917",967.8907,80.782486,156.15027
"71918",967.904,80.64576,156.038
"71919",967.9173,80.42603,155.83846
"71920",967.9306,80.15015,155.57588
"71921",967.9439,79.84741,155.27783
"71922",967.9572,79.54467,154.97032
"71923",967.9705,79.26879,154.6802
"71924",967.9838,79.03197,154.42053
"71925",967.99713,78.839096,154.1974
"71926",968.01044,78.69016,154.01219
"71927",968.02374,78.5803,153.86139
"71928",968.03705,78.50706,153.74377
"71929",968.05035,78.470436,153.66049
"71930",968.06366,78.46067,153.60292
"71931",968.07697,78.4802,153.57434
"71932",968.0903,78.51682,153.56346
"71933",968.1036,78.56321,153.56349
"71934",968.1169,78.60471,153.56009
"71935",968.1302,78.626686,153.53845
"71936",968.1435,78.6218,153.49065
"71937",968.1568,78.59495,153.42072
"71938",968.1701,78.54612,153.32797
"71939",968.1834,78.4802,153.21661
"71940",968.1967,78.40452,153.09343
"71941",968.21,78.31663,152.95567
"71942",968.2233,78.21896,152.8054
"71943",968.23663,78.116425,152.6472
"71944",968.24994,78.028534,152.50044
"71945",968.26324,77.99924,152.40953
"71946",968.27655,78.09689,152.44466
"71947",968.28986,78.38743,152.67572
"71948",968.30316,78.905014,153.14291
"71949",968.31647,79.622795,153.82648
"71950",968.3298,80.46021,154.6521
"71951",968.3431,81.30007,155.50635
"71952",968.3564,82.01053,156.25743
"71953",968.3697,82.5037,156.81343
"71954",968.383,82.75029,157.13826
"71955",968.3963,82.76738,157.2413
"71956",968.4096,82.59403,157.15443
"71957",968.4229,82.2913,156.93277
"71958",968.4362,81.92752,156.6406
"71959",968.4495,81.54665,156.31996
"71960",968.4628,81.18532,156.00696
"71961",968.47614,80.86305,155.72174
"71962",968.48944,80.59449,155.48015
"71963",968.50275,80.37965,155.28389
"71964",968.51605,80.22827,155.14438
"71965",968.52936,80.15259,155.07584
"71966",968.54266,80.17212,155.10013
"71967",968.55597,80.28199,155.21538
"71968",968.5693,80.462654,155.40486
"71969",968.5826,80.6775,155.63417
"71970",968.5959,80.88258,155.86043
"71971",968.6092,81.02907,156.0345
"71972",968.6225,81.08522,156.12282
"71973",968.6358,81.03883,156.11035
"71974",968.6491,80.89723,156.00122
"71975",968.6624,80.66773,155.79976
"71976",968.6757,80.38453,155.53743
"71977",968.689,80.06958,155.2345
"71978",968.70233,79.7522,154.91928
"71979",968.71564,79.45434,154.61368
"71980",968.72894,79.19554,154.33783
"71981",968.74225,78.9807,154.09784
"71982",968.75555,78.81468,153.89996
"71983",968.76886,78.69749,153.74573
"71984",968.78217,78.61204,153.61957
"71985",968.7955,78.56321,153.52736
"71986",968.8088,78.54124,153.46048
"71987",968.8221,78.54124,153.41489
"71988",968.8354,78.54856,153.37662
"71989",968.8487,78.56077,153.34346
"71990",968.862,78.57786,153.31557
"71991",968.8753,78.58518,153.27844
"71992",968.8886,78.5803,153.22934
"71993",968.9019,78.56077,153.16544
"71994",968.9152,78.52659,153.08627
"71995",968.9285,78.467995,152.98163
"71996",968.94183,78.399635,152.86539
"71997",968.95514,78.32395,152.73969
"71998",968.96844,78.24338,152.60674
"71999",968.98175,78.16525,152.47371
"72000",968.99506,78.08469,152.3358
"72001",969.00836,78.00412,152.19537
"72002",969.02167,77.91867,152.04755
"72003",969.035,77.83322,151.89705
"72004",969.0483,77.74532,151.74144
"72005",969.0616,77.6672,151.59285
"72006",969.0749,77.59884,151.45158
"72007",969.0882,77.5378,151.3155
"72008",969.1015,77.48165,151.1824
"72009",969.1148,77.42794,151.04999
"72010",969.1281,77.36935,150.91101
"72011",969.1414,77.30587,150.76532
"72012",969.1547,77.25216,150.62741
"72013",969.168,77.22774,150.51712
"72014",969.18134,77.29366,150.49641
"72015",969.19464,77.5256,150.64377
"72016",969.20795,77.977264,151.01811
"72017",969.22125,78.65354,151.63118
"72018",969.23456,79.49828,152.43384
"72019",969.24786,80.4065,153.32637
"72020",969.26117,81.24391,154.17648
"72021",969.2745,81.89334,154.86479
"72022",969.2878,82.29618,155.3268
"72023",969.3011,82.44999,155.55237
"72024",969.3144,82.38651,155.56546
"72025",969.3277,82.15457,155.4081
"72026",969.341,81.812775,155.13364
"72027",969.3543,81.427025,154.80453
"72028",969.3676,81.041275,154.46338
"72029",969.3809,80.68726,154.1419
"72030",969.3942,80.38697,153.8631
"72031",969.40753,80.14282,153.63104
"72032",969.42084,79.94995,153.44263
"72033",969.43414,79.80835,153.29947
"72034",969.44745,79.73754,153.22267
"72035",969.46075,79.742424,153.21935
"72036",969.47406,79.83276,153.30164
"72037",969.48737,79.99878,153.46243
"72038",969.5007,80.20874,153.67236
"72039",969.514,80.42115,153.8913
"72040",969.5273,80.59205,154.07536
"72041",969.5406,80.689705,154.19153
"72042",969.5539,80.67994,154.20332
"72043",969.5672,80.56031,154.10495
"72044",969.5805,80.35279,153.91495
"72045",969.5938,80.08667,153.65985
"72046",969.6071,79.78882,153.36472
"72047",969.6204,79.49828,153.06758
"72048",969.6337,79.234604,152.78822
"72049",969.64703,78.99779,152.52748
"72050",969.66034,78.79271,152.29108
"72051",969.67365,78.626686,152.08733
"72052",969.68695,78.5095,151.92722
"72053",969.70026,78.44114,151.81227
"72054",969.71356,78.41917,151.74158
"72055",969.72687,78.4387,151.7117
"72056",969.7402,78.487526,151.71173
"72057",969.7535,78.54856,151.7255
"72058",969.7668,78.60471,151.73628
"72059",969.7801,78.64866,151.73662
"72060",969.7934,78.66819,151.71391
"72061",969.8067,78.66331,151.6674
"72062",969.82,78.63157,151.59389
"72063",969.8333,78.58518,151.50473
"72064",969.8466,78.53147,151.4068
"72065",969.8599,78.470436,151.29987
"72066",969.8732,78.40696,151.18858
"72067",969.88654,78.3386,151.07043
"72068",969.89984,78.2678,150.94771
"72069",969.91315,78.19455,150.82033
"72070",969.92645,78.12863,150.69798
"72071",969.93976,78.0676,150.57846
"72072",969.95306,78.011444,150.46191
"72073",969.9664,77.962616,150.35094
"72074",969.9797,77.92111,150.24576
"72075",969.993,77.88937,150.14905
"72076",970.0063,77.8674,150.06111
"72077",970.0196,77.85275,149.97981
"72078",970.0329,77.84299,149.90294
"72079",970.0462,77.84299,149.83553
"72080",970.0595,77.84543,149.77055
"72081",970.0728,77.85275,149.71054
"72082",970.0861,77.855194,149.64587
"72083",970.0994,77.85275,149.5764
"72084",970.11273,77.83566,149.4922
"72085",970.12604,77.8259,149.4148
"72086",970.13934,77.86496,149.38591
"72087",970.15265,78.01633,149.47055
"72088",970.16595,78.35569,149.74792
"72089",970.17926,78.9099,150.25075
"72090",970.19257,79.64721,150.954
"72091",970.2059,80.4773,151.77306
"72092",970.2192,81.287865,152.59854
"72093",970.2325,81.94705,153.29797
"72094",970.2458,82.371864,153.78363
"72095",970.2591,82.53788,154.02377
"72096",970.2724,82.47196,154.03717
"72097",970.2857,82.21805,153.8605
"72098",970.299,81.846954,153.55873
"72099",970.3123,81.41726,153.18675
"72100",970.3256,80.98512,152.7989
"72101",970.3389,80.58228,152.42685
"72102",970.35223,80.235596,152.09836
"72103",970.36554,79.95239,151.82251
"72104",970.37885,79.7351,151.60373
"72105",970.39215,79.588615,151.44896
"72106",970.40546,79.51537,151.36285
"72107",970.41876,79.53002,151.36235
"72108",970.43207,79.63256,151.4502
"72109",970.4454,79.81323,151.61938
"72110",970.4587,80.042725,151.84305
"72111",970.472,80.28687,152.08853
"72112",970.4853,80.49683,152.30746
"72113",970.4986,80.64088,152.46704
"72114",970.5119,80.69215,152.53835
"72115",970.5252,80.64576,152.5136
"72116",970.5385,80.516365,152.40439
"72117",970.5518,80.31861,152.22278
"72118",970.5651,80.079346,151.99347
"72119",970.5784,79.823,151.7396
"72120",970.59174,79.57397,151.48503
"72121",970.60504,79.34936,151.2471
"72122",970.61835,79.15404,151.03145
"72123",970.63165,78.995346,150.84631
"72124",970.64496,78.873276,150.69284
"72125",970.65826,78.78783,150.57217
"72126",970.6716,78.73899,150.48546
"72127",970.6849,78.71946,150.42651
"72128",970.6982,78.73167,150.3987
"72129",970.7115,78.77318,150.40057
"72130",970.7248,78.839096,150.42815
"72131",970.7381,78.91722,150.46999
"72132",970.7514,79.00023,150.51915
"72133",970.7647,79.078354,150.56602
"72134",970.778,79.13695,150.59581
"72135",970.7913,79.17113,150.60301
"72136",970.8046,79.185776,150.59175
"72137",970.81793,79.18089,150.56142
"72138",970.83124,79.16136,150.51628
"72139",970.84454,79.12962,150.45833
"72140",970.85785,79.09056,150.39206
"72141",970.87115,79.044174,150.31725
"72142",970.88446,78.992905,150.2361
"72143",970.89777,78.93431,150.14603
"72144",970.9111,78.873276,150.05168
"72145",970.9244,78.819565,149.96275
"72146",970.9377,78.77318,149.87947
"72147",970.951,78.729225,149.79718
"72148",970.9643,78.692604,149.72084
"72149",970.9776,78.660866,149.64824
"72150",970.9909,78.63889,149.58441
"72151",971.0042,78.61692,149.5199
"72152",971.0175,78.607155,149.4669
"72153",971.0308,78.6096,149.42581
"72154",971.0441,78.626686,149.39944
"72155",971.05743,78.66819,149.39803
"72156",971.07074,78.7805,149.46872
"72157",971.08405,79.04906,149.69916
"72158",971.09735,79.53002,150.1504
"72159",971.11066,80.233154,150.83885
"72160",971.12396,81.09987,151.71286
"72161",971.13727,82.01541,152.66278
"72162",971.1506,82.828415,153.53877
"72163",971.1639,83.41924,154.21799
"72164",971.1772,83.7293,154.6349
"72165",971.1905,83.77081,154.79295
"72166",971.2038,83.595024,154.735
"72167",971.2171,83.26055,154.51288
"72168",971.2304,82.8333,154.18752
"72169",971.2437,82.371864,153.81462
"72170",971.257,81.92752,153.4444
"72171",971.2703,81.529564,153.10667
"72172",971.2836,81.19997,152.82487
"72173",971.29694,80.94118,152.60359
"72174",971.31024,80.74586,152.43768
"72175",971.32355,80.6067,152.32184
"72176",971.33685,80.52369,152.2578
"72177",971.35016,80.49195,152.24243
"72178",971.36346,80.516365,152.28223
"72179",971.3768,80.587166,152.36917
"72180",971.3901,80.68726,152.48763
"72181",971.4034,80.799576,152.62141
"72182",971.4167,80.88747,152.7343
"72183",971.43,80.93141,152.80598
"72184",971.4433,80.90944,152.81313
"72185",971.4566,80.81911,152.75122
"72186",971.4699,80.66529,152.623
"72187",971.4832,80.46021,152.43872
"72188",971.4965,80.22827,152.22116
"72189",971.5098,79.98413,151.98416
"72190",971.52313,79.74731,151.74684
"72191",971.53644,79.53246,151.5241
"72192",971.54974,79.34936,151.32637
"72193",971.56305,79.19798,151.15466
"72194",971.57635,79.08324,151.01485
"72195",971.58966,78.99779,150.90074
"72196",971.60297,78.94408,150.8157
"72197",971.6163,78.91966,150.75829
"72198",971.6296,78.924545,150.7294
"72199",971.6429,78.9514,150.72264
"72200",971.6562,79.00023,150.7387
"72201",971.6695,79.05882,150.76604
"72202",971.6828,79.114975,150.79277
"72203",971.6961,79.15648,150.80661
"72204",971.7094,79.185776,150.80954
"72205",971.7227,79.1931,150.79141
"72206",971.736,79.18089,150.75398
"72207",971.7493,79.15648,150.70396
"72208",971.76263,79.12474,150.64586
"72209",971.77594,79.08812,150.58188
"72210",971.78925,79.05394,150.5192
"72211",971.80255,79.01976,150.45544
"72212",971.81586,78.98314,150.38818
"72213",971.82916,78.94896,150.32222
"72214",971.84247,78.91722,150.25763
"72215",971.8558,78.88548,150.19205
"72216",971.8691,78.85863,150.13036
"72217",971.8824,78.839096,150.07515
"72218",971.8957,78.82689,150.02666
"72219",971.909,78.819565,149.98267
"72220",971.9223,78.81224,149.93845
"72221",971.9356,78.80736,149.89644
"72222",971.9489,78.80003,149.85184
"72223",971.9622,78.79515,149.80945
"72224",971.9755,78.79271,149.76935
"72225",971.98883,78.79271,149.73161
"72226",972.00214,78.82445,149.72562
"72227",972.01544,78.9514,149.81583
"72228",972.02875,79.24925,150.0809
"72229",972.04205,79.76929,150.57747
"72230",972.05536,80.5066,151.30757
"72231",972.06866,81.38308,152.19989
"72232",972.082,82.26444,153.12448
"72233",972.0953,83.00664,153.93744
"72234",972.1086,83.50713,154.53189
"72235",972.1219,83.72686,154.86122
"72236",972.1352,83.69024,154.94107
"72237",972.1485,83.455864,154.82202
"72238",972.1618,83.087204,154.56136
"72239",972.1751,82.64042,154.21104
"72240",972.1884,82.17166,153.8248
"72241",972.2017,81.71755,153.43855
"72242",972.215,81.304955,153.07964
"72243",972.22833,80.9485,152.76396
"72244",972.24164,80.655525,152.50063
"72245",972.25494,80.428474,152.29407
"72246",972.26825,80.26734,152.14633
"72247",972.28156,80.184326,152.07167
"72248",972.29486,80.181885,152.07498
"72249",972.30817,80.26734,152.16612
"72250",972.3215,80.430916,152.33806
"72251",972.3348,80.64088,152.5615
"72252",972.3481,80.85573,152.79637
"72253",972.3614,81.024185,152.99158
"72254",972.3747,81.1194,153.1188
"72255",972.388,81.11452,153.14891
"72256",972.4013,81.01442,153.08365
"72257",972.4146,80.833755,152.9347
"72258",972.4279,80.6067,152.73369
"72259",972.4412,80.36256,152.50851
"72260",972.4545,80.11597,152.27325
"72261",972.46783,79.888916,152.04984
"72262",972.48114,79.691154,151.8486
"72263",972.49445,79.5227,151.67049
"72264",972.50775,79.38354,151.5164
"72265",972.52106,79.276115,151.38971
"72266",972.53436,79.19554,151.28651
"72267",972.54767,79.14183,151.20766
"72268",972.561,79.10765,151.14665
"72269",972.5743,79.093,151.10411
"72270",972.5876,79.10033,151.08308
"72271",972.6009,79.1223,151.07693
"72272",972.6142,79.15892,151.08612
"72273",972.6275,79.20531,151.10622
"72274",972.6408,79.24925,151.12532
"72275",972.6541,79.28832,151.14093
"72276",972.6674,79.31274,151.1431
"72277",972.6807,79.3225,151.13138
"72278",972.69403,79.31518,151.10287
"72279",972.70734,79.30053,151.06682
"72280",972.72064,79.276115,151.02054
"72281",972.73395,79.24925,150.97105
"72282",972.74725,79.2224,150.92073
"72283",972.76056,79.19798,150.87201
"72284",972.77386,79.17357,150.82253
"72285",972.7872,79.15648,150.7796
"72286",972.8005,79.14183,150.73859
"72287",972.8138,79.12718,150.69711
"72288",972.8271,79.11009,150.65274
"72289",972.8404,79.093,150.60783
"72290",972.8537,79.07347,150.55995
"72291",972.867,79.0515,150.50902
"72292",972.8803,79.027084,150.45496
"72293",972.8936,79.00511,150.40257
"72294",972.9069,78.98558,150.35194
"72295",972.9202,78.97093,150.30559
"72296",972.93353,78.96361,150.2661
"72297",972.94684,78.98558,150.25568
"72298",972.96014,79.08812,150.3265
"72299",972.97345,79.34692,150.55681
"72300",972.98676,79.81079,151.00027
"72301",973.00006,80.48951,151.67308
"72302",973.01337,81.30984,152.50871
"72303",973.0267,82.14969,153.3895
"72304",973.04,82.882126,154.18912
"72305",973.0533,83.41436,154.81142
"72306",973.0666,83.70489,155.20865
"72307",973.0799,83.76593,155.38547
"72308",973.0932,83.65118,155.3884
"72309",973.1065,83.407036,155.25836
"72310",973.1198,83.08232,155.04012
"72311",973.1331,82.70878,154.7629
"72312",973.1464,82.32548,154.46425
"72313",973.1597,81.94949,154.16093
"72314",973.17303,81.5906,153.86296
"72315",973.18634,81.24391,153.56598
"72316",973.19965,80.92653,153.28748
"72317",973.21295,80.65064,153.04054
"72318",973.22626,80.45045,152.86069
"72319",973.23956,80.35279,152.77711
"72320",973.25287,80.365,152.80035
"72321",973.2662,80.482185,152.92896
"72322",973.2795,80.6775,153.13934
"72323",973.2928,80.89723,153.38025
"72324",973.3061,81.08278,153.59384
"72325",973.3194,81.19264,153.73755
"72326",973.3327,81.20485,153.78703
"72327",973.346,81.112076,153.73192
"72328",973.3593,80.93385,153.58846
"72329",973.3726,80.69459,153.37837
"72330",973.3859,80.42603,153.13153
"72331",973.39923,80.15503,152.87384
"72332",973.41254,79.903564,152.62723
"72333",973.42584,79.67895,152.3996
"72334",973.43915,79.483635,152.19424
"72335",973.45245,79.32006,152.01453
"72336",973.46576,79.183334,151.85655
"72337",973.47906,79.06859,151.71628
"72338",973.4924,78.9807,151.59927
"72339",973.5057,78.924545,151.51126
"72340",973.519,78.89769,151.45079
"72341",973.5323,78.89525,151.4139
"72342",973.5456,78.91234,151.39645
"72343",973.5589,78.94896,151.39908
"72344",973.5722,78.992905,151.41017
"72345",973.5855,79.03929,151.42508
"72346",973.5988,79.08568,151.44144
"72347",973.6121,79.12718,151.45436
"72348",973.6254,79.16136,151.46126
"72349",973.63873,79.18822,151.4619
"72350",973.65204,79.20531,151.45361
"72351",973.66534,79.21263,151.4361
"72352",973.67865,79.20775,151.4066
"72353",973.69196,79.19066,151.36475
"72354",973.70526,79.1638,151.31259
"72355",973.71857,79.13939,151.26204
"72356",973.7319,79.11253,151.20828
"72357",973.7452,79.08568,151.15369
"72358",973.7585,79.063705,151.10313
"72359",973.7718,79.044174,151.05434
"72360",973.7851,79.0222,151.00249
"72361",973.7984,78.995346,150.94507
"72362",973.8117,78.96117,150.87949
"72363",973.825,78.91966,150.80551
"72364",973.8383,78.87816,150.73024
"72365",973.8516,78.836655,150.65367
"72366",973.8649,78.8098,150.59045
"72367",973.87823,78.82201,150.56546
"72368",973.89154,78.93431,150.64095
"72369",973.90485,79.20531,150.87863
"72370",973.91815,79.67162,151.32011
"72371",973.93146,80.31617,151.95439
"72372",973.94476,81.06325,152.71135
"72373",973.95807,81.78592,153.46725
"72374",973.9714,82.35233,154.08948
"72375",973.9847,82.669716,154.48038
"72376",973.998,82.703896,154.59799
"72377",974.0113,82.4744,154.453
"72378",974.0246,82.04227,154.09819
"72379",974.0379,81.48318,153.60292
"72380",974.0512,80.87282,153.03891
"72381",974.0645,80.27711,152.47047
"72382",974.0778,79.7351,151.93713
"72383",974.0911,79.27856,151.4723
"72384",974.10443,78.91234,151.08354
"72385",974.11774,78.63157,150.76878
"72386",974.13104,78.42649,150.52094
"72387",974.14435,78.3093,150.35457
"72388",974.15765,78.28489,150.27731
"72389",974.17096,78.37766,150.31648
"72390",974.18427,78.59251,150.48062
"72391",974.1976,78.91722,150.76135
"72392",974.2109,79.31518,151.12547
"72393",974.2242,79.727776,151.51666
"72394",974.2375,80.08911,151.86949
"72395",974.2508,80.35523,152.1384
"72396",974.2641,80.49683,152.2911
"72397",974.2774,80.52613,152.33594
"72398",974.2907,80.462654,152.28891
"72399",974.304,80.33082,152.17154
"72400",974.3173,80.16235,152.01341
"72401",974.3306,79.98657,151.84271
"72402",974.34393,79.81323,151.66895
"72403",974.35724,79.64477,151.49464
"72404",974.37054,79.483635,151.3224
"72405",974.38385,79.33471,151.15733
"72406",974.39716,79.19798,150.99982
"72407",974.41046,79.08324,150.86
"72408",974.42377,79.00023,150.74834
"72409",974.4371,78.95384,150.6707
"72410",974.4504,78.94408,150.62823
"72411",974.4637,78.96605,150.6172
"72412",974.477,79.00755,150.62639
"72413",974.4903,79.06859,150.6564
"72414",974.5036,79.13695,150.69565
"72415",974.5169,79.20531,150.73703
"72416",974.5302,79.273674,150.78056
"72417",974.5435,79.33959,150.82378
"72418",974.5568,79.40063,150.86417
"72419",974.5701,79.449455,150.89426
"72420",974.58344,79.48852,150.9161
"72421",974.59674,79.517815,150.92941
"72422",974.61005,79.534904,150.93143
"72423",974.62335,79.53979,150.92177
"72424",974.63666,79.53246,150.90005
"72425",974.64996,79.517815,150.87079
"72426",974.66327,79.4934,150.8313
"72427",974.6766,79.46166,150.78372
"72428",974.6899,79.42748,150.73271
"72429",974.7032,79.3933,150.68063
"72430",974.7165,79.35912,150.62749
"72431",974.7298,79.32494,150.57327
"72432",974.7431,79.29565,150.52287
"72433",974.7564,79.276115,150.48132
"72434",974.7697,79.276115,150.4587
"72435",974.783,79.327385,150.48734
"72436",974.7963,79.4934,150.63232
"72437",974.80963,79.82788,150.95097
"72438",974.82294,80.360115,151.47783
"72439",974.83624,81.06081,152.18977
"72440",974.84955,81.83475,152.99687
"72441",974.86285,82.55985,153.77931
"72442",974.87616,83.11894,154.4184
"72443",974.88947,83.441216,154.83813
"72444",974.9028,83.51446,155.01892
"72445",974.9161,83.37774,154.99203
"72446",974.9294,83.087204,154.80705
"72447",974.9427,82.69657,154.5129
"72448",974.956,82.252235,154.15283
"72449",974.9693,81.7908,153.76178
"72450",974.9826,81.341576,153.36852
"72451",974.9959,80.92653,152.99539
"72452",975.0092,80.5481,152.64592
"72453",975.0225,80.218506,152.33345
"72454",975.0358,79.94995,152.07172
"72455",975.04913,79.766846,151.88705
"72456",975.06244,79.68871,151.80164
"72457",975.07574,79.73754,151.84073
"72458",975.08905,79.91089,152.00587
"72459",975.10236,80.181885,152.27408
"72460",975.11566,80.5066,152.60448
"72461",975.12897,80.82399,152.9377
"72462",975.1423,81.08278,153.22224
"72463",975.1556,81.24147,153.41478
"72464",975.1689,81.29275,153.50485
"72465",975.1822,81.24391,153.49641
"72466",975.1955,81.109634,153.40102
"72467",975.2088,80.91188,153.23795
"72468",975.2221,80.689705,153.04427
"72469",975.2354,80.45777,152.8339
"72470",975.2487,80.22827,152.6187
"72471",975.262,80.01099,152.40854
"72472",975.2753,79.82056,152.21844
"72473",975.28864,79.65453,152.04681
"72474",975.30194,79.517815,151.89929
"72475",975.31525,79.40551,151.77191
"72476",975.32855,79.32006,151.66788
"72477",975.34186,79.26147,151.58803
"72478",975.35516,79.22484,151.52832
"72479",975.36847,79.21263,151.49188
"72480",975.3818,79.22484,151.47948
"72481",975.3951,79.256584,151.487
"72482",975.4084,79.30297,151.51015
"72483",975.4217,79.361565,151.54695
"72484",975.435,79.41772,151.58315
"72485",975.4483,79.466545,151.61377
"72486",975.4616,79.500725,151.63127
"72487",975.4749,79.520256,151.6352
"72488",975.4882,79.5227,151.62263
"72489",975.5015,79.51293,151.59795
"72490",975.51483,79.4934,151.56319
"72491",975.52814,79.4641,151.51805
"72492",975.54144,79.429924,151.46712
"72493",975.55475,79.3933,151.41267
"72494",975.56805,79.361565,151.36197
"72495",975.58136,79.33227,151.31271
"72496",975.59467,79.30541,151.26498
"72497",975.608,79.281,151.21886
"72498",975.6213,79.25414,151.16953
"72499",975.6346,79.21507,151.10715
"72500",975.6479,79.168686,151.03622
"72501",975.6612,79.14183,150.98338
"72502",975.6745,79.17601,150.99074
"72503",975.7011,79.66918,151.43729
"72504",975.7144,80.19653,151.9543
"72505",975.7277,80.87526,152.63916
"72506",975.741,81.60525,153.3965
"72507",975.75433,82.27421,154.11563
"72508",975.76764,82.76738,154.67987
"72509",975.78094,83.038376,155.03735
"72510",975.79425,83.08476,155.1787
"72511",975.80756,82.94316,155.1335
"72512",975.82086,82.65751,154.93982
"72513",975.83417,82.28886,154.65422
"72514",975.8475,81.87381,154.3107
"72515",975.8608,81.444115,153.93956
"72516",975.8741,81.01686,153.55743
"72517",975.8874,80.61646,153.18881
"72518",975.9007,80.255135,152.84676
"72519",975.914,79.94751,152.5471
"72520",975.9273,79.7058,152.30376
"72521",975.9406,79.54955,152.1383
"72522",975.9539,79.49584,152.07051
"72523",975.9672,79.5642,152.12311
"72524",975.9805,79.73998,152.28526
"72525",975.99384,80.00366,152.54082
"72526",976.00714,80.306404,152.84367
"72527",976.02045,80.59693,153.14378
"72528",976.03375,80.82155,153.38705
"72529",976.04706,80.95827,153.54945
"72530",976.06036,80.990005,153.61115
"72531",976.07367,80.93385,153.58594
"72532",976.087,80.799576,153.48085
"72533",976.1003,80.61646,153.32272
"72534",976.1136,80.40162,153.12715
"72535",976.1269,80.17456,152.91264
"72536",976.1402,79.95239,152.69592
"72537",976.1535,79.75464,152.49667
"72538",976.1668,79.57885,152.31322
"72539",976.1801,79.42748,152.14868
"72540",976.1934,79.30785,152.01115
"72541",976.2067,79.21019,151.89186
"72542",976.22003,79.13695,151.79393
"72543",976.23334,79.08812,151.71812
"72544",976.24664,79.063705,151.6652
"72545",976.25995,79.063705,151.63594
"72546",976.27325,79.08324,151.6262
"72547",976.28656,79.114975,151.62929
"72548",976.29987,79.15404,151.64069
"72549",976.3132,79.19554,151.65575
"72550",976.3265,79.237045,151.6721
"72551",976.3398,79.26879,151.68001
"72552",976.3531,79.29809,151.68645
"72553",976.3664,79.31274,151.67915
"72554",976.3797,79.310295,151.65523
"72555",976.393,79.30297,151.62634
"72556",976.4063,79.29565,151.59723
"72557",976.4196,79.290764,151.57033
"72558",976.4329,79.28832,151.54572
"72559",976.4462,79.28588,151.52103
"72560",976.45953,79.273674,151.4865
"72561",976.47284,79.2517,151.44182
"72562",976.48615,79.21507,151.3818
"72563",976.49945,79.19798,151.34018
"72564",976.51276,79.259026,151.37616
"72565",976.52606,79.466545,151.56052
"72566",976.53937,79.87915,151.95645
"72567",976.5527,80.49683,152.57036
"72568",976.566,81.26589,153.35495
"72569",976.5793,82.07156,154.20018
"72570",976.5926,82.78203,154.97539
"72571",976.6059,83.29229,155.57259
"72572",976.6192,83.55108,155.93427
"72573",976.6325,83.56817,156.06233
"72574",976.6458,83.389946,155.99562
"72575",976.6591,83.06523,155.77684
"72576",976.6724,82.65751,155.4649
"72577",976.6857,82.210724,155.10117
"72578",976.69904,81.75662,154.71616
"72579",976.71234,81.322044,154.33647
"72580",976.72565,80.92653,153.98227
"72581",976.73895,80.57984,153.66454
"72582",976.75226,80.289314,153.39214
"72583",976.76556,80.06714,153.179
"72584",976.7789,79.93042,153.04437
"72585",976.7922,79.89624,153.00803
"72586",976.8055,79.971924,153.08047
"72587",976.8188,80.15015,153.25781
"72588",976.8321,80.40406,153.51642
"72589",976.8454,80.68726,153.81226
"72590",976.8587,80.938736,154.0852
"72591",976.872,81.11696,154.29277
"72592",976.8853,81.19508,154.4058
"72593",976.8986,81.15846,154.40654
"72594",976.9119,81.02663,154.31091
"72595",976.92523,80.82155,154.13792
"72596",976.93854,80.57252,153.91457
"72597",976.95184,80.30152,153.66147
"72598",976.96515,80.03052,153.39989
"72599",976.97845,79.77417,153.1445
"72600",976.99176,79.53979,152.90306
"72601",977.00507,79.33227,152.68115
"72602",977.0184,79.16136,152.48938
"72603",977.0317,79.03197,152.33377
"72604",977.045,78.94896,152.2205
"72605",977.0583,78.90257,152.14127
"72606",977.0716,78.890366,152.09476
"72607",977.0849,78.90013,152.06984
"72608",977.0982,78.924545,152.05988
"72609",977.1115,78.95628,152.058
"72610",977.1248,79.00023,152.06932
"72611",977.1381,79.04906,152.0869
"72612",977.1514,79.10277,152.11089
"72613",977.16473,79.149155,152.12923
"72614",977.17804,79.18089,152.13437
"72615",977.19135,79.19798,152.12585
"72616",977.20465,79.202866,152.10567
"72617",977.21796,79.19066,152.06854
"72618",977.23126,79.16136,152.01395
"72619",977.24457,79.1223,151.94867
"72620",977.2579,79.07347,151.8724
"72621",977.2712,79.01976,151.78973
"72622",977.2845,78.96361,151.70294
"72623",977.2978,78.90257,151.60951
"72624",977.3111,78.8513,151.52394
"72625",977.3244,78.83421,151.47095
"72626",977.3377,78.90257,151.50287
"72627",977.351,79.12474,151.69073
"72628",977.3643,79.554436,152.09308
"72629",977.3776,80.184326,152.70905
"72630",977.3909,80.94606,153.47653
"72631",977.40424,81.73464,154.29468
"72632",977.41754,82.423134,155.03738
"72633",977.43085,82.91142,155.6014
"72634",977.44415,83.160446,155.9414
"72635",977.45746,83.177536,156.05727
"72636",977.47076,83.004196,155.98323
"72637",977.4841,82.68925,155.76216
"72638",977.4974,82.28397,155.44093
"72639",977.5107,81.83719,155.06552
"72640",977.524,81.39773,154.68347
"72641",977.5373,80.99245,154.32187
"72642",977.5506,80.635994,153.99643
"72643",977.5639,80.33814,153.71846
"72644",977.5772,80.10132,153.4922
"72645",977.5905,79.93042,153.32446
"72646",977.6038,79.84253,153.2344
"72647",977.6171,79.85718,153.24414
"72648",977.63043,79.98169,153.3642
"72649",977.64374,80.19653,153.57846
"72650",977.65704,80.465096,153.85316
"72651",977.67035,80.73365,154.13626
"72652",977.68365,80.955826,154.38136
"72653",977.69696,81.08522,154.54063
"72654",977.71027,81.109634,154.59897
"72655",977.7236,81.03395,154.55797
"72656",977.7369,80.87526,154.4316
"72657",977.7502,80.655525,154.23921
"72658",977.7635,80.39918,154.00336
"72659",977.7768,80.13794,153.7546
"72660",977.7901,79.88403,153.505
"72661",977.8034,79.65209,153.26944
"72662",977.8167,79.447014,153.05348
"72663",977.83,79.276115,152.8653
"72664",977.8433,79.13695,152.7035
"72665",977.8566,79.029526,152.5691
"72666",977.86993,78.95628,152.46553
"72667",977.88324,78.91966,152.39629
"72668",977.89655,78.9099,152.35275
"72669",977.90985,78.92699,152.33577
"72670",977.92316,78.96117,152.33641
"72671",977.93646,79.00755,152.35033
"72672",977.94977,79.063705,152.37546
"72673",977.9631,79.11742,152.3999
"72674",977.9764,79.15892,152.41382
"72675",977.9897,79.18822,152.41682
"72676",978.003,79.19798,152.40121
"72677",978.0163,79.19066,152.36882
"72678",978.0296,79.168686,152.32155
"72679",978.0429,79.14183,152.2687
"72680",978.0562,79.10765,152.2077
"72681",978.0695,79.061264,152.13342
"72682",978.0828,79.00023,152.04305
"72683",978.0961,78.92699,151.93855
"72684",978.10944,78.86351,151.84154
"72685",978.12274,78.8513,151.79381
"72686",978.13605,78.96361,151.87021
"72687",978.14935,79.26391,152.13812
"72688",978.16266,79.77905,152.63026
"72689",978.17596,80.47242,153.31673
"72690",978.1893,81.26345,154.12253
"72691",978.2026,82.03006,154.92862
"72692",978.2159,82.65751,155.6195
"72693",978.2292,83.072556,156.1176
"72694",978.2425,83.25811,156.39917
"72695",978.2558,83.228806,156.47168
"72696",978.2691,83.03349,156.37727
"72697",978.2824,82.71366,156.15224
"72698",978.2957,82.32548,155.84886
"72699",978.309,81.91287,155.50893
"72700",978.3223,81.51736,155.17319
"72701",978.33563,81.15602,154.85927
"72702",978.34894,80.84352,154.5829
"72703",978.36224,80.584724,154.35046
"72704",978.37555,80.38697,154.17099
"72705",978.38885,80.2649,154.06102
"72706",978.40216,80.22827,154.03267
"72707",978.41547,80.289314,154.10085
"72708",978.4288,80.44068,154.26126
"72709",978.4421,80.66041,154.49477
"72710",978.4554,80.90456,154.75955
"72711",978.4687,81.129166,155.01244
"72712",978.482,81.28542,155.20398
"72713",978.4953,81.3489,155.30763
"72714",978.5086,81.304955,155.30585
"72715",978.5219,81.163345,155.20502
"72716",978.5352,80.95094,155.02898
"72717",978.5485,80.69703,154.80478
"72718",978.5618,80.42603,154.55557
"72719",978.57513,80.16235,154.3052
"72720",978.58844,79.920654,154.06857
"72721",978.60175,79.70336,153.8488
"72722",978.61505,79.51293,153.6491
"72723",978.62836,79.35668,153.47762
"72724",978.64166,79.22972,153.33055
"72725",978.65497,79.12718,153.20393
"72726",978.6683,79.05882,153.10829
"72727",978.6816,79.01976,153.03981
"72728",978.6949,79.00511,152.99452
"72729",978.7082,79.01976,152.97807
"72730",978.7215,79.0515,152.97917
"72731",978.7348,79.093,152.99103
"72732",978.7481,79.132065,153.00174
"72733",978.7614,79.15648,152.99902
"72734",978.7747,79.15892,152.9751
"72735",978.788,79.14427,152.93416
"72736",978.80133,79.11253,152.87567
