"","Time..s.","PPG.trace","Preprocessed.PPG"
"39304",533.8599,81.47097,154.86917
"39305",533.8732,82.08865,155.53282
"39306",533.88654,82.493935,156.00337
"39307",533.89984,82.6453,156.23268
"39308",533.91315,82.564735,156.23479
"39309",533.92645,82.31327,156.06348
"39310",533.93976,81.96414,155.78664
"39311",533.95306,81.58083,155.4647
"39312",533.9664,81.20485,155.13812
"39313",533.9797,80.86549,154.83643
"39314",533.993,80.567635,154.56561
"39315",534.0063,80.31373,154.32945
"39316",534.0196,80.113525,154.13905
"39317",534.0329,79.97925,154.00833
"39318",534.0462,79.920654,153.9491
"39319",534.0595,79.94751,153.97348
"39320",534.0728,80.05249,154.07681
"39321",534.0861,80.20874,154.23471
"39322",534.0994,80.37476,154.40726
"39323",534.11273,80.5066,154.55081
"39324",534.12604,80.570076,154.63013
"39325",534.13934,80.550545,154.62842
"39326",534.15265,80.445564,154.54065
"39327",534.16595,80.272224,154.38124
"39328",534.17926,80.062256,154.17978
"39329",534.19257,79.835205,153.95468
"39330",534.2059,79.61303,153.72736
"39331",534.2192,79.41039,153.51262
"39332",534.2325,79.237045,153.32085
"39333",534.2458,79.10033,153.16028
"39334",534.2591,78.99779,153.02962
"39335",534.2724,78.92699,152.92749
"39336",534.2857,78.88548,152.85245
"39337",534.299,78.87572,152.80785
"39338",534.3123,78.88304,152.78003
"39339",534.3256,78.907455,152.76953
"39340",534.3389,78.9514,152.77933
"39341",534.35223,79.00267,152.79782
"39342",534.36554,79.044174,152.80815
"39343",534.37885,79.07591,152.81001
"39344",534.39215,79.08812,152.79333
"39345",534.40546,79.08324,152.75995
"39346",534.41876,79.05882,152.70688
"39347",534.43207,79.01732,152.63596
"39348",534.4454,78.96361,152.55153
"39349",534.4587,78.90257,152.4581
"39350",534.472,78.83177,152.353
"39351",534.4853,78.765854,152.25056
"39352",534.4986,78.72678,152.17293
"39353",534.5119,78.76097,152.16733
"39354",534.5252,78.93431,152.30194
"39355",534.5385,79.293205,152.62753
"39356",534.5518,79.84497,153.15721
"39357",534.5651,80.54078,153.84818
"39358",534.5784,81.27566,154.59996
"39359",534.59174,81.92508,155.28925
"39360",534.60504,82.37675,155.80107
"39361",534.61835,82.58427,156.08287
"39362",534.63165,82.55497,156.13434
"39363",534.64496,82.340126,155.99934
"39364",534.65826,82.01053,155.74287
"39365",534.6716,81.636986,155.43216
"39366",534.6849,81.26101,155.10735
"39367",534.6982,80.90944,154.79518
"39368",534.7115,80.59937,154.51353
"39369",534.7248,80.325935,154.25883
"39370",534.7381,80.10132,154.0444
"39371",534.7514,79.94995,153.89621
"39372",534.7647,79.886475,153.83118
"39373",534.778,79.93042,153.87158
"39374",534.7913,80.07202,154.01102
"39375",534.8046,80.27955,154.2208
"39376",534.81793,80.499275,154.44926
"39377",534.83124,80.68238,154.64798
"39378",534.84454,80.78493,154.77185
"39379",534.85785,80.79225,154.80371
"39380",534.87115,80.70435,154.74057
"39381",534.88446,80.5359,154.59413
"39382",534.89777,80.31861,154.3936
"39383",534.9111,80.079346,154.16429
"39384",534.9244,79.84009,153.92752
"39385",534.9377,79.61547,153.6979
"39386",534.951,79.41772,153.48813
"39387",534.9643,79.24925,153.30147
"39388",534.9776,79.11986,153.1486
"39389",534.9909,79.02464,153.02588
"39390",535.0042,78.96605,152.9368
"39391",535.0175,78.94408,152.8825
"39392",535.0308,78.9514,152.85683
"39393",535.0441,78.97826,152.8509
"39394",535.05743,79.00755,152.84827
"39395",535.07074,79.04173,152.85143
"39396",535.08405,79.06615,152.84589
"39397",535.09735,79.07347,152.82402
"39398",535.11066,79.061264,152.78285
"39399",535.12396,79.03197,152.72421
"39400",535.13727,78.98558,152.64757
"39401",535.1506,78.92699,152.55727
"39402",535.1639,78.86839,152.46513
"39403",535.1772,78.82933,152.3907
"39404",535.1905,78.856186,152.38097
"39405",535.2038,79.00267,152.4917
"39406",535.2171,79.32006,152.77792
"39407",535.2304,79.818115,153.25473
"39408",535.2437,80.462654,153.89359
"39409",535.257,81.15358,154.59897
"39410",535.2703,81.78104,155.26248
"39411",535.2836,82.24002,155.77713
"39412",535.29694,82.47929,156.0864
"39413",535.31024,82.49149,156.17609
"39414",535.32355,82.32304,156.0855
"39415",535.33685,82.02762,155.86267
"39416",535.35016,81.67605,155.57446
"39417",535.36346,81.31716,155.26796
"39418",535.3768,80.98268,154.97464
"39419",535.3901,80.68726,154.70993
"39420",535.4034,80.44068,154.48483
"39421",535.4167,80.24048,154.2984
"39422",535.43,80.10132,154.16675
"39423",535.4433,80.042725,154.11133
"39424",535.4566,80.07446,154.14441
"39425",535.4699,80.19653,154.2688
"39426",535.4832,80.37965,154.45805
"39427",535.4965,80.58228,154.67256
"39428",535.5098,80.75563,154.8641
"39429",535.52313,80.86549,154.99759
"39430",535.53644,80.885025,155.04417
"39431",535.54974,80.81911,155.00592
"39432",535.56305,80.6775,154.88991
"39433",535.57635,80.482185,154.71577
"39434",535.58966,80.2649,154.51357
"39435",535.60297,80.04028,154.29723
"39436",535.6163,79.82544,154.08365
"39437",535.6296,79.63012,153.88287
"39438",535.6429,79.4641,153.70529
"39439",535.6562,79.32983,153.55426
"39440",535.6695,79.22728,153.43077
"39441",535.6828,79.16136,153.3407
"39442",535.6961,79.1223,153.27542
"39443",535.7094,79.10033,153.22601
"39444",535.7227,79.093,153.19057
"39445",535.736,79.093,153.16222
"39446",535.7493,79.10277,153.14363
"39447",535.76263,79.11009,153.12291
"39448",535.77594,79.114975,153.09998
"39449",535.78925,79.10521,153.06255
"39450",535.80255,79.08812,153.01749
"39451",535.81586,79.06615,152.96701
"39452",535.82916,79.05882,152.9305
"39453",535.84247,79.093,152.93526
"39454",535.8558,79.219955,153.03386
"39455",535.8691,79.49096,153.28049
"39456",535.8824,79.923096,153.69672
"39457",535.8957,80.49683,154.26805
"39458",535.909,81.13893,154.92567
"39459",535.9223,81.74685,155.56918
"39460",535.9356,82.21561,156.09253
"39461",535.9489,82.476845,156.423
"39462",535.9622,82.51835,156.54192
"39463",535.9755,82.37919,156.48146
"39464",535.98883,82.11551,156.29213
"39465",536.00214,81.7908,156.03354
"39466",536.01544,81.45632,155.75502
"39467",536.02875,81.143814,155.48802
"39468",536.04205,80.86549,155.24545
"39469",536.05536,80.62379,155.03079
"39470",536.06866,80.428474,154.85498
"39471",536.082,80.28687,154.72678
"39472",536.0953,80.218506,154.66737
"39473",536.1086,80.23071,154.6864
"39474",536.1219,80.325935,154.78883
"39475",536.1352,80.482185,154.95528
"39476",536.1485,80.66041,155.14857
"39477",536.1618,80.80934,155.31815
"39478",536.1751,80.89479,155.4289
"39479",536.1884,80.89479,155.45686
"39480",536.2017,80.81178,155.40182
"39481",536.215,80.655525,155.27094
"39482",536.22833,80.45289,155.08879
"39483",536.24164,80.23071,154.88077
"39484",536.25494,80.01099,154.66824
"39485",536.26825,79.80347,154.46106
"39486",536.28156,79.62524,154.27669
"39487",536.29486,79.47875,154.11848
"39488",536.30817,79.36645,153.98988
"39489",536.3215,79.28832,153.89195
"39490",536.3348,79.24193,153.82332
"39491",536.3481,79.22484,153.78253
"39492",536.3614,79.23216,153.76562
"39493",536.3747,79.259026,153.7685
"39494",536.388,79.293205,153.77951
"39495",536.4013,79.32983,153.79404
"39496",536.4146,79.35424,153.7975
"39497",536.4279,79.35668,153.77975
"39498",536.4412,79.33227,153.73523
"39499",536.4545,79.28832,153.67041
"39500",536.46783,79.234604,153.59445
"39501",536.48114,79.200424,153.53635
"39502",536.49445,79.22728,153.53821
"39503",536.50775,79.36889,153.65567
"39504",536.52106,79.65942,153.92647
"39505",536.53436,80.096436,154.35284
"39506",536.54767,80.63355,154.89297
"39507",536.561,81.18288,155.4621
"39508",536.5743,81.64919,155.96538
"39509",536.5876,81.95438,156.3221
"39510",536.6009,82.0618,156.4906
"39511",536.6142,81.98367,156.47691
"39512",536.6275,81.76883,156.32407
"39513",536.6408,81.47341,156.08392
"39514",536.6541,81.15358,155.81013
"39515",536.6674,80.848404,155.54102
"39516",536.6807,80.570076,155.2892
"39517",536.69403,80.32838,155.06532
"39518",536.70734,80.11841,154.86562
"39519",536.72064,79.94751,154.69843
"39520",536.73395,79.82544,154.5747
"39521",536.74725,79.77905,154.52286
"39522",536.76056,79.81079,154.5477
"39523",536.77386,79.91089,154.64188
"39524",536.7872,80.05005,154.77826
"39525",536.8005,80.184326,154.9141
"39526",536.8138,80.274666,155.0102
"39527",536.8271,80.291756,155.03587
"39528",536.8404,80.22339,154.97662
"39529",536.8537,80.08667,154.8469
"39530",536.867,79.903564,154.6665
"39531",536.8803,79.693596,154.45352
"39532",536.8936,79.48119,154.23154
"39533",536.9069,79.27856,154.01268
"39534",536.9202,79.093,153.80458
"39535",536.93353,78.93431,153.61754
"39536",536.94684,78.80492,153.45483
"39537",536.96014,78.70725,153.31982
"39538",536.97345,78.641335,153.2135
"39539",536.98676,78.59983,153.12953
"39540",537.00006,78.5803,153.06624
"39541",537.01337,78.572975,153.01454
"39542",537.0267,78.57786,152.97482
"39543",537.04,78.58518,152.9377
"39544",537.0533,78.59251,152.9008
"39545",537.0666,78.590065,152.85437
"39546",537.0799,78.57786,152.7981
"39547",537.0932,78.553444,152.72923
"39548",537.1065,78.52415,152.65472
"39549",537.1198,78.49729,152.58174
"39550",537.1331,78.50706,152.54454
"39551",537.1464,78.59983,152.59065
"39552",537.1597,78.82201,152.76907
"39553",537.17303,79.200424,153.11067
"39554",537.18634,79.71557,153.60083
"39555",537.19965,80.30396,154.18033
"39556",537.21295,80.86305,154.74892
"39557",537.22626,81.29275,155.20558
"39558",537.23956,81.52712,155.48036
"39559",537.25287,81.55886,155.55983
"39560",537.2662,81.41482,155.46451
"39561",537.2795,81.15358,155.24748
"39562",537.2928,80.84352,154.97348
"39563",537.3061,80.53101,154.68733
"39564",537.3194,80.24048,154.41339
"39565",537.3327,79.98169,154.16211
"39566",537.346,79.75952,153.93936
"39567",537.3593,79.571526,153.74385
"39568",537.3726,79.43481,153.59373
"39569",537.3859,79.37377,153.51503
"39570",537.39923,79.40307,153.52475
"39571",537.41254,79.517815,153.62083
"39572",537.42584,79.691154,153.7791
"39573",537.43915,79.88159,153.95988
"39574",537.45245,80.04028,154.11487
"39575",537.46576,80.128174,154.20401
"39576",537.47906,80.130615,154.21045
"39577",537.4924,80.05249,154.13641
"39578",537.5057,79.906006,153.99158
"39579",537.519,79.71801,153.80064
"39580",537.5323,79.517815,153.59163
"39581",537.5456,79.3225,153.38124
"39582",537.5589,79.151596,153.18916
"39583",537.5722,79.009995,153.02104
"39584",537.5855,78.89769,152.87779
"39585",537.5988,78.8098,152.75545
"39586",537.6121,78.751205,152.65965
"39587",537.6254,78.709694,152.57912
"39588",537.63873,78.677956,152.50705
"39589",537.65204,78.658424,152.4462
"39590",537.66534,78.64866,152.3945
"39591",537.67865,78.643776,152.34738
"39592",537.69196,78.63157,152.29279
"39593",537.70526,78.61448,152.23293
"39594",537.71857,78.590065,152.1652
"39595",537.7319,78.55833,152.0894
"39596",537.7452,78.52659,152.0126
"39597",537.7585,78.51194,151.9519
"39598",537.7718,78.555885,151.94934
"39599",537.7851,78.70481,152.05313
"39600",537.7984,79.00023,152.30807
"39601",537.8117,79.44213,152.71873
"39602",537.825,79.99878,153.25795
"39603",537.8383,80.58961,153.84874
"39604",537.8516,81.112076,154.38963
"39605",537.8649,81.48318,154.79549
"39606",537.87823,81.66384,155.0225
"39607",537.89154,81.65652,155.06718
"39608",537.90485,81.495384,154.95782
"39609",537.91815,81.23659,154.74576
"39610",537.93146,80.936295,154.48412
"39611",537.94476,80.63355,154.21063
"39612",537.95807,80.35035,153.94724
"39613",537.9714,80.09888,153.70671
"39614",537.9847,79.87915,153.49008
"39615",537.998,79.708244,153.3154
"39616",538.0113,79.603264,153.2013
"39617",538.0246,79.58129,153.16692
"39618",538.0379,79.64965,153.22218
"39619",538.0512,79.79614,153.35773
"39620",538.0645,79.98169,153.5369
"39621",538.0778,80.16235,153.71698
"39622",538.0911,80.291756,153.85146
"39623",538.10443,80.343025,153.91185
"39624",538.11774,80.306404,153.88596
"39625",538.13104,80.19653,153.78566
"39626",538.14435,80.028076,153.62335
"39627",538.15765,79.823,153.41916
"39628",538.17096,79.61303,153.20366
"39629",538.18427,79.40795,152.98648
"39630",538.1976,79.22728,152.78731
"39631",538.2109,79.08324,152.61911
"39632",538.2242,78.975815,152.48303
"39633",538.2375,78.90013,152.37534
"39634",538.2508,78.85863,152.29945
"39635",538.2641,78.84886,152.25401
"39636",538.2774,78.86107,152.23024
"39637",538.2907,78.89281,152.22638
"39638",538.304,78.92699,152.22595
"39639",538.3173,78.958725,152.22415
"39640",538.3306,78.96849,152.20137
"39641",538.34393,78.96117,152.1618
"39642",538.35724,78.94408,152.11224
"39643",538.37054,78.93675,152.07191
"39644",538.38385,78.975815,152.07774
"39645",538.39716,79.10765,152.17757
"39646",538.41046,79.36889,152.41092
"39647",538.42377,79.77661,152.79892
"39648",538.4371,80.30152,153.31685
"39649",538.4504,80.87526,153.90001
"39650",538.4637,81.40017,154.45227
"39651",538.477,81.78348,154.87933
"39652",538.4903,81.97635,155.12794
"39653",538.5036,81.97635,155.18971
"39654",538.5169,81.815216,155.09035
"39655",538.5302,81.55398,154.88583
"39656",538.5435,81.248795,154.62921
"39657",538.5568,80.94606,154.36551
"39658",538.5701,80.672615,154.12163
"39659",538.58344,80.430916,153.90096
"39660",538.59674,80.216064,153.69957
"39661",538.61005,80.03784,153.5281
"39662",538.62335,79.906006,153.39746
"39663",538.63666,79.835205,153.32373
"39664",538.64996,79.83765,153.32101
"39665",538.66327,79.91821,153.39651
"39666",538.6766,80.05737,153.53311
"39667",538.6899,80.21362,153.69116
"39668",538.7032,80.34791,153.83212
"39669",538.7165,80.428474,153.92357
"39670",538.7298,80.430916,153.9394
"39671",538.7431,80.35523,153.8772
"39672",538.7564,80.21118,153.74425
"39673",538.7697,80.025635,153.5653
"39674",538.783,79.82788,153.36835
"39675",538.7963,79.639885,153.17497
"39676",538.80963,79.47387,152.9977
"39677",538.82294,79.33959,152.84697
"39678",538.83624,79.237045,152.72379
"39679",538.84955,79.17113,152.63402
"39680",538.86285,79.132065,152.56905
"39681",538.87616,79.12718,152.53703
"39682",538.88947,79.14183,152.5244
"39683",538.9028,79.17113,152.52687
"39684",538.9161,79.20531,152.53514
"39685",538.9294,79.24437,152.54936
"39686",538.9427,79.26879,152.55017
"39687",538.956,79.276115,152.53464
"39688",538.9693,79.26635,152.50224
"39689",538.9826,79.24437,152.45734
"39690",538.9959,79.22972,152.41907
"39691",539.0092,79.24925,152.41452
"39692",539.0225,79.35668,152.49849
"39693",539.0358,79.61059,152.73228
"39694",539.04913,80.0354,153.14493
"39695",539.06244,80.60914,153.71977
"39696",539.07574,81.26833,154.39801
"39697",539.08905,81.91043,155.07974
"39698",539.10236,82.43046,155.65947
"39699",539.11566,82.75273,156.0577
"39700",539.12897,82.85527,156.24626
"39701",539.1423,82.77959,156.25981
"39702",539.1556,82.581825,156.14891
"39703",539.1689,82.32304,155.97081
"39704",539.1822,82.05203,155.7724
"39705",539.1955,81.80301,155.58751
"39706",539.2088,81.57839,155.41924
"39707",539.2221,81.36843,155.2586
"39708",539.2354,81.16579,155.09872
"39709",539.2487,80.98024,154.94962
"39710",539.262,80.82643,154.82645
"39711",539.2753,80.72144,154.74728
"39712",539.28864,80.68482,154.73322
"39713",539.30194,80.71168,154.78148
"39714",539.31525,80.782486,154.87453
"39715",539.32855,80.867935,154.98444
"39716",539.34186,80.93385,155.07748
"39717",539.35516,80.95094,155.12376
"39718",539.36847,80.90944,155.11198
"39719",539.3818,80.8069,155.03787
"39720",539.3951,80.65308,154.90927
"39721",539.4084,80.465096,154.7417
"39722",539.4217,80.257576,154.54872
"39723",539.435,80.04761,154.3468
"39724",539.4483,79.852295,154.15298
"39725",539.4616,79.67895,153.97502
"39726",539.4749,79.534904,153.82094
"39727",539.4882,79.429924,153.70142
"39728",539.5015,79.35424,153.60791
"39729",539.51483,79.30541,153.5389
"39730",539.52814,79.28344,153.49521
"39731",539.54144,79.28588,153.47525
"39732",539.55475,79.30297,153.47002
"39733",539.56805,79.32494,153.4702
"39734",539.58136,79.34692,153.47107
"39735",539.59467,79.35424,153.45798
"39736",539.608,79.33959,153.42314
"39737",539.6213,79.30053,153.36343
"39738",539.6346,79.24681,153.28786
"39739",539.6479,79.18089,153.1984
"39740",539.6612,79.10521,153.0971
"39741",539.6745,79.029526,152.99345
"39742",539.6878,78.9514,152.885
"39743",539.7011,78.887924,152.78874
"39744",539.7144,78.87572,152.74178
"39745",539.7277,78.96117,152.79208
"39746",539.741,79.21263,153.01108
"39747",539.75433,79.66674,153.44058
"39748",539.76764,80.30396,154.06738
"39749",539.78094,81.03883,154.81175
"39750",539.79425,81.75418,155.55957
"39751",539.80756,82.3328,156.19301
"39752",539.82086,82.684364,156.61748
"39753",539.83417,82.794235,156.81123
"39754",539.8475,82.69657,156.80089
"39755",539.8608,82.4622,156.65079
"39756",539.8741,82.159454,156.42499
"39757",539.8874,81.846954,156.17998
"39758",539.9007,81.566185,155.95692
"39759",539.914,81.32937,155.76906
"39760",539.9273,81.126724,155.60796
"39761",539.9406,80.9485,155.46495
"39762",539.9539,80.79225,155.33835
"39763",539.9672,80.66529,155.23615
"39764",539.9805,80.5774,155.16905
"39765",539.99384,80.5481,155.1578
"39766",540.00714,80.57496,155.2018
"39767",540.02045,80.64088,155.28569
"39768",540.03375,80.709236,155.37408
"39769",540.04706,80.75319,155.4402
"39770",540.06036,80.7483,155.45885
"39771",540.07367,80.68238,155.41632
"39772",540.087,80.56275,155.31802
"39773",540.1003,80.40162,155.17448
"39774",540.1136,80.21118,154.9966
"39775",540.1269,80.00366,154.79568
"39776",540.1402,79.79614,154.58829
"39777",540.1535,79.603264,154.38904
"39778",540.1668,79.43725,154.21062
"39779",540.1801,79.30297,154.05875
"39780",540.1934,79.20531,153.9393
"39781",540.2067,79.13939,153.84854
"39782",540.22003,79.10033,153.78258
"39783",540.23334,79.078354,153.73248
"39784",540.24664,79.06859,153.69391
"39785",540.25995,79.06615,153.66235
"39786",540.27325,79.07347,153.64049
"39787",540.28656,79.080795,153.61885
"39788",540.29987,79.08812,153.59744
"39789",540.3132,79.08812,153.56894
"39790",540.3265,79.078354,153.53067
"39791",540.3398,79.05882,153.48233
"39792",540.3531,79.029526,153.42361
"39793",540.3664,78.992905,153.35666
"39794",540.3797,78.9514,153.28368
"39795",540.393,78.91234,153.21184
"39796",540.4063,78.87572,153.14122
"39797",540.4196,78.839096,153.06946
"39798",540.4329,78.802475,152.99655
"39799",540.4462,78.76097,152.91762
"39800",540.45953,78.71458,152.8325
"39801",540.47284,78.66331,152.74106
"39802",540.48615,78.61448,152.65045
"39803",540.49945,78.59495,152.58762
"39804",540.51276,78.641335,152.59009
"39805",540.52606,78.82201,152.7283
"39806",540.53937,79.1931,153.06258
"39807",540.5527,79.77173,153.61598
"39808",540.566,80.51148,154.3486
"39809",540.5793,81.31472,155.16783
"39810",540.5926,82.039825,155.93402
"39811",540.6059,82.57206,156.53
"39812",540.6192,82.84306,156.88138
"39813",540.6325,82.85771,156.98488
"39814",540.6458,82.67948,156.89595
"39815",540.6591,82.38407,156.68428
"39816",540.6724,82.04227,156.41698
"39817",540.6857,81.71267,156.1512
"39818",540.69904,81.42458,155.91664
"39819",540.71234,81.18532,155.7219
"39820",540.72565,80.987564,155.56119
"39821",540.73895,80.81911,155.4236
"39822",540.75226,80.6775,155.30759
"39823",540.76556,80.57252,155.22379
"39824",540.7789,80.50904,155.1782
"39825",540.7922,80.5066,155.19168
"39826",540.8055,80.55543,155.25635
"39827",540.8188,80.638435,155.35672
"39828",540.8321,80.723885,155.46213
"39829",540.8454,80.7776,155.53847
"39830",540.8587,80.77028,155.55545
"39831",540.872,80.69703,155.50627
"39832",540.8853,80.56519,155.39622
"39833",540.8986,80.38697,155.23567
"39834",540.9119,80.181885,155.04268
"39835",540.92523,79.971924,154.83841
"39836",540.93854,79.77173,154.63733
"39837",540.95184,79.59106,154.44952
"39838",540.96515,79.43481,154.28049
"39839",540.97845,79.30541,154.13342
"39840",540.99176,79.20531,154.01161
"39841",541.00507,79.12962,153.91109
"39842",541.0184,79.08568,153.83994
"39843",541.0317,79.06859,153.79427
"39844",541.045,79.080795,153.77736
"39845",541.0583,79.11009,153.77792
"39846",541.0716,79.14427,153.78429
"39847",541.0849,79.17113,153.7844
"39848",541.0982,79.17845,153.76581
"39849",541.1115,79.166245,153.72792
"39850",541.1248,79.14427,153.67989
"39851",541.1381,79.11253,153.6214
"39852",541.1514,79.078354,153.55948
"39853",541.16473,79.044174,153.49649
"39854",541.17804,79.00267,153.42511
"39855",541.19135,78.95628,153.34755
"39856",541.20465,78.90257,153.26122
"39857",541.21796,78.84398,153.16832
"39858",541.23126,78.785385,153.0736
"39859",541.24457,78.729225,152.97948
"39860",541.2579,78.66819,152.87872
"39861",541.2712,78.6096,152.7785
"39862",541.2845,78.555885,152.68134
"39863",541.2978,78.51682,152.59714
"39864",541.3111,78.52415,152.5581
"39865",541.3244,78.63889,152.62672
"39866",541.3377,78.922104,152.8674
"39867",541.351,79.412834,153.32445
"39868",541.3643,80.10132,153.99458
"39869",541.3776,80.90944,154.80588
"39870",541.3909,81.705345,155.6302
"39871",541.40424,82.35966,156.33781
"39872",541.41754,82.774704,156.8266
"39873",541.43085,82.92119,157.0598
"39874",541.44415,82.83086,157.06076
"39875",541.45746,82.56962,156.88799
"39876",541.47076,82.213165,156.61183
"39877",541.4841,81.832306,156.30014
"39878",541.4974,81.47097,155.99606
"39879",541.5107,81.15846,155.72952
"39880",541.524,80.89479,155.50206
"39881",541.5373,80.672615,155.30785
"39882",541.5506,80.49683,155.15309
"39883",541.5639,80.37476,155.04655
"39884",541.5772,80.31861,155.00212
"39885",541.5905,80.343025,155.0365
"39886",541.6038,80.445564,155.14977
"39887",541.6171,80.59937,155.3175
"39888",541.63043,80.765396,155.50226
"39889",541.64374,80.902115,155.6629
"39890",541.65704,80.96803,155.75702
"39891",541.67035,80.95094,155.77019
"39892",541.68365,80.84352,155.69249
"39893",541.69696,80.65797,155.5333
"39894",541.71027,80.41871,155.3146
"39895",541.7236,80.15991,155.0689
"39896",541.7369,79.903564,154.81754
"39897",541.7502,79.6643,154.57526
"39898",541.7635,79.45434,154.3548
"39899",541.7768,79.281,154.1644
"39900",541.7901,79.151596,154.01253
"39901",541.8034,79.05882,153.89323
"39902",541.8167,79.00755,153.81255
"39903",541.83,78.98802,153.762
"39904",541.8433,78.98802,153.73036
"39905",541.8566,78.995346,153.70605
"39906",541.86993,79.00511,153.68442
"39907",541.88324,79.01488,153.66309
"39908",541.89655,79.02464,153.64206
"39909",541.90985,79.03197,153.6189
"39910",541.92316,79.029526,153.5862
"39911",541.93646,79.012436,153.53877
"39912",541.94977,78.97337,153.46884
"39913",541.9631,78.91478,153.37816
"39914",541.9764,78.84398,153.27344
"39915",541.9897,78.76341,153.15674
"39916",542.003,78.677956,153.03264
"39917",542.0163,78.590065,152.90343
"39918",542.0296,78.502174,152.77147
"39919",542.0429,78.42649,152.64897
"39920",542.0562,78.399635,152.57294
"39921",542.0695,78.47776,152.60104
"39922",542.0828,78.71702,152.79272
"39923",542.0961,79.17113,153.20674
"39924",542.10944,79.82544,153.83514
"39925",542.12274,80.60914,154.61339
"39926",542.13605,81.40505,155.42834
"39927",542.14935,82.08133,156.14853
"39928",542.16266,82.54032,156.67256
"39929",542.17596,82.74296,156.95459
"39930",542.1893,82.70878,157.00613
"39931",542.2026,82.493935,156.87595
"39932",542.2159,82.16922,156.62917
"39933",542.2292,81.795685,156.32343
"39934",542.2425,81.42458,156.00844
"39935",542.2558,81.08522,155.7136
"39936",542.2691,80.78493,155.44722
"39937",542.2824,80.53101,155.21783
"39938",542.2957,80.33082,155.03424
"39939",542.309,80.19653,154.9103
"39940",542.3223,80.14038,154.86029
"39941",542.33563,80.177,154.9013
"39942",542.34894,80.29908,155.02892
"39943",542.36224,80.479744,155.21893
"39944",542.37555,80.67994,155.43413
"39945",542.38885,80.850845,155.62628
"39946",542.40216,80.953384,155.75542
"39947",542.41547,80.95094,155.78278
"39948",542.4288,80.848404,155.70996
"39949",542.4421,80.66041,155.54848
"39950",542.4554,80.42115,155.32986
"39951",542.4687,80.15747,155.07935
"39952",542.482,79.89624,154.82303
"39953",542.4953,79.65453,154.57808
"39954",542.5086,79.43481,154.34755
"39955",542.5219,79.24925,154.14433
"39956",542.5352,79.10521,153.97682
"39957",542.5485,79.00267,153.84631
"39958",542.5618,78.941635,153.7541
"39959",542.57513,78.91478,153.69417
"39960",542.58844,78.91234,153.6578
"39961",542.60175,78.92699,153.63846
"39962",542.61505,78.9514,153.62933
"39963",542.62836,78.9807,153.62585
"39964",542.64166,79.00511,153.61841
"39965",542.65497,79.01976,153.60196
"39966",542.6683,79.01488,153.56644
"39967",542.6816,78.995346,153.51611
"39968",542.6949,78.96117,153.45053
"39969",542.7082,78.91234,153.36923
"39970",542.7215,78.84886,153.27176
"39971",542.7348,78.77318,153.1601
"39972",542.7481,78.68772,153.0363
"39973",542.7614,78.59983,152.9074
"39974",542.7747,78.51682,152.78062
"39975",542.788,78.47532,152.69276
"39976",542.80133,78.536354,152.70615
"39977",542.81464,78.78294,152.907
"39978",542.82794,79.26635,153.35237
"39979",542.84125,79.98413,154.04723
"39980",542.85455,80.86061,154.92322
"39981",542.86786,81.778595,155.8681
"39982",542.88116,82.58427,156.72935
"39983",542.8945,83.158005,157.38385
"39984",542.9078,83.44854,157.77307
"39985",542.9211,83.47295,157.90526
"39986",542.9344,83.28741,157.82825
"39987",542.9477,82.97734,157.62091
"39988",542.961,82.61112,157.34773
"39989",542.9743,82.247345,157.06555
"39990",542.9876,81.917755,156.8062
"39991",543.0009,81.62966,156.57803
"39992",543.0142,81.38064,156.37994
"39993",543.0275,81.16579,156.20824
"39994",543.04083,81.00221,156.0811
"39995",543.05414,80.89723,156.00745
"39996",543.06744,80.86305,156.00131
"39997",543.08075,80.902115,156.06735
"39998",543.09406,80.99977,156.1932
"39999",543.10736,81.129166,156.35385
"40000",543.12067,81.25124,156.51122
"40001",543.134,81.32693,156.626
"40002",543.1473,81.32937,156.66992
"40003",543.1606,81.24635,156.62845
"40004",543.1739,81.08278,156.50383
"40005",543.1872,80.85573,156.31062
"40006",543.2005,80.58961,156.07124
"40007",543.2138,80.308846,155.80891
"40008",543.2271,80.0354,155.54512
"40009",543.2404,79.77661,155.28745
"40010",543.2537,79.54711,155.05096
"40011",543.267,79.35668,154.84637
"40012",543.28033,79.20531,154.6749
"40013",543.29364,79.09056,154.53531
"40014",543.30695,79.012436,154.42876
"40015",543.32025,78.96361,154.34906
"40016",543.33356,78.93919,154.29225
"40017",543.34686,78.922104,154.242
"40018",543.36017,78.9099,154.1961
"40019",543.3735,78.90013,154.15227
"40020",543.3868,78.887924,154.10568
"40021",543.4001,78.86595,154.04895
"40022",543.4134,78.83421,153.98177
"40023",543.4267,78.79027,153.90138
"40024",543.44,78.73411,153.80742
"40025",543.4533,78.66331,153.69705
"40026",543.4666,78.58518,153.57715
"40027",543.4799,78.49973,153.44748
"40028",543.4932,78.4094,153.31026
"40029",543.50653,78.314186,153.16533
"40030",543.51984,78.24338,153.04184
"40031",543.53314,78.23361,152.97717
"40032",543.54645,78.36057,153.04893
"40033",543.55975,78.69993,153.33705
"40034",543.57306,79.28588,153.88237
"40035",543.58636,80.07202,154.6462
"40036",543.5997,80.95827,155.5347
"40037",543.613,81.80789,156.41428
"40038",543.6263,82.48661,157.14949
"40039",543.6396,82.90898,157.64957
"40040",543.6529,83.05791,157.8894
"40041",543.6662,82.98222,157.90929
"40042",543.6795,82.7454,157.76566
"40043",543.6928,82.41337,157.51942
"40044",543.7061,82.05203,157.2335
"40045",543.7194,81.705345,156.95094
"40046",543.7327,81.39529,156.69418
"40047",543.74603,81.12428,156.46678
"40048",543.75934,80.89479,156.27243
"40049",543.77264,80.70435,156.10995
"40050",543.78595,80.567635,155.99525
"40051",543.79926,80.499275,155.94464
"40052",543.81256,80.5066,155.96758
"40053",543.82587,80.58961,156.06642
"40054",543.8392,80.71656,156.2118
"40055",543.8525,80.85329,156.37093
"40056",543.8658,80.95827,156.50258
"40057",543.8791,81.00221,156.57648
"40058",543.8924,80.970474,156.57607
"40059",543.9057,80.86549,156.50142
"40060",543.919,80.689705,156.35268
"40061",543.9323,80.45777,156.1423
"40062",543.9456,80.18921,155.88805
"40063",543.9589,79.90845,155.61319
"40064",543.9722,79.62768,155.32956
"40065",543.98553,79.36889,155.05913
"40066",543.99884,79.14427,154.81479
"40067",544.01215,78.96117,154.60493
"40068",544.02545,78.81712,154.42842
"40069",544.03876,78.71458,154.28891
"40070",544.05206,78.6511,154.18526
"40071",544.06537,78.61936,154.11136
"40072",544.0787,78.607155,154.056
"40073",544.092,78.607155,154.01247
"40074",544.1053,78.607155,153.96893
"40075",544.1186,78.59983,153.91808
"40076",544.1319,78.58518,153.85966
"40077",544.1452,78.56077,153.79103
"40078",544.1585,78.521706,153.70699
"40079",544.1718,78.47288,153.61195
"40080",544.1851,78.41917,153.51051
"40081",544.1984,78.35569,153.39763
"40082",544.21173,78.28245,153.273
"40083",544.22504,78.204315,153.14119
"40084",544.23834,78.12131,153.00206
"40085",544.25165,78.030975,152.85301
"40086",544.26495,77.943085,152.70358
"40087",544.27826,77.89914,152.59535
"40088",544.29156,77.962616,152.59317
"40089",544.3049,78.221405,152.78828
"40090",544.3182,78.71458,153.22588
"40091",544.3315,79.44213,153.91325
"40092",544.3448,80.31861,154.7723
"40093",544.3581,81.214615,155.67825
"40094",544.3714,81.97879,156.4804
"40095",544.3847,82.511024,157.07446
"40096",544.398,82.76982,157.41173
"40097",544.4113,82.76982,157.49829
"40098",544.4246,82.56962,157.38464
"40099",544.4379,82.23514,157.13046
"40100",544.45123,81.83963,156.80481
"40101",544.46454,81.43679,156.45946
"40102",544.47784,81.06325,156.13081
"40103",544.49115,80.73609,155.83688
"40104",544.50446,80.45533,155.57913
"40105",544.51776,80.22827,155.3663
"40106",544.53107,80.059814,155.20499
"40107",544.5444,79.96704,155.11407
"40108",544.5577,79.9646,155.1106
"40109",544.571,80.05249,155.19739
"40110",544.5843,80.20386,155.3504
"40111",544.5976,80.38453,155.53745
"40112",544.6109,80.5481,155.71304
"40113",544.6242,80.6482,155.83028
"40114",544.6375,80.66529,155.86763
"40115",544.6508,80.59693,155.82007
"40116",544.6641,80.445564,155.68736
"40117",544.6774,80.23071,155.48643
"40118",544.69073,79.97925,155.24219
"40119",544.70404,79.71557,154.97786
"40120",544.71735,79.4519,154.70529
"40121",544.73065,79.20775,154.44402
"40122",544.74396,78.995346,154.20685
"40123",544.75726,78.819565,153.99966
"40124",544.77057,78.6804,153.82361
"40125",544.7839,78.57786,153.67982
"40126",544.7972,78.5095,153.56702
"40127",544.8105,78.47288,153.48381
"40128",544.8238,78.45579,153.41899
"40129",544.8371,78.45579,153.37073
"40130",544.8504,78.467995,153.33467
"40131",544.8637,78.4802,153.299
"40132",544.877,78.487526,153.25882
"40133",544.8903,78.48264,153.20667
"40134",544.9036,78.467995,153.14459
"40135",544.91693,78.44114,153.06985
"40136",544.93024,78.40452,152.98451
"40137",544.94354,78.363014,152.89314
"40138",544.95685,78.31663,152.7956
"40139",544.97015,78.260475,152.68683
"40140",544.98346,78.19211,152.5641
"40141",544.99677,78.1091,152.42459
"40142",545.0101,78.013885,152.27028
"40143",545.0234,77.93332,152.12764
"40144",545.0367,77.91379,152.04352
"40145",545.05,78.03342,152.09795
"40146",545.0633,78.365456,152.36853
"40147",545.0766,78.9514,152.9034
"40148",545.0899,79.75464,153.67386
"40149",545.1032,80.672615,154.58417
"40150",545.1165,81.5613,155.49388
"40151",545.1298,82.27909,156.26047
"40152",545.1431,82.72831,156.78091
"40153",545.15643,82.88457,157.02243
"40154",545.16974,82.78447,157.01248
"40155",545.18304,82.5037,156.81873
"40156",545.19635,82.11307,156.50633
"40157",545.20966,81.68093,156.14023
"40158",545.22296,81.26101,155.77284
"40159",545.23627,80.88014,155.43138
"40160",545.2496,80.53834,155.11708
"40161",545.2629,80.25025,154.84583
"40162",545.2762,80.02319,154.62659
"40163",545.2895,79.87427,154.4784
"40164",545.3028,79.82056,154.42075
"40165",545.3161,79.871826,154.4664
"40166",545.3294,80.025635,154.61621
"40167",545.3427,80.24536,154.83673
"40168",545.356,80.48463,155.08366
"40169",545.3693,80.68726,155.30145
"40170",545.3826,80.81178,155.44745
"40171",545.39594,80.831314,155.49236
"40172",545.40924,80.743416,155.43044
"40173",545.42255,80.56519,155.27545
"40174",545.43585,80.31617,155.0441
"40175",545.44916,80.03052,154.76833
"40176",545.46246,79.73998,154.47874
"40177",545.47577,79.45922,154.18985
"40178",545.4891,79.202866,153.9166
"40179",545.5024,78.9807,153.66951
"40180",545.5157,78.80492,153.46187
"40181",545.529,78.675514,153.29512
"40182",545.5423,78.58518,153.16339
"40183",545.5556,78.536354,153.07034
"40184",545.5689,78.52415,153.01239
"40185",545.5822,78.53391,152.97603
"40186",545.5955,78.553444,152.94974
"40187",545.6088,78.57542,152.9265
"40188",545.62213,78.590065,152.89662
"40189",545.63544,78.59495,152.85744
"40190",545.64874,78.58762,152.8062
"40191",545.66205,78.56809,152.74252
"40192",545.67535,78.538795,152.66847
"40193",545.68866,78.49485,152.57886
"40194",545.70197,78.42649,152.46346
"40195",545.7153,78.345924,152.33371
"40196",545.7286,78.28245,152.21854
"40197",545.7419,78.28245,152.16486
"40198",545.7552,78.42893,152.25766
"40199",545.7685,78.79271,152.57234
"40200",545.7818,79.381096,153.123
"40201",545.7951,80.14282,153.86539
"40202",545.8084,80.970474,154.69751
"40203",545.8217,81.72732,155.48468
"40204",545.835,82.29374,156.10509
"40205",545.8483,82.60624,156.48927
"40206",545.86163,82.669716,156.6342
"40207",545.87494,82.52323,156.57115
"40208",545.88824,82.22537,156.35214
"40209",545.90155,81.846954,156.04327
"40210",545.91486,81.43679,155.69083
"40211",545.92816,81.041275,155.34021
"40212",545.94147,80.67506,155.00653
"40213",545.9548,80.34547,154.69804
"40214",545.9681,80.06958,154.43295
"40215",545.9814,79.86206,154.2276
"40216",545.9947,79.73754,154.09877
"40217",546.008,79.72289,154.07591
"40218",546.0213,79.82056,154.16492
"40219",546.0346,80.01343,154.35217
"40220",546.0479,80.25025,154.58942
"40221",546.0612,80.48707,154.83406
"40222",546.0745,80.67017,155.0324
"40223",546.0878,80.75807,155.14124
"40224",546.10114,80.743416,155.15027
"40225",546.11444,80.618904,155.049
"40226",546.12775,80.411385,154.86082
"40227",546.14105,80.15259,154.61488
"40228",546.15436,79.871826,154.3389
"40229",546.16766,79.59106,154.05412
"40230",546.18097,79.33227,153.78255
"40231",546.1943,79.10765,153.53706
"40232",546.2076,78.924545,153.32607
"40233",546.2209,78.785385,153.15329
"40234",546.2342,78.68772,153.01767
"40235",546.2475,78.63401,152.92294
"40236",546.2608,78.61204,152.85828
"40237",546.2741,78.6218,152.82466
"40238",546.2874,78.65354,152.81332
"40239",546.3007,78.69749,152.81519
"40240",546.314,78.73411,152.8111
"40241",546.32733,78.75609,152.79352
"40242",546.34064,78.765854,152.7644
"40243",546.35394,78.76341,152.72339
"40244",546.36725,78.74387,152.6652
"40245",546.38055,78.71702,152.59909
"40246",546.39386,78.67307,152.51505
"40247",546.40717,78.61448,152.41498
"40248",546.4205,78.553444,152.31064
"40249",546.4338,78.53147,152.24345
"40250",546.4471,78.62913,152.29521
"40251",546.4604,78.924545,152.54779
"40252",546.4737,79.45434,153.04398
"40253",546.487,80.201416,153.774
"40254",546.5003,81.077896,154.65677
"40255",546.5136,81.951935,155.5645
"40256",546.5269,82.684364,156.35793
"40257",546.5402,83.175095,156.93254
"40258",546.5535,83.389946,157.24661
"40259",546.56683,83.35577,157.31837
"40260",546.58014,83.13115,157.19862
"40261",546.59344,82.78691,156.95224
"40262",546.60675,82.39384,156.64626
"40263",546.62006,81.99832,156.32555
"40264",546.63336,81.63943,156.0291
"40265",546.64667,81.322044,155.76295
"40266",546.66,81.05592,155.53815
"40267",546.6733,80.83864,155.35387
"40268",546.6866,80.689705,155.23114
"40269",546.6999,80.61402,155.17702
"40270",546.7132,80.62623,155.20842
"40271",546.7265,80.72144,155.32321
"40272",546.7398,80.88014,155.50446
"40273",546.7531,81.058365,155.71019
"40274",546.7664,81.214615,155.89952
"40275",546.7797,81.30251,156.02538
"40276",546.793,81.30007,156.06364
"40277",546.80634,81.19997,156.00417
"40278",546.81964,81.0193,155.86101
"40279",546.83295,80.780045,155.65361
"40280",546.84625,80.5066,155.40454
"40281",546.85956,80.22339,155.13716
"40282",546.87286,79.94995,154.8707
"40283",546.88617,79.69848,154.61766
"40284",546.8995,79.47875,154.3885
"40285",546.9128,79.29565,154.1891
"40286",546.9261,79.15648,154.02792
"40287",546.9394,79.05394,153.89902
"40288",546.9527,78.98314,153.79865
"40289",546.966,78.941635,153.72536
"40290",546.9793,78.924545,153.67519
"40291",546.9926,78.924545,153.64157
"40292",547.0059,78.92943,153.61284
"40293",547.0192,78.93675,153.5867
"40294",547.03253,78.93675,153.55347
"40295",547.04584,78.922104,153.50558
"40296",547.05914,78.89525,153.44504
"40297",547.07245,78.853745,153.369
"40298",547.08575,78.802475,153.2819
"40299",547.09906,78.73655,153.17856
"40300",547.11237,78.658424,153.06094
"40301",547.1257,78.57053,152.93112
"40302",547.139,78.48264,152.79855
"40303",547.1523,78.42893,152.69742
"40304",547.1656,78.47532,152.6947
"40305",547.1789,78.70237,152.8741
"40306",547.1922,79.16136,153.29254
"40307",547.2055,79.85962,153.96458
"40308",547.2188,80.726326,154.8269
"40309",547.2321,81.63943,155.76271
"40310",547.2454,82.45243,156.62695
"40311",547.2587,83.05058,157.30174
"40312",547.27203,83.38018,157.72667
"40313",547.28534,83.45098,157.9031
"40314",547.29865,83.3167,157.87668
"40315",547.31195,83.04082,157.70444
"40316",547.32526,82.68925,157.44789
"40317",547.33856,82.31815,157.16084
"40318",547.35187,81.9617,156.87683
"40319",547.3652,81.636986,156.61342
"40320",547.3785,81.34646,156.37405
"40321",547.3918,81.09987,156.16954
"40322",547.4051,80.91432,156.01837
"40323",547.4184,80.80202,155.93465
"40324",547.4317,80.77272,155.93042
"40325",547.445,80.82399,156.00584
"40326",547.4583,80.94362,156.15123
"40327",547.4716,81.092545,156.32965
"40328",547.4849,81.234146,156.5054
"40329",547.4982,81.32937,156.63919
"40330",547.51154,81.35378,156.70515
"40331",547.52484,81.29519,156.68887
"40332",547.53815,81.15602,156.59018
"40333",547.55145,80.9485,156.4188
"40334",547.56476,80.69703,156.19696
"40335",547.57806,80.41871,155.94043
"40336",547.5914,80.13794,155.67274
"40337",547.6047,79.86694,155.40607
"40338",547.618,79.62035,155.15532
"40339",547.6313,79.41039,154.93349
"40340",547.6446,79.24437,154.74904
"40341",547.6579,79.11742,154.59846
"40342",547.6712,79.029526,154.48299
"40343",547.6845,78.97093,154.39406
"40344",547.6978,78.93187,154.32283
"40345",547.7111,78.905014,154.26259
"40346",547.7244,78.88548,154.20883
"40347",547.73773,78.86107,154.14958
"40348",547.75104,78.83421,154.08713
"40349",547.76434,78.802475,154.01895
"40350",547.77765,78.768295,153.94734
"40351",547.79095,78.73167,153.87222
"40352",547.80426,78.69016,153.79108
"40353",547.81757,78.641335,153.70131
"40354",547.8309,78.5803,153.59781
"40355",547.8442,78.504616,153.47775
"40356",547.8575,78.41428,153.34068
"40357",547.8708,78.311745,153.18858
"40358",547.8841,78.23361,153.0577
"40359",547.8974,78.23117,153.00005
"40360",547.9107,78.38987,153.10347
"40361",547.924,78.77562,153.4389
"40362",547.9373,79.415276,154.0403
"40363",547.9506,80.25269,154.85944
"40364",547.9639,81.18288,155.79752
"40365",547.97723,82.06424,156.71585
"40366",547.99054,82.76738,157.4835
"40367",548.00385,83.20683,158.00945
"40368",548.01715,83.38018,158.283
"40369",548.03046,83.3167,158.32516
"40370",548.04376,83.07988,158.19199
"40371",548.05707,82.73075,157.9391
"40372",548.0704,82.34257,157.63626
"40373",548.0837,81.95682,157.32372
"40374",548.097,81.59792,157.02597
"40375",548.1236,80.99977,156.5177
"40376",548.1369,80.7776,156.32678
"40377",548.1502,80.62867,156.20215
"40378",548.1635,80.56275,156.15588
"40379",548.1768,80.59205,156.20277
"40380",548.1901,80.706795,156.33603
"40381",548.2034,80.867935,156.51926
"40382",548.21674,81.03151,156.70996
"40383",548.23004,81.15358,156.86427
"40384",548.24335,81.20973,156.95648
"40385",548.25665,81.17555,156.96011
"40386",548.26996,81.05592,156.87723
"40387",548.28326,80.86549,156.7198
"40388",548.2966,80.61402,156.49538
"40389",548.3099,80.33082,156.23137
"40390",548.3232,80.028076,155.93896
"40391",548.3365,79.73754,155.6493
"40392",548.3498,79.46899,155.37254
"40393",548.3631,79.24193,155.12889
"40394",548.3764,79.05882,154.92209
"40395",548.3897,78.91966,154.75351
"40396",548.403,78.82201,154.62209
"40397",548.4163,78.75609,154.51935
"40398",548.4296,78.71702,154.4414
"40399",548.44293,78.695045,154.37933
"40400",548.45624,78.69016,154.33366
"40401",548.46954,78.695045,154.2976
"40402",548.48285,78.70481,154.26659
"40403",548.49615,78.71946,154.24075
"40404",548.50946,78.73411,154.21538
"40405",548.52277,78.75365,154.19536
"40406",548.5361,78.78783,154.19058
"40407",548.5494,78.84154,154.2064
"40408",548.5627,78.90257,154.23123
"40409",548.576,78.9514,154.24576
"40410",548.5893,78.96605,154.22763
"40411",548.6026,78.93919,154.16846
"40412",548.6159,78.890366,154.08647
"40413",548.6292,78.87572,154.03714
"40414",548.6425,78.98802,154.1143
"40415",548.6558,79.30297,154.39763
"40416",548.6691,79.84253,154.9154
"40417",548.68243,80.570076,155.63803
"40418",548.69574,81.38308,156.46886
"40419",548.70905,82.14969,157.27869
"40420",548.72235,82.74784,157.94402
"40421",548.73566,83.10185,158.3839
"40422",548.74896,83.19951,158.57849
"40423",548.76227,83.075,158.55397
"40424",548.7756,82.794235,158.36931
"40425",548.7889,82.425575,158.08797
"40426",548.8022,82.0325,157.77069
"40427",548.8155,81.64919,157.4509
"40428",548.8288,81.29519,157.14844
"40429",548.8421,80.972916,156.86664
"40430",548.8554,80.69459,156.61871
"40431",548.8687,80.46998,156.41582
"40432",548.882,80.33082,156.29135
"40433",548.8953,80.306404,156.27728
"40434",548.9086,80.40894,156.3894
"40435",548.92194,80.62623,156.61948
"40436",548.93524,80.91188,156.9247
"40437",548.94855,81.20973,157.25105
"40438",548.96185,81.449,157.52812
"40439",548.97516,81.583275,157.70769
"40440",548.98846,81.583275,157.75717
"40441",549.0018,81.446556,157.66994
"40442",549.0151,81.20241,157.471
"40443",549.0284,80.8777,157.18387
"40444",549.0417,80.51148,156.84508
"40445",549.055,80.130615,156.4802
"40446",549.0683,79.75464,156.1083
"40447",549.0816,79.41039,155.7564
"40448",549.0949,79.11742,155.44499
"40449",549.1082,78.8806,155.18059
"40450",549.1215,78.70481,154.96982
"40451",549.1348,78.58518,154.80971
"40452",549.14813,78.50706,154.68736
"40453",549.16144,78.45823,154.59187
"40454",549.17474,78.42649,154.51195
"40455",549.18805,78.397194,154.43347
"40456",549.20135,78.3679,154.35408
"40457",549.21466,78.331276,154.26645
"40458",549.22797,78.28001,154.16302
"40459",549.2413,78.21408,154.04335
"40460",549.2546,78.14084,153.91429
"40461",549.2679,78.05539,153.77074
"40462",549.2812,77.960175,153.61475
"40463",549.2945,77.855194,153.44601
"40464",549.3078,77.75754,153.28133
"40465",549.3211,77.69894,153.15265
"40466",549.3344,77.7551,153.1369
"40467",549.3477,78.00168,153.31332
"40468",549.361,78.4802,153.7294
"40469",549.3743,79.183334,154.38504
"40470",549.38763,80.03296,155.20914
"40471",549.40094,80.91432,156.09152
"40472",549.41425,81.68337,156.88914
"40473",549.42755,82.23758,157.49596
"40474",549.44086,82.528114,157.85641
"40475",549.45416,82.55741,157.96472
"40476",549.46747,82.38163,157.86887
"40477",549.4808,82.07156,157.63322
"40478",549.4941,81.70779,157.33418
"40479",549.5074,81.339134,157.0189
"40480",549.5207,80.99977,156.72139
"40481",549.534,80.69459,156.44745
"40482",549.5473,80.430916,156.20549
"40483",549.5606,80.22095,156.00899
"40484",549.5739,80.079346,155.8743
"40485",549.5872,80.02075,155.81818
"40486",549.6005,80.05249,155.85056
"40487",549.61383,80.16968,155.96939
"40488",549.62714,80.34058,156.1456
"40489",549.64044,80.50904,156.3247
"40490",549.65375,80.63111,156.46269
"40491",549.66705,80.66285,156.51416
"40492",549.68036,80.587166,156.4592
"40493",549.69366,80.40406,156.29445
"40494",549.707,80.1355,156.03851
"40495",549.7203,79.818115,155.72537
"40496",549.7336,79.48119,155.38277
"40497",549.7469,79.151596,155.03696
"40498",549.7602,78.8513,154.71014
"40499",549.7735,78.59739,154.42033
"40500",549.7868,78.399635,154.17874
"40501",549.8001,78.25803,153.98712
"40502",549.8134,78.16525,153.8399
"40503",549.8267,78.1091,153.72641
"40504",549.84,78.08469,153.6429
"40505",549.85333,78.07492,153.57327
"40506",549.86664,78.07492,153.5131
"40507",549.87994,78.07248,153.4505
"40508",549.89325,78.07004,153.38782
"40509",549.90656,78.06027,153.31773
"40510",549.91986,78.0383,153.23514
"40511",549.93317,78.00168,153.1372
"40512",549.9465,77.943085,153.01616
"40513",549.9598,77.86496,152.87375
"40514",549.9731,77.7673,152.70937
"40515",549.9864,77.69161,152.5639
"40516",549.9997,77.68917,152.48932
"40517",550.013,77.840546,152.56848
"40518",550.0263,78.19943,152.85988
"40519",550.0396,78.78783,153.392
"40520",550.0529,79.56176,154.12805
"40521",550.0662,80.42359,154.97618
"40522",550.0795,81.248795,155.81462
"40523",550.09283,81.91287,156.51773
"40524",550.10614,82.34501,157.00964
"40525",550.11945,82.528114,157.26604
"40526",550.13275,82.48905,157.30598
"40527",550.14606,82.28886,157.18358
"40528",550.15936,81.99588,156.96213
"40529",550.17267,81.67361,156.70222
"40530",550.186,81.35378,156.43471
"40531",550.1993,81.058365,156.1816
"40532",550.2126,80.79469,155.951
"40533",550.2259,80.57984,155.76099
"40534",550.2392,80.42359,155.62286
"40535",550.2525,80.33814,155.55066
"40536",550.2658,80.34058,155.56367
"40537",550.2791,80.42359,155.65733
"40538",550.2924,80.567635,155.81462
"40539",550.3057,80.73365,155.99838
"40540",550.31903,80.8777,156.16536
"40541",550.33234,80.96803,156.28313
"40542",550.34564,80.9778,156.32315
"40543",550.35895,80.89235,156.26826
"40544",550.37225,80.72877,156.13257
"40545",550.38556,80.5066,155.93318
"40546",550.39886,80.25025,155.69267
"40547",550.4122,79.98413,155.43437
"40548",550.4255,79.725334,155.17508
"40549",550.4388,79.48852,154.92967
"40550",550.4521,79.27856,154.70372
"40551",550.4654,79.10033,154.50294
"40552",550.4787,78.96605,154.34055
"40553",550.492,78.86351,154.20569
"40554",550.5053,78.79759,154.10425
"40555",550.5186,78.75609,154.02516
"40556",550.5319,78.73411,153.96431
"40557",550.5452,78.71946,153.9101
"40558",550.55853,78.70725,153.85786
"40559",550.57184,78.6804,153.7906
"40560",550.58514,78.63889,153.70786
"40561",550.59845,78.58518,153.6116
"40562",550.61176,78.51682,153.49902
"40563",550.62506,78.42649,153.36234
"40564",550.63837,78.32151,153.20818
"40565",550.6517,78.19455,153.02876
"40566",550.665,78.05539,152.83318
"40567",550.6783,77.93576,152.65277
"40568",550.6916,77.88693,152.53943
"40569",550.7049,77.98947,152.57593
"40570",550.7182,78.31663,152.84026
"40571",550.7315,78.90013,153.37115
"40572",550.7448,79.69604,154.13269
"40573",550.7581,80.61646,155.04361
"40574",550.7714,81.52224,155.96866
"40575",550.7847,82.28397,156.77797
"40576",550.79803,82.81865,157.38402
"40577",550.81134,83.10185,157.75531
"40578",550.82465,83.158005,157.9084
"40579",550.83795,83.04082,157.88991
"40580",550.85126,82.811325,157.75545
"40581",550.86456,82.52567,157.55765
"40582",550.87787,82.22537,157.33627
"40583",550.8912,81.92508,157.10553
"40584",550.9045,81.636986,156.8776
"40585",550.9178,81.36111,156.65288
"40586",550.9311,81.112076,156.44638
"40587",550.9444,80.90944,156.2785
"40588",550.9577,80.77516,156.17265
"40589",550.971,80.726326,156.14804
"40590",550.9843,80.75319,156.1976
"40591",550.9976,80.82643,156.29439
"40592",551.0109,80.90944,156.40323
"40593",551.02423,80.95827,156.48048
"40594",551.03754,80.94362,156.49579
"40595",551.05084,80.850845,156.43251
"40596",551.06415,80.67994,156.2882
"40597",551.07745,80.45533,156.08484
"40598",551.09076,80.201416,155.84515
"40599",551.10406,79.94263,155.59265
"40600",551.1174,79.68871,155.33694
"40601",551.1307,79.45678,155.09528
"40602",551.144,79.24925,154.87077
"40603",551.1573,79.06859,154.66664
"40604",551.1706,78.91966,154.4886
"40605",551.1839,78.80736,154.34253
"40606",551.1972,78.72678,154.22469
"40607",551.2105,78.6804,154.1385
"40608",551.2238,78.658424,154.07529
"40609",551.2371,78.6511,154.02603
"40610",551.2504,78.641335,153.9741
"40611",551.26373,78.624245,153.91455
"40612",551.27704,78.59495,153.84225
"40613",551.29034,78.551,153.7544
"40614",551.30365,78.49973,153.65784
"40615",551.31696,78.44846,153.55968
"40616",551.33026,78.38499,153.44771
"40617",551.34357,78.30686,153.3191
"40618",551.3569,78.20676,153.16609
"40619",551.3702,78.08957,152.99286
"40620",551.3835,77.97238,152.81596
"40621",551.3968,77.90158,152.6818
"40622",551.4101,77.943085,152.65771
"40623",551.4234,78.16525,152.8156
"40624",551.4367,78.60471,153.19772
"40625",551.45,79.24437,153.79378
"40626",551.4633,80.01343,154.53922
"40627",551.4766,80.80446,155.33066
"40628",551.4899,81.4905,156.04184
"40629",551.50323,81.98123,156.57915
"40630",551.51654,82.23758,156.89742
"40631",551.52985,82.27421,157.00397
"40632",551.54315,82.1326,156.93343
"40633",551.55646,81.87869,156.74617
"40634",551.56976,81.583275,156.50946
"40635",551.58307,81.29275,156.26842
"40636",551.5964,81.02907,156.04514
"40637",551.6097,80.799576,155.84781
"40638",551.623,80.59693,155.67015
"40639",551.6363,80.42115,155.51303
"40640",551.6496,80.28443,155.38948
"40641",551.6629,80.20386,155.3178
"40642",551.6762,80.19653,155.31683
"40643",551.6895,80.26002,155.38646
"40644",551.7028,80.37476,155.50934
"40645",551.7161,80.50172,155.64801
"40646",551.72943,80.59937,155.76135
"40647",551.74274,80.638435,155.81915
"40648",551.75604,80.601814,155.80249
"40649",551.76935,80.48463,155.70412
"40650",551.78265,80.29664,155.53128
"40651",551.79596,80.05737,155.30128
"40652",551.80927,79.78638,155.03207
"40653",551.8226,79.51049,154.74951
"40654",551.8359,79.24681,154.47054
"40655",551.8492,79.01488,154.21506
"40656",551.8625,78.82201,153.9914
"40657",551.8758,78.67063,153.8032
"40658",551.8891,78.56077,153.6518
"40659",551.9024,78.485085,153.53113
"40660",551.9157,78.4387,153.4374
"40661",551.929,78.4094,153.3593
"40662",551.9423,78.39475,153.29494
"40663",551.9556,78.38987,153.23988
"40664",551.96893,78.38987,153.18956
"40665",551.98224,78.38743,153.1368
"40666",551.99554,78.382545,153.08151
"40667",552.00885,78.37522,153.02364
"40668",552.02216,78.35813,152.95576
"40669",552.03546,78.328835,152.87515
"40670",552.04877,78.28977,152.78386
"40671",552.0621,78.24338,152.68402
"40672",552.0754,78.187225,152.57297
"40673",552.0887,78.11398,152.44307
"40674",552.102,78.028534,152.29868
"40675",552.1153,77.9382,152.14673
"40676",552.1286,77.84787,151.99196
"40677",552.1419,77.77951,151.85634
"40678",552.1552,77.786835,151.79427
"40679",552.1685,77.945526,151.88379
"40680",552.1818,78.311745,152.1858
"40681",552.1951,78.91478,152.73608
"40682",552.20844,79.71801,153.5054
"40683",552.22174,80.62623,154.4048
"40684",552.23505,81.50271,155.30086
"40685",552.24835,82.21805,156.06316
"40686",552.26166,82.68192,156.59634
"40687",552.27496,82.86748,156.8657
"40688",552.28827,82.811325,156.89917
"40689",552.3016,82.579384,156.75508
"40690",552.3149,82.2449,156.5012
"40691",552.3282,81.87869,156.20515
"40692",552.3415,81.52712,155.9123
"40693",552.3548,81.21217,155.64507
"40694",552.3681,80.936295,155.40707
"40695",552.3814,80.69703,155.19707
"40696",552.3947,80.50416,155.02599
"40697",552.408,80.36988,154.90747
"40698",552.4213,80.308846,154.858
"40699",552.43463,80.306404,154.86522
"40700",552.44794,80.34791,154.9163
"40701",552.46124,80.42115,155.00043
"40702",552.47455,80.5066,155.09904
"40703",552.48785,80.56275,155.17104
"40704",552.50116,80.57252,155.1984
"40705",552.51447,80.52125,155.16502
"40706",552.5278,80.38941,155.04948
"40707",552.5411,80.17944,154.85168
"40708",552.5544,79.91577,154.59363
"40709",552.5677,79.635,154.31023
"40710",552.581,79.36645,154.03026
"40711",552.5943,79.12718,153.7712
"40712",552.6076,78.92699,153.54372
"40713",552.6209,78.77074,153.35393
"40714",552.6342,78.6511,153.19588
"40715",552.6475,78.57053,153.07315
"40716",552.6608,78.521706,152.97964
"40717",552.67413,78.50706,152.9188
"40718",552.68744,78.51682,152.8819
"40719",552.70074,78.538795,152.85751
"40720",552.71405,78.56565,152.8387
"40721",552.72736,78.5803,152.80852
"40722",552.74066,78.57542,152.75926
"40723",552.75397,78.54856,152.68788
"40724",552.7673,78.50706,152.60101
"40725",552.7806,78.44846,152.49576
"40726",552.7939,78.37522,152.37402
"40727",552.8072,78.28245,152.23047
"40728",552.8205,78.17258,152.06693
"40729",552.8338,78.04562,151.88286
"40730",552.8471,77.91135,151.6875
"40731",552.8604,77.789276,151.50015
"40732",552.8737,77.72335,151.36514
"40733",552.887,77.77707,151.34772
"40734",552.9003,78.02121,151.52238
"40735",552.91364,78.48997,151.9293
"40736",552.92694,79.168686,152.56084
"40737",552.94025,79.98169,153.34785
"40738",552.95355,80.80446,154.17004
"40739",552.96686,81.51003,154.90076
"40740",552.98016,81.99832,155.43623
"40741",552.99347,82.22537,155.72574
"40742",553.0068,82.213165,155.78308
"40743",553.0201,82.01785,155.65694
"40744",553.0334,81.71267,155.41481
"40745",553.0467,81.36355,155.11922
"40746",553.06,81.02663,154.8249
"40747",553.0733,80.72144,154.5518
"40748",553.0866,80.45045,154.30336
"40749",553.0999,80.21362,154.08061
"40750",553.1132,80.02319,153.89685
"40751",553.1265,79.8938,153.76819
"40752",553.13983,79.83765,153.70871
"40753",553.15314,79.86694,153.73294
"40754",553.16644,79.97925,153.8411
"40755",553.17975,80.14038,154.00159
"40756",553.19305,80.31129,154.17688
"40757",553.20636,80.448006,154.32333
"40758",553.21967,80.51881,154.40814
"40759",553.233,80.49195,154.3975
"40760",553.2463,80.36988,154.29082
"40761",553.2596,80.15991,154.0924
"40762",553.2729,79.8938,153.8313
"40763",553.2862,79.60082,153.535
"40764",553.2995,79.31518,153.23688
"40765",553.3128,79.063705,152.964
"40766",553.3261,78.85863,152.72966
"40767",553.3394,78.70725,152.54262
"40768",553.3527,78.60227,152.39723
"40769",553.366,78.54368,152.29495
"40770",553.37933,78.51682,152.22258
"40771",553.39264,78.51194,152.17134
"40772",553.40594,78.519264,152.13216
"40773",553.41925,78.536354,152.10297
"40774",553.43256,78.555885,152.07675
"40775",553.44586,78.56809,152.04382
"40776",553.45917,78.56809,151.99907
"40777",553.4725,78.56077,151.94699
"40778",553.4858,78.538795,151.88004
"40779",553.4991,78.49973,151.7953
"40780",553.5124,78.44114,151.68982
"40781",553.5257,78.37034,151.5703
"40782",553.539,78.28733,151.43636
"40783",553.5523,78.19699,151.2925
"40784",553.5656,78.116425,151.15558
"40785",553.5789,78.0798,151.06009
"40786",553.5922,78.14572,151.066
"40787",553.6055,78.380104,151.24243
"40788",553.61884,78.83421,151.64592
"40789",553.63214,79.50561,152.28088
"40790",553.64545,80.33082,153.09064
"40791",553.65875,81.19508,153.96524
"40792",553.67206,81.95926,154.76677
"40793",553.68536,82.513466,155.3822
"40794",553.69867,82.80156,155.74884
"40795",553.712,82.84306,155.8779
"40796",553.7253,82.684364,155.80804
"40797",553.7386,82.39872,155.6063
"40798",553.7519,82.04959,155.33212
"40799",553.7652,81.70046,155.04704
"40800",553.7785,81.3782,154.77792
"40801",553.7918,81.092545,154.53534
"40802",553.8051,80.84596,154.3229
"40803",553.8184,80.64088,154.14426
"40804",553.8317,80.47242,153.99583
"40805",553.84503,80.35767,153.89586
"40806",553.85834,80.31129,153.86066
"40807",553.87164,80.33082,153.88992
"40808",553.88495,80.40406,153.97351
"40809",553.89825,80.49683,154.07892
"40810",553.91156,80.57984,154.17746
"40811",553.92487,80.61158,154.22733
"40812",553.9382,80.57252,154.20738
"40813",553.9515,80.45777,154.11053
"40814",553.9648,80.28199,153.94907
"40815",553.9781,80.05493,153.73082
"40816",553.9914,79.80347,153.48108
"40817",554.0047,79.554436,153.2259
"40818",554.018,79.32006,152.9776
"40819",554.0313,79.10765,152.74394
"40820",554.0446,78.93187,152.54027
"40821",554.0579,78.79271,152.36772
"40822",554.0712,78.695045,152.23233
"40823",554.08453,78.62913,152.12563
"40824",554.09784,78.60227,152.05592
"40825",554.11115,78.60227,152.01224
"40826",554.12445,78.61936,151.98564
"40827",554.13776,78.63889,151.96202
"40828",554.15106,78.65598,151.93657
"40829",554.16437,78.658424,151.897
"40830",554.1777,78.641335,151.83798
"40831",554.191,78.607155,151.76134
"40832",554.2043,78.553444,151.6641
"40833",554.2176,78.49241,151.55785
"40834",554.2309,78.416725,151.43504
"40835",554.2442,78.33372,151.30255
"40836",554.2575,78.23117,151.14793
"40837",554.2708,78.116425,150.9779
"40838",554.2841,78.00168,150.80429
"40839",554.2974,77.90402,150.64418
"40840",554.3107,77.87717,150.55182
"40841",554.32404,77.996796,150.6051
"40842",554.33734,78.328835,150.87454
"40843",554.35065,78.90013,151.39362
"40844",554.36395,79.68139,152.1405
"40845",554.37726,80.57496,153.02411
"40846",554.39056,81.444115,153.91124
"40847",554.4039,82.14969,154.66194
"40848",554.4172,82.60868,155.18811
"40849",554.4305,82.79912,155.46007
"40850",554.4438,82.757614,155.50604
"40851",554.4571,82.55253,155.38713
"40852",554.4704,82.26444,155.17882
"40853",554.4837,81.95926,154.9444
"40854",554.497,81.67849,154.72485
"40855",554.5103,81.43679,154.53561
"40856",554.5236,81.231705,154.37543
"40857",554.5369,81.05592,154.23814
"40858",554.55023,80.90456,154.11978
"40859",554.56354,80.780045,154.02354
"40860",554.57684,80.69947,153.96735
"40861",554.59015,80.68238,153.97212
"40862",554.60345,80.73365,154.04472
"40863",554.61676,80.83864,154.17264
"40864",554.63007,80.953384,154.3136
"40865",554.6434,81.03883,154.42885
"40866",554.6567,81.058365,154.48085
"40867",554.67,80.99245,154.44801
"40868",554.6833,80.84596,154.33255
"40869",554.6966,80.64088,154.1539
"40870",554.7099,80.396736,153.9298
"40871",554.7232,80.14282,153.68828
"40872",554.7365,79.8938,153.44373
"40873",554.7498,79.66186,153.20847
"40874",554.7631,79.45678,152.99281
"40875",554.7764,79.28588,152.80493
"40876",554.78973,79.149155,152.64589
"40877",554.80304,79.04906,152.5192
"40878",554.81635,78.97826,152.41867
"40879",554.82965,78.92943,152.3379
"40880",554.84296,78.90013,152.27515
"40881",554.85626,78.88548,152.22612
"40882",554.86957,78.87816,152.18396
"40883",554.8829,78.87572,152.14645
"40884",554.8962,78.86595,152.10155
"40885",554.9095,78.84642,152.04657
"40886",554.9228,78.80492,151.96901
"40887",554.9361,78.74387,151.87062
"40888",554.9494,78.65598,151.74347
"40889",554.9627,78.54368,151.58916
"40890",554.976,78.41428,151.41425
"40891",554.9893,78.26536,151.21576
"40892",555.0026,78.099335,150.99553
"40893",555.0159,77.91623,150.75302
"40894",555.02924,77.72579,150.49747
"40895",555.04254,77.54513,150.24573
"40896",555.05585,77.43282,150.0567
"40897",555.06915,77.454796,149.99844
"40898",555.08246,77.70382,150.16792
"40899",555.09576,78.22385,150.6162
"40900",555.1091,79.00267,151.33951
"40901",555.1224,79.94751,152.25317
"40902",555.1357,80.92409,153.22812
"40903",555.149,81.78104,154.11395
"40904",555.1623,82.4036,154.79218
"40905",555.1756,82.74296,155.20665
"40906",555.1889,82.811325,155.36073
"40907",555.2022,82.66239,155.29965
"40908",555.2155,82.371864,155.09233
"40909",555.2288,82.022736,154.81732
"40910",555.2421,81.67361,154.5314
"40911",555.25543,81.36599,154.2761
"40912",555.26874,81.109634,154.06242
"40913",555.28204,80.89235,153.87982
"40914",555.29535,80.70191,153.71727
"40915",555.30865,80.550545,153.58784
"40916",555.32196,80.44312,153.49763
"40917",555.33527,80.39918,153.46754
"40918",555.3486,80.42115,153.502
"40919",555.3619,80.50904,153.60306
"40920",555.3752,80.62379,153.73372
"40921",555.3885,80.73365,153.86308
"40922",555.4018,80.80202,153.95438
"40923",555.4151,80.8069,153.98433
"40924",555.4284,80.73609,153.93874
"40925",555.4417,80.59693,153.82259
"40926",555.455,80.40162,153.64594
"40927",555.4683,80.17456,153.43143
"40928",555.4816,79.93286,153.19519
"40929",555.49493,79.693596,152.95383
"40930",555.50824,79.47387,152.72452
"40931",555.52155,79.28344,152.51764
"40932",555.53485,79.12718,152.33899
"40933",555.54816,79.012436,152.19696
"40934",555.56146,78.93675,152.09041
"40935",555.57477,78.89281,152.01323
"40936",555.5881,78.87816,151.96397
"40937",555.6014,78.890366,151.94112
"40938",555.6147,78.91478,151.93085
"40939",555.628,78.94408,151.92622
"40940",555.6413,78.96361,151.91275
"40941",555.6546,78.96849,151.88524
"40942",555.6679,78.9514,151.8359
"40943",555.6812,78.91234,151.76407
"40944",555.6945,78.85863,151.67636
"40945",555.7078,78.79759,151.57965
"40946",555.7211,78.73655,151.48103
"40947",555.73444,78.675514,151.38051
"40948",555.74774,78.61692,151.28052
"40949",555.76105,78.56321,151.18358
"40950",555.77435,78.51682,151.09229
"40951",555.78766,78.50706,151.03616
"40952",555.80096,78.59495,151.0774
"40953",555.8143,78.8513,151.28984
"40954",555.8276,79.33227,151.73491
"40955",555.8409,80.0354,152.41718
"40956",555.8542,80.89723,153.28012
"40957",555.8675,81.79324,154.20418
"40958",555.8808,82.579384,155.04636
"40959",555.8941,83.13115,155.67873
"40960",555.9074,83.39239,156.03781
"40961",555.9207,83.36553,156.11697
"40962",555.934,83.11406,155.97067
"40963",555.9473,82.718544,155.67247
"40964",555.96063,82.26444,155.30333
"40965",555.97394,81.815216,154.92487
"40966",555.98724,81.40749,154.57387
"40967",556.00055,81.05104,154.2614
"40968",556.01385,80.74586,153.98906
"40969",556.02716,80.48951,153.75603
"40970",556.04047,80.2942,153.57602
"40971",556.0538,80.17944,153.47046
"40972",556.0671,80.16724,153.46387
"40973",556.0804,80.26002,153.56187
"40974",556.0937,80.43336,153.74335
"40975",556.107,80.65308,153.97662
"40976",556.1203,80.85329,154.19724
"40977",556.1336,80.99245,154.36307
"40978",556.1469,81.02663,154.42827
"40979",556.1602,80.955826,154.38956
"40980",556.1735,80.79225,154.25586
"40981",556.1868,80.567635,154.056
"40982",556.20013,80.308846,153.81496
"40983",556.21344,80.05249,153.56825
"40984",556.22675,79.82056,153.33795
"40985",556.24005,79.62768,153.13947
"40986",556.25336,79.4641,152.96425
"40987",556.26666,79.32006,152.80345
"40988",556.27997,79.185776,152.64792
"40989",556.2933,79.06615,152.50284
"40990",556.3066,78.97337,152.38087
"40991",556.3199,78.91478,152.29019
"40992",556.3332,78.89769,152.23918
"40993",556.3465,78.91478,152.22182
"40994",556.3598,78.941635,152.21475
"40995",556.3731,78.96117,152.2012
"40996",556.3864,78.96361,152.17117
"40997",556.3997,78.95628,152.13145
"40998",556.413,78.93431,152.07686
"40999",556.42633,78.890366,151.9996
"41000",556.43964,78.82201,151.89656
"41001",556.45294,78.7219,151.75964
"41002",556.46625,78.59739,151.59518
"41003",556.47955,78.47776,151.43172
"41004",556.49286,78.41428,151.32066
"41005",556.50616,78.487526,151.34435
"41006",556.5195,78.76097,151.57053
"41007",556.5328,79.26635,152.03719
"41008",556.5461,79.96704,152.71495
"41009",556.5594,80.76784,153.51471
"41010",556.5727,81.53445,154.30531
"41011",556.586,82.13504,154.95386
"41012",556.5993,82.48905,155.37459
"41013",556.6126,82.57694,155.54027
"41014",556.6259,82.43534,155.4792
"41015",556.6392,82.127716,155.24768
"41016",556.6525,81.73464,154.9211
"41017",556.66583,81.3196,154.56027
"41018",556.67914,80.921646,154.20355
"41019",556.69244,80.56519,153.8759
"41020",556.70575,80.26246,153.59084
"41021",556.71906,80.008545,153.34512
"41022",556.73236,79.81323,153.15009
"41023",556.74567,79.69848,153.0295
"41024",556.759,79.67895,153.00053
"41025",556.7723,79.764404,153.07596
"41026",556.7856,79.94751,153.25171
"41027",556.7989,80.198975,153.50153
"41028",556.8122,80.462654,153.77142
"41029",556.8255,80.6775,154.00073
"41030",556.8388,80.80202,154.14642
"41031",556.8521,80.814224,154.1837
"41032",556.8654,80.71412,154.10904
"41033",556.8787,80.53101,153.94826
"41034",556.892,80.29664,153.73048
"41035",556.90533,80.042725,153.48584
"41036",556.91864,79.78638,153.23083
"41037",556.93195,79.54711,152.9849
"41038",556.94525,79.33227,152.75589
"41039",556.95856,79.149155,152.55191
"41040",556.97186,79.00511,152.38127
"41041",556.98517,78.90257,152.24763
"41042",556.9985,78.839096,152.14986
"41043",557.0118,78.81224,152.08672
"41044",557.0251,78.8098,152.04715
"41045",557.0384,78.82933,152.02948
"41046",557.0517,78.85863,152.02219
"41047",557.065,78.88548,152.01337
"41048",557.0783,78.89525,151.9883
"41049",557.0916,78.887924,151.94644
"41050",557.1049,78.85863,151.88239
"41051",557.1182,78.81712,151.8052
"41052",557.13153,78.7805,151.73161
"41053",557.14484,78.785385,151.69838
"41054",557.15814,78.8806,151.75563
"41055",557.17145,79.12474,151.96478
"41056",557.18475,79.54955,152.36224
"41057",557.19806,80.14526,152.94388
"41058",557.21136,80.84108,153.64423
"41059",557.2247,81.5198,154.34923
"41060",557.238,82.06912,154.94604
"41061",557.2513,82.406044,155.34763
"41062",557.2646,82.493935,155.51071
"41063",557.2779,82.35966,155.45438
"41064",557.2912,82.06668,155.23514
"41065",557.3045,81.685814,154.91885
"41066",557.3178,81.26833,154.55406
"41067",557.3311,80.85817,154.18353
"41068",557.3444,80.47486,153.82704
"41069",557.3577,80.130615,153.49763
"41070",557.37103,79.83032,153.20142
"41071",557.38434,79.588615,152.9544
"41072",557.39764,79.42748,152.78041
"41073",557.41095,79.37377,152.7088
"41074",557.42426,79.43725,152.7527
"41075",557.43756,79.60815,152.906
"41076",557.45087,79.85718,153.14279
"41077",557.4642,80.13306,153.41422
"41078",557.4775,80.37476,153.66008
"41079",557.4908,80.53101,153.82805
"41080",557.5041,80.57252,153.88615
"41081",557.5174,80.49439,153.82593
"41082",557.5307,80.31861,153.6656
"41083",557.544,80.06958,153.42653
"41084",557.5573,79.781494,153.14062
"41085",557.5706,79.48852,152.84082
"41086",557.5839,79.21019,152.54651
"41087",557.5972,78.96605,152.27768
"41088",557.61053,78.768295,152.0476
"41089",557.62384,78.61936,151.86018
"41090",557.63715,78.521706,151.71938
"41091",557.65045,78.45823,151.6097
"41092",557.66376,78.42649,151.52977
"41093",557.67706,78.41917,151.47327
"41094",557.69037,78.42893,151.43362
"41095",557.7037,78.450905,151.4065
"41096",557.717,78.4802,151.38737
"41097",557.7303,78.504616,151.36429
"41098",557.7436,78.52415,151.33708
"41099",557.7569,78.54124,151.30804
"41100",557.7702,78.59495,151.31616
"41101",557.7835,78.73899,151.41629
"41102",557.7968,79.03441,151.6723
"41103",557.8101,79.51293,152.12065
"41104",557.8234,80.14526,152.73776
"41105",557.83673,80.85573,153.45276
"41106",557.85004,81.532005,154.15578
"41107",557.86334,82.056915,154.72856
"41108",557.87665,82.357216,155.09314
"41109",557.88995,82.41825,155.22784
"41110",557.90326,82.27665,155.16182
"41111",557.91656,81.988556,154.94487
"41112",557.9299,81.61257,154.63103
"41113",557.9432,81.214615,154.28346
"41114",557.9565,80.82399,153.9308
"41115",557.9698,80.462654,153.59521
"41116",557.9831,80.13794,153.28496
"41117",557.9964,79.85962,153.01096
"41118",558.0097,79.639885,152.78683
"41119",558.023,79.49584,152.63153
"41120",558.0363,79.45434,152.57426
"41121",558.0496,79.517815,152.62068
"41122",558.0629,79.674065,152.76186
"41123",558.07623,79.888916,152.96652
"41124",558.08954,80.11597,153.1901
"41125",558.10284,80.29664,153.37439
"41126",558.11615,80.396736,153.48376
"41127",558.12946,80.396736,153.49617
"41128",558.14276,80.30152,153.41336
"41129",558.15607,80.12573,153.247
"41130",558.1694,79.89868,153.02386
"41131",558.1827,79.639885,152.7619
"41132",558.196,79.38354,152.4943
"41133",558.2093,79.13695,152.22844
"41134",558.2226,78.91722,151.98174
"41135",558.2359,78.73411,151.76479
"41136",558.2492,78.60227,151.59338
"41137",558.2625,78.51682,151.46425
"41138",558.2758,78.48264,151.38371
"41139",558.2891,78.48997,151.34361
"41140",558.3024,78.521706,151.32816
"41141",558.31573,78.56809,151.32834
"41142",558.32904,78.61692,151.33241
"41143",558.34235,78.66331,151.33557
"41144",558.35565,78.70481,151.3353
"41145",558.36896,78.73899,151.329
"41146",558.38226,78.75609,151.30669
"41147",558.39557,78.75365,151.26537
"41148",558.4089,78.72678,151.19955
"41149",558.4222,78.68284,151.11581
"41150",558.4355,78.65598,151.04779
"41151",558.4488,78.70481,151.05461
"41152",558.4621,78.91234,151.22166
"41153",558.4754,79.344475,151.61981
"41154",558.4887,80.01099,152.26584
"41155",558.502,80.85573,153.11093
"41156",558.5153,81.75906,154.04102
"41157",558.5286,82.56962,154.90654
"41158",558.54193,83.158005,155.57523
"41159",558.55524,83.45342,155.96933
"41160",558.56854,83.47051,156.09435
"41161",558.58185,83.265434,155.99773
"41162",558.59515,82.92363,155.75797
"41163",558.60846,82.51835,155.44405
"41164",558.62177,82.11551,155.1199
"41165",558.6351,81.75174,154.82225
"41166",558.6484,81.44167,154.56693
"41167",558.6617,81.18288,154.35318
"41168",558.675,80.96315,154.17043
"41169",558.6883,80.7776,154.01498
"41170",558.7016,80.63111,153.89279
"41171",558.7149,80.53101,153.81242
"41172",558.7282,80.49439,153.7924
"41173",558.7415,80.52369,153.83716
"41174",558.7548,80.604256,153.9341
"41175",558.7681,80.69459,154.04332
"41176",558.78143,80.765396,154.13583
"41177",558.79474,80.78493,154.17929
"41178",558.80804,80.73853,154.15742
"41179",558.82135,80.62623,154.0682
"41180",558.83466,80.45777,153.91933
"41181",558.84796,80.25025,153.72612
"41182",558.86127,80.02075,153.50444
"41183",558.8746,79.77661,153.26096
"41184",558.8879,79.54223,153.01959
"41185",558.9012,79.32983,152.79288
"41186",558.9145,79.14427,152.58638
"41187",558.9278,78.98802,152.40338
"41188",558.9411,78.86839,152.25212
"41189",558.9544,78.7805,152.12886
"41190",558.9677,78.72434,152.03459
"41191",558.981,78.69749,151.96786
"41192",558.9943,78.69993,151.9296
"41193",559.0076,78.7219,151.91093
"41194",559.02094,78.75609,151.90518
"41195",559.03424,78.78783,151.89804
"41196",559.04755,78.80492,151.87724
"41197",559.06085,78.80492,151.83989
"41198",559.07416,78.78783,151.78545
"41199",559.08746,78.75365,151.71338
"41200",559.10077,78.70725,151.62804
"41201",559.1141,78.65354,151.53392
"41202",559.1274,78.59739,151.43568
"41203",559.1407,78.56321,151.35767
"41204",559.154,78.59495,151.3445
"41205",559.1673,78.77074,151.47638
"41206",559.1806,79.15404,151.82126
"41207",559.1939,79.77417,152.41495
"41208",559.2072,80.58228,153.216
"41209",559.2205,81.46853,154.12045
"41210",559.2338,82.286415,154.98424
"41211",559.24713,82.9041,155.67337
"41212",559.26044,83.23369,156.09372
"41213",559.27374,83.28008,156.24117
"41214",559.28705,83.09697,156.16055
"41215",559.30035,82.76494,155.92531
"41216",559.31366,82.36698,155.61375
"41217",559.32697,81.96414,155.28488
"41218",559.3403,81.59548,154.9776
"41219",559.3536,81.2781,154.71008
"41220",559.3669,81.004654,154.47658
"41221",559.3802,80.77272,154.27605
"41222",559.3935,80.57496,154.10243
"41223",559.4068,80.41871,153.96416
"41224",559.4201,80.31861,153.87715
"41225",559.4334,80.27955,153.84805
"41226",559.4467,80.29908,153.87633
"41227",559.46,80.365,153.9516
"41228",559.4733,80.45533,154.05334
"41229",559.48663,80.533455,154.1457
"41230",559.49994,80.57252,154.20145
"41231",559.51324,80.550545,154.19737
"41232",559.52655,80.46021,154.12425
"41233",559.53986,80.306404,153.98483
"41234",559.55316,80.10132,153.78932
"41235",559.56647,79.869385,153.56055
"41236",559.5798,79.63256,153.31964
"41237",559.5931,79.40551,153.0811
"41238",559.6064,79.19554,152.85255
"41239",559.6197,79.009995,152.64186
"41240",559.633,78.85863,152.45955
"41241",559.6463,78.74387,152.30913
"41242",559.6596,78.66819,152.19418
"41243",559.6729,78.626686,152.11105
"41244",559.6862,78.61448,152.05592
"41245",559.6995,78.61936,152.0175
"41246",559.7128,78.62913,151.98412
"41247",559.72614,78.64622,151.95836
"41248",559.73944,78.660866,151.9307
"41249",559.75275,78.67063,151.8986
"41250",559.76605,78.67307,151.8595
"41251",559.77936,78.66575,151.8107
"41252",559.79266,78.643776,151.74702
"41253",559.80597,78.6096,151.67046
"41254",559.8193,78.56321,151.58061
"41255",559.8326,78.51194,151.48444
"41256",559.8459,78.46067,151.38666
"41257",559.8592,78.4387,151.31657
"41258",559.8725,78.49973,151.32881
"41259",559.8858,78.709694,151.49188
"41260",559.8991,79.132065,151.87393
"41261",559.9124,79.783936,152.49867
"41262",559.9257,80.61646,153.32445
"41263",559.939,81.512474,154.23973
"41264",559.95233,82.32792,155.10245
"41265",559.96564,82.930954,155.77823
"41266",559.97894,83.25323,156.1921
"41267",559.99225,83.28985,156.33038
"41268",560.00555,83.09941,156.24275
"41269",560.01886,82.760056,156.00026
"41270",560.03217,82.354774,155.68123
"41271",560.0455,81.94461,155.34465
"41272",560.0588,81.56863,155.02943
"41273",560.0721,81.234146,154.74397
"41274",560.0854,80.936295,154.4847
"41275",560.0987,80.67994,154.2576
"41276",560.112,80.47242,154.07133
"41277",560.1253,80.323494,153.93718
"41278",560.1386,80.24536,153.86916
"41279",560.1519,80.2478,153.87927
"41280",560.1652,80.31861,153.95782
"41281",560.1785,80.42603,154.07521
"41282",560.19183,80.53834,154.20084
"41283",560.20514,80.62623,154.30556
"41284",560.21844,80.66041,154.35931
"41285",560.23175,80.62379,154.34334
"41286",560.24506,80.51392,154.25298
"41287",560.25836,80.34058,154.0957
"41288",560.27167,80.12573,153.8915
"41289",560.285,79.89136,153.66104
"41290",560.2983,79.65942,153.4257
"41291",560.3116,79.44213,153.19777
"41292",560.3249,79.24437,152.98257
"41293",560.3382,79.07103,152.78561
"41294",560.3515,78.922104,152.60765
"41295",560.3648,78.80492,152.45677
"41296",560.3781,78.71946,152.33397
"41297",560.3914,78.66819,152.24268
"41298",560.4047,78.6511,152.18396
"41299",560.418,78.660866,152.15157
"41300",560.43134,78.68284,152.13168
"41301",560.44464,78.70481,152.11249
"41302",560.45795,78.71946,152.08665
"41303",560.47125,78.72678,152.05396
"41304",560.48456,78.71946,152.00684
"41305",560.49786,78.69993,151.94728
"41306",560.51117,78.67307,151.87979
"41307",560.5245,78.63645,151.8017
"41308",560.5378,78.590065,151.71269
"41309",560.5511,78.536354,151.61491
"41310",560.5644,78.48264,151.51546
"41311",560.5777,78.45335,151.43874
"41312",560.591,78.51682,151.45387
"41313",560.6043,78.746315,151.63701
"41314",560.6176,79.1931,152.04462
"41315",560.6309,79.85474,152.68103
"41316",560.6442,80.65797,153.47972
"41317",560.65753,81.478294,154.32062
"41318",560.67084,82.1741,155.06262
"41319",560.68414,82.64286,155.59932
"41320",560.69745,82.845505,155.88455
"41321",560.71075,82.79912,155.9271
"41322",560.72406,82.564735,155.78018
"41323",560.73737,82.213165,155.50876
"41324",560.7507,81.812775,155.17754
"41325",560.764,81.409935,154.83134
"41326",560.7773,81.03639,154.50186
"41327",560.7906,80.70191,154.19977
"41328",560.8039,80.413826,153.93362
"41329",560.8172,80.177,153.70973
"41330",560.8305,80.00366,153.54193
"41331",560.8438,79.91089,153.44928
"41332",560.8571,79.91089,153.4465
"41333",560.8704,80.00366,153.5365
"41334",560.8837,80.17212,153.70508
"41335",560.89703,80.37476,153.9131
"41336",560.91034,80.56519,154.11525
"41337",560.92365,80.70435,154.27208
"41338",560.93695,80.765396,154.35513
"41339",560.95026,80.73609,154.34975
"41340",560.96356,80.63111,154.26778
"41341",560.97687,80.465096,154.12149
"41342",560.9902,80.257576,153.92851
"41343",561.0035,80.02319,153.70218
"41344",561.0168,79.781494,153.46121
"41345",561.0301,79.537346,153.21024
"41346",561.0434,79.30297,152.9614
"41347",561.0567,79.09056,152.7272
"41348",561.07,78.9099,152.51811
"41349",561.0833,78.765854,152.34
"41350",561.0966,78.660866,152.19644
"41351",561.1099,78.59739,152.09111
"41352",561.1232,78.57053,152.02042
"41353",561.13654,78.572975,151.97818
"41354",561.14984,78.607155,151.96776
"41355",561.16315,78.65598,151.97305
"41356",561.17645,78.71458,151.98964
"41357",561.18976,78.768295,152.00319
"41358",561.20306,78.8098,152.0062
"41359",561.2164,78.82933,151.98853
"41360",561.2297,78.82201,151.94461
"41361",561.243,78.78783,151.87361
"41362",561.2563,78.73167,151.77957
"41363",561.2696,78.677956,151.68622
"41364",561.2829,78.6804,151.64734
"41365",561.2962,78.819565,151.74527
"41366",561.3095,79.15892,152.04773
"41367",561.3228,79.72045,152.58298
"41368",561.3361,80.45533,153.30911
"41369",561.3494,81.25857,154.12659
"41370",561.36273,81.988556,154.8959
"41371",561.37604,82.51835,155.48784
"41372",561.38934,82.78447,155.83266
"41373",561.40265,82.78447,155.91968
"41374",561.41595,82.5745,155.79672
"41375",561.42926,82.22293,155.5256
"41376",561.44257,81.80057,155.17271
"41377",561.4559,81.358665,154.78708
"41378",561.4692,80.93385,154.40472
"41379",561.4825,80.54322,154.04327
"41380",561.4958,80.201416,153.71844
"41381",561.5091,79.91089,153.4342
"41382",561.5224,79.69848,153.21901
"41383",561.5357,79.588615,153.09972
"41384",561.549,79.59838,153.09662
"41385",561.5623,79.727776,153.21346
"41386",561.5756,79.95972,153.43689
"41387",561.5889,80.24048,153.7164
"41388",561.60223,80.5066,153.99004
"41389",561.61554,80.69947,154.19875
"41390",561.62885,80.780045,154.30118
"41391",561.64215,80.74586,154.29137
"41392",561.65546,80.60914,154.17796
"41393",561.66876,80.40162,153.98949
"41394",561.68207,80.15503,153.75545
"41395",561.6954,79.89624,153.5015
"41396",561.7087,79.639885,153.2419
"41397",561.722,79.39086,152.98161
"41398",561.7353,79.168686,152.7404
"41399",561.7486,78.98314,152.52887
"41400",561.7619,78.84154,152.35548
"41401",561.7752,78.746315,152.22406
"41402",561.7885,78.695045,152.1336
"41403",561.8018,78.6804,152.07817
"41404",561.8151,78.695045,152.05157
"41405",561.8284,78.729225,152.04497
"41406",561.84174,78.77562,152.05165
"41407",561.85504,78.82689,152.06465
"41408",561.86835,78.86839,152.06949
"41409",561.88165,78.890366,152.05609
"41410",561.89496,78.89281,152.02385
"41411",561.90826,78.87572,151.97215
"41412",561.9216,78.86351,151.9248
"41413",561.9349,78.907455,151.93323
"41414",561.9482,79.07347,152.0651
"41415",561.9615,79.41772,152.38039
"41416",561.9748,79.95972,152.90419
"41417",561.9881,80.65308,153.5963
"41418",562.0014,81.40505,154.36868
"41419",562.0147,82.08377,155.09131
"41420",562.028,82.57206,155.64471
"41421",562.0413,82.80644,155.95947
"41422",562.0546,82.78447,156.0252
"41423",562.06793,82.54032,155.86807
"41424",562.08124,82.13748,155.54462
"41425",562.09454,81.64675,155.12068
"41426",562.10785,81.12184,154.64723
"41427",562.12115,80.601814,154.16226
"41428",562.13446,80.111084,153.69034
"41429",562.14777,79.67162,153.25435
"41430",562.1611,79.310295,152.88275
"41431",562.1744,79.046616,152.59752
"41432",562.1877,78.91234,152.43344
"41433",562.201,78.91478,152.40189
"41434",562.2143,79.05638,152.50957
"41435",562.2276,79.30541,152.72911
"41436",562.2409,79.60815,153.01013
"41437",562.2542,79.903564,153.2933
"41438",562.2675,80.14038,153.5271
"41439",562.2808,80.274666,153.66577
"41440",562.2941,80.29664,153.69633
"41441",562.30743,80.216064,153.62503
"41442",562.32074,80.05005,153.46576
"41443",562.33405,79.818115,153.23538
"41444",562.34735,79.53979,152.95137
"41445",562.36066,79.2224,152.6196
"41446",562.37396,78.890366,152.26326
"41447",562.38727,78.572975,151.9112
"41448",562.4006,78.29221,151.58583
"41449",562.4139,78.07492,151.31517
"41450",562.4272,77.92844,151.10852
"41451",562.4405,77.86008,150.97542
"41452",562.4538,77.86008,150.90854
"41453",562.4671,77.92844,150.91002
"41454",562.4804,78.048065,150.9649
"41455",562.4937,78.21408,151.06992
"41456",562.507,78.40696,151.20699
"41457",562.5203,78.60227,151.35251
"41458",562.5336,78.7805,151.48706
"41459",562.54694,78.92943,151.59787
"41460",562.56024,79.04173,151.67671
"41461",562.57355,79.149155,151.75418
"41462",562.58685,79.31274,151.89117
"41463",562.60016,79.605705,152.16266
"41464",562.61346,80.062256,152.60689
"41465",562.6268,80.672615,153.2192
"41466",562.6401,81.356224,153.92383
"41467",562.6534,82.00076,154.61075
"41468",562.6667,82.48905,155.16156
"41469",562.68,82.757614,155.5079
"41470",562.6933,82.79668,155.63315
"41471",562.7066,82.650185,155.57405
"41472",562.7199,82.38651,155.3932
"41473",562.7332,82.06912,155.15039
"41474",562.7465,81.74685,154.89278
"41475",562.7598,81.463646,154.66417
"41476",562.77313,81.22682,154.47308
"41477",562.78644,81.03151,154.31612
"41478",562.79974,80.86549,154.18234
"41479",562.81305,80.719,154.0629
"41480",562.82635,80.59937,153.96574
"41481",562.83966,80.51881,153.90392
"41482",562.85297,80.48951,153.89084
"41483",562.8663,80.51392,153.93056
"41484",562.8796,80.59449,154.02719
"41485",562.8929,80.69215,154.14343
"41486",562.9062,80.77516,154.24808
"41487",562.9195,80.81178,154.30893
"41488",562.9328,80.78493,154.30745
"41489",562.9461,80.68726,154.23431
"41490",562.9594,80.5359,154.10443
"41491",562.9727,80.35035,153.93564
"41492",562.986,80.15747,153.75371
"41493",562.9993,79.971924,153.57309
"41494",563.01263,79.798584,153.39886
"41495",563.02594,79.64233,153.23631
"41496",563.03925,79.50317,153.08597
"41497",563.05255,79.38842,152.95569
"41498",563.06586,79.28832,152.83647
"41499",563.07916,79.21507,152.74098
"41500",563.09247,79.15892,152.6603
"41501",563.1058,79.11009,152.58517
"41502",563.1191,79.07591,152.52318
"41503",563.1324,79.0515,152.46988
"41504",563.1457,79.03685,152.42558
"41505",563.159,79.02464,152.38327
"41506",563.1723,79.01976,152.3479
"41507",563.1856,79.00511,152.30261
"41508",563.1989,78.9807,152.2471
"41509",563.2122,78.94408,152.17862
"41510",563.2255,78.91966,152.1212
"41511",563.23883,78.958725,152.1265
"41512",563.25214,79.13451,152.26973
"41513",563.26544,79.51049,152.61867
"41514",563.27875,80.10132,153.1942
"41515",563.29205,80.85817,153.95422
"41516",563.30536,81.67361,154.79648
"41517",563.31866,82.41093,155.5861
"41518",563.332,82.9456,156.19612
"41519",563.3453,83.21416,156.55673
"41520",563.3586,83.2166,156.65962
"41521",563.3719,82.99687,156.54042
"41522",563.3852,82.633095,156.2703
"41523",563.3985,82.19119,155.91068
"41524",563.4118,81.73464,155.5226
"41525",563.4251,81.29763,155.1398
"41526",563.4384,80.89723,154.77995
"41527",563.4517,80.53834,154.4491
"41528",563.465,80.22827,154.15585
"41529",563.47833,79.98169,153.91641
"41530",563.49164,79.82056,153.7547
"41531",563.50494,79.76929,153.69781
"41532",563.51825,79.83276,153.75409
"41533",563.53156,79.9939,153.91
"41534",563.54486,80.2063,154.12222
"41535",563.55817,80.41627,154.33864
"41536",563.5715,80.57252,154.5079
"41537",563.5848,80.64332,154.5966
"41538",563.5981,80.61158,154.58498
"41539",563.6114,80.49195,154.48447
"41540",563.6247,80.30396,154.31186
"41541",563.638,80.07202,154.08942
"41542",563.6513,79.818115,153.83777
"41543",563.6646,79.5642,153.57817
"41544",563.6779,79.31762,153.31796
"41545",563.6912,79.093,153.07202
"41546",563.7045,78.89769,152.84836
"41547",563.71783,78.73899,152.65521
"41548",563.73114,78.61936,152.49617
"41549",563.74445,78.54124,152.3749
"41550",563.75775,78.50706,152.29512
"41551",563.77106,78.51194,152.25334
"41552",563.78436,78.54368,152.23857
"41553",563.79767,78.59495,152.24432
"41554",563.811,78.65354,152.259
"41555",563.8243,78.712135,152.27551
"41556",563.8376,78.768295,152.29143
"41557",563.8509,78.80736,152.29199
"41558",563.8642,78.82445,152.2718
"41559",563.8775,78.80736,152.21797
"41560",563.8908,78.77074,152.14407
"41561",563.9041,78.74143,152.07635
"41562",563.9174,78.78294,152.07854
"41563",563.9307,78.975815,152.23337
"41564",563.94403,79.38354,152.60909
"41565",563.95734,79.99878,153.20506
"41566",563.97064,80.75563,153.96188
"41567",563.98395,81.53689,154.76675
"41568",563.99725,82.20096,155.47885
"41569",564.01056,82.64286,155.98953
"41570",564.02386,82.81621,156.24547
"41571",564.0372,82.74052,156.25778
"41572",564.0505,82.47196,156.07487
"41573",564.0638,82.07889,155.75905
"41574",564.0771,81.634544,155.37967
"41575",564.0904,81.19264,154.98885
"41576",564.1037,80.782486,154.61597
"41577",564.117,80.42603,154.28397
"41578",564.1303,80.13306,154.0043
"41579",564.1436,79.90845,153.78384
"41580",564.1569,79.764404,153.63693
"41581",564.1702,79.71313,153.5783
"41582",564.18353,79.75952,153.61572
"41583",564.19684,79.89868,153.74738
"41584",564.21014,80.09888,153.9444
"41585",564.22345,80.31373,154.16234
"41586",564.23676,80.49439,154.35281
"41587",564.25006,80.601814,154.4757
"41588",564.26337,80.604256,154.49695
"41589",564.2767,80.5066,154.41818
"41590",564.29,80.33814,154.26556
"41591",564.3033,80.13306,154.07104
"41592",564.3166,79.93042,153.87256
"41593",564.3299,79.77417,153.71414
"41594",564.3432,79.68627,153.61919
"41595",564.3565,79.66674,153.58984
"41596",564.3698,79.69604,153.60872
"41597",564.3831,79.7522,153.65538
"41598",564.3964,79.80835,153.7038
"41599",564.4097,79.85474,153.7442
"41600",564.42303,79.8938,153.77872
"41601",564.43634,79.9353,153.8169
"41602",564.44965,79.98169,153.86127
"41603",564.46295,80.03784,153.91684
"41604",564.47626,80.08423,153.96442
"41605",564.48956,80.1062,153.98901
"41606",564.50287,80.09155,153.97769
"41607",564.5162,80.028076,153.91708
"41608",564.5295,79.91577,153.80566
"41609",564.5428,79.7522,153.63947
"41610",564.5561,79.53979,153.41931
"41611",564.5694,79.28588,153.15102
"41612",564.5827,79.00511,152.84793
"41613",564.596,78.729225,152.54095
"41614",564.6093,78.51194,152.28395
"41615",564.6226,78.42893,152.15443
"41616",564.6359,78.551,152.2274
"41617",564.64923,78.907455,152.53857
"41618",564.66254,79.4641,153.06108
"41619",564.67584,80.12573,153.70596
"41620",564.68915,80.765396,154.34955
"41621",564.70245,81.26101,154.86908
"41622",564.71576,81.52468,155.17216
"41623",564.72906,81.54665,155.24179
"41624",564.7424,81.358665,155.10214
"41625",564.7557,81.02663,154.81256
"41626",564.769,80.62379,154.4418
"41627",564.7823,80.20386,154.04137
"41628",564.7956,79.80835,153.65222
"41629",564.8089,79.46166,153.29955
"41630",564.8222,79.17357,152.99463
"41631",564.8355,78.94408,152.7393
"41632",564.8488,78.7805,152.54272
"41633",564.8621,78.70237,152.42648
"41634",564.8754,78.7219,152.40546
"41635",564.88873,78.836655,152.48027
"41636",564.90204,79.029526,152.63678
"41637",564.91534,79.259026,152.83595
"41638",564.92865,79.483635,153.0374
"41639",564.94196,79.64477,153.18239
"41640",564.95526,79.71801,153.24452
"41641",564.96857,79.691154,153.20885
"41642",564.9819,79.57641,153.08444
"41643",564.9952,79.40063,152.89542
"41644",565.0085,79.19798,152.67404
"41645",565.0218,79.00511,152.4561
"41646",565.0351,78.853745,152.27364
"41647",565.0484,78.75365,152.13771
"41648",565.0617,78.71458,152.0597
"41649",565.075,78.73411,152.03905
"41650",565.0883,78.79515,152.06053
"41651",565.1016,78.887924,152.11565
"41652",565.1149,79.009995,152.20296
"41653",565.12823,79.14671,152.30873
"41654",565.14154,79.293205,152.42856
"41655",565.15485,79.43481,152.54807
"41656",565.16815,79.55932,152.6549
"41657",565.18146,79.64965,152.73146
"41658",565.19476,79.69848,152.76933
"41659",565.20807,79.70092,152.76234
"41660",565.2214,79.65453,152.7066
"41661",565.2347,79.5642,152.60547
"41662",565.248,79.43481,152.46245
"41663",565.2613,79.28588,152.29585
"41664",565.2746,79.14671,152.13437
"41665",565.2879,79.061264,152.02225
"41666",565.3012,79.10277,152.03441
"41667",565.3145,79.33471,152.23831
"41668",565.3278,79.77173,152.65454
"41669",565.3411,80.38941,153.26509
"41670",565.35443,81.094986,153.98283
"41671",565.36774,81.76639,154.68846
"41672",565.38104,82.286415,155.26369
"41673",565.39435,82.5745,155.62323
"41674",565.40765,82.62333,155.75252
"41675",565.42096,82.47196,155.68314
"41676",565.43427,82.178986,155.4674
"41677",565.4476,81.81766,155.17418
"41678",565.4609,81.446556,154.85988
"41679",565.4742,81.10231,154.56084
"41680",565.4875,80.79469,154.28767
"41681",565.5008,80.533455,154.05127
"41682",565.5141,80.31617,153.85066
"41683",565.5274,80.15503,153.6994
"41684",565.5407,80.07202,153.62125
"41685",565.554,80.08667,153.63815
"41686",565.5673,80.2063,153.7605
"41687",565.5806,80.411385,153.97203
"41688",565.59393,80.655525,154.22903
"41689",565.60724,80.88258,154.47658
"41690",565.62054,81.03151,154.65309
"41691",565.63385,81.06081,154.71463
"41692",565.64716,80.970474,154.65746
"41693",565.66046,80.76784,154.48515
"41694",565.67377,80.48707,154.22838
"41695",565.6871,80.16724,153.92377
"41696",565.7004,79.852295,153.61404
"41697",565.7137,79.5642,153.32133
"41698",565.727,79.32006,153.06357
"41699",565.7403,79.12718,152.84944
"41700",565.7536,78.98802,152.683
"41701",565.7669,78.88548,152.54883
"41702",565.7802,78.81224,152.44075
"41703",565.7935,78.765854,152.35724
"41704",565.8068,78.74143,152.29425
"41705",565.8201,78.73167,152.24515
"41706",565.83344,78.73167,152.2055
"41707",565.84674,78.73655,152.17075
"41708",565.86005,78.74387,152.13858
"41709",565.87335,78.73655,152.092
"41710",565.88666,78.70481,152.02077
"41711",565.89996,78.65354,151.92902
"41712",565.91327,78.60471,151.8381
"41713",565.9266,78.57786,151.76764
"41714",565.9399,78.63889,151.78423
"41715",565.9532,78.86107,151.96387
"41716",565.9665,79.32006,152.38727
"41717",565.9798,80.03052,153.07648
"41718",565.9931,80.96071,154.00763
"41719",566.0064,82.003204,155.08015
"41720",566.0197,83.0164,156.15596
"41721",566.033,83.861145,157.09497
"41722",566.0463,84.44709,157.80157
"41723",566.05963,84.74494,158.2384
"41724",566.07294,84.79378,158.43552
"41725",566.08624,84.66682,158.45836
"41726",566.09955,84.44465,158.38203
"41727",566.11285,84.20538,158.28166
"41728",566.12616,84.000305,158.20801
"41729",566.13947,83.85382,158.18654
"41730",566.1528,83.76837,158.22153
"41731",566.1661,83.7293,158.30022
"41732",566.1794,83.717094,158.40456
"41733",566.1927,83.72442,158.52805
"41734",566.206,83.756165,158.67618
"41735",566.2193,83.81476,158.85216
"41736",566.2326,83.90509,159.0617
"41737",566.2459,84.017395,159.29605
"41738",566.2592,84.11749,159.5217
"41739",566.2725,84.18097,159.71385
"41740",566.2858,84.17853,159.84207
"41741",566.29913,84.09308,159.8872
"41742",566.31244,83.90997,159.83202
"41743",566.32574,83.64385,159.68808
"41744",566.33905,83.319145,159.47725
"41745",566.35236,82.948044,159.20987
"41746",566.36566,82.55985,158.9138
"41747",566.37897,82.18875,158.6227
"41748",566.3923,81.85916,158.36151
"41749",566.4056,81.57351,158.13396
"41750",566.4189,81.33425,157.94388
"41751",566.4322,81.126724,157.77805
"41752",566.4455,80.92409,157.61063
"41753",566.4588,80.69947,157.41489
"41754",566.4721,80.43824,157.17552
"41755",566.4854,80.128174,156.87915
"41756",566.4987,79.764404,156.51938
"41757",566.512,79.35912,156.10674
"41758",566.5253,78.93431,155.6619
"41759",566.53864,78.50706,155.20134
"41760",566.55194,78.08469,154.73232
"41761",566.56525,77.67208,154.25986
"41762",566.57855,77.26681,153.78183
"41763",566.59186,76.87862,153.30823
"41764",566.60516,76.53437,152.86644
"41765",566.61847,76.29023,152.51399
"41766",566.6318,76.22186,152.3297
"41767",566.6451,76.402534,152.3923
"41768",566.6584,76.84932,152.72667
"41769",566.6717,77.52071,153.2996
"41770",566.685,78.32151,154.02292
"41771",566.6983,79.11986,154.76881
"41772",566.7116,79.801025,155.42247
"41773",566.7249,80.2942,155.90942
"41774",566.7382,80.5774,156.20183
"41775",566.7515,80.67017,156.31265
"41776",566.76483,80.59693,156.26036
"41777",566.77814,80.40406,156.08615
"41778",566.79144,80.128174,155.82289
"41779",566.80475,79.818115,155.51685
"41780",566.81805,79.50805,155.2011
"41781",566.83136,79.24193,154.9196
"41782",566.84467,79.046616,154.70059
"41783",566.858,78.941635,154.56581
"41784",566.8713,78.93675,154.52785
"41785",566.8846,79.027084,154.58495
"41786",566.8979,79.21019,154.73764
"41787",566.9112,79.466545,154.96931
"41788",566.9245,79.764404,155.2505
"41789",566.9378,80.05737,155.5361
"41790",566.9511,80.291756,155.77228
"41791",566.9644,80.42603,155.91568
"41792",566.9777,80.43824,155.94121
"41793",566.991,80.31617,155.83284
"41794",567.00433,80.076904,155.60345
"41795",567.01764,79.75464,155.2836
"41796",567.03094,79.38598,154.90727
"41797",567.04425,79.00023,154.50233
"41798",567.05756,78.61936,154.09023
"41799",567.07086,78.27024,153.69795
"41800",567.08417,77.977264,153.35092
"41801",567.0975,77.76486,153.0753
"41802",567.1108,77.64034,152.88094
"41803",567.1241,77.60372,152.77057
"41804",567.1374,77.63058,152.72253
"41805",567.1507,77.69405,152.71196
"41806",567.164,77.77219,152.71803
"41807",567.1773,77.83566,152.71188
"41808",567.1906,77.87717,152.68575
"41809",567.2039,77.88937,152.6316
"41810",567.2172,77.872284,152.54855
"41811",567.2305,77.8259,152.43567
"41812",567.24384,77.75754,152.29936
"41813",567.25714,77.67696,152.14871
"41814",567.27045,77.58663,151.98578
"41815",567.28375,77.49142,151.81514
"41816",567.29706,77.40841,151.65373
"41817",567.31036,77.36935,151.53368
"41818",567.32367,77.44015,151.52226
"41819",567.337,77.696495,151.69861
"41820",567.3503,78.19943,152.12956
"41821",567.3636,78.93675,152.81061
"41822",567.3769,79.83765,153.67827
"41823",567.3902,80.77028,154.60583
"41824",567.4035,81.5906,155.45023
"41825",567.4168,82.178986,156.08832
"41826",567.4301,82.48661,156.46404
"41827",567.4434,82.51591,156.57104
"41828",567.4567,82.32792,156.46169
"41829",567.47003,81.99832,156.20483
"41830",567.48334,81.60525,155.8742
"41831",567.49664,81.21706,155.53618
"41832",567.50995,80.87038,155.22754
"41833",567.52325,80.59205,154.97641
"41834",567.53656,80.37476,154.77763
"41835",567.54987,80.218506,154.63309
"41836",567.5632,80.12085,154.54227
"41837",567.5765,80.09888,154.52408
"41838",567.5898,80.15747,154.58575
"41839",567.6031,80.2942,154.7274
"41840",567.6164,80.48463,154.92703
"41841",567.6297,80.689705,155.14726
"41842",567.643,80.85329,155.3324
"41843",567.6563,80.93385,155.43964
"41844",567.6696,80.90456,155.43953
"41845",567.6829,80.76784,155.33109
"41846",567.6962,80.53834,155.12558
"41847",567.70953,80.2478,154.85187
"41848",567.72284,79.93042,154.54224
"41849",567.73615,79.61791,154.22755
"41850",567.74945,79.33715,153.93484
"41851",567.76276,79.097885,153.67487
"41852",567.77606,78.907455,153.45624
"41853",567.78937,78.76341,153.27805
"41854",567.8027,78.660866,153.13686
"41855",567.816,78.59495,153.02908
"41856",567.8293,78.54368,152.9339
"41857",567.8426,78.502174,152.84688
"41858",567.8559,78.47288,152.77077
"41859",567.8692,78.450905,152.70107
"41860",567.8825,78.43137,152.63312
"41861",567.8958,78.41917,152.57188
"41862",567.9091,78.41917,152.52248
"41863",567.9224,78.42893,152.48283
"41864",567.9357,78.45335,152.45815
"41865",567.94904,78.48997,152.44643
"41866",567.96234,78.53147,152.44073
"41867",567.97565,78.572975,152.43634
"41868",567.98895,78.60471,152.42348
"41869",568.00226,78.6096,152.38475
"41870",568.01556,78.59495,152.32664
"41871",568.0289,78.57542,152.2632
"41872",568.0422,78.59495,152.2382
"41873",568.0555,78.73655,152.33589
"41874",568.0688,79.078354,152.63821
"41875",568.0821,79.64477,153.17583
"41876",568.0954,80.40894,153.9289
"41877",568.1087,81.270775,154.80351
"41878",568.122,82.091095,155.66354
"41879",568.1353,82.74052,156.37831
"41880",568.1486,83.13115,156.85458
"41881",568.1619,83.24834,157.06963
"41882",568.17523,83.13603,157.05884
"41883",568.18854,82.85283,156.87364
"41884",568.20184,82.46708,156.57704
"41885",568.21515,82.05203,156.23909
"41886",568.22845,81.64919,155.90038
"41887",568.24176,81.290306,155.59303
"41888",568.25507,80.97536,155.3184
"41889",568.2684,80.70435,155.07788
"41890",568.2817,80.48463,154.88017
"41891",568.295,80.325935,154.73663
"41892",568.3083,80.24292,154.6638
"41893",568.3216,80.2478,154.67627
"41894",568.3349,80.33814,154.77435
"41895",568.3482,80.48463,154.93141
"41896",568.3615,80.655525,155.11746
"41897",568.3748,80.799576,155.282
"41898",568.3881,80.87282,155.38023
"41899",568.4014,80.85329,155.38799
"41900",568.41473,80.73853,155.2999
"41901",568.42804,80.54322,155.12767
"41902",568.44135,80.291756,154.89319
"41903",568.45465,80.01099,154.62154
"41904",568.46796,79.73022,154.34111
"41905",568.48126,79.46166,154.06412
"41906",568.49457,79.219955,153.80559
"41907",568.5079,79.00755,153.5688
"41908",568.5212,78.82689,153.35712
"41909",568.5345,78.677956,153.17152
"41910",568.5478,78.56077,153.01302
"41911",568.5611,78.47532,152.88258
"41912",568.5744,78.42161,152.78122
"41913",568.5877,78.397194,152.70747
"41914",568.601,78.40208,152.66226
"41915",568.6143,78.42161,152.63185
"41916",568.6276,78.44358,152.60449
"41917",568.6409,78.46555,152.57782
"41918",568.65424,78.48997,152.55428
"41919",568.66754,78.50706,152.52417
"41920",568.68085,78.51194,152.48239
"41921",568.69415,78.49485,152.4188
"41922",568.70746,78.45823,152.33513
"41923",568.72076,78.39475,152.22346
"41924",568.7341,78.32151,152.10005
"41925",568.7474,78.25803,151.98412
"41926",568.7607,78.26536,151.937
"41927",568.774,78.40208,152.0195
"41928",568.7873,78.73411,152.30159
"41929",568.8006,79.28588,152.8138
"41930",568.8139,80.02319,153.5288
"41931",568.8272,80.8362,154.34253
"41932",568.8405,81.60525,155.13771
"41933",568.8538,82.196075,155.7787
"41934",568.8671,82.53544,156.18669
"41935",568.88043,82.61112,156.34161
"41936",568.89374,82.46708,156.27917
"41937",568.90704,82.15701,156.0462
"41938",568.92035,81.75662,155.71323
"41939",568.93365,81.322044,155.33354
"41940",568.94696,80.89967,154.95248
"41941",568.96027,80.516365,154.59729
"41942",568.9736,80.17456,154.27162
"41943",568.9869,79.87915,153.98166
"41944",569.0002,79.64233,153.74106
"41945",569.0135,79.47631,153.56386
"41946",569.0268,79.40307,153.47424
"41947",569.0401,79.43481,153.48732
"41948",569.0534,79.569084,153.60393
"41949",569.0667,79.76196,153.78334
"41950",569.08,79.97681,153.99075
"41951",569.0933,80.164795,154.17801
"41952",569.1066,80.27711,154.29547
"41953",569.11993,80.30152,154.32855
"41954",569.13324,80.235596,154.27205
"41955",569.14655,80.093994,154.13782
"41956",569.15985,79.90112,153.94788
"41957",569.17316,79.67895,153.72261
"41958",569.18646,79.449455,153.48308
"41959",569.19977,79.23216,153.24858
"41960",569.2131,79.03929,153.03171
"41961",569.2264,78.87572,152.8381
"41962",569.2397,78.74876,152.67601
"41963",569.253,78.658424,152.54657
"41964",569.2663,78.60471,152.45093
"41965",569.2796,78.58518,152.38779
"41966",569.2929,78.59739,152.35577
"41967",569.3062,78.63645,152.351
"41968",569.3195,78.692604,152.36453
"41969",569.3328,78.75853,152.3896
"41970",569.3461,78.819565,152.41183
"41971",569.35944,78.86595,152.42133
"41972",569.37274,78.89525,152.41518
"41973",569.38605,78.90257,152.38797
"41974",569.39935,78.887924,152.33902
"41975",569.41266,78.853745,152.27008
"41976",569.42596,78.81468,152.19519
"41977",569.4393,78.802475,152.14594
"41978",569.4526,78.87572,152.18175
"41979",569.4659,79.11009,152.38098
"41980",569.4792,79.54711,152.79019
"41981",569.4925,80.181885,153.41081
"41982",569.5058,80.94362,154.17822
"41983",569.5191,81.722435,154.98653
"41984",569.5324,82.38163,155.69955
"41985",569.5457,82.82353,156.21588
"41986",569.559,83.01152,156.49211
"41987",569.5723,82.96513,156.53984
"41988",569.58563,82.738075,156.40544
"41989",569.59894,82.39384,156.14677
"41990",569.61224,81.99344,155.82118
"41991",569.62555,81.58816,155.4782
"41992",569.63885,81.20729,155.14696
"41993",569.65216,80.86061,154.83801
"41994",569.66547,80.550545,154.55484
"41995",569.6788,80.28687,154.30838
"41996",569.6921,80.08911,154.11958
"41997",569.7054,79.98169,154.01495
"41998",569.7187,79.97681,154.00949
"41999",569.732,80.079346,154.1113
"42000",569.7453,80.2649,154.29933
"42001",569.7586,80.48463,154.52734
"42002",569.7719,80.68482,154.74269
"42003",569.7852,80.81911,154.89838
"42004",569.7985,80.867935,154.97281
"42005",569.8118,80.816666,154.94867
"42006",569.82513,80.672615,154.83014
"42007",569.83844,80.46998,154.64853
"42008",569.85175,80.23071,154.42395
"42009",569.86505,79.97681,154.17725
"42010",569.87836,79.73022,153.92993
"42011",569.89166,79.50561,153.69688
"42012",569.90497,79.30541,153.48123
"42013",569.9183,79.132065,153.28618
"42014",569.9316,78.992905,153.11989
"42015",569.9449,78.890366,152.98587
"42016",569.9582,78.82201,152.88283
"42017",569.9715,78.78783,152.81183
"42018",569.9848,78.78294,152.76906
"42019",569.9981,78.79271,152.74078
"42020",570.0114,78.81224,152.72258
"42021",570.0247,78.82933,152.70255
"42022",570.038,78.84154,152.67816
"42023",570.05133,78.839096,152.63951
"42024",570.06464,78.819565,152.5837
"42025",570.07794,78.78783,152.51506
"42026",570.09125,78.74387,152.43323
"42027",570.10455,78.71458,152.36467
"42028",570.11786,78.75609,152.36601
"42029",570.13116,78.93187,152.50291
"42030",570.1445,79.29809,152.83575
"42031",570.1578,79.87427,153.39
"42032",570.1711,80.61402,154.12582
"42033",570.1844,81.41482,154.94582
"42034",570.1977,82.14969,155.7249
"42035",570.211,82.701454,156.34384
"42036",570.2243,83.004196,156.731
"42037",570.2376,83.05058,156.87128
"42038",570.2509,82.88945,156.80548
"42039",570.2642,82.58671,156.59303
"42040",570.2775,82.21561,156.30276
"42041",570.29083,81.82742,155.98383
"42042",570.30414,81.45632,155.66983
"42043",570.31744,81.12428,155.3833
"42044",570.33075,80.831314,155.12547
"42045",570.34406,80.5774,154.89754
"42046",570.35736,80.37232,154.71051
"42047",570.37067,80.24048,154.5903
"42048",570.384,80.18921,154.54654
"42049",570.3973,80.23071,154.59396
"42050",570.4106,80.35767,154.72813
"42051",570.4239,80.54566,154.9273
"42052",570.4372,80.74586,155.14456
"42053",570.4505,80.91188,155.3339
"42054",570.4638,81.00954,155.46005
"42055",570.4771,81.024185,155.50626
"42056",570.4904,80.953384,155.46747
"42057",570.5037,80.81178,155.35567
"42058",570.517,80.62379,155.19304
"42059",570.53033,80.4065,154.99525
"42060",570.54364,80.177,154.77846
"42061",570.55695,79.954834,154.56183
"42062",570.57025,79.74731,154.35289
"42063",570.58356,79.55688,154.15456
"42064",570.59686,79.3933,153.97713
"42065",570.61017,79.259026,153.82388
"42066",570.6235,79.1638,153.7055
"42067",570.6368,79.10277,153.61833
"42068",570.6501,79.07103,153.55855
"42069",570.6634,79.063705,153.52219
"42070",570.6767,79.063705,153.49292
"42071",570.69,79.05882,153.45877
"42072",570.7033,79.044174,153.4147
"42073",570.7166,79.02464,153.3653
"42074",570.7299,79.00023,153.3104
"42075",570.7432,78.96361,153.24252
"42076",570.75653,78.91966,153.16618
"42077",570.76984,78.86839,153.08115
"42078",570.78314,78.81468,152.99207
"42079",570.79645,78.79515,152.93549
"42080",570.80975,78.873276,152.97595
"42081",570.82306,79.11009,153.17755
"42082",570.83636,79.54955,153.5892
"42083",570.8497,80.177,154.20258
"42084",570.863,80.91676,154.94788
"42085",570.8763,81.6614,155.72116
"42086",570.8896,82.29862,156.41031
"42087",570.9029,82.73319,156.91672
"42088",570.9162,82.92607,157.195
"42089",570.9295,82.90166,157.26204
"42090",570.9428,82.71122,157.16228
"42091",570.9561,82.41093,156.94672
"42092",570.9694,82.05936,156.67049
"42093",570.9827,81.705345,156.38083
"42094",570.99603,81.375755,156.10454
"42095",571.00934,81.077896,155.84967
"42096",571.02264,80.80934,155.6148
"42097",571.03595,80.57496,155.40572
"42098",571.04926,80.39185,155.24059
"42099",571.06256,80.272224,155.13321
"42100",571.07587,80.235596,155.10509
"42101",571.0892,80.27711,155.15396
"42102",571.1025,80.38209,155.26761
"42103",571.1158,80.51881,155.41628
"42104",571.1291,80.64088,155.55457
"42105",571.1424,80.709236,155.64296
"42106",571.1557,80.70435,155.66025
"42107",571.169,80.618904,155.59682
"42108",571.1823,80.45777,155.45503
"42109",571.1956,80.23804,155.2496
"42110",571.2089,79.98413,155.00314
"42111",571.2222,79.71557,154.73409
"42112",571.23553,79.45922,154.46884
"42113",571.24884,79.22728,154.22
"42114",571.26215,79.027084,153.99565
"42115",571.27545,78.85863,153.79678
"42116",571.28876,78.7219,153.62439
"42117",571.30206,78.60471,153.46725
"42118",571.31537,78.5095,153.32843
"42119",571.3287,78.433815,153.20616
"42120",571.342,78.380104,153.1035
"42121",571.3553,78.35325,153.02602
"42122",571.3686,78.348366,152.96967
"42123",571.3819,78.35813,152.92781
"42124",571.3952,78.37766,152.89603
"42125",571.4085,78.399635,152.8673
"42126",571.4218,78.41428,152.83192
"42127",571.4351,78.416725,152.7848
"42128",571.4484,78.40208,152.72067
"42129",571.46173,78.37278,152.64143
"42130",571.47504,78.33616,152.55396
"42131",571.48834,78.28977,152.45557
"42132",571.50165,78.24826,152.36061
"42133",571.51495,78.25803,152.31564
"42134",571.52826,78.380104,152.38327
"42135",571.54156,78.68528,152.63782
"42136",571.5549,79.20775,153.1192
"42137",571.5682,79.920654,153.80734
"42138",571.5815,80.73609,154.6203
"42139",571.5948,81.52224,155.42946
"42140",571.6081,82.15457,156.10936
"42141",571.6214,82.547646,156.56976
"42142",571.6347,82.684364,156.7861
"42143",571.648,82.59403,156.77966
"42144",571.6613,82.340126,156.60683
"42145",571.6746,81.986115,156.32594
"42146",571.6879,81.58816,155.99005
"42147",571.70123,81.19264,155.64417
"42148",571.71454,80.8362,155.325
"42149",571.72784,80.533455,155.04839
"42150",571.74115,80.28443,154.81604
"42151",571.75446,80.08911,154.62961
"42152",571.76776,79.96216,154.50543
"42153",571.78107,79.906006,154.44809
"42154",571.7944,79.92798,154.46713
"42155",571.8077,80.01831,154.5552
"42156",571.821,80.164795,154.70227
"42157",571.8343,80.325935,154.86856
"42158",571.8476,80.465096,155.01791
"42159",571.8609,80.54322,155.11058
"42160",571.8742,80.54566,155.13
"42161",571.8875,80.46998,155.07138
"42162",571.9008,80.323494,154.93959
"42163",571.9141,80.11841,154.74461
"42164",571.9274,79.886475,154.51639
"42165",571.94073,79.656975,154.28334
"42166",571.95404,79.44213,154.05777
"42167",571.96735,79.256584,153.85478
"42168",571.98065,79.11253,153.6875
"42169",571.99396,79.00267,153.5499
"42170",572.00726,78.922104,153.43816
"42171",572.02057,78.86595,153.34831
"42172",572.0339,78.82933,153.27625
"42173",572.0472,78.81224,153.22256
"42174",572.0605,78.80736,153.18056
"42175",572.0738,78.81468,153.1506
"42176",572.0871,78.82689,153.12576
"42177",572.1004,78.84642,153.10863
"42178",572.1137,78.86839,153.09454
"42179",572.127,78.8806,153.07138
"42180",572.1403,78.88304,153.03883
"42181",572.1536,78.870834,152.99171
"42182",572.16693,78.83177,152.91736
"42183",572.18024,78.765854,152.81493
"42184",572.19354,78.68528,152.69579
"42185",572.20685,78.59495,152.56436
"42186",572.22015,78.50706,152.43256
"42187",572.23346,78.45579,152.33463
"42188",572.24677,78.49973,152.3303
"42189",572.2601,78.70237,152.48605
"42190",572.2734,79.11009,152.85323
"42191",572.2867,79.727776,153.4431
"42192",572.3,80.479744,154.18655
"42193",572.3133,81.25857,154.98038
"42194",572.3266,81.934845,155.69598
"42195",572.3399,82.40116,156.22276
"42196",572.3532,82.61356,156.51021
"42197",572.3665,82.581825,156.56015
"42198",572.3798,82.36698,156.426
"42199",572.3931,82.03006,156.16304
"42200",572.40643,81.636986,155.8334
"42201",572.41974,81.23903,155.4866
"42202",572.43304,80.87038,155.15668
"42203",572.44635,80.54322,154.85672
"42204",572.45966,80.26002,154.5905
"42205",572.47296,80.02319,154.3618
"42206",572.48627,79.84009,154.17941
"42207",572.4996,79.73022,154.06454
"42208",572.5129,79.7058,154.0317
"42209",572.5262,79.766846,154.08354
"42210",572.5395,79.90112,154.21054
"42211",572.5528,80.07446,154.3808
"42212",572.5661,80.24048,154.54913
"42213",572.5794,80.35035,154.66652
"42214",572.5927,80.37232,154.69945
"42215",572.606,80.31129,154.65005
"42216",572.6193,80.17212,154.52061
"42217",572.6326,79.98169,154.33557
"42218",572.64594,79.77173,154.12503
"42219",572.65924,79.55688,153.90305
"42220",572.67255,79.34936,153.68167
"42221",572.68585,79.149155,153.46114
"42222",572.69916,78.96605,153.25143
"42223",572.71246,78.81224,153.0653
"42224",572.72577,78.692604,152.90855
"42225",572.7391,78.6096,152.78468
"42226",572.7524,78.56077,152.6924
"42227",572.7657,78.536354,152.623
"42228",572.779,78.51682,152.55772
"42229",572.7923,78.49729,152.49184
"42230",572.8056,78.4802,152.42778
"42231",572.8189,78.45335,152.35342
"42232",572.8322,78.42893,152.28067
"42233",572.8455,78.40696,152.2096
"42234",572.8588,78.38743,152.14027
"42235",572.87213,78.365456,152.0679
"42236",572.88544,78.33616,151.98752
"42237",572.89874,78.294655,151.89401
"42238",572.91205,78.24582,151.79189
"42239",572.92535,78.19455,151.68579
"42240",572.93866,78.16525,151.60007
"42241",572.95197,78.21164,151.58911
"42242",572.9653,78.399635,151.72122
"42243",572.9786,78.7805,152.05208
"42244",572.9919,79.35668,152.59015
"42245",573.0052,80.076904,153.29027
"42246",573.0185,80.83864,154.05441
"42247",573.0318,81.51736,154.75934
"42248",573.0451,82.00076,155.29016
"42249",573.0584,82.2449,155.59683
"42250",573.0717,82.247345,155.66943
"42251",573.085,82.054474,155.5468
"42252",573.0983,81.73708,155.29361
"42253",573.11163,81.36111,154.97192
"42254",573.12494,80.9778,154.63115
"42255",573.13824,80.62379,154.3077
"42256",573.15155,80.30152,154.00493
"42257",573.16486,80.01587,153.7287
"42258",573.17816,79.77417,153.48749
"42259",573.19147,79.588615,153.29488
"42260",573.2048,79.47631,153.16971
"42261",573.2181,79.45434,153.13136
"42262",573.2314,79.52758,153.18755
"42263",573.2447,79.67162,153.31682
"42264",573.258,79.84741,153.48235
"42265",573.2713,80.01099,153.64114
"42266",573.2846,80.12329,153.75378
"42267",573.2979,80.15259,153.78693
"42268",573.3112,80.08911,153.72821
"42269",573.3245,79.94751,153.58939
"42270",573.3378,79.75952,153.39975
"42271",573.35114,79.56176,153.19447
"42272",573.36444,79.378654,152.99767
"42273",573.37775,79.22972,152.82932
"42274",573.39105,79.11742,152.69293
"42275",573.40436,79.03441,152.58234
"42276",573.41766,78.97337,152.49112
"42277",573.43097,78.92699,152.41264
"42278",573.4443,78.90257,152.35469
"42279",573.4576,78.89525,152.31306
"42280",573.4709,78.90257,152.28586
"42281",573.4842,78.924545,152.27353
"42282",573.4975,78.95628,152.27165
"42283",573.5108,78.98802,152.27077
"42284",573.5241,79.012436,152.26355
"42285",573.5374,79.027084,152.24733
"42286",573.5507,79.029526,152.21936
"42287",573.564,79.01976,152.17926
"42288",573.57733,78.995346,152.1242
"42289",573.59064,78.95628,152.05374
"42290",573.60394,78.90013,151.96497
"42291",573.61725,78.8513,151.88176
"42292",573.63055,78.86351,151.85806
"42293",573.64386,79.00755,151.96658
"42294",573.65717,79.33471,152.26273
"42295",573.6705,79.85962,152.76685
"42296",573.6838,80.52857,153.43141
"42297",573.6971,81.234146,154.1535
"42298",573.7104,81.85428,154.81221
"42299",573.7237,82.28886,155.30473
"42300",573.737,82.49882,155.58623
"42301",573.7503,82.48173,155.64723
"42302",573.7636,82.27909,155.52216
"42303",573.7769,81.95682,155.2711
"42304",573.7902,81.57351,154.94894
"42305",573.8035,81.17555,154.60016
"42306",573.81683,80.797134,154.25848
"42307",573.83014,80.465096,153.95135
"42308",573.84344,80.184326,153.68512
"42309",573.85675,79.96704,153.4736
"42310",573.87006,79.83032,153.33585
"42311",573.88336,79.78882,153.28903
"42312",573.89667,79.852295,153.34592
"42313",573.91,80.01099,153.5
"42314",573.9233,80.24536,153.73471
"42315",573.9366,80.50416,154.00117
"42316",573.9499,80.73609,154.24887
"42317",573.9632,80.89235,154.42813
"42318",573.9765,80.953384,154.51706
"42319",573.9898,80.90944,154.50291
"42320",574.0031,80.77516,154.39706
"42321",574.0164,80.57984,154.22597
"42322",574.0297,80.35523,154.01949
"42323",574.043,80.11841,153.79376
"42324",574.05634,79.89136,153.5704
"42325",574.06964,79.67895,153.3546
"42326",574.08295,79.48608,153.15169
"42327",574.09625,79.31518,152.96472
"42328",574.10956,79.17357,152.80171
"42329",574.12286,79.07347,152.67578
"42330",574.13617,79.009995,152.58334
"42331",574.1495,78.97826,152.52066
"42332",574.1628,78.97093,152.4814
"42333",574.1761,78.97337,152.45168
"42334",574.1894,78.96361,152.40982
"42335",574.2027,78.93919,152.35301
"42336",574.216,78.905014,152.28568
"42337",574.2293,78.85863,152.20506
"42338",574.2426,78.802475,152.11324
"42339",574.2559,78.751205,152.02454
"42340",574.2692,78.69993,151.93423
"42341",574.28253,78.66331,151.85698
"42342",574.29584,78.677956,151.82985
"42343",574.30914,78.80003,151.91061
"42344",574.32245,79.08324,152.15631
"42345",574.33575,79.55932,152.60374
"42346",574.34906,80.21118,153.24184
"42347",574.36237,80.96559,154.00284
"42348",574.3757,81.71023,154.77765
"42349",574.389,82.32304,155.44391
"42350",574.4023,82.718544,155.91202
"42351",574.4156,82.8748,156.15323
"42352",574.4289,82.811325,156.1796
"42353",574.4422,82.58671,156.04283
"42354",574.4555,82.27177,155.80873
"42355",574.4688,81.92752,155.53548
"42356",574.4821,81.59792,155.26611
"42357",574.4954,81.304955,155.02309
"42358",574.5087,81.05104,154.80995
"42359",574.52203,80.833755,154.62552
"42360",574.53534,80.65797,154.47578
"42361",574.54865,80.53101,154.3694
"42362",574.56195,80.47486,154.32985
"42363",574.57526,80.49439,154.36423
"42364",574.58856,80.587166,154.47246
"42365",574.60187,80.73121,154.63486
"42366",574.6152,80.88258,154.80908
"42367",574.6285,80.99733,154.95142
"42368",574.6418,81.04372,155.02898
"42369",574.6551,81.00954,155.02742
"42370",574.6684,80.89479,154.94423
"42371",574.6817,80.71412,154.79152
"42372",574.695,80.499275,154.599
"42373",574.7083,80.26978,154.38512
"42374",574.7216,80.03784,154.1616
"42375",574.7349,79.823,153.94794
"42376",574.7482,79.63012,153.74953
"42377",574.76154,79.4641,153.57195
"42378",574.77484,79.32983,153.42091
"42379",574.78815,79.22972,153.29987
"42380",574.80145,79.1638,153.20987
"42381",574.81476,79.1223,153.14223
"42382",574.82806,79.10033,153.09282
"42383",574.8414,79.093,153.05737
"42384",574.8547,79.09056,153.02658
"42385",574.868,79.09056,152.99815
"42386",574.8813,79.093,152.97217
"42387",574.8946,79.09056,152.94138
"42388",574.9079,79.08568,152.90807
"42389",574.9212,79.06859,152.8624
"42390",574.9345,79.046616,152.81131
"42391",574.9478,79.01488,152.74977
"42392",574.9611,78.97826,152.68236
"42393",574.9744,78.96605,152.63821
"42394",574.98773,79.02464,152.66449
"42395",575.00104,79.21507,152.82443
"42396",575.01434,79.586174,153.171
"42397",575.02765,80.14038,153.71228
"42398",575.04095,80.82643,154.40271
"42399",575.05426,81.549095,155.1512
"42400",575.06757,82.18387,155.83438
"42401",575.0809,82.63554,156.3543
"42402",575.0942,82.85771,156.65883
"42403",575.1075,82.862595,156.75302
"42404",575.1208,82.69657,156.67645
"42405",575.1341,82.43046,156.49461
"42406",575.1474,82.11551,156.25562
"42407",575.1607,81.79813,156.00435
"42408",575.174,81.514915,155.77733
"42409",575.1873,81.26833,155.5781
"42410",575.2006,81.05104,155.40044
"42411",575.2139,80.85817,155.24042
"42412",575.22723,80.70191,155.11098
"42413",575.24054,80.587166,155.01817
"42414",575.25385,80.533455,154.98282
"42415",575.26715,80.5481,155.01414
"42416",575.28046,80.63355,155.11673
"42417",575.29376,80.75563,155.2586
"42418",575.30707,80.867935,155.39453
"42419",575.3204,80.92653,155.48026
"42420",575.3337,80.902115,155.4848
"42421",575.347,80.782486,155.39337
"42422",575.3603,80.57252,155.20786
"42423",575.3736,80.30396,154.9572
"42424",575.3869,80.01343,154.67616
"42425",575.4002,79.725334,154.38849
"42426",575.4135,79.45922,154.11378
"42427",575.4268,79.22972,153.86739
"42428",575.4401,79.03929,153.65288
"42429",575.4534,78.887924,153.47148
"42430",575.46674,78.7805,153.3293
"42431",575.48004,78.71946,153.23015
"42432",575.49335,78.692604,153.16327
"42433",575.50665,78.70481,153.13461
"42434",575.51996,78.746315,153.13564
"42435",575.53326,78.80492,153.15506
"42436",575.5466,78.86351,153.1763
"42437",575.5599,78.9099,153.18716
"42438",575.5732,78.93675,153.17995
"42439",575.5865,78.93431,153.14427
"42440",575.5998,78.89525,153.0719
"42441",575.6131,78.82933,152.97145
"42442",575.6264,78.729225,152.83476
"42443",575.6397,78.60227,152.66809
"42444",575.653,78.45823,152.48036
"42445",575.6663,78.3093,152.28325
"42446",575.6796,78.167694,152.0888
"42447",575.69293,78.04562,151.90947
"42448",575.70624,77.96506,151.76782
"42449",575.71954,77.979706,151.71887
"42450",575.73285,78.150604,151.82663
"42451",575.74615,78.52903,152.14726
"42452",575.75946,79.12718,152.69945
"42453",575.77277,79.88159,153.42657
"42454",575.7861,80.68726,154.22855
"42455",575.7994,81.41238,154.97514
"42456",575.8127,81.94949,155.5564
"42457",575.826,82.23514,155.90297
"42458",575.8393,82.28153,156.01921
"42459",575.8526,82.13504,155.94402
"42460",575.8659,81.85916,155.73486
"42461",575.8792,81.50759,155.44139
"42462",575.8925,81.14137,155.12228
"42463",575.9058,80.78981,154.8064
"42464",575.9191,80.47242,154.51369
"42465",575.93243,80.18921,154.24524
"42466",575.94574,79.95239,154.01434
"42467",575.95905,79.77905,153.83951
"42468",575.97235,79.68383,153.73738
"42469",575.98566,79.66918,153.71284
"42470",575.99896,79.73754,153.77086
"42471",576.01227,79.87915,153.90427
"42472",576.0256,80.05737,154.0787
"42473",576.0389,80.23071,154.25385
"42474",576.0522,80.365,154.39534
"42475",576.0655,80.43336,154.47511
"42476",576.0788,80.41627,154.47157
"42477",576.0921,80.31861,154.38693
"42478",576.1054,80.15503,154.2333
"42479",576.1187,79.94995,154.03308
"42480",576.132,79.727776,153.80934
"42481",576.1453,79.50805,153.5811
"42482",576.1586,79.293205,153.35088
"42483",576.17194,79.093,153.12859
"42484",576.18524,78.922104,152.92934
"42485",576.19855,78.785385,152.75893
"42486",576.21185,78.677956,152.61354
"42487",576.22516,78.607155,152.50142
"42488",576.23846,78.572975,152.4237
"42489",576.2518,78.56565,152.37178
"42490",576.2651,78.57542,152.33672
"42491",576.2784,78.59251,152.30928
"42492",576.2917,78.61448,152.28726
"42493",576.305,78.63889,152.26837
"42494",576.3183,78.660866,152.2478
"42495",576.3316,78.675514,152.2206
"42496",576.3449,78.68772,152.1914
"42497",576.3582,78.692604,152.15527
"42498",576.3715,78.68528,152.10709
"42499",576.3848,78.65354,152.03426
"42500",576.39813,78.61448,151.95311
"42501",576.41144,78.56565,151.86098
"42502",576.42474,78.51682,151.76732
"42503",576.43805,78.46555,151.6697
"42504",576.45135,78.416725,151.5729
"42505",576.46466,78.380104,151.4868
"42506",576.47797,78.34348,151.39955
"42507",576.4913,78.33372,151.33801
"42508",576.5046,78.38499,151.3372
"42509",576.5179,78.57542,151.47716
"42510",576.5312,78.95628,151.8135
"42511",576.5445,79.551994,152.3766
"42512",576.5578,80.32105,153.13165
"42513",576.5711,81.15358,153.97421
"42514",576.5844,81.90799,154.76468
"42515",576.5977,82.46708,155.38339
"42516",576.611,82.757614,155.75102
"42517",576.6243,82.78447,155.86406
"42518",576.63763,82.6038,155.7704
"42519",576.65094,82.29618,155.54416
