"","Time..s.","PPG.trace","Preprocessed.PPG"
"2239",39.219116,81.356224,81.56737
"2240",39.23242,81.33425,81.587776
"2241",39.24579,81.13649,81.43171
"2242",39.259094,80.78981,81.120544
"2243",39.27246,80.33814,80.69356
"2244",39.285767,79.82544,80.19142
"2245",39.299133,79.28344,79.64397
"2246",39.31244,78.74876,79.08689
"2247",39.325806,78.25071,78.54974
"2248",39.33911,77.80881,78.05318
"2249",39.352417,77.437706,77.6136
"2250",39.365784,77.137405,77.23323
"2251",39.37909,76.89815,76.90452
"2252",39.392456,76.71992,76.62936
"2253",39.40576,76.60517,76.41211
"2254",39.41913,76.54658,76.24743
"2255",39.432434,76.544136,76.13707
"2256",39.4458,76.57343,76.05837
"2257",39.459106,76.61494,75.9928
"2258",39.472473,76.65156,75.92364
"2259",39.48578,76.67597,75.843414
"2260",39.499146,76.680855,75.74442
"2261",39.51245,76.66865,75.628494
"2262",39.525818,76.64179,75.497536
"2263",39.539124,76.592964,75.343765
"2264",39.55243,76.51484,75.15917
"2265",39.565796,76.40986,74.94528
"2266",39.5791,76.29023,74.71346
"2267",39.59247,76.19989,74.507195
"2268",39.605774,76.23407,74.42262
"2269",39.61914,76.53925,74.61012
"2270",39.632446,77.26681,75.22953
"2271",39.645813,78.47288,76.35019
"2272",39.65912,80.08667,77.91626
"2273",39.672485,81.91043,79.74273
"2274",39.68579,83.67803,81.57003
"2275",39.699158,85.120926,83.12786
"2276",39.712463,86.07309,84.24005
"2277",39.72583,86.48814,84.84488
"2278",39.739136,86.42222,84.98171
"2279",39.752502,85.97543,84.73562
"2280",39.76581,85.26986,84.216774
"2281",39.779114,84.42756,83.539154
"2282",39.79248,83.53887,82.788826
"2283",39.805786,82.6746,82.03514
"2284",39.819153,81.87137,81.31549
"2285",39.83246,81.15602,80.65862
"2286",39.845825,80.56275,80.10148
"2287",39.85913,80.13306,79.68937
"2288",39.872498,79.90845,79.46892
"2289",39.885803,79.91089,79.4685
"2290",39.89917,80.128174,79.683
"2291",39.912476,80.50416,80.06299
"2292",39.925842,80.94118,80.51576
"2293",39.939148,81.33181,80.93581
"2294",39.952515,81.58816,81.23377
"2295",39.96582,81.66628,81.36153
"2296",39.979187,81.549095,81.29641
"2297",39.992493,81.25857,81.05429
"2298",40.0058,80.82643,80.66148
"2299",40.019165,80.31373,80.17461
"2300",40.03247,79.75952,79.6302
"2301",40.045837,79.20531,79.068474
"2302",40.059143,78.68772,78.526054
"2303",40.07251,78.23117,78.028496
"2304",40.085815,77.840546,77.582596
"2305",40.099182,77.51583,77.1904
"2306",40.112488,77.25704,76.85398
"2307",40.125854,77.051956,76.56318
"2308",40.13916,76.90059,76.31969
"2309",40.152527,76.80049,76.122734
"2310",40.165833,76.74433,75.96659
"2311",40.1792,76.7248,75.84532
"2312",40.192505,76.72724,75.745415
"2313",40.20581,76.74433,75.66023
"2314",40.219177,76.76143,75.57559
"2315",40.232483,76.76875,75.48171
"2316",40.24585,76.76143,75.37341
"2317",40.259155,76.74433,75.25511
"2318",40.272522,76.70771,75.11675
"2319",40.285828,76.66132,74.96748
"2320",40.299194,76.595406,74.79723
"2321",40.3125,76.50996,74.60539
"2322",40.325867,76.402534,74.38891
"2323",40.339172,76.29511,74.16907
"2324",40.35254,76.25361,74.01179
"2325",40.365845,76.4123,74.053406
"2326",40.37921,76.93477,74.46376
"2327",40.392517,77.93088,75.36408
"2328",40.405823,79.395744,76.76429
"2329",40.41919,81.17311,78.52277
"2330",40.432495,83.01152,80.39784
"2331",40.44586,84.62287,82.1033
"2332",40.459167,85.78256,83.407455
"2333",40.472534,86.383156,84.18875
"2334",40.48584,86.44907,84.45414
"2335",40.499207,86.07553,84.28213
"2336",40.512512,85.38949,83.78594
"2337",40.52588,84.51545,83.08032
"2338",40.539185,83.57305,82.27903
"2339",40.55255,82.64286,81.460495
"2340",40.565857,81.76639,80.66661
"2341",40.579224,80.96803,79.923454
"2342",40.59253,80.26734,79.25301
"2343",40.605896,79.72289,78.71692
"2344",40.6192,79.38598,78.371346
"2345",40.632507,79.30785,78.27403
"2346",40.645874,79.500725,78.445274
"2347",40.65918,79.91821,78.84716
"2348",40.672546,80.462654,79.389046
"2349",40.685852,81.00221,79.94306
"2350",40.69922,81.43191,80.404076
"2351",40.712524,81.67605,80.69296
"2352",40.72589,81.71023,80.77952
"2353",40.739197,81.53445,80.65718
"2354",40.752563,81.18532,80.356
"2355",40.76587,80.71168,79.9194
"2356",40.779236,80.15991,79.38988
"2357",40.79254,79.569084,78.80405
"2358",40.80591,78.97337,78.19487
"2359",40.819214,78.40696,77.596375
"2360",40.83258,77.8967,77.03633
"2361",40.845886,77.45724,76.53114
"2362",40.85919,77.09834,76.09279
"2363",40.87256,76.824905,75.728676
"2364",40.885864,76.63203,75.43658
"2365",40.89923,76.51484,75.21414
"2366",40.912537,76.46357,75.05396
"2367",40.925903,76.473335,74.95322
"2368",40.93921,76.52949,74.89916
"2369",40.952576,76.60517,74.866394
"2370",40.96588,76.68574,74.84087
"2371",40.979248,76.756546,74.80811
"2372",40.992554,76.805374,74.755585
"2373",41.00592,76.83223,74.68261
"2374",41.019226,76.83223,74.58362
"2375",41.032593,76.79561,74.448006
"2376",41.0459,76.71992,74.27218
"2377",41.059204,76.60029,74.05005
"2378",41.07257,76.456245,73.79977
"2379",41.085876,76.351265,73.584045
"2380",41.099243,76.42939,73.54815
"2381",41.11255,76.87129,73.87847
"2382",41.125916,77.806366,74.715775
"2383",41.13922,79.24681,76.08767
"2384",41.152588,81.06081,77.87813
"2385",41.165894,83.004196,79.85467
"2386",41.17926,84.76692,81.71127
"2387",41.192566,86.10483,83.19814
"2388",41.205933,86.890976,84.175064
"2389",41.21924,87.13023,84.62966
"2390",41.232605,86.90318,84.62543
"2391",41.24591,86.31968,84.257645
"2392",41.259216,85.506676,83.64213
"2393",41.272583,84.576485,82.88402
"2394",41.28589,83.60723,82.05778
"2395",41.299255,82.650185,81.213455
"2396",41.31256,81.73708,80.38317
"2397",41.325928,80.91188,79.61225
"2398",41.339233,80.22827,78.95714
"2399",41.3526,79.75952,78.49552
"2400",41.365906,79.57885,78.307335
"2401",41.379272,79.72045,78.435776
"2402",41.39258,80.147705,78.854294
"2403",41.405945,80.77028,79.48148
"2404",41.41925,81.45632,80.1916
"2405",41.432556,82.05936,80.84014
"2406",41.445923,82.4744,81.31954
"2407",41.45923,82.63798,81.56044
"2408",41.472595,82.547646,81.55254
"2409",41.4859,82.2327,81.31721
"2410",41.499268,81.73708,80.891365
"2411",41.512573,81.129166,80.33773
"2412",41.52594,80.462654,79.706505
"2413",41.539246,79.78882,79.04713
"2414",41.55255,79.14427,78.39598
"2415",41.565918,78.55833,77.783295
"2416",41.579224,78.048065,77.22798
"2417",41.59259,77.628136,76.747055
"2418",41.605896,77.30099,76.34579
"2419",41.619263,77.069046,76.0295
"2420",41.63257,76.93721,75.806076
"2421",41.645874,76.89082,75.66398
"2422",41.65924,76.91524,75.59123
"2423",41.672546,76.98848,75.56808
"2424",41.685913,77.083694,75.56918
"2425",41.69922,77.17647,75.57082
"2426",41.712585,77.25704,75.56316
"2427",41.72589,77.313194,75.5336
"2428",41.739197,77.332726,75.46917
"2429",41.752563,77.30099,75.35408
"2430",41.76587,77.222855,75.191605
"2431",41.779236,77.13985,75.02181
"2432",41.79254,77.14473,74.93732
"2433",41.80591,77.39864,75.102005
"2434",41.819214,78.07248,75.69455
"2435",41.83258,79.2517,76.81354
"2436",41.845886,80.88014,78.418594
"2437",41.85919,82.76738,80.333336
"2438",41.87256,84.64973,82.30216
"2439",41.885864,86.24887,84.04661
"2440",41.89923,87.3695,85.36251
"2441",41.912537,87.94324,86.16655
"2442",41.925903,87.99695,86.46849
"2443",41.93921,87.620964,86.34241
"2444",41.952576,86.9276,85.88719
"2445",41.96588,86.031586,85.207664
"2446",41.979187,85.03792,84.40248
"2447",41.992554,84.02472,83.546715
"2448",42.00586,83.04326,82.691025
"2449",42.019226,82.12039,81.86326
"2450",42.03253,81.30984,81.118965
"2451",42.0459,80.68482,80.53488
"2452",42.059204,80.32105,80.19251
"2453",42.07251,80.26734,80.148834
"2454",42.085876,80.53101,80.42086
"2455",42.099182,81.05104,80.95748
"2456",42.11255,81.71511,81.654396
"2457",42.125854,82.38163,82.37451
"2458",42.13922,82.92607,82.99338
"2459",42.152527,83.25811,83.416855
"2460",42.165833,83.33868,83.599236
"2461",42.1792,83.158005,83.522896
"2462",42.192505,82.760056,83.22363
"2463",42.20587,82.20096,82.750786
"2464",42.219177,81.54421,82.16282
"2465",42.232544,80.8362,81.50306
"2466",42.24585,80.12085,80.81384
"2467",42.259216,79.43725,80.13402
"2468",42.272522,78.81468,79.493866
"2469",42.285828,78.28001,78.92215
"2470",42.299194,77.85275,78.44115
"2471",42.3125,77.54513,78.06642
"2472",42.325867,77.347374,77.791954
"2473",42.339172,77.2546,77.61629
"2474",42.35254,77.24483,77.52072
"2475",42.365845,77.298546,77.48834
"2476",42.37921,77.38155,77.48693
"2477",42.392517,77.47433,77.49788
"2478",42.405823,77.55001,77.49464
"2479",42.41919,77.591515,77.45958
"2480",42.432495,77.591515,77.384315
"2481",42.44586,77.55001,77.26755
"2482",42.459167,77.46212,77.103096
"2483",42.472534,77.34493,76.9066
"2484",42.48584,77.26925,76.74795
"2485",42.499146,77.37423,76.76759
"2486",42.512512,77.83078,77.14209
"2487",42.525818,78.77806,78.02158
"2488",42.539185,80.23804,79.443375
"2489",42.55249,82.09354,81.30631
"2490",42.565857,84.11017,83.38837
"2491",42.579163,85.99008,85.39672
"2492",42.59247,87.481804,87.07563
"2493",42.605835,88.44373,88.27136
"2494",42.61914,88.851456,88.94295
"2495",42.632507,88.76112,89.12923
"2496",42.645813,88.275276,88.91716
"2497",42.65918,87.535515,88.436005
"2498",42.672485,86.66636,87.80234
"2499",42.685852,85.767914,87.11221
"2500",42.699158,84.89876,86.4233
"2501",42.712463,84.09552,85.77315
"2502",42.72583,83.37774,85.18335
"2503",42.739136,82.774704,84.68587
"2504",42.752502,82.34257,84.34044
"2505",42.76581,82.13016,84.20123
"2506",42.779175,82.16922,84.30686
"2507",42.79248,82.44022,84.64565
"2508",42.805847,82.879684,85.16137
"2509",42.819153,83.3753,85.74697
"2510",42.83246,83.81232,86.28947
"2511",42.845825,84.088196,86.68448
"2512",42.85913,84.14191,86.865944
"2513",42.872498,83.93927,86.79274
"2514",42.885803,83.49981,86.47638
"2515",42.89917,82.87236,85.9583
"2516",42.912476,82.11795,85.29365
"2517",42.92578,81.287865,84.52975
"2518",42.939148,80.44068,83.72281
"2519",42.952454,79.61059,82.90649
"2520",42.96582,78.82689,82.11062
"2521",42.979126,78.118866,81.36594
"2522",42.992493,77.503624,80.69191
"2523",43.0058,77.00069,80.11096
"2524",43.019104,76.610054,79.6266
"2525",43.03247,76.32685,79.237465
"2526",43.045776,76.13641,78.93224
"2527",43.059143,76.02899,78.70409
"2528",43.07245,75.97772,78.528725
"2529",43.085815,75.97528,78.40059
"2530",43.09912,75.99481,78.29435
"2531",43.112488,76.033875,78.20825
"2532",43.125793,76.070496,78.12093
"2533",43.1391,76.09979,78.027435
"2534",43.152466,76.10956,77.91532
"2535",43.16577,76.09491,77.7791
"2536",43.17914,76.068054,77.63021
"2537",43.192444,76.087585,77.52687
"2538",43.20581,76.27802,77.59505
"2539",43.219116,76.805374,78.00609
"2540",43.232483,77.81125,78.91213
"2541",43.24579,79.32494,80.35743
"2542",43.259094,81.23659,82.24798
"2543",43.27246,83.319145,84.36918
"2544",43.285767,85.28695,86.440704
"2545",43.299133,86.873886,88.192856
"2546",43.31244,87.921265,89.45504
"2547",43.325806,88.39002,90.17134
"2548",43.33911,88.32166,90.36517
"2549",43.352417,87.818726,90.122284
"2550",43.365784,87.01305,89.56094
"2551",43.37909,86.05112,88.81817
"2552",43.392456,85.067215,88.02336
"2553",43.40576,84.15167,87.26617
"2554",43.41913,83.33868,86.58291
"2555",43.432434,82.66483,86.0134
"2556",43.44574,82.15457,85.58641
"2557",43.459106,81.83475,85.333916
"2558",43.472412,81.73708,85.29359
"2559",43.48578,81.85672,85.46751
"2560",43.499084,82.16434,85.833145
"2561",43.51245,82.57694,86.313385
"2562",43.525757,82.99931,86.816284
"2563",43.539124,83.32403,87.234726
"2564",43.55243,83.48272,87.49729
"2565",43.565735,83.42657,87.54997
"2566",43.5791,83.14336,87.37384
"2567",43.592407,82.64774,86.976456
"2568",43.605774,81.98123,86.392685
"2569",43.61908,81.19508,85.66845
"2570",43.632446,80.34547,84.85618
"2571",43.645752,79.48119,84.0027
"2572",43.65912,78.65354,83.15884
"2573",43.672424,77.88937,82.35259
"2574",43.68573,77.21797,81.615234
"2575",43.699097,76.64912,80.95944
"2576",43.712402,76.190125,80.39574
"2577",43.72577,75.826355,79.91291
"2578",43.739075,75.55047,79.5066
"2579",43.75244,75.352715,79.1698
"2580",43.765747,75.21843,78.89029
"2581",43.779053,75.1281,78.650536
"2582",43.79242,75.071945,78.44214
"2583",43.805725,75.04021,78.2564
"2584",43.81909,75.02556,78.08676
"2585",43.832397,75.028,77.933754
"2586",43.845764,75.03288,77.783264
"2587",43.85907,75.02312,77.61828
"2588",43.872375,74.98894,77.42857
"2589",43.885742,74.92302,77.20606
"2590",43.899048,74.84001,76.9644
"2591",43.912415,74.80339,76.76653
"2592",43.92572,74.94255,76.7433
"2593",43.939087,75.41863,77.06134
"2594",43.952393,76.36591,77.865456
"2595",43.96576,77.806366,79.192345
"2596",43.979065,79.64477,80.9622
"2597",43.99237,81.651634,82.95796
"2598",44.005737,83.54864,84.90658
"2599",44.019043,85.07942,86.548256
"2600",44.03241,86.09018,87.71774
"2601",44.045715,86.54673,88.36461
"2602",44.059082,86.49546,88.51792
"2603",44.072388,86.03891,88.26435
"2604",44.085754,85.296715,87.71087
"2605",44.09906,84.4007,86.98038
"2606",44.112366,83.44854,86.16573
"2607",44.125732,82.51835,85.34331
"2608",44.139038,81.64675,84.55041
"2609",44.152405,80.867935,83.82305
"2610",44.16571,80.23071,83.21295
"2611",44.179077,79.77905,82.7685
"2612",44.192383,79.55932,82.54186
"2613",44.20569,79.58373,82.552505
"2614",44.219055,79.835205,82.79097
"2615",44.23236,80.23071,83.18133
"2616",44.245728,80.672615,83.63044
"2617",44.259033,81.05592,84.03477
"2618",44.2724,81.30984,84.32168
"2619",44.285706,81.375755,84.42853
"2620",44.29901,81.234146,84.32991
"2621",44.312378,80.88991,84.02424
"2622",44.325684,80.37965,83.54179
"2623",44.33905,79.7522,82.9262
"2624",44.352356,79.07103,82.23729
"2625",44.365723,78.38743,81.52466
"2626",44.37903,77.73556,80.822395
"2627",44.392395,77.137405,80.15348
"2628",44.4057,76.61494,79.54156
"2629",44.419006,76.17792,78.99876
"2630",44.432373,75.82391,78.525314
"2631",44.44568,75.55535,78.12625
"2632",44.459045,75.372246,77.80425
"2633",44.47235,75.25994,77.54733
"2634",44.485718,75.20622,77.34549
"2635",44.499023,75.18913,77.1786
"2636",44.51239,75.20378,77.04291
"2637",44.525696,75.228195,76.91744
"2638",44.539,75.25262,76.79275
"2639",44.55237,75.264824,76.6566
"2640",44.565674,75.264824,76.50863
"2641",44.57904,75.2404,76.336235
"2642",44.592346,75.18913,76.13623
"2643",44.605713,75.10124,75.898
"2644",44.61902,74.98161,75.62529
"2645",44.632324,74.87175,75.358604
"2646",44.64569,74.8571,75.1837
"2647",44.658997,75.10857,75.27445
"2648",44.672363,75.78729,75.80032
"2649",44.68567,76.981155,76.86254
"2650",44.699036,78.643776,78.430824
"2651",44.71234,80.604256,80.34892
"2652",44.725647,82.58671,82.35026
"2653",44.739014,84.31281,84.157196
"2654",44.75232,85.57015,85.54931
"2655",44.765686,86.26841,86.42163
"2656",44.77899,86.431984,86.78109
"2657",44.79236,86.13901,86.68911
"2658",44.805664,85.50179,86.24374
"2659",44.81903,84.64973,85.5636
"2660",44.832336,83.69512,84.754295
"2661",44.845642,82.72587,83.90051
"2662",44.85901,81.7908,83.05063
"2663",44.872314,80.93141,82.2472
"2664",44.88568,80.201416,81.54631
"2665",44.898987,79.66674,81.01793
"2666",44.912354,79.38598,80.72675
"2667",44.92566,79.40307,80.724655
"2668",44.939026,79.70092,81.00385
"2669",44.95233,80.20874,81.50233
"2670",44.965637,80.80202,82.10213
"2671",44.979004,81.35134,82.67651
"2672",44.99231,81.74685,83.11425
"2673",45.005676,81.91287,83.33486
"2674",45.018982,81.82254,83.304306
"2675",45.03235,81.50027,83.03899
"2676",45.045654,80.98512,82.570724
"2677",45.05896,80.3357,81.95209
"2678",45.072327,79.62524,81.25211
"2679",45.085632,78.907455,80.52262
"2680",45.099,78.21896,79.79999
"2681",45.112305,77.58663,79.112
"2682",45.12567,77.03975,78.4897
"2683",45.138977,76.59052,77.94797
"2684",45.152283,76.24872,77.49962
"2685",45.16565,76.0119,77.14558
"2686",45.178955,75.8703,76.87935
"2687",45.19232,75.80682,76.68682
"2688",45.205627,75.792175,76.54114
"2689",45.218994,75.80682,76.42429
"2690",45.2323,75.83368,76.320114
"2691",45.245667,75.86542,76.22166
"2692",45.258972,75.8996,76.12663
"2693",45.272278,75.92401,76.02291
"2694",45.285645,75.92157,75.8931
"2695",45.29895,75.88251,75.726585
"2696",45.312317,75.80194,75.51735
"2697",45.325623,75.68963,75.27385
"2698",45.33899,75.60662,75.056145
"2699",45.352295,75.65789,74.97012
"2700",45.36566,75.99481,75.17136
"2701",45.378967,76.76143,75.81281
"2702",45.392273,78.009,76.95918
"2703",45.40564,79.691154,78.57912
"2704",45.418945,81.62478,80.50309
"2705",45.432312,83.55108,82.48016
"2706",45.445618,85.20393,84.24399
"2707",45.458984,86.39048,85.593155
"2708",45.47229,87.02037,86.422745
"2709",45.485596,87.10338,86.725136
"2710",45.498962,86.72251,86.566246
"2711",45.512268,85.99985,86.05366
"2712",45.525635,85.06233,85.303635
"2713",45.53894,84.02472,84.42422
"2714",45.552307,82.97978,83.50505
"2715",45.565613,81.98367,82.60206
"2716",45.57892,81.08522,81.765594
"2717",45.592285,80.35279,81.06708
"2718",45.60559,79.84985,80.575165
"2719",45.618958,79.639885,80.360504
"2720",45.632263,79.74731,80.45667
"2721",45.64563,80.14038,80.84185
"2722",45.658936,80.73365,81.43951
"2723",45.672302,81.3904,82.11919
"2724",45.685608,81.96414,82.736374
"2725",45.698914,82.34745,83.18106
"2726",45.71228,82.47929,83.38625
"2727",45.725586,82.34989,83.334335
"2728",45.738953,81.99344,83.051315
"2729",45.75226,81.461205,82.581375
"2730",45.765625,80.81911,81.98494
"2731",45.77893,80.11597,81.307396
"2732",45.792297,79.40551,80.60056
"2733",45.805603,78.72434,79.90082
"2734",45.81891,78.12131,79.25792
"2735",45.832275,77.61593,78.69383
"2736",45.84558,77.21309,78.21649
"2737",45.858948,76.91524,77.83155
"2738",45.872253,76.71015,77.53007
"2739",45.88562,76.5832,77.30031
"2740",45.898926,76.51728,77.12762
"2741",45.91223,76.50263,77.004135
"2742",45.9256,76.51972,76.911934
"2743",45.938904,76.55634,76.8398
"2744",45.95227,76.58808,76.76392
"2745",45.965576,76.59785,76.66707
"2746",45.978943,76.57343,76.53634
"2747",45.99225,76.51972,76.37555
"2748",46.005554,76.45136,76.19843
"2749",46.01892,76.422066,76.05824
"2750",46.032227,76.558784,76.08315
"2751",46.045593,77.01289,76.429726
"2752",46.0589,77.90646,77.22995
"2753",46.072266,79.281,78.53906
"2754",46.08557,81.06569,80.301285
"2755",46.098938,83.075,82.343895
"2756",46.112244,85.04036,84.40535
"2757",46.12555,86.710304,86.2328
"2758",46.138916,87.89929,87.631485
"2759",46.15222,88.5243,88.50334
"2760",46.16559,88.5951,88.84053
"2761",46.178894,88.18982,88.70384
"2762",46.19226,87.43786,88.20781
"2763",46.205566,86.47837,87.48076
"2764",46.218933,85.43343,86.63827
"2765",46.23224,84.3885,85.76312
"2766",46.245544,83.407036,84.9188
"2767",46.25891,82.533,84.15123
"2768",46.272217,81.81766,83.515045
"2769",46.285583,81.31228,83.06647
"2770",46.29889,81.06569,82.860886
"2771",46.312256,81.092545,82.92104
"2772",46.32556,81.358665,83.221306
"2773",46.338867,81.78348,83.688576
"2774",46.352234,82.252235,84.213066
"2775",46.36554,82.650185,84.6814
"2776",46.378906,82.88457,84.9986
"2777",46.392212,82.90654,85.11071
"2778",46.40558,82.703896,84.99889
"2779",46.418884,82.29862,84.678116
"2780",46.43219,81.73708,84.18841
"2781",46.445557,81.077896,83.5835
"2782",46.458862,80.36988,82.90917
"2783",46.47223,79.65942,82.210266
"2784",46.485535,78.98802,81.52823
"2785",46.4989,78.38987,80.89845
"2786",46.512207,77.88937,80.34764
"2787",46.525574,77.50118,79.89349
"2788",46.53888,77.225296,79.53952
"2789",46.552185,77.04463,79.27215
"2790",46.56555,76.93721,79.07237
"2791",46.578857,76.87862,78.91807
"2792",46.592224,76.84932,78.79123
"2793",46.60553,76.83223,78.67568
"2794",46.618896,76.81514,78.5596
"2795",46.632202,76.773636,78.41857
"2796",46.64557,76.697945,78.24206
"2797",46.658875,76.578316,78.01924
"2798",46.67218,76.42451,77.75851
"2799",46.685547,76.25605,77.47832
"2800",46.698853,76.13397,77.23924
"2801",46.71222,76.17792,77.16238
"2802",46.725525,76.544136,77.40916
"2803",46.73889,77.36935,78.12637
"2804",46.752197,78.70725,79.38207
"2805",46.765503,80.47242,81.10684
"2806",46.77887,82.46464,83.11382
"2807",46.792175,84.41047,85.13667
"2808",46.805542,86.046234,86.91026
"2809",46.818848,87.19615,88.24912
"2810",46.832214,87.80408,89.081924
"2811",46.84552,87.90173,89.42346
"2812",46.858826,87.57702,89.34567
"2813",46.872192,86.94469,88.95012
"2814",46.885498,86.136566,88.35902
"2815",46.898865,85.25765,87.67187
"2816",46.91217,84.386055,86.96457
"2817",46.925537,83.56817,86.283745
"2818",46.938843,82.83574,85.66282
"2819",46.95221,82.22781,85.14351
"2820",46.965515,81.77371,84.759026
"2821",46.97882,81.512474,84.553215
"2822",46.992188,81.45144,84.539444
"2823",47.005493,81.58083,84.714195
"2824",47.01886,81.82742,85.010185
"2825",47.032166,82.11307,85.352936
"2826",47.045532,82.340126,85.64603
"2827",47.058838,82.43778,85.81681
"2828",47.072205,82.35233,85.80754
"2829",47.08551,82.06668,85.5954
"2830",47.098816,81.59792,85.19122
"2831",47.112183,80.99489,84.63812
"2832",47.12549,80.306404,83.98073
"2833",47.138855,79.59106,83.274956
"2834",47.15216,78.89525,82.56637
"2835",47.165527,78.25803,81.89463
"2836",47.178833,77.69405,81.276215
"2837",47.19214,77.21309,80.72319
"2838",47.205505,76.82735,80.25036
"2839",47.21881,76.53681,79.86068
"2840",47.232178,76.33662,79.55226
"2841",47.245483,76.224304,79.32547
"2842",47.25885,76.1828,79.16598
"2843",47.272156,76.18768,79.051575
"2844",47.28546,76.209656,78.954414
"2845",47.29883,76.224304,78.85062
"2846",47.312134,76.21454,78.72286
"2847",47.3255,76.16083,78.55086
"2848",47.338806,76.06073,78.33079
"2849",47.352173,75.92157,78.06853
"2850",47.36548,75.755554,77.77506
"2851",47.378845,75.58709,77.47396
"2852",47.39215,75.4699,77.21887
"2853",47.405457,75.508965,77.11637
"2854",47.418823,75.843445,77.31051
"2855",47.43213,76.59785,77.93502
"2856",47.445496,77.82834,79.0592
"2857",47.4588,79.48119,80.64419
"2858",47.472168,81.375755,82.52254
"2859",47.485474,83.265434,84.45521
"2860",47.49884,84.88655,86.17837
"2861",47.512146,86.048676,87.493195
"2862",47.52545,86.67124,88.30478
"2863",47.53882,86.77379,88.6158
"2864",47.552124,86.44907,88.50276
"2865",47.56549,85.824066,88.079285
"2866",47.578796,85.04768,87.4849
"2867",47.592163,84.2298,86.82475
"2868",47.60547,83.44366,86.17079
"2869",47.618774,82.7161,85.55085
"2870",47.63214,82.06424,84.983864
"2871",47.645447,81.50759,84.49172
"2872",47.658813,81.08034,84.11158
"2873",47.67212,80.82643,83.89143
"2874",47.685486,80.75563,83.84646
"2875",47.69879,80.85817,83.97261
"2876",47.712097,81.08522,84.22648
"2877",47.725464,81.34402,84.51919
"2878",47.73877,81.549095,84.766266
"2879",47.752136,81.636986,84.902565
"2880",47.76544,81.57351,84.89024
"2881",47.77881,81.33669,84.7026
"2882",47.792114,80.936295,84.34397
"2883",47.80548,80.4065,83.84344
"2884",47.818787,79.79126,83.2409
"2885",47.832092,79.12718,82.5703
"2886",47.84546,78.46067,81.87651
"2887",47.858765,77.84543,81.213165
"2888",47.87213,77.30587,80.60628
"2889",47.885437,76.86153,80.07774
"2890",47.898804,76.51484,79.63298
"2891",47.91211,76.26826,79.27749
"2892",47.925476,76.104675,78.99729
"2893",47.93878,75.999695,78.770584
"2894",47.952087,75.93622,78.5821
"2895",47.965454,75.90692,78.42581
"2896",47.97876,75.894714,78.2857
"2897",47.992126,75.88495,78.147644
"2898",48.005432,75.880066,78.01417
"2899",48.0188,75.87274,77.8781
"2900",48.032104,75.85077,77.72715
"2901",48.04541,75.809265,77.555984
"2902",48.058777,75.74334,77.3591
"2903",48.072083,75.6408,77.12354
"2904",48.08545,75.494316,76.840836
"2905",48.098755,75.31365,76.51937
"2906",48.11212,75.106125,76.1654
"2907",48.125427,74.90349,75.80983
"2908",48.138733,74.793625,75.5407
"2909",48.1521,74.91814,75.50252
"2910",48.165405,75.43572,75.8613
"2911",48.178772,76.453804,76.73675
"2912",48.192078,77.977264,78.14939
"2913",48.205444,79.871826,79.98074
"2914",48.21875,81.89334,81.99825
"2915",48.232117,83.74395,83.90803
"2916",48.245422,85.17952,85.460594
"2917",48.258728,86.05844,86.50137
"2918",48.272095,86.36851,87.00076
"2919",48.2854,86.17563,87.0069
"2920",48.298767,85.609215,86.63347
"2921",48.312073,84.81819,86.01773
"2922",48.32544,83.93927,85.289375
"2923",48.338745,83.075,84.5482
"2924",48.35211,82.28153,83.85083
"2925",48.365417,81.57351,83.2141
"2926",48.378723,80.96559,82.65536
"2927",48.39209,80.479744,82.199684
"2928",48.405396,80.14282,81.877754
"2929",48.418762,79.971924,81.71132
"2930",48.432068,79.97681,81.715324
"2931",48.445435,80.11841,81.8562
"2932",48.45874,80.325935,82.06743
"2933",48.472046,80.516365,82.26804
"2934",48.485413,80.62867,82.396484
"2935",48.49872,80.618904,82.406364
"2936",48.512085,80.4773,82.2841
"2937",48.52539,80.216064,82.03778
"2938",48.538757,79.84497,81.67344
"2939",48.552063,79.39086,81.214485
"2940",48.56537,78.8806,80.68519
"2941",48.578735,78.348366,80.11797
"2942",48.59204,77.83078,79.548775
"2943",48.605408,77.36935,79.019554
"2944",48.618713,76.99336,78.56136
"2945",48.63208,76.70771,78.181755
"2946",48.645386,76.507515,77.87868
"2947",48.658752,76.38056,77.642586
"2948",48.67206,76.3122,77.46112
"2949",48.685364,76.29023,77.323906
"2950",48.69873,76.30488,77.222626
"2951",48.712036,76.334175,77.13645
"2952",48.725403,76.35615,77.04387
"2953",48.73871,76.34394,76.91779
"2954",48.752075,76.280464,76.74007
"2955",48.76538,76.15839,76.501755
"2956",48.778748,75.99237,76.21569
"2957",48.792053,75.7995,75.89758
"2958",48.80536,75.58709,75.55391
"2959",48.818726,75.36736,75.19628
"2960",48.83203,75.14519,74.82934
"2961",48.845398,74.91814,74.45058
"2962",48.858704,74.683754,74.05739
"2963",48.87207,74.4567,73.66421
"2964",48.885376,74.26627,73.30055
"2965",48.89868,74.16373,73.01883
"2966",48.91205,74.25651,72.92923
"2967",48.925354,74.71549,73.20873
"2968",48.93872,75.665215,73.99332
"2969",48.952026,77.13008,75.32272
"2970",48.965393,79.009995,77.11295
"2971",48.9787,81.077896,79.14992
"2972",48.992004,83.03349,81.1392
"2973",49.00537,84.6009,82.8014
"2974",49.018677,85.6141,83.958374
"2975",49.032043,86.03891,84.558624
"2976",49.04535,85.93149,84.639915
"2977",49.058716,85.4139,84.307686
"2978",49.07202,84.627754,83.69072
"2979",49.08539,83.717094,82.924675
"2980",49.098694,82.79668,82.120415
"2981",49.112,81.92996,81.341095
"2982",49.125366,81.1487,80.62014
"2983",49.13867,80.479744,79.98708
"2984",49.15204,79.94751,79.46984
"2985",49.165344,79.603264,79.123955
"2986",49.17871,79.48119,78.98949
"2987",49.192017,79.59594,79.08802
"2988",49.205383,79.91333,79.392784
"2989",49.21869,80.35767,79.83442
"2990",49.231995,80.81911,80.30703
"2991",49.24536,81.20241,80.71593
"2992",49.258667,81.42458,80.97568
"2993",49.272034,81.44167,81.037285
"2994",49.28534,81.25613,80.89679
"2995",49.298706,80.89967,80.57959
"2996",49.31201,80.42603,80.13406
"2997",49.325317,79.8938,79.61514
"2998",49.338684,79.34692,79.06494
"2999",49.35199,78.82445,78.522064
"3000",49.365356,78.348366,78.00925
"3001",49.378662,77.93088,77.540146
"3002",49.39203,77.58663,77.13124
"3003",49.405334,77.315636,76.78483
"3004",49.41864,77.11055,76.49586
"3005",49.432007,76.964066,76.25908
"3006",49.445312,76.87129,76.071434
"3007",49.45868,76.82002,75.92239
"3008",49.471985,76.807816,75.810814
"3009",49.48535,76.82002,75.72327
"3010",49.498657,76.84688,75.65075
"3011",49.512024,76.86885,75.57419
"3012",49.52533,76.876175,75.483665
"3013",49.538635,76.85664,75.366516
"3014",49.552002,76.79805,75.209694
"3015",49.565308,76.69062,75.002205
"3016",49.578674,76.53681,74.74498
"3017",49.59198,76.34638,74.44633
"3018",49.605347,76.14618,74.13195
"3019",49.618652,75.9704,73.83574
"3020",49.63202,75.89227,73.63169
"3021",49.645325,76.033875,73.64493
"3022",49.65863,76.55146,74.038574
"3023",49.671997,77.54513,74.92448
"3024",49.685303,79.009995,76.31263
"3025",49.69867,80.82643,78.09813
"3026",49.711975,82.76738,80.0649
"3027",49.72534,84.54719,81.93119
"3028",49.738647,85.926605,83.452705
"3029",49.751953,86.76158,84.472885
"3030",49.76532,87.03746,84.96006
"3031",49.778625,86.80553,84.948044
"3032",49.791992,86.187836,84.54302
"3033",49.805298,85.32357,83.87212
"3034",49.818665,84.35432,83.06923
"3035",49.83197,83.372856,82.22384
"3036",49.845276,82.43778,81.394165
"3037",49.858643,81.583275,80.61584
"3038",49.87195,80.8362,79.918236
"3039",49.885315,80.24292,79.35109
"3040",49.89862,79.86694,78.982704
"3041",49.911987,79.74975,78.86135
"3042",49.925293,79.888916,78.9927
"3043",49.93866,80.24536,79.34567
"3044",49.951965,80.73609,79.84407
"3045",49.96527,81.234146,80.36513
"3046",49.978638,81.62234,80.791885
"3047",49.991943,81.82498,81.04523
"3048",50.00531,81.80789,81.08517
"3049",50.018616,81.56374,80.897514
"3050",50.031982,81.13161,80.514244
"3051",50.045288,80.57252,79.99052
"3052",50.058655,79.957275,79.393166
"3053",50.07196,79.32983,78.76438
"3054",50.085266,78.73411,78.14772
"3055",50.098633,78.19943,77.57349
"3056",50.11194,77.75021,77.068
"3057",50.125305,77.3962,76.643684
"3058",50.13861,77.13985,76.30596
"3059",50.151978,76.98604,76.062775
"3060",50.165283,76.92256,75.90511
"3061",50.17859,76.93965,75.826035
"3062",50.191956,77.01289,75.80364
"3063",50.20526,77.12276,75.82016
"3064",50.218628,77.24727,75.85476
"3065",50.231934,77.36446,75.88593
"3066",50.2453,77.44991,75.88902
"3067",50.258606,77.488976,75.8484
"3068",50.27191,77.47433,75.75528
"3069",50.28528,77.40597,75.607994
"3070",50.298584,77.2839,75.40486
"3071",50.31195,77.11543,75.15152
"3072",50.325256,76.912796,74.85874
"3073",50.338623,76.71992,74.56939
"3074",50.35193,76.629585,74.37656
"3075",50.365295,76.80049,74.44214
"3076",50.3786,77.39864,74.94031
"3077",50.391907,78.519264,75.97964
"3078",50.405273,80.12573,77.53983
"3079",50.41858,82.054474,79.4725
"3080",50.431946,84.03693,81.51916
"3081",50.44525,85.78012,83.388504
"3082",50.45862,87.064316,84.853325
"3083",50.471924,87.78699,85.79675
"3084",50.48529,87.94812,86.20123
"3085",50.498596,87.62585,86.127335
"3086",50.5119,86.94713,85.68692
"3087",50.52527,86.05356,85.010445
"3088",50.538574,85.08186,84.22792
"3089",50.55194,84.1297,83.43456
"3090",50.565247,83.250786,82.6847
"3091",50.578613,82.476845,82.012344
"3092",50.59192,81.82498,81.43788
"3093",50.605225,81.32937,80.9993
"3094",50.61859,81.02907,80.74054
"3095",50.631897,80.95827,80.7019
"3096",50.645264,81.112076,80.88565
"3097",50.65857,81.449,81.257324
"3098",50.671936,81.87869,81.7323
"3099",50.68524,82.28397,82.19629
"3100",50.698547,82.57206,82.55575
"3101",50.711914,82.667274,82.73134
"3102",50.72522,82.530556,82.67797
"3103",50.738586,82.16678,82.39327
"3104",50.751892,81.61501,81.90922
"3105",50.76526,80.93385,81.27853
"3106",50.778564,80.18677,80.56062
"3107",50.79193,79.43481,79.8145
"3108",50.805237,78.7219,79.08393
"3109",50.818542,78.082245,78.404335
"3110",50.83191,77.53536,77.79752
"3111",50.845215,77.100784,77.28593
"3112",50.85858,76.77852,76.87306
"3113",50.871887,76.56611,76.55998
"3114",50.885254,76.45136,76.33793
"3115",50.89856,76.40986,76.18553
"3116",50.911926,76.42695,76.09043
"3117",50.925232,76.4831,76.03493
"3118",50.938538,76.55634,75.99827
"3119",50.951904,76.63203,75.96634
"3120",50.96521,76.697945,75.92701
"3121",50.978577,76.734566,75.86044
"3122",50.991882,76.734566,75.7584
"3123",51.00525,76.6955,75.617294
"3124",51.018555,76.61494,75.433464
"3125",51.03186,76.50019,75.21294
"3126",51.045227,76.35371,74.957085
"3127",51.058533,76.20477,74.69421
"3128",51.0719,76.11688,74.48772
"3129",51.085205,76.23895,74.48844
"3130",51.09857,76.76875,74.90071
"3131",51.111877,77.84543,75.87641
"3132",51.125183,79.4934,77.457054
"3133",51.13855,81.58816,79.53598
"3134",51.151855,83.86359,81.86104
"3135",51.165222,85.994965,84.11315
"3136",51.178528,87.69909,86.004616
"3137",51.191895,88.80995,87.35608
"3138",51.2052,89.29092,88.11235
"3139",51.218567,89.2079,88.31968
"3140",51.231873,88.68055,88.08008
"3141",51.24518,87.85535,87.52614
"3142",51.258545,86.888535,86.80481
"3143",51.27185,85.90463,86.03617
"3144",51.285217,84.98909,85.305145
"3145",51.298523,84.1712,84.643166
"3146",51.31189,83.47051,84.07282
"3147",51.325195,82.88945,83.60021
"3148",51.338562,82.44999,83.251045
"3149",51.351868,82.178986,83.0566
"3150",51.365173,82.08377,83.02948
"3151",51.37854,82.15701,83.16784
"3152",51.391846,82.3621,83.44033
"3153",51.405212,82.61845,83.77049
"3154",51.418518,82.84062,84.07449
"3155",51.431885,82.94316,84.2658
"3156",51.44519,82.86992,84.28453
"3157",51.458496,82.59403,84.09833
"3158",51.471863,82.11551,83.70087
"3159",51.48517,81.47097,83.12244
"3160",51.498535,80.723885,82.42132
"3161",51.51184,79.9353,81.65536
"3162",51.525208,79.15892,80.87695
"3163",51.538513,78.43137,80.12312
"3164",51.55182,77.78195,79.42468
"3165",51.565186,77.22774,78.801155
"3166",51.57849,76.77608,78.26286
"3167",51.591858,76.43427,77.82031
"3168",51.605164,76.19745,77.47206
"3169",51.61853,76.06561,77.2214
"3170",51.631836,76.019226,77.05206
"3171",51.645203,76.03143,76.93987
"3172",51.65851,76.07538,76.8598
"3173",51.671814,76.12665,76.78843
"3174",51.68518,76.16571,76.70645
"3175",51.698486,76.175476,76.5964
"3176",51.711853,76.155945,76.45735
"3177",51.72516,76.102234,76.283516
"3178",51.738525,76.01434,76.07382
"3179",51.75183,75.897156,75.832085
"3180",51.765198,75.75067,75.55739
"3181",51.778503,75.57488,75.24881
"3182",51.79181,75.369804,74.90545
"3183",51.805176,75.159836,74.55079
"3184",51.81848,74.969406,74.20911
"3185",51.83185,74.89128,73.97378
"3186",51.845154,75.09636,74.01921
"3187",51.85852,75.78729,74.55691
"3188",51.871826,77.07881,75.71678
"3189",51.88513,78.958725,77.50541
"3190",51.8985,81.24147,79.755615
"3191",51.911804,83.62676,82.1797
"3192",51.92517,85.76059,84.426865
"3193",51.938477,87.36706,86.21335
"3194",51.951843,88.31678,87.393295
"3195",51.96515,88.61219,87.94861
"3196",51.978455,88.3534,87.958954
"3197",51.99182,87.67712,87.54372
"3198",52.005127,86.74204,86.84856
"3199",52.018494,85.697105,86.014305
"3200",52.0318,84.66926,85.16449
"3201",52.045166,83.7293,84.370445
"3202",52.05847,82.899216,83.6569
"3203",52.07184,82.18875,83.03703
"3204",52.085144,81.602806,82.519485
"3205",52.09845,81.160904,82.12767
"3206",52.111816,80.89479,81.897835
"3207",52.125122,80.82887,81.85988
"3208",52.13849,80.9485,82.00541
"3209",52.151794,81.197525,82.28407
"3210",52.16516,81.48562,82.60959
"3211",52.178467,81.70779,82.87818
"3212",52.191833,81.78348,83.00724
"3213",52.20514,81.66384,82.94334
"3214",52.218445,81.34402,82.67551
"3215",52.23181,80.84596,82.21945
"3216",52.245117,80.218506,81.61843
"3217",52.258484,79.51537,80.92213
"3218",52.27179,78.78783,80.179436
"3219",52.285156,78.0798,79.43353
"3220",52.298462,77.41573,78.70946
"3221",52.311768,76.82002,78.03299
"3222",52.325134,76.30732,77.42091
"3223",52.33844,75.880066,76.878265
"3224",52.351807,75.545586,76.41504
"3225",52.365112,75.299,76.02926
"3226",52.37848,75.13542,75.71877
"3227",52.391785,75.04265,75.47398
"3228",52.40509,75.01091,75.28733
"3229",52.418457,75.03288,75.1534
"3230",52.431763,75.08659,75.05189
"3231",52.44513,75.15251,74.964264
"3232",52.458435,75.21599,74.87626
"3233",52.4718,75.25994,74.77071
"3234",52.485107,75.267265,74.62991
"3235",52.498474,75.24284,74.457596
"3236",52.51178,75.19646,74.26255
"3237",52.525085,75.140305,74.05629
"3238",52.538452,75.09148,73.8556
"3239",52.551758,75.054855,73.66559
"3240",52.565125,75.02312,73.47932
"3241",52.57843,74.99138,73.29205
"3242",52.591797,74.9572,73.10136
"3243",52.605103,74.95964,72.94621
"3244",52.61847,75.0988,72.927864
"3245",52.631775,75.57,73.2459
"3246",52.64508,76.54658,74.084045
"3247",52.658447,78.09689,75.52644
"3248",52.671753,80.128174,77.49825
"3249",52.68512,82.41337,79.78745
"3250",52.698425,84.61555,82.06505
"3251",52.711792,86.41001,84.003746
"3252",52.725098,87.586784,85.38083
"3253",52.738403,88.10925,86.14038
"3254",52.75177,88.04578,86.33032
"3255",52.765076,87.52087,86.05684
"3256",52.778442,86.69077,85.46178
"3257",52.791748,85.70687,84.68696
"3258",52.805115,84.698555,83.85698
"3259",52.81842,83.74639,83.05164
"3260",52.831726,82.89189,82.31422
"3261",52.845093,82.14969,81.662384
"3262",52.8584,81.532005,81.11188
"3263",52.871765,81.06081,80.68855
"3264",52.88507,80.75319,80.414085
"3265",52.898438,80.635994,80.32043
"3266",52.911743,80.70435,80.40866
"3267",52.92511,80.919205,80.64552
"3268",52.938416,81.20485,80.95989
"3269",52.95172,81.47585,81.26855
"3270",52.965088,81.64919,81.48801
"3271",52.978394,81.67605,81.5664
"3272",52.99176,81.532005,81.47473
"3273",53.005066,81.20973,81.20033
"3274",53.018433,80.73853,80.76694
"3275",53.03174,80.164795,80.21628
"3276",53.045105,79.534904,79.59154
"3277",53.05841,78.890366,78.932465
"3278",53.071716,78.27024,78.277664
"3279",53.085083,77.70382,77.65719
"3280",53.09839,77.21065,77.09226
"3281",53.111755,76.79805,76.5925
"3282",53.12506,76.4831,76.17749
"3283",53.138428,76.2707,75.85519
"3284",53.151733,76.15106,75.61901
"3285",53.16504,76.104675,75.45235
"3286",53.178406,76.11688,75.34283
"3287",53.19171,76.16571,75.27031
"3288",53.20508,76.23407,75.21885
"3289",53.218384,76.3122,75.1793
"3290",53.23175,76.39521,75.147064
"3291",53.245056,76.47578,75.11498
"3292",53.25836,76.55634,75.08542
"3293",53.27173,76.62226,75.043724
"3294",53.285034,76.67353,74.98944
"3295",53.2984,76.70283,74.91479
"3296",53.311707,76.70283,74.81175
"3297",53.325073,76.65644,74.66233
"3298",53.33838,76.57099,74.4724
"3299",53.351746,76.453804,74.248055
"3300",53.36505,76.32197,74.0054
"3301",53.378357,76.21454,73.783035
"3302",53.391724,76.22919,73.67939
"3303",53.40503,76.524605,73.85697
"3304",53.418396,77.25704,74.480804
"3305",53.4317,78.50706,75.6451
"3306",53.44507,80.21362,77.305016
"3307",53.458374,82.16922,79.26729
"3308",53.47174,84.07355,81.2394
"3309",53.485046,85.626305,82.91946
"3310",53.498352,86.62241,84.091385
"3311",53.51172,87.00816,84.68408
"3312",53.525024,86.84947,84.74439
"3313",53.53839,86.26841,84.37737
"3314",53.551697,85.39681,83.70166
"3315",53.565063,84.37629,82.849785
"3316",53.57837,83.32647,81.93672
"3317",53.591675,82.33036,81.04456
"3318",53.60504,81.42458,80.21161
"3319",53.618347,80.635994,79.46754
"3320",53.631714,79.98413,78.83555
"3321",53.64502,79.50561,78.35653
"3322",53.658386,79.219955,78.05543
"3323",53.67169,79.15892,77.97002
"3324",53.684998,79.32006,78.10487
"3325",53.698364,79.656975,78.42054
"3326",53.71167,80.09155,78.8444
"3327",53.725037,80.52125,79.276955
"3328",53.738342,80.850845,79.62284
"3329",53.75171,81.02174,79.82033
"3330",53.765015,81.00954,79.84005
"3331",53.77838,80.814224,79.676285
"3332",53.791687,80.462654,79.35016
"3333",53.804993,79.99878,78.90074
"3334",53.81836,79.466545,78.36847
"3335",53.831665,78.905014,77.79027
"3336",53.84503,78.348366,77.1994
"3337",53.858337,77.83078,76.6302
"3338",53.871704,77.37423,76.105865
"3339",53.88501,76.99336,75.642944
"3340",53.898376,76.700386,75.25601
"3341",53.911682,76.4831,74.935616
"3342",53.924988,76.33906,74.68167
"3343",53.938354,76.26093,74.48914
"3344",53.95166,76.23407,74.345436
"3345",53.965027,76.24628,74.23996
"3346",53.978333,76.299995,74.17638
"3347",53.9917,76.38056,74.14132
"3348",54.005005,76.470894,74.118546
"3349",54.01831,76.55146,74.08883
"3350",54.031677,76.60761,74.03722
"3351",54.044983,76.62226,73.945854
"3352",54.05835,76.592964,73.811005
"3353",54.071655,76.51972,73.631294
"3354",54.085022,76.41474,73.41756
"3355",54.098328,76.27558,73.16636
"3356",54.111633,76.10956,72.88395
"3357",54.125,75.93866,72.59148
"3358",54.138306,75.81903,72.34493
"3359",54.151672,75.87518,72.27043
"3360",54.164978,76.282906,72.549255
"3361",54.178345,77.18623,73.336426
"3362",54.19165,78.60471,74.66698
"3363",54.205017,80.41627,76.43493
"3364",54.218323,82.371864,78.403534
"3365",54.23163,84.17853,80.28432
"3366",54.244995,85.57992,81.816284
"3367",54.2583,86.431984,82.84272
"3368",54.271667,86.729836,83.34157
"3369",54.284973,86.54673,83.36877
"3370",54.29834,85.994965,83.02158
"3371",54.311646,85.19905,82.41301
"3372",54.325012,84.29328,81.66971
"3373",54.338318,83.38506,80.89565
"3374",54.351624,82.547646,80.16402
"3375",54.36499,81.815216,79.5112
"3376",54.378296,81.20729,78.96
"3377",54.391663,80.75319,78.543625
"3378",54.40497,80.48951,78.30348
"3379",54.418335,80.45777,78.28704
"3380",54.43164,80.672615,78.51619
"3381",54.444946,81.109634,78.97423
"3382",54.458313,81.67849,79.57776
"3383",54.47162,82.269325,80.22105
"3384",54.484985,82.75273,80.77537
"3385",54.49829,83.038376,81.14703
"3386",54.511658,83.07744,81.281044
"3387",54.524963,82.87724,81.17702
"3388",54.53827,82.48173,80.871414
"3389",54.551636,81.94461,80.41185
"3390",54.56494,81.33181,79.85982
"3391",54.57831,80.69703,79.266655
"3392",54.591614,80.076904,78.66831
"3393",54.60498,79.49584,78.08965
"3394",54.618286,78.97337,77.55143
"3395",54.631653,78.519264,77.06524
"3396",54.64496,78.133514,76.63322
"3397",54.658264,77.81857,76.25995
"3398",54.67163,77.58419,75.9574
"3399",54.684937,77.4255,75.72321
"3400",54.698303,77.33761,75.55487
"3401",54.71161,77.31075,75.44482
"3402",54.724976,77.32784,75.37787
"3403",54.73828,77.35958,75.3261
"3404",54.751648,77.37911,75.26312
"3405",54.764954,77.37667,75.17878
"3406",54.77826,77.349815,75.06995
"3407",54.791626,77.29366,74.93098
"3408",54.80493,77.208206,74.76095
"3409",54.8183,77.10567,74.57117
"3410",54.831604,76.978714,74.35377
"3411",54.84497,76.85664,74.13728
"3412",54.858276,76.824905,74.00732
"3413",54.871582,77.04219,74.12538
"3414",54.88495,77.65499,74.64575
"3415",54.898254,78.73655,75.65403
"3416",54.91162,80.235596,77.113594
"3417",54.924927,81.98123,78.86659
"3418",54.938293,83.70733,80.6546
"3419",54.9516,85.15755,82.22067
"3420",54.964905,86.1561,83.380394
"3421",54.97827,86.64927,84.06594
"3422",54.991577,86.6688,84.29326
"3423",55.004944,86.30015,84.133
"3424",55.01825,85.65316,83.68289
"3425",55.031616,84.842606,83.048996
"3426",55.04492,83.9588,82.31652
"3427",55.05829,83.070114,81.551544
"3428",55.071594,82.22049,80.79786
"3429",55.0849,81.43679,80.08355
"3430",55.098267,80.765396,79.457054
"3431",55.111572,80.257576,78.97315
"3432",55.12494,79.98413,78.707756
"3433",55.138245,79.991455,78.714584
"3434",55.15161,80.27955,79.00241
"3435",55.164917,80.79469,79.52629
"3436",55.178284,81.42947,80.1859
"3437",55.19159,82.0618,80.8629
"3438",55.204895,82.56718,81.43271
"3439",55.21826,82.86015,81.80591
"3440",55.231567,82.90166,81.93679
"3441",55.244934,82.69657,81.82238
"3442",55.25824,82.27421,81.48428
"3443",55.271606,81.6907,80.97184
"3444",55.284912,81.0193,80.35328
"3445",55.298218,80.32105,79.68688
"3446",55.311584,79.65209,79.027954
"3447",55.32489,79.05638,78.42137
"3448",55.338257,78.553444,77.88895
"3449",55.351562,78.15549,77.445786
"3450",55.36493,77.85275,77.08541
"3451",55.378235,77.64034,76.8059
"3452",55.39154,77.503624,76.59544
"3453",55.404907,77.43282,76.44663
"3454",55.418213,77.41329,76.34688
"3455",55.43158,77.43282,76.285576
"3456",55.444885,77.47921,76.25174
"3457",55.458252,77.52804,76.221794
"3458",55.471558,77.56222,76.17873
"3459",55.484924,77.55978,76.100105
"3460",55.49823,77.51827,75.982346
"3461",55.511536,77.454796,75.84132
"3462",55.524902,77.42794,75.734924
"3463",55.538208,77.56954,75.79615
"3464",55.551575,78.030975,76.18163
"3465",55.56488,78.924545,77.01367
"3466",55.578247,80.255135,78.31065
"3467",55.591553,81.92264,79.98613
"3468",55.60492,83.71221,81.835785
"3469",55.618225,85.365074,83.60465
"3470",55.63153,86.65415,85.061386
"3471",55.644897,87.447624,86.0628
"3472",55.658203,87.71862,86.56653
"3473",55.67157,87.52087,86.609985
"3474",55.684875,86.95445,86.278595
"3475",55.698242,86.14877,85.69024
"3476",55.711548,85.22591,84.95952
"3477",55.724854,84.27863,84.17555
"3478",55.73822,83.35577,83.38639
"3479",55.751526,82.48905,82.62454
"3480",55.764893,81.71267,81.92594
"3481",55.7782,81.077896,81.34469
"3482",55.791565,80.65064,80.95112
"3483",55.80487,80.48951,80.81032
"3484",55.818176,80.61402,80.95013
"3485",55.831543,80.99977,81.355064
"3486",55.84485,81.55642,81.942955
"3487",55.858215,82.15457,82.589745
"3488",55.87152,82.6746,83.1771
"3489",55.884888,83.02617,83.61225
"3490",55.898193,83.1458,83.82645
"3491",55.91156,83.018845,83.7978
"3492",55.924866,82.66239,83.53568
"3493",55.93817,82.127716,83.084206
"3494",55.951538,81.47585,82.49883
"3495",55.964844,80.76784,81.83694
"3496",55.97821,80.05737,81.15047
"3497",55.991516,79.38598,80.480865
"3498",56.004883,78.79027,79.86597
"3499",56.01819,78.28489,79.322784
"3500",56.031555,77.88205,78.86635
"3501",56.04486,77.58663,78.504745
"3502",56.058167,77.40597,78.248665
"3503",56.071533,77.313194,78.07483
"3504",56.08484,77.2839,77.96157
"3505",56.098206,77.296104,77.8889
"3506",56.11151,77.32784,77.83614
"3507",56.124878,77.3547,77.779495
"3508",56.138184,77.37179,77.71392
"3509",56.15149,77.37667,77.63667
"3510",56.164856,77.37911,77.55714
"3511",56.17816,77.42794,77.52406
"3512",56.19153,77.64034,77.65609
"3513",56.204834,78.170135,78.112144
"3514",56.2182,79.114975,78.9998
"3515",56.231506,80.48707,80.34424
"3516",56.244812,82.18387,82.05626
"3517",56.25818,83.983215,83.92385
"3518",56.271484,85.62386,85.68897
"3519",56.28485,86.88609,87.126945
"3520",56.298157,87.6527,88.10874
"3521",56.311523,87.89685,88.59204
"3522",56.32483,87.67712,88.61908
"3523",56.338196,87.10338,88.28525
"3524",56.3515,86.30503,87.70888
"3525",56.364807,85.399254,87.00013
"3526",56.378174,84.48371,86.25331
"3527",56.39148,83.60723,85.516945
"3528",56.404846,82.79668,84.819115
"3529",56.41815,82.08865,84.19849
"3530",56.43152,81.52224,83.69734
"3531",56.444824,81.146255,83.36893
"3532",56.45819,81.00221,83.260704
"3533",56.471497,81.092545,83.382355
"3534",56.484802,81.38308,83.70703
"3535",56.49817,81.7908,84.157974
"3536",56.511475,82.20584,84.628975
"3537",56.52484,82.533,85.02506
"3538",56.538147,82.69413,85.26535
"3539",56.551514,82.63798,85.29339
"3540",56.56482,82.35233,85.09018
"3541",56.578125,81.87137,84.682724
"3542",56.59149,81.25124,84.12108
"3543",56.604797,80.5481,83.45704
"3544",56.618164,79.815674,82.74174
"3545",56.63147,79.10277,82.02307
"3546",56.644836,78.4387,81.33096
"3547",56.658142,77.85031,80.69379
"3548",56.671448,77.36202,80.13832
"3549",56.684814,76.981155,79.67502
"3550",56.69812,76.715034,79.31456
"3551",56.711487,76.544136,79.04101
"3552",56.724792,76.44892,78.8378
"3553",56.73816,76.402534,78.68044
"3554",56.751465,76.38056,78.54605
"3555",56.76483,76.36591,78.4183
"3556",56.778137,76.35371,78.29253
"3557",56.791443,76.32441,78.149284
"3558",56.80481,76.27802,77.98804
"3559",56.818115,76.2121,77.8058
"3560",56.831482,76.1413,77.61663
"3561",56.844788,76.138855,77.49361
"3562",56.858154,76.33173,77.56583
"3563",56.87146,76.8835,78.00296
"3564",56.884827,77.90402,78.926094
"3565",56.898132,79.40795,80.364525
"3566",56.911438,81.28054,82.21861
"3567",56.924805,83.299614,84.2777
"3568",56.93811,85.17708,86.25828
"3569",56.951477,86.66636,87.90934
"3570",56.964783,87.620964,89.072266
"3571",56.97815,88.0116,89.70105
"3572",56.991455,87.88464,89.82446
"3573",57.00476,87.362175,89.548386
"3574",57.018127,86.590675,89.00696
"3575",57.031433,85.711754,88.33399
"3576",57.0448,84.83284,87.63357
"3577",57.058105,84.017395,86.96915
"3578",57.071472,83.282524,86.35982
"3579",57.084778,82.64042,85.82029
"3580",57.098083,82.10574,85.368126
"3581",57.11145,81.70046,85.02865
"3582",57.124756,81.45388,84.835205
"3583",57.138123,81.373314,84.80007
"3584",57.15143,81.446556,84.91623
"3585",57.164795,81.62722,85.1421
"3586",57.1781,81.832306,85.39803
"3587",57.191467,81.97879,85.601776
"3588",57.204773,81.99588,85.6807
"3589",57.21808,81.846954,85.59415
"3590",57.231445,81.50759,85.3125
"3591",57.24475,80.99733,84.84935
"3592",57.258118,80.35279,84.23598
"3593",57.271423,79.63744,83.531654
"3594",57.28479,78.89769,82.78057
"3595",57.298096,78.18234,82.03078
"3596",57.311462,77.52804,81.31967
"3597",57.324768,76.9543,80.668686
"3598",57.338074,76.47822,80.09743
"3599",57.35144,76.09979,79.60895
"3600",57.364746,75.81415,79.20142
"3601",57.378113,75.61883,78.8753
"3602",57.39142,75.49676,78.61632
"3603",57.404785,75.43084,78.409676
"3604",57.41809,75.403984,78.240036
"3605",57.431396,75.39666,78.08909
"3606",57.444763,75.386894,77.93547
"3607",57.45807,75.3576,77.76202
"3608",57.471436,75.29412,77.55347
"3609",57.48474,75.20622,77.31851
"3610",57.498108,75.09392,77.056404
"3611",57.511414,74.95476,76.76393
"3612",57.52472,74.79607,76.44758
"3613",57.538086,74.6276,76.11649
"3614",57.55139,74.459145,75.78015
"3615",57.56476,74.32975,75.47761
"3616",57.578064,74.34684,75.317505
"3617",57.59143,74.65934,75.45335
"3618",57.604736,75.42596,76.05307
"3619",57.618103,76.71992,77.204094
"3620",57.63141,78.502174,78.88385
"3621",57.644714,80.59449,80.92936
"3622",57.65808,82.72587,83.079315
"3623",57.671387,84.596016,85.034645
"3624",57.684753,85.97543,86.557686
"3625",57.69806,86.76402,87.533005
"3626",57.711426,86.9691,87.949455
"3627",57.72473,86.693214,87.89135
"3628",57.7381,86.080414,87.48771
"3629",57.751404,85.29427,86.89158
"3630",57.76471,84.46906,86.23181
"3631",57.778076,83.682915,85.58532
"3632",57.79138,82.9749,84.99239
"3633",57.80475,82.34989,84.46035
"3634",57.818054,81.81033,83.994225
"3635",57.83142,81.37087,83.611336
"3636",57.844727,81.06081,83.34411
"3637",57.858032,80.90456,83.22101
"3638",57.8714,80.89967,83.24439
"3639",57.884705,81.01686,83.389694
"3640",57.89807,81.1902,83.59481
"3641",57.911377,81.33669,83.778496
"3642",57.924744,81.392845,83.87642
"3643",57.93805,81.307396,83.834496
"3644",57.951355,81.06325,83.6312
"3645",57.96472,80.66041,83.26159
"3646",57.978027,80.130615,82.75243
"3647",57.991394,79.51537,82.14127
"3648",58.0047,78.86107,81.471825
"3649",58.018066,78.21408,80.789246
"3650",58.031372,77.60616,80.12552
"3651",58.04474,77.06416,79.50871
"3652",58.058044,76.60517,78.95798
"3653",58.07135,76.23163,78.47835
"3654",58.084717,75.945984,78.07494
"3655",58.098022,75.74334,77.74561
"3656",58.11139,75.6115,77.48076
"3657",58.124695,75.53094,77.263054
"3658",58.13806,75.48943,77.081894
"3659",58.151367,75.47234,76.92385
"3660",58.164734,75.46502,76.77504
"3661",58.17804,75.46502,76.63332
"3662",58.191345,75.46746,76.49405
"3663",58.204712,75.46502,76.34997
"3664",58.218018,75.45037,76.1936
"3665",58.231384,75.421074,76.02213
"3666",58.24469,75.369804,75.827774
"3667",58.258057,75.29412,75.6074
"3668",58.271362,75.20134,75.36756
"3669",58.284668,75.0988,75.11507
"3670",58.298035,74.98161,74.84472
"3671",58.31134,74.85466,74.56094
"3672",58.324707,74.72526,74.27075
"3673",58.338013,74.59586,73.976524
"3674",58.35138,74.47135,73.683136
"3675",58.364685,74.36149,73.400505
"3676",58.37799,74.28336,73.14618
"3677",58.391357,74.305336,72.98951
"3678",58.404663,74.54948,73.055695
"3679",58.41803,75.18913,73.525024
"3680",58.431335,76.35371,74.53926
"3681",58.444702,78.0676,76.139206
"3682",58.458008,80.2063,78.21752
"3683",58.471375,82.528114,80.545784
"3684",58.48468,84.72053,82.8172
"3685",58.497986,86.4979,84.74209
"3686",58.511353,87.67712,86.12436
"3687",58.52466,88.224,86.91115
"3688",58.538025,88.19714,87.1413
"3689",58.55133,87.725945,86.926254
"3690",58.564697,86.976425,86.41817
"3691",58.578003,86.11215,85.771904
"3692",58.59137,85.26498,85.11573
"3693",58.604675,84.505684,84.520966
"3694",58.61798,83.85626,84.012344
"3695",58.631348,83.3167,83.59329
"3696",58.644653,82.88457,83.2648
"3697",58.65802,82.562294,83.03267
"3698",58.671326,82.36454,82.914986
"3699",58.684692,82.31083,82.935165
"3700",58.697998,82.388954,83.0855
"3701",58.711304,82.562294,83.333496
"3702",58.72467,82.760056,83.61133
"3703",58.737976,82.90898,83.846504
"3704",58.751343,82.94316,83.97159
"3705",58.76465,82.81865,83.93905
"3706",58.778015,82.51835,83.72683
"3707",58.79132,82.05936,83.346535
"3708",58.804626,81.47585,82.827385
"3709",58.817993,80.81178,82.209435
"3710",58.8313,80.11597,81.53899
"3711",58.844666,79.43969,80.86633
"3712",58.85797,78.8098,80.21893
"3713",58.871338,78.25315,79.62509
"3714",58.884644,77.789276,79.10663
"3715",58.89801,77.418175,78.66644
"3716",58.911316,77.13985,78.307434
"3717",58.92462,76.944534,78.02274
"3718",58.93799,76.8127,77.795425
"3719",58.951294,76.734566,77.61769
"3720",58.96466,76.69062,77.4717
"3721",58.977966,76.67597,77.35364
"3722",58.991333,76.67109,77.24488
"3723",59.00464,76.67109,77.140854
"3724",59.018005,76.66132,77.02706
"3725",59.03131,76.629585,76.89099
"3726",59.044617,76.57099,76.72707
"3727",59.057983,76.48798,76.53691
"3728",59.07129,76.39033,76.329506
"3729",59.084656,76.282906,76.10928
"3730",59.09796,76.16815,75.87837
"3731",59.11133,76.04852,75.639
"3732",59.124634,75.928894,75.39589
"3733",59.13794,75.80194,75.141716
"3734",59.151306,75.6701,74.878685
"3735",59.16461,75.545586,74.618866
"3736",59.17798,75.4284,74.36248
"3737",59.191284,75.31121,74.10243
"3738",59.20465,75.20378,73.84848
"3739",59.217957,75.12077,73.61559
"3740",59.231262,75.11589,73.45824
"3741",59.24463,75.32342,73.51314
"3742",59.257935,75.914246,73.957825
"3743",59.2713,77.02022,74.93612
"3744",59.284607,78.67307,76.49586
"3745",59.297974,80.77272,78.55404
"3746",59.31128,83.075,80.88046
"3747",59.324646,85.26498,83.166534
"3748",59.33795,87.04967,85.11575
"3749",59.351257,88.2533,86.53969
"3750",59.364624,88.817276,87.36157
"3751",59.37793,88.797745,87.617584
"3752",59.391296,88.3119,87.40666
"3753",59.404602,87.52575,86.880264
"3754",59.41797,86.590675,86.180374
"3755",59.431274,85.643394,85.43905
"3756",59.44464,84.76692,84.73893
"3757",59.457947,83.99786,84.118835
"3758",59.471252,83.346,83.5919
"3759",59.48462,82.82597,83.17644
"3760",59.497925,82.45487,82.89365
"3761",59.51129,82.2449,82.76039
"3762",59.524597,82.2034,82.78904
"3763",59.537964,82.320595,82.97509
"3764",59.55127,82.54276,83.269775
"3765",59.564575,82.794235,83.60071
"3766",59.57794,82.98711,83.8809
"3767",59.591248,83.055466,84.0426
"3768",59.604614,82.950485,84.033104
"3769",59.61792,82.65751,83.83233
"3770",59.631287,82.193634,83.4515
"3771",59.644592,81.600365,82.92678
"3772",59.657898,80.92653,82.302956
"3773",59.671265,80.22827,81.63365
"3774",59.68457,79.54223,80.95474
"3775",59.697937,78.90257,80.30078
"3776",59.711243,78.32639,79.69031
"3777",59.72461,77.838104,79.14972
"3778",59.737915,77.44503,78.68909
"3779",59.75128,77.137405,78.30162
"3780",59.764587,76.912796,77.98756
"3781",59.777893,76.76143,77.739716
"3782",59.79126,76.65888,77.535965
"3783",59.804565,76.595406,77.36808
"3784",59.817932,76.5539,77.220184
"3785",59.831238,76.52705,77.08564
"3786",59.844604,76.50263,76.9527
"3787",59.85791,76.47578,76.81655
"3788",59.871277,76.4416,76.67224
"3789",59.884583,76.39765,76.5171
"3790",59.89789,76.3415,76.34837
"3791",59.911255,76.26826,76.160805
"3792",59.92456,76.16815,75.944084
"3793",59.937927,76.03876,75.69495
"3794",59.951233,75.88739,75.41979
"3795",59.9646,75.718925,75.12281
"3796",59.977905,75.543144,74.81325
"3797",59.99121,75.36004,74.49087
"3798",60.004578,75.18181,74.16764
"3799",60.017883,75.00603,73.84129
"3800",60.03125,74.844894,73.5241
"3801",60.044556,74.72526,73.24337
"3802",60.057922,74.73991,73.093185
"3803",60.071228,75.04509,73.23399
"3804",60.084534,75.81903,73.853096
"3805",60.0979,77.16914,75.072556
"3806",60.111206,79.07591,76.89086
"3807",60.124573,81.373314,79.159386
"3808",60.13788,83.76105,81.590034
"3809",60.151245,85.909515,83.85603
"3810",60.16455,87.555046,85.68623
"3811",60.177917,88.56336,86.93065
"3812",60.191223,88.92958,87.56447
"3813",60.20453,88.73426,87.64819
"3814",60.217896,88.10681,87.293686
"3815",60.2312,87.20836,86.648575
"3816",60.244568,86.187836,85.85331
"3817",60.257874,85.15999,85.01883
"3818",60.27124,84.19562,84.215706
"3819",60.284546,83.32647,83.47767
"3820",60.297913,82.581825,82.836975
"3821",60.31122,81.988556,82.32439
"3822",60.324524,81.583275,81.98125
"3823",60.33789,81.40505,81.8525
"3824",60.351196,81.46609,81.95744
"3825",60.364563,81.72976,82.26693
"3826",60.37787,82.12283,82.71406
"3827",60.391235,82.53544,83.193
"3828",60.40454,82.85527,83.592064
"3829",60.417847,82.99931,83.82533
"3830",60.431213,82.91875,83.83849
"3831",60.44452,82.60868,83.61964
"3832",60.457886,82.091095,83.18357
"3833",60.47119,81.41726,82.57508
"3834",60.48456,80.655525,81.857635
"3835",60.497864,79.85962,81.082214
"3836",60.51117,79.078354,80.29656
"3837",60.524536,78.348366,79.53777
"3838",60.53784,77.70138,78.83917
"3839",60.55121,77.152054,78.21802
"3840",60.564514,76.71259,77.68956
"3841",60.57788,76.37812,77.25236
"3842",60.591187,76.15106,76.91212
"3843",60.604553,76.0119,76.65268
"3844",60.61786,75.93866,76.45481
"3845",60.631165,75.91669,76.30592
"3846",60.64453,75.928894,76.19053
"3847",60.657837,75.95819,76.092606
"3848",60.671204,75.999695,76.007805
"3849",60.68451,76.04364,75.92674
"3850",60.697876,76.0827,75.84217
"3851",60.71118,76.09735,75.734406
"3852",60.72455,76.07782,75.59292
"3853",60.737854,76.01434,75.406876
"3854",60.75116,75.914246,75.18223
"3855",60.764526,75.775085,74.91539
"3856",60.777832,75.60662,74.6149
"3857",60.7912,75.421074,74.29206
"3858",60.804504,75.21843,73.94633
"3859",60.81787,75.00603,73.5845
"3860",60.831177,74.80095,73.223366
"3861",60.844482,74.67887,72.93882
"3862",60.85785,74.7863,72.87997
"3863",60.871155,75.32342,73.25416
"3864",60.88452,76.4416,74.2262
"3865",60.897827,78.184784,75.858185
"3866",60.911194,80.4358,78.052475
"3867",60.9245,82.92851,80.55881
"3868",60.937805,85.30648,83.02829
"3869",60.95117,87.259636,85.14727
"3870",60.964478,88.585335,86.69983
"3871",60.977844,89.22255,87.60533
"3872",60.99115,89.21278,87.88377
"3873",61.004517,88.67567,87.63455
"3874",61.017822,87.767456,86.99745
"3875",61.03119,86.65171,86.124435
"3876",61.044495,85.46273,85.14332
"3877",61.0578,84.29572,84.14702
"3878",61.071167,83.20683,83.19237
"3879",61.084473,82.23758,82.323326
"3880",61.09784,81.43191,81.58758
"3881",61.111145,80.85329,81.0537
"3882",61.12451,80.56031,80.78739
"3883",61.137817,80.58961,80.8342
"3884",61.151184,80.91432,81.17734
"3885",61.16449,81.45632,81.74791
"3886",61.177795,82.08377,82.42087
"3887",61.191162,82.66483,83.06705
"3888",61.204468,83.075,83.560486
"3889",61.217834,83.23369,83.81527
"3890",61.23114,83.10918,83.79181
"3891",61.244507,82.7161,83.495895
"3892",61.257812,82.09598,82.96065
"3893",61.27112,81.31716,82.24733
"3894",61.284485,80.45777,81.4291
"3895",61.29779,79.58129,80.566925
"3896",61.311157,78.74143,79.71398
"3897",61.324463,77.97238,78.9056
"3898",61.33783,77.31075,78.18061
"3899",61.351135,76.76875,77.55457
"3900",61.36444,76.351265,77.03611
"3901",61.377808,76.06073,76.63155
"3902",61.391113,75.88251,76.33023
"3903",61.40448,75.79706,76.11611
"3904",61.417786,75.78729,75.975006
"3905",61.431152,75.82147,75.87754
"3906",61.444458,75.8703,75.79579
"3907",61.457825,75.91669,75.71313
"3908",61.47113,75.94354,75.61238
"3909",61.484436,75.9411,75.48318
"3910",61.497803,75.914246,75.32948
"3911",61.51111,75.86542,75.15298
"3912",61.524475,75.77753,74.93588
"3913",61.53778,75.648125,74.67453
"3914",61.551147,75.47967,74.37008
"3915",61.564453,75.299,74.04816
"3916",61.57782,75.18913,73.79138
"3917",61.591125,75.31365,73.765564
"3918",61.60443,75.862976,74.16844
"3919",61.617798,76.978714,75.1549
"3920",61.631104,78.68284,76.76461
"3921",61.64447,80.84596,78.88657
"3922",61.657776,83.21904,81.28609
"3923",61.671143,85.46029,83.62793
"3924",61.68445,87.28405,85.62232
"3925",61.697754,88.50233,87.06822
"3926",61.71112,89.06142,87.893005
"3927",61.724426,88.99794,88.1127
"3928",61.737793,88.42664,87.822586
"3929",61.7511,87.501335,87.160614
"3930",61.764465,86.37827,86.27197
"3931",61.77777,85.19173,85.284744
"3932",61.791077,84.01984,84.27509
"3933",61.804443,82.92119,83.30206
"3934",61.81775,81.92752,82.39968
"3935",61.831116,81.10719,81.63959
"3936",61.84442,80.52613,81.093124
"3937",61.857788,80.25269,80.83613
"3938",61.871094,80.31861,80.90994
"3939",61.88446,80.69459,81.295876
"3940",61.897766,81.287865,81.91086
"3941",61.91107,81.95438,82.617615
"3942",61.92444,82.55497,83.27928
"3943",61.937744,82.96269,83.766846
"3944",61.95111,83.106735,84.00347
"3945",61.964417,82.9456,83.93942
"3946",61.977783,82.50858,83.59445
"3947",61.99109,81.849396,83.01366
"3948",62.004456,81.04616,82.26821
"3949",62.01776,80.17212,81.426865
"3950",62.031067,79.293205,80.55333
"3951",62.044434,78.45823,79.696266
"3952",62.05774,77.70138,78.891235
"3953",62.071106,77.051956,78.16998
"3954",62.08441,76.524605,77.55051
"3955",62.09778,76.121765,77.03906
"3956",62.111084,75.841,76.63711
"3957",62.12439,75.67498,76.34112
"3958",62.137756,75.613945,76.14493
"3959",62.151062,75.63348,76.0274
"3960",62.16443,75.70672,75.96419
"3961",62.177734,75.809265,75.93257
"3962",62.1911,75.914246,75.90659
"3963",62.204407,75.98993,75.8546
"3964",62.217712,76.02899,75.76835
"3965",62.23108,76.019226,75.63449
"3966",62.244385,75.96307,75.45394
"3967",62.25775,75.85565,75.22037
"3968",62.271057,75.70916,74.94437
"3969",62.284424,75.55291,74.65403
"3970",62.29773,75.4699,74.43205
"3971",62.311096,75.62127,74.44186
"3972",62.3244,76.21942,74.903175
"3973",62.337708,77.420616,75.98623
"3974",62.351074,79.24925,77.73426
"3975",62.36438,81.57107,80.032616
"3976",62.377747,84.11261,82.62325
"3977",62.391052,86.522316,85.161476
"3978",62.40442,88.48524,87.32822
"3979",62.417725,89.8085,88.91664
"3980",62.43109,90.43839,89.85305
"3981",62.444397,90.41154,90.1524
"3982",62.457703,89.847565,89.91379
"3983",62.47107,88.90028,89.27425
"3984",62.484375,87.73815,88.39024
"3985",62.49774,86.51011,87.40402
"3986",62.511047,85.32113,86.41848
"3987",62.524414,84.2298,85.49343
"3988",62.53772,83.2752,84.67101
"3989",62.551025,82.48905,83.98721
"3990",62.564392,81.9202,83.49614
"3991",62.577698,81.60769,83.24364
"3992",62.591064,81.56863,83.254814
"3993",62.60437,81.78348,83.518684
"3994",62.617737,82.18387,83.97481
"3995",62.631042,82.65507,84.51425
"3996",62.64435,83.070114,85.01227
"3997",62.657715,83.32891,85.367004
"3998",62.67102,83.36309,85.50521
"3999",62.684387,83.14336,85.39057
"4000",62.697693,82.669716,85.01516
"4001",62.71106,81.986115,84.414986
"4002",62.724365,81.15602,83.64696
"4003",62.737732,80.25269,82.779755
"4004",62.751038,79.33471,81.86967
"4005",62.764343,78.46555,80.97972
"4006",62.77771,77.68185,80.14806
"4007",62.791016,77.00313,79.396904
"4008",62.804382,76.44648,78.746605
"4009",62.817688,76.0119,78.20098
"4010",62.831055,75.70428,77.76873
"4011",62.84436,75.50652,77.43674
"4012",62.857727,75.39666,77.186455
"4013",62.871033,75.3576,77.00354
"4014",62.88434,75.37469,76.87556
"4015",62.897705,75.42596,76.78229
"4016",62.91101,75.48455,76.697945
"4017",62.924377,75.526054,76.59834
"4018",62.937683,75.53094,76.46342
"4019",62.95105,75.48699,76.279816
"4020",62.964355,75.389336,76.04113
"4021",62.97766,75.2404,75.748116
"4022",62.991028,75.0573,75.416275
"4023",63.004333,74.85222,75.05674
"4024",63.0177,74.683754,74.72741
"4025",63.031006,74.68131,74.55884
"4026",63.044373,75.04997,74.76129
"4027",63.05768,75.98016,75.5368
"4028",63.070984,77.56954,77.00056
"4029",63.08435,79.74731,79.10237
"4030",63.097656,82.29618,81.64335
"4031",63.111023,84.88167,84.30059
"4032",63.12433,87.14732,86.718796
"4033",63.137695,88.83681,88.63163
"4034",63.151,89.830475,89.90144
"4035",63.164368,90.13077,90.50894
"4036",63.177673,89.82803,90.5228
"4037",63.19098,89.06874,90.07063
"4038",63.204346,88.0238,89.3091
"4039",63.21765,86.84947,88.38551
"4040",63.231018,85.66537,87.41545
"4041",63.244324,84.54475,86.47187
"4042",63.25769,83.53155,85.60069
"4043",63.270996,82.66239,84.841896
"4044",63.284363,81.98123,84.243935
"4045",63.29767,81.529564,83.85418
"4046",63.310974,81.339134,83.71155
"4047",63.32434,81.409935,83.824196
"4048",63.337646,81.68337,84.14169
"4049",63.351013,82.06424,84.575165
"4050",63.36432,82.442665,85.0181
"4051",63.377686,82.71366,85.365425
"4052",63.39099,82.794235,85.5308
"4053",63.404297,82.64774,85.47163
"4054",63.417664,82.266884,85.17351
"4055",63.43097,81.67849,84.65595
"4056",63.444336,80.92653,83.95644
"4057",63.45764,80.07446,83.13333
"4058",63.47101,79.183334,82.24453
"4059",63.484314,78.29954,81.33521
"4060",63.49762,77.471886,80.45442
"4061",63.510986,76.74189,79.645424
"4062",63.524292,76.13397,78.93569
"4063",63.53766,75.65301,78.333916
"4064",63.550964,75.29168,77.83675
"4065",63.56433,75.04753,77.445465
"4066",63.577637,74.898605,77.14178
"4067",63.591003,74.830246,76.914
"4068",63.60431,74.82536,76.74757
"4069",63.617615,74.87175,76.63225
"4070",63.63098,74.94011,76.54035
"4071",63.644287,75.00603,76.44815
"4072",63.657654,75.04753,76.333595
"4073",63.67096,75.052414,76.183716
"4074",63.684326,75.018234,75.99493
"4075",63.69763,74.92546,75.746475
"4076",63.711,74.78142,75.443855
"4077",63.724304,74.59342,75.09278
"4078",63.73761,74.39567,74.726074
"4079",63.750977,74.26383,74.419106
"4080",63.764282,74.354164,74.330185
"4081",63.77765,74.881516,74.68111
"4082",63.790955,76.01434,75.653984
"4083",63.80432,77.80148,77.316574
"4084",63.817627,80.130615,79.577
"4085",63.830933,82.74052,82.19099
"4086",63.8443,85.2723,84.80841
"4087",63.857605,87.38659,87.087456
"4088",63.87097,88.866104,88.797806
"4089",63.884277,89.62783,89.83659
"4090",63.897644,89.71572,90.22536
"4091",63.91095,89.24208,90.055336
"4092",63.924255,88.36317,89.46524
"4093",63.937622,87.24986,88.61328
"4094",63.950928,86.046234,87.63621
"4095",63.964294,84.857254,86.63617
"4096",63.9776,83.74395,85.67465
"4097",63.990967,82.75273,84.80043
"4098",64.00427,81.9324,84.066124
"4099",64.01764,81.33425,83.52836
"4100",64.030945,81.00221,83.238014
"4101",64.04425,80.953384,83.220505
"4102",64.05762,81.15358,83.45049
"4103",64.07092,81.52468,83.85764
"4104",64.08429,81.95438,84.334984
"4105",64.097595,82.32792,84.7696
"4106",64.11096,82.547646,85.06207
"4107",64.12427,82.55497,85.14901
"4108",64.137634,82.31815,84.992035
"4109",64.15094,81.849396,84.59572
"4110",64.164246,81.17799,83.98211
"4111",64.17761,80.36988,83.21081
"4112",64.19092,79.483635,82.33612
"4113",64.204285,78.590065,81.426414
"4114",64.21759,77.738,80.53029
"4115",64.23096,76.97139,79.69299
"4116",64.24426,76.314644,78.941605
"4117",64.25757,75.78241,78.294205
"4118",64.270935,75.37469,77.754684
"4119",64.28424,75.08171,77.31717
"4120",64.29761,74.89372,76.97549
"4121",64.31091,74.793625,76.71582
"4122",64.32428,74.77409,76.53359
"4123",64.337585,74.80827,76.404465
"4124",64.35089,74.87663,76.310585
"4125",64.36426,74.95476,76.22861
"4126",64.37756,75.01335,76.12954
"4127",64.39093,75.04021,76.000565
"4128",64.404236,75.028,75.83337
"4129",64.4176,74.96208,75.612076
"4130",64.43091,74.84245,75.335014
"4131",64.444275,74.67399,75.00538
"4132",64.45758,74.478676,74.64363
"4133",64.47089,74.32975,74.32217
"4134",64.48425,74.37614,74.19136
"4135",64.49756,74.83269,74.47217
"4136",64.510925,75.87518,75.35319
"4137",64.52423,77.56954,76.91865
"4138",64.5376,79.823,79.09615
"4139",64.5509,82.391396,81.65902
"4140",64.56427,84.92317,84.265526
"4141",64.577576,87.078964,86.575165
"4142",64.59088,88.621956,88.33937
"4143",64.60425,89.45449,89.441345
"4144",64.61755,89.59609,89.8784
"4145",64.63092,89.14931,89.7315
"4146",64.644226,88.275276,89.14339
"4147",64.65759,87.14488,88.27159
"4148",64.6709,85.92172,87.271706
"4149",64.684204,84.70832,86.243355
"4150",64.69757,83.57549,85.25766
"4151",64.71088,82.562294,84.35619
"4152",64.72424,81.71755,83.59152
"4153",64.73755,81.09743,83.02507
"4154",64.750916,80.75563,82.71757
"4155",64.76422,80.71656,82.70211
"4156",64.77753,80.95827,82.96621
"4157",64.79089,81.40017,83.43806
"4158",64.8042,81.91043,83.99207
"4159",64.817566,82.35966,84.501
"4160",64.83087,82.64286,84.85794
"4161",64.84424,82.68925,84.986916
"4162",64.857544,82.46952,84.85123
"4163",64.87091,81.99344,84.45232
"4164",64.88422,81.31228,83.83345
"4165",64.89752,80.48463,83.04681
"4166",64.91089,79.58373,82.16106
"4167",64.924194,78.67307,81.23739
"4168",64.93756,77.81125,80.3341
"4169",64.95087,77.032425,79.48688
"4170",64.96423,76.36347,78.72519
"4171",64.97754,75.81659,78.06467
"4172",64.990906,75.39422,77.511566
"4173",65.00421,75.09148,77.064896
"4174",65.01752,74.898605,76.718636
"4175",65.03088,74.80095,76.46156
"4176",65.04419,74.78386,76.282005
"4177",65.057556,74.82048,76.155624
"4178",65.07086,74.8864,76.059685
"4179",65.08423,74.9572,75.97069
"4180",65.097534,75.018234,75.87414
"4181",65.11084,75.052414,75.75264
"4182",65.12421,75.04753,75.59315
"4183",65.13751,74.99626,75.387115
"4184",65.15088,74.89372,75.12821
"4185",65.164185,74.73991,74.81483
"4186",65.17755,74.547035,74.45758
"4187",65.19086,74.38346,74.123604
"4188",65.20416,74.390785,73.955414
"4189",65.21753,74.77165,74.160995
"4190",65.230835,75.716484,74.942444
"4191",65.2442,77.315636,76.40774
"4192",65.25751,79.50317,78.51138
"4193",65.270874,82.039825,81.03252
"4194",65.28418,84.59113,83.64757
"4195",65.29755,86.803085,86.00299
"4196",65.31085,88.42664,87.83914
"4197",65.32416,89.34707,89.0229
"4198",65.337524,89.57412,89.54205
"4199",65.35083,89.198135,89.46526
"4200",65.3642,88.37049,88.925064
"4201",65.3775,87.259636,88.07579
"4202",65.39087,86.01938,87.06239
"4203",65.404175,84.76204,85.99316
"4204",65.41754,83.560844,84.94077
"4205",65.43085,82.47929,83.97049
"4206",65.44415,81.57107,83.13975
"4207",65.45752,80.90456,82.52233
"4208",65.470825,80.54078,82.18682
"4209",65.48419,80.51392,82.176865
"4210",65.4975,80.80202,82.48102
"4211",65.510864,81.307396,83.01146
"4212",65.52417,81.898224,83.64314
"4213",65.537476,82.425575,84.22981
"4214",65.55084,82.77226,84.6523
"4215",65.56415,82.85527,84.82194
"4216",65.577515,82.64286,84.69875
"4217",65.59082,82.159454,84.297935
"4218",65.60419,81.463646,83.66961
"4219",65.61749,80.62379,82.87549
"4220",65.6308,79.71313,81.98432
"4221",65.644165,78.79515,81.05738
"4222",65.65747,77.91867,80.14325
"4223",65.67084,77.12276,79.282295
"4224",65.68414,76.436714,78.50634
"4225",65.69751,75.88251,77.84078
"4226",65.710815,75.47234,77.30195
"4227",65.72418,75.19646,76.884575
"4228",65.73749,75.037766,76.575775
"4229",65.75079,74.97673,76.35967
"4230",65.76416,74.98161,76.20758
"4231",65.777466,75.028,76.097145
"4232",65.79083,75.09148,76.00525
"4233",65.80414,75.15007,75.91045
"4234",65.817505,75.17937,75.78819
"4235",65.83081,75.16228,75.62046
"4236",65.84418,75.089035,75.39604
"4237",65.85748,74.95964,75.11318
"4238",65.87079,74.79118,74.78722
"4239",65.884155,74.62516,74.45842
"4240",65.89746,74.564125,74.22942
"4241",65.91083,74.7863,74.28173
"4242",65.92413,75.47234,74.80485
"4243",65.9375,76.74433,75.93535
"4244",65.950806,78.58762,77.6769
"4245",65.96411,80.833755,79.8789
"4246",65.97748,83.18974,82.26094
"4247",65.99078,85.31869,84.48956
"4248",66.00415,86.94713,86.28421
"4249",66.017456,87.92615,87.48032
"4250",66.03082,88.24109,88.04295
"4251",66.04413,87.97986,88.03926
"4252",66.057434,87.27917,87.58794
"4253",66.0708,86.29771,86.833954
"4254",66.08411,85.17708,85.910126
"4255",66.09747,84.02472,84.91955
"4256",66.11078,82.899216,83.919815
"4257",66.124146,81.85428,82.96548
"4258",66.13745,80.96071,82.12985
"4259",66.15082,80.306404,81.50557
"4260",66.16412,79.954834,81.163574
"4261",66.17743,79.94507,81.1524
"4262",66.190796,80.25269,81.458305
"4263",66.2041,80.79469,82.0082
"4264",66.21747,81.42458,82.662926
"4265",66.230774,82.00076,83.28362
"4266",66.24414,82.39872,83.7441
"4267",66.25745,82.533,83.95334
"4268",66.27081,82.36942,83.86892
"4269",66.28412,81.92996,83.5035
"4270",66.297424,81.27322,82.90707
"4271",66.31079,80.47486,82.1485
"4272",66.3241,79.61303,81.301506
"4273",66.33746,78.74876,80.42514
"4274",66.35077,77.93576,79.573044
"4275",66.364136,77.21553,78.78831
"4276",66.37744,76.627144,78.11291
"4277",66.39075,76.18524,77.565605
"4278",66.40411,75.88983,77.150986
"4279",66.41742,75.718925,76.85164
"4280",66.430786,75.65301,76.65194
"4281",66.44409,75.66033,76.52342
"4282",66.45746,75.70916,76.43664
"4283",66.470764,75.77753,76.37092
"4284",66.48407,75.843445,76.304886
"4285",66.49744,75.88983,76.22138
"4286",66.51074,75.90204,76.10515
"4287",66.52411,75.86542,75.94047
"4288",66.537415,75.789734,75.73558
"4289",66.55078,75.68963,75.50391
"4290",66.56409,75.62127,75.30085
"4291",66.57745,75.70672,75.249466
"4292",66.59076,76.11932,75.52791
"4293",66.604065,77.00801,76.29533
"4294",66.61743,78.42893,77.62275
"4295",66.63074,80.306404,79.451126
"4296",66.644104,82.43534,81.58964
"4297",66.65741,84.51789,83.74829
"4298",66.67078,86.27085,85.64243
"4299",66.68408,87.48669,87.05423
"4300",66.69745,88.09216,87.89366
"4301",66.710754,88.11658,88.17096
"4302",66.72406,87.65514,87.963165
"4303",66.73743,86.8568,87.40404
"4304",66.75073,85.872894,86.63441
"4305",66.7641,84.8304,85.77544
"4306",66.777405,83.807434,84.90342
"4307",66.79077,82.85771,84.07268
"4308",66.80408,82.0325,83.33677
"4309",66.81738,81.38552,82.7533
"4310",66.83075,80.97536,82.38644
"4311",66.844055,80.848404,82.28996
"4312",66.85742,81.00221,82.47028
"4313",66.87073,81.38552,82.88491
"4314",66.884094,81.8909,83.433586
"4315",66.8974,82.39384,83.99561
"4316",66.910706,82.77959,84.45617
"4317",66.92407,82.96513,84.72858
"4318",66.93738,82.896774,84.75288
"4319",66.950745,82.57206,84.518684
"4320",66.96405,82.02762,84.05462
"4321",66.97742,81.31472,83.40508
"4322",66.99072,80.50416,82.635605
"4323",67.00409,79.67895,81.82615
"4324",67.017395,78.89769,81.03486
"4325",67.0307,78.204315,80.30704
"4326",67.04407,77.63302,79.67963
"4327",67.05737,77.20332,79.175964
"4328",67.07074,76.912796,78.79804
"4329",67.084045,76.74189,78.53066
"4330",67.09741,76.66865,78.355606
"4331",67.11072,76.66132,78.24418
"4332",67.124084,76.68818,78.1667
"4333",67.13739,76.72968,78.10471
"4334",67.150696,76.76387,78.036705
"4335",67.16406,76.77852,77.950226
"4336",67.17737,76.76631,77.83735
"4337",67.190735,76.717476,77.68746
"4338",67.20404,76.62226,77.48967
"4339",67.21741,76.4831,77.24496
"4340",67.23071,76.3122,76.96416
"4341",67.24402,76.14862,76.68533
"4342",67.257385,76.09003,76.506386
"4343",67.27069,76.28535,76.57952
"4344",67.28406,76.910355,77.08845
"4345",67.29736,78.0798,78.16135
"4346",67.31073,79.781494,79.80303
"4347",67.324036,81.87869,81.8934
"4348",67.33734,84.102844,84.17626
"4349",67.35071,86.13901,86.34064
"4350",67.36401,87.725945,88.119415
"4351",67.37738,88.71473,89.34964
"4352",67.390686,89.08583,89.99307
"4353",67.40405,88.92226,90.113434
"4354",67.41736,88.36805,89.83804
"4355",67.430725,87.589226,89.320724
"4356",67.44403,86.73716,88.705826
"4357",67.45734,85.90219,88.08139
"4358",67.4707,85.13313,87.49677
"4359",67.48401,84.43488,86.95893
"4360",67.497375,83.824524,86.48716
"4361",67.51068,83.32403,86.10618
"4362",67.52405,82.97246,85.85848
"4363",67.53735,82.79668,85.77559
"4364",67.55072,82.79668,85.86298
"4365",67.564026,82.930954,86.084656
"4366",67.57733,83.123825,86.36912
"4367",67.5907,83.284966,86.62788
"4368",67.604004,83.33868,86.78424
"4369",67.61737,83.228806,86.7787
"4370",67.63068,82.93828,86.58907
"4371",67.64404,82.46708,86.209694
"4372",67.65735,81.849396,85.669106
"4373",67.670654,81.13649,85.01399
"4374",67.68402,80.37965,84.29266
"4375",67.69733,79.63256,83.55744
"4376",67.71069,78.94652,82.85992
"4377",67.724,78.35569,82.23617
"4378",67.737366,77.88449,81.713585
"4379",67.75067,77.53536,81.29835
"4380",67.76398,77.29122,80.97719
"4381",67.77734,77.13252,80.73384
"4382",67.79065,77.032425,80.544136
"4383",67.804016,76.96651,80.38548
"4384",67.81732,76.92256,80.24674
"4385",67.83069,76.89815,80.12616
"4386",67.843994,76.87129,80.00237
"4387",67.85736,76.82735,79.86066
"4388",67.87067,76.754105,79.68827
"4389",67.88397,76.646675,79.47941
"4390",67.89734,76.49531,79.22325
"4391",67.910645,76.30732,78.92574
"4392",67.92401,76.087585,78.590614
"4393",67.93732,75.843445,78.22421
"4394",67.95068,75.579765,77.83064
"4395",67.96399,75.318535,77.43128
"4396",67.977356,75.08659,77.05305
"4397",67.99066,74.95476,76.76767
"4398",68.00397,75.04753,76.70278
"4399",68.017334,75.5407,77.04119
"4400",68.03064,76.57343,77.93457
"4401",68.04401,78.167694,79.42175
"4402",68.05731,80.22583,81.42263
"4403",68.07068,82.50614,83.71
"4404",68.083984,84.701,85.98317
"4405",68.09729,86.51255,87.94163
"4406",68.11066,87.75281,89.3854
"4407",68.12396,88.36805,90.24292
"4408",68.13733,88.41688,90.55325
"4409",68.150635,88.02869,90.428085
"4410",68.164,87.37438,90.02467
"4411",68.17731,86.62241,89.50316
"4412",68.19061,85.88754,88.975235
"4413",68.20398,85.223465,88.49514
"4414",68.217285,84.62531,88.06022
"4415",68.23065,84.085754,87.6652
"4416",68.24396,83.597466,87.30459
"4417",68.257324,83.18242,87.00196
"4418",68.27063,82.87236,86.79135
"4419",68.284,82.69413,86.70288
"4420",68.2973,82.64774,86.740685
"4421",68.31061,82.69169,86.86737
"4422",68.323975,82.760056,87.01985
"4423",68.33728,82.777145,87.12319
"4424",68.35065,82.68192,87.11475
"4425",68.36395,82.43534,86.95198
"4426",68.37732,82.022736,86.61548
"4427",68.390625,81.45388,86.10983
"4428",68.40399,80.77516,85.47655
"4429",68.4173,80.03784,84.76345
"4430",68.4306,79.30297,84.02976
"4431",68.44397,78.6218,83.32681
"4432",68.457275,78.030975,82.69292
"4433",68.47064,77.55245,82.15286
"4434",68.48395,77.17891,81.702835
"4435",68.497314,76.90059,81.33636
"4436",68.51062,76.6955,81.03442
"4437",68.523926,76.544136,80.779785
"4438",68.53729,76.439156,80.56681
"4439",68.5506,76.37324,80.38962
"4440",68.563965,76.32685,80.2299
"4441",68.57727,76.28535,80.07361
"4442",68.59064,76.23651,79.90869
"4443",68.60394,76.16571,79.72028
"4444",68.61725,76.07538,79.51013
"4445",68.630615,75.96307,79.275185
"4446",68.64392,75.83368,79.01964
"4447",68.65729,75.68963,78.74539
"4448",68.67059,75.53826,78.45933
"4449",68.68396,75.38445,78.16609
"4450",68.697266,75.228195,77.8656
"4451",68.71063,75.07439,77.562675
"4452",68.72394,74.92058,77.254944
"4453",68.73724,74.76921,76.94485
"4454",68.75061,74.617836,76.63001
"4455",68.763916,74.46891,76.3129
"4456",68.77728,74.32487,75.99601
"4457",68.79059,74.195465,75.68926
"4458",68.803955,74.0856,75.39801
"4459",68.81726,74.03189,75.15948
"4460",68.83063,74.1149,75.055984
"4461",68.84393,74.48844,75.24562
"4462",68.85724,75.318535,75.90348
"4463",68.870605,76.72236,77.16101
"4464",68.88391,78.6804,79.016624
"4465",68.89728,81.03151,81.3265
"4466",68.91058,83.48516,83.812386
"4467",68.92395,85.697105,86.13324
"4468",68.937256,87.38903,88.0032
"4469",68.95056,88.4242,89.26927
"4470",68.96393,88.7953,89.903625
"4471",68.977234,88.61463,89.9978
"4472",68.9906,88.05798,89.71036
"4473",69.00391,87.310905,89.21509
"4474",69.01727,86.53208,88.664734
"4475",69.03058,85.82651,88.163284
"4476",69.043884,85.22102,87.739876
"4477",69.05725,84.70588,87.387886
"4478",69.07056,84.25666,87.085724
"4479",69.08392,83.86603,86.82811
"4480",69.09723,83.546196,86.62909
"4481",69.110596,83.32891,86.52262
"4482",69.1239,83.226364,86.5241
"4483",69.13727,83.23125,86.62981
"4484",69.15057,83.28985,86.78938
"4485",69.16388,83.33868,86.94102
"4486",69.177246,83.31426,87.020935
"4487",69.19055,83.16777,86.97801
"4488",69.20392,82.8748,86.784035
"4489",69.217224,82.42802,86.427086
"4490",69.23059,81.846954,85.9219
"4491",69.2439,81.16579,85.29845
"4492",69.25726,80.430916,84.600006
"4493",69.27057,79.691154,83.87371
"4494",69.283875,78.98558,83.158485
"4495",69.29724,78.348366,82.48957
"4496",69.31055,77.79904,81.88863
"4497",69.32391,77.35714,81.37795
"4498",69.33722,77.02998,80.96821
"4499",69.350586,76.805374,80.65079
"4500",69.36389,76.663765,80.40935
"4501",69.3772,76.57343,80.21476
"4502",69.390564,76.50996,80.044205
"4503",69.40387,76.44648,79.871666
"4504",69.41724,76.37812,79.69226
"4505",69.43054,76.30488,79.50584
"4506",69.44391,76.224304,79.30979
"4507",69.457214,76.13153,79.09903
"4508",69.47052,76.02899,78.8756
"4509",69.48389,75.90448,78.627
"4510",69.49719,75.76044,78.35497
"4511",69.51056,75.5993,78.06135
"4512",69.523865,75.4284,77.75293
"4513",69.53723,75.25262,77.43429
"4514",69.55054,75.08171,77.11503
"4515",69.5639,74.92302,76.80264
"4516",69.57721,74.78386,76.50483
"4517",69.590515,74.65934,76.21731
"4518",69.60388,74.54215,75.93323
"4519",69.61719,74.442055,75.662575
"4520",69.630554,74.34928,75.39612
"4521",69.64386,74.25651,75.12676
"4522",69.65723,74.17105,74.861824
"4523",69.67053,74.090485,74.599106
"4524",69.6839,74.02457,74.34852
"4525",69.697205,74.019684,74.156906
"4526",69.71051,74.178375,74.128716
"4527",69.72388,74.67643,74.44485
"4528",69.73718,75.6701,75.272156
"4529",69.75055,77.24727,76.71402
"4530",69.763855,79.35424,78.73497
"4531",69.77722,81.7908,81.15135
"4532",69.79053,84.23468,83.65119
"4533",69.80383,86.363625,85.91247
"4534",69.8172,87.92615,87.67385
"4535",69.830505,88.817276,88.81267
"4536",69.84387,89.06142,89.33235
"4537",69.85718,88.780655,89.33476
"4538",69.870544,88.13367,88.96217
"4539",69.88385,87.2987,88.38138
"4540",69.897156,86.431984,87.74275
"4541",69.91052,85.63119,87.14295
"4542",69.92383,84.93294,86.620674
"4543",69.937195,84.33723,86.179115
"4544",69.9505,83.844055,85.82148
"4545",69.96387,83.441216,85.538765
"4546",69.97717,83.1458,85.35088
"4547",69.99054,82.98222,85.285614
"4548",70.003845,82.967575,85.36416
"4549",70.04382,83.33868,86.02422
"4550",70.05719,83.36309,86.15297
"4551",70.070496,83.23125,86.12622
"4552",70.08386,82.92363,85.91958
"4553",70.09717,82.43778,85.52509
"4554",70.110535,81.80301,84.9665
"4555",70.12384,81.06569,84.28552
"4556",70.137146,80.27955,83.532684
"4557",70.15051,79.49584,82.75771
"4558",70.16382,78.76341,82.00953
"4559",70.177185,78.118866,81.32634
"4560",70.19049,77.57931,80.728
"4561",70.20386,77.154495,80.22754
"4562",70.21716,76.839554,79.82368
"4563",70.23047,76.62226,79.50762
"4564",70.243835,76.48066,79.26047
"4565",70.25714,76.387886,79.05772
"4566",70.27051,76.32441,78.88136
"4567",70.28381,76.27802,78.720116
"4568",70.29718,76.23407,78.55985
"4569",70.310486,76.175476,78.383575
"4570",70.32379,76.10712,78.1957
"4571",70.33716,76.02899,77.995926
"4572",70.350464,75.93622,77.77906
"4573",70.36383,75.82147,77.53732
"4574",70.37714,75.682304,77.26758
"4575",70.3905,75.526054,76.9764
"4576",70.40381,75.35027,76.66081
"4577",70.417175,75.16228,76.327515
"4578",70.43048,74.97429,75.98835
"4579",70.44379,74.78874,75.64575
"4580",70.45715,74.60319,75.29735
"4581",70.47046,74.42008,74.945595
"4582",70.483826,74.23697,74.58811
"4583",70.49713,74.05142,74.22247
"4584",70.5105,73.8732,73.85836
"4585",70.5238,73.70718,73.50088
"4586",70.53717,73.58755,73.1846
"4587",70.550476,73.57778,72.97445
"4588",70.56378,73.814606,73.01058
"4589",70.57715,74.478676,73.48136
"4590",70.590454,75.72381,74.553955
"4591",70.60382,77.58175,76.27827
"4592",70.61713,79.940186,78.561134
"4593",70.63049,82.533,81.15208
"4594",70.6438,85.01106,83.7093
"4595",70.657104,87.04234,85.89717
"4596",70.67047,88.41688,87.491776
"4597",70.68378,89.06874,88.40666
"4598",70.69714,89.06386,88.68518
"4599",70.71045,88.54627,88.450836
"4600",70.723816,87.69665,87.868286
"4601",70.73712,86.693214,87.10538
"4602",70.75043,85.677574,86.2989
"4603",70.763794,84.7425,85.541245
"4604",70.7771,83.91974,84.866684
"4605",70.79047,83.211716,84.28115
"4606",70.80377,82.62821,83.79801
"4607",70.81714,82.18875,83.44068
"4608",70.830444,81.9324,83.25273
"4609",70.84381,81.883575,83.26429
"4610",70.85712,82.03494,83.47452
"4611",70.87042,82.33036,83.83353
"4612",70.88379,82.67704,84.25303
"4613",70.897095,82.96513,84.62478
"4614",70.91046,83.09453,84.84683
"4615",70.92377,83.00664,84.855644
"4616",70.93713,82.68192,84.624886
"4617",70.95044,82.13504,84.16181
"4618",70.963806,81.41482,83.50831
"4619",70.97711,80.58961,82.72731
"4620",70.99042,79.72289,81.87902
"4621",71.003784,78.86839,81.01586
"4622",71.01709,78.082245,80.19435
"4623",71.03046,77.39376,79.44594
"4624",71.04376,76.82979,78.80052
"4625",71.05713,76.39765,78.26932
"4626",71.070435,76.09491,77.854004
"4627",71.08374,75.8996,77.53666
"4628",71.09711,75.789734,77.29866
"4629",71.11041,75.736015,77.11337
"4630",71.12378,75.716484,76.960594
"4631",71.137085,75.7116,76.82185
"4632",71.15045,75.7116,76.68784
"4633",71.16376,75.70916,76.55139
"4634",71.17706,75.69451,76.40266
"4635",71.19043,75.66033,76.23393
"4636",71.203735,75.5993,76.037285
"4637",71.2171,75.51385,75.814316
"4638",71.23041,75.389336,75.549614
"4639",71.243774,75.23064,75.24683
"4640",71.25708,75.04021,74.907364
"4641",71.27045,74.82292,74.53509
"4642",71.28375,74.57877,74.12916
"4643",71.29706,74.319984,73.70096
"4644",71.310425,74.05386,73.25734
"4645",71.32373,73.78287,72.80053
"4646",71.3371,73.51675,72.340126
"4647",71.3504,73.26772,71.888504
"4648",71.36377,73.05287,71.46327
"4649",71.377075,72.94789,71.1412
"4650",71.39044,73.10658,71.07951
"4651",71.40375,73.74868,71.506195
"4652",71.41705,75.04997,72.61214
"4653",71.43042,77.06416,74.47164
"4654",71.443726,79.656975,76.97271
"4655",71.45709,82.530556,79.83557
"4656",71.4704,85.28207,82.66616
"4657",71.483765,87.552605,85.10176
"4658",71.49707,89.10292,86.88809
"4659",71.510376,89.87442,87.94406
"4660",71.52374,89.93057,88.30879
"4661",71.53705,89.40078,88.08933
"4662",71.550415,88.46082,87.44315
"4663",71.56372,87.29626,86.542984
"4664",71.57709,86.07065,85.54538
"4665",71.59039,84.88655,84.55099
"4666",71.6037,83.809875,83.627014
"4667",71.617065,82.86748,82.80367
"4668",71.63037,82.09354,82.11934
"4669",71.64374,81.532005,81.62323
"4670",71.65704,81.23659,81.37569
"4671",71.67041,81.22926,81.407005
"4672",71.683716,81.495384,81.71154
"4673",71.69708,81.96658,82.22947
"4674",71.71039,82.52079,82.84513
"4675",71.723694,83.018845,83.42196
"4676",71.73706,83.34112,83.83857
"4677",71.75037,83.407036,84.008896
"4678",71.76373,83.18486,83.89319
"4679",71.77704,82.67704,83.48489
"4680",71.790405,81.94461,82.83612
"4681",71.80371,81.05592,82.0082
"4682",71.81708,80.09155,81.07683
"4683",71.83038,79.1223,80.110435
"4684",71.84369,78.21164,79.17235
"4685",71.857056,77.40841,78.31323
"4686",71.87036,76.749214,77.57305
"4687",71.88373,76.25117,76.97342
"4688",71.89703,75.90448,76.50958
"4689",71.9104,75.69207,76.16919
"4690",71.923706,75.59441,75.93691
"4691",71.93701,75.58953,75.79436
"4692",71.95038,75.64568,75.712685
"4693",71.963684,75.74822,75.67915
"4694",71.97705,75.86542,75.66348
"4695",71.99036,75.97284,75.6417
"4696",72.00372,76.04364,75.586655
"4697",72.01703,76.053406,75.472786
"4698",72.030334,75.99725,75.293304
"4699",72.0437,75.8703,75.04127
"4700",72.05701,75.67986,74.72178
"4701",72.07037,75.4284,74.33531
"4702",72.08368,75.13054,73.89459
"4703",72.097046,74.793625,73.40551
"4704",72.11035,74.442055,72.89124
"4705",72.12372,74.11734,72.392845
"4706",72.137024,73.93912,72.03079
"4707",72.15033,74.11246,72.01473
"4708",72.1637,74.861984,72.58028
"4709",72.177,76.32685,73.88458
"4710",72.19037,78.47532,75.91827
"4711",72.203674,81.0901,78.485405
"4712",72.21704,83.81476,81.244125
"4713",72.23035,86.236664,83.78524
"4714",72.24371,88.04822,85.79169
"4715",72.25702,89.10536,87.10034
"4716",72.270325,89.41543,87.69495
"4717",72.28369,89.08583,87.659584
"4718",72.297,88.275276,87.132965
"4719",72.31036,87.17418,86.29047
"4720",72.32367,85.95346,85.29394
"4721",72.337036,84.749825,84.276344
"4722",72.35034,83.64385,83.3188
"4723",72.36365,82.669716,82.458534
"4724",72.377014,81.84451,81.71676
"4725",72.39032,81.20241,81.13229
"4726",72.40369,80.79225,80.75971
"4727",72.41699,80.64088,80.633095
"4728",72.43036,80.76051,80.77276
"4729",72.443665,81.11452,81.15053
"4730",72.45697,81.61257,81.68341
"4731",72.47034,82.11795,82.23918
"4732",72.48364,82.513466,82.70088
"4733",72.49701,82.70634,82.9723
"4734",72.510315,82.63554,82.98607
"4735",72.52368,82.2913,82.72419
"4736",72.53699,81.705345,82.20984
"4737",72.550354,80.94362,81.5014
"4738",72.56366,80.08179,80.66906
"4739",72.576965,79.19066,79.78049
"4740",72.59033,78.32639,78.89093
"4741",72.60364,77.54269,78.054924
"4742",72.617004,76.86641,77.30186
"4743",72.63031,76.32441,76.661934
"4744",72.64368,75.92401,76.146675
"4745",72.65698,75.665215,75.760506
"4746",72.67035,75.53094,75.49077
"4747",72.683655,75.50164,75.321815
"4748",72.69696,75.55291,75.23251
"4749",72.71033,75.65301,75.19364
"4750",72.72363,75.775085,75.17988
"4751",72.737,75.89227,75.16504
"4752",72.750305,75.982605,75.12701
"4753",72.76367,76.019226,75.038086
"4754",72.77698,75.99481,74.889275
"4755",72.79028,75.90448,74.67378
"4756",72.80365,75.75067,74.39199
"4757",72.816956,75.5407,74.04923
"4758",72.83032,75.29412,73.6633
"4759",72.84363,75.020676,73.2428
"4760",72.856995,74.759445,72.825966
"4761",72.8703,74.62028,72.52303
"4762",72.883606,74.78874,72.523384
"4763",72.89697,75.494316,73.06611
"4764",72.91028,76.89082,74.321815
"4765",72.923645,78.96605,76.29988
"4766",72.93695,81.51736,78.81888
"4767",72.95032,84.2005,81.54944
"4768",72.96362,86.62241,84.102615
"4769",72.97699,88.45106,86.13821
"4770",72.990295,89.53994,87.49118
"4771",73.0036,89.89151,88.14088
"4772",73.01697,89.61074,88.16922
"4773",73.03027,88.85634,87.71516
"4774",73.04364,87.8114,86.946976
"4775",73.056946,86.64439,86.02406
"4776",73.07031,85.49691,85.08422
"4777",73.08362,84.44709,84.20618
"4778",73.096985,83.53643,83.43449
"4779",73.11029,82.777145,82.78571
"4780",73.1236,82.18631,82.28166
"4781",73.13696,81.778595,81.94227
"4782",73.15027,81.57351,81.79276
"4783",73.163635,81.57595,81.844376
"4784",73.17694,81.75906,82.07674
"4785",73.19031,82.0618,82.43444
"4786",73.20361,82.388954,82.82603
"4787",73.21692,82.64286,83.15459
"4788",73.230286,82.74784,83.342155
"4789",73.24359,82.650185,83.33037
"4790",73.25696,82.33036,83.09336
"4791",73.27026,81.79813,82.63395
"4792",73.28363,81.10231,81.99432
"4793",73.296936,80.29908,81.22554
"4794",73.31024,79.449455,80.38526
"4795",73.32361,78.607155,79.52576
"4796",73.336914,77.82834,78.703415
"4797",73.35028,77.14961,77.956825
"4798",73.36359,76.592964,77.311104
"4799",73.37695,76.17059,76.782265
"4800",73.39026,75.87518,76.36719
"4801",73.403625,75.69451,76.05762
"4802",73.41693,75.60662,75.83518
"4803",73.4303,75.59441,75.685684
"4804",73.4436,75.63592,75.589516
"4805",73.45697,75.70916,75.52638
"4806",73.470276,75.79462,75.47775
"4807",73.48364,75.86786,75.41958
"4808",73.49695,75.911804,75.3344
"4809",73.510315,75.92157,75.21641
"4810",73.52362,75.88983,75.05722
"4811",73.53699,75.809265,74.84821
"4812",73.55029,75.68963,74.59762
"4813",73.56366,75.528496,74.30179
"4814",73.576965,75.32586,73.95942
"4815",73.59033,75.09148,73.57897
"4816",73.60364,74.83269,73.166794
"4817",73.617004,74.564125,72.736755
"4818",73.63031,74.337074,72.339836
"4819",73.64368,74.27848,72.10428
"4820",73.65698,74.61295,72.25996
"4821",73.67035,75.577324,73.055984
"4822",73.683655,77.29122,74.631676
"4823",73.69702,79.674065,76.92987
"4824",73.71033,82.46464,79.71026
"4825",73.723694,85.25033,82.57297
"4826",73.737,87.61852,85.10523
"4827",73.75037,89.27871,87.003494
"4828",73.76367,90.13321,88.14796
"4829",73.77704,90.23331,88.56472
"4830",73.790344,89.73037,88.38158
"4831",73.80371,88.800186,87.75547
"4832",73.81702,87.63317,86.863464
"4833",73.83038,86.40513,85.87396
"4834",73.84369,85.25521,84.9242
"4835",73.857056,84.2591,84.092316
"4836",73.87036,83.43389,83.4002
"4837",73.88373,82.774704,82.84832
"4838",73.89703,82.27665,82.43697
"4839",73.9104,81.93973,82.171196
"4840",73.923706,81.77371,82.065796
"4841",73.95038,81.94949,82.35274
"4842",73.963745,82.213165,82.67733
"4843",73.97705,82.48905,83.02238
"4844",73.99042,82.68192,83.29303
"4845",74.00372,82.72343,83.41834
"4846",74.01709,82.56962,83.34964
"4847",74.030396,82.210724,83.071045
"4848",74.04376,81.668724,82.59813
"4849",74.05707,80.98512,81.966675
"4850",74.070435,80.22339,81.235725
"4851",74.08374,79.429924,80.44924
"4852",74.09711,78.65598,79.657486
"4853",74.11041,77.94064,78.90015
"4854",74.12378,77.31075,78.2059
"4855",74.137085,76.7834,77.59451
"4856",74.15045,76.3708,77.08139
"4857",74.16376,76.07538,76.67256
"4858",74.177124,75.88251,76.35705
"4859",74.19043,75.78241,76.12828
"4860",74.2038,75.75067,75.964745
"4861",74.2171,75.7702,75.85149
"4862",74.23047,75.82147,75.77058
"4863",74.243774,75.88983,75.70836
"4864",74.25714,75.95087,75.64095
"4865",74.27045,75.99237,75.55592
"4866",74.28381,76.00214,75.44045
"4867",74.29712,75.97772,75.29111
"4868",74.310486,75.90448,75.09217
"4869",74.32379,75.792175,74.85188
"4870",74.33716,75.6408,74.569016
"4871",74.350464,75.457695,74.24969
"4872",74.36383,75.245285,73.89533
"4873",74.37714,75.01579,73.51726
"4874",74.3905,74.776535,73.122246
"4875",74.40381,74.53483,72.71731
"4876",74.417175,74.33219,72.34389
"4877",74.43048,74.27848,72.11306
"4878",74.44385,74.59342,72.24921
"4879",74.45715,75.508965,72.9958
"4880",74.47052,77.1667,74.51319
"4881",74.483826,79.51293,76.77088
"4882",74.49719,82.29618,79.53891
"4883",74.5105,85.103836,82.41832
"4884",74.523865,87.5111,84.98508
"4885",74.53717,89.20546,86.914154
"4886",74.55054,90.07706,88.073425
"4887",74.56384,90.18448,88.49576
"4888",74.57721,89.6791,88.30865
"4889",74.590515,88.73914,87.671165
"4890",74.60388,87.55749,86.7626
"4891",74.61719,86.312355,85.75365
"4892",74.630554,85.14046,84.77901
"4893",74.64386,84.11261,83.9118
"4894",74.65723,83.25323,83.18093
"4895",74.67053,82.56718,82.59654
"4896",74.6839,82.054474,82.16406
"4897",74.697205,81.72732,81.90111
"4898",74.71057,81.60525,81.833015
"4899",74.72388,81.68093,81.95886
"4900",74.73724,81.92752,82.25798
"4901",74.75055,82.27177,82.66246
"4902",74.763916,82.62333,83.085014
"4903",74.77722,82.882126,83.42579
"4904",74.79059,82.97246,83.606186
"4905",74.803894,82.85771,83.58433
"4906",74.81726,82.52323,83.33915
"4907",74.83057,81.99344,82.88821
"4908",74.84393,81.31228,82.26934
"4909",74.85724,80.550545,81.548615
"4910",74.870605,79.76196,80.77724
"4911",74.88391,78.99046,79.9983
"4912",74.89728,78.27024,79.24653
"4913",74.91058,77.63058,78.55281
"4914",74.92395,77.09346,77.94165
"4915",74.937256,76.66621,77.42357
"4916",74.95062,76.36347,77.016655
"4917",74.96393,76.16815,76.707695
"4918",74.977295,76.070496,76.490295
"4919",74.9906,76.04852,76.34553
"4920",75.00397,76.07538,76.2489
"4921",75.01727,76.13641,76.187294
"4922",75.03064,76.21698,76.147125
"4923",75.043945,76.29267,76.1046
"4924",75.05731,76.35615,76.05222
"4925",75.07062,76.387886,75.97009
"4926",75.083984,76.38056,75.84989
"4927",75.09729,76.317085,75.67331
"4928",75.11066,76.19989,75.441025
"4929",75.12396,76.033875,75.15626
"4930",75.13733,75.826355,74.8248
"4931",75.150635,75.59197,74.45999
"4932",75.164,75.335625,74.065895
"4933",75.17731,75.071945,73.656456
"4934",75.190674,74.80827,73.238785
"4935",75.20398,74.58366,72.85193
"4936",75.21735,74.52018,72.619194
"4937",75.23065,74.84001,72.767784
"4938",75.24402,75.78729,73.55382
"4939",75.257324,77.486534,75.121414
"4940",75.27069,79.8645,77.42084
"4941",75.284,82.65507,80.20717
"4942",75.29736,85.44564,83.08071
"4943",75.31067,87.80652,85.61176
"4944",75.324036,89.44228,87.491486
"4945",75.33734,90.25529,88.59956
"4946",75.35071,90.31632,88.98108
"4947",75.36401,89.77432,88.76147
"4948",75.37738,88.80995,88.10255
"4949",75.390686,87.60876,87.17667
"4950",75.40405,86.34409,86.14978
"4951",75.41736,85.13069,85.13463
"4952",75.430725,84.03693,84.201195
"4953",75.44403,83.089645,83.380066
"4954",75.4574,82.31083,82.6978
"4955",75.4707,81.72488,82.18406
"4956",75.48407,81.373314,81.8864
"4957",75.497375,81.27322,81.829216
"4958",75.51074,81.42947,82.02525
"4959",75.52405,81.79324,82.4337
"4960",75.537415,82.27177,82.96826
"4961",75.55072,82.74296,83.510445
"4962",75.56409,83.09453,83.94773
"4963",75.57739,83.23857,84.18848
"4964",75.59076,83.13847,84.18958
"4965",75.604065,82.78203,83.93121
"4966",75.61743,82.20828,83.444405
"4967",75.63074,81.47097,82.7761
"4968",75.644104,80.64088,81.991974
"4969",75.65741,79.781494,81.15262
"4970",75.67078,78.941635,80.30593
"4971",75.68408,78.167694,79.49892
"4972",75.69745,77.48165,78.755615
"4973",75.710754,76.90547,78.10074
"4974",75.72412,76.4416,77.54016
"4975",75.73743,76.09247,77.079834
"4976",75.75079,75.84833,76.713585
"4977",75.7641,75.699394,76.43491
"4978",75.777466,75.631035,76.23216
"4979",75.79077,75.631035,76.095634
"4980",75.80414,75.682304,76.010376
"4981",75.817444,75.76776,75.96091
"4982",75.83081,75.862976,75.92387
"4983",75.84412,75.948425,75.880035
"4984",75.85748,75.999695,75.804695
"4985",75.87079,76.00214,75.68213
"4986",75.884155,75.945984,75.501045
"4987",75.89746,75.83612,75.264496
"4988",75.91083,75.67986,74.97812
"4989",75.92413,75.47723,74.64048
"4990",75.9375,75.23308,74.255
"4991",75.950806,74.95232,73.82527
"4992",75.96417,74.66178,73.377
"4993",75.97748,74.43473,72.98313
"4994",75.990845,74.43717,72.81166
"4995",76.00415,74.92302,73.12367
"4996",76.01752,76.11444,74.15644
"4997",76.03082,78.07248,75.99306
"4998",76.04419,80.65797,78.51831
"4999",76.057495,83.53643,81.417336
"5000",76.07086,86.275734,84.26715
"5001",76.08417,88.47059,86.65812
"5002",76.097534,89.88663,88.33887
"5003",76.11084,90.494545,89.255745
"5004",76.12421,90.37736,89.466515
"5005",76.13751,89.69131,89.10476
"5006",76.15088,88.621956,88.338264
"5007",76.164185,87.34753,87.33327
"5008",76.17755,86.012054,86.2274
"5009",76.19086,84.72541,85.12863
"5010",76.20422,83.55352,84.10441
"5011",76.21753,82.53544,83.19737
"5012",76.230896,81.705345,82.44651
"5013",76.2442,81.11696,81.911415
"5014",76.25757,80.82399,81.65335
"5015",76.270874,80.85573,81.71084
"5016",76.28424,81.18288,82.06473
"5017",76.29755,81.72732,82.64613
"5018",76.31091,82.34745,83.320244
"5019",76.32422,82.896774,83.942924
"5020",76.337585,83.26055,84.397224
"5021",76.35089,83.36553,84.604095
"5022",76.36426,83.18242,84.52615
"5023",76.37756,82.72343,84.16661
"5024",76.39093,82.04471,83.573
"5025",76.404236,81.214615,82.8068
"5026",76.4176,80.30396,81.934105
"5027",76.43091,79.38598,81.02562
"5028",76.444275,78.51438,80.134834
"5029",76.45758,77.72823,79.30226
"5030",76.47095,77.04707,78.55011
"5031",76.48425,76.48554,77.8963
"5032",76.49762,76.0412,77.34213
"5033",76.510925,75.7116,76.888824
"5034",76.52429,75.4992,76.54241
"5035",76.5376,75.39666,76.299225
"5036",76.550964,75.386894,76.14561
"5037",76.56427,75.45037,76.064926
"5038",76.57764,75.56512,76.0375
"5039",76.59094,75.69207,76.02586
"5040",76.60431,75.80438,76.003555
"5041",76.617615,75.880066,75.94813
"5042",76.63098,75.897156,75.83647
"5043",76.64429,75.843445,75.65455
"5044",76.65765,75.73113,75.412346
"5045",76.67096,75.562675,75.11049
"5046",76.684326,75.34539,74.75454
"5047",76.69763,75.08659,74.35029
"5048",76.711,74.82292,73.933075
"5049",76.724304,74.64713,73.595505
"5050",76.73767,74.75212,73.53322
"5051",76.75098,75.389336,74.00644
"5052",76.76434,76.75166,75.224686
"5053",76.77765,78.8513,77.22282
"5054",76.791016,81.48562,79.821236
"5055",76.80432,84.300606,82.68265
"5056",76.81769,86.873886,85.39032
"5057",76.83099,88.8539,87.58514
"5058",76.84436,90.06485,89.07277
"5059",76.857666,90.511635,89.83408
"5060",76.87103,90.27726,89.9282
"5061",76.88434,89.515526,89.48763
"5062",76.897705,88.39735,88.66682
"5063",76.91101,87.081406,87.6133
"5064",76.92438,85.71664,86.46982
"5065",76.93768,84.4007,85.33253
"5066",76.95105,83.19951,84.26885
"5067",76.964355,82.15213,83.32146
"5068",76.97772,81.30984,82.54642
"5069",76.99103,80.73365,82.01116
"5070",77.004395,80.48463,81.785065
"5071",77.0177,80.587166,81.90275
"5072",77.03107,81.00221,82.33614
"5073",77.04437,81.62234,82.98759
"5074",77.05774,82.29374,83.70969
"5075",77.071045,82.85527,84.342896
"5076",77.08441,83.1873,84.76415
"5077",77.09772,83.22392,84.900375
"5078",77.111084,82.950485,84.727684
"5079",77.12439,82.39384,84.26324
"5080",77.13776,81.62478,83.568985
"5081",77.15106,80.719,82.71398
"5082",77.16443,79.76196,81.77941
"5083",77.177734,78.81224,80.82225
"5084",77.1911,77.92111,79.894005
"5085",77.20441,77.13252,79.04045
"5086",77.21777,76.46113,78.27945
"5087",77.23108,75.91913,77.62686
"5088",77.244446,75.508965,77.08917
"5089",77.25775,75.23308,76.67294
"5090",77.27112,75.07683,76.36773
"5091",77.284424,75.02312,76.16017
"5092",77.29779,75.0573,76.038826
"5093",77.3111,75.15495,75.982025
"5094",77.32446,75.28191,75.95758
"5095",77.33777,75.41619,75.94442
"5096",77.351135,75.526054,75.91104
"5097",77.36444,75.59441,75.83959
"5098",77.37781,75.60174,75.70924
"5099",77.39111,75.55291,75.52297
"5100",77.40448,75.44549,75.27658
"5101",77.417786,75.27947,74.96824
"5102",77.43115,75.06462,74.60587
"5103",77.44446,74.8156,74.20262
"5104",77.457825,74.60563,73.83064
"5105",77.47113,74.600746,73.65719
"5106",77.4845,75.0573,73.945015
"5107",77.4978,76.192566,74.92583
"5108",77.51117,78.08469,76.69897
"5109",77.524475,80.601814,79.15624
"5110",77.53784,83.438774,82.01201
"5111",77.55115,86.17563,84.85632
"5112",77.564514,88.41932,87.293
"5113",77.57782,89.92569,89.06247
"5114",77.59119,90.633705,90.080666
"5115",77.60449,90.60441,90.383675
"5116",77.61786,89.96475,90.07541
"5117",77.631165,88.88808,89.310135
"5118",77.64453,87.569695,88.2695
"5119",77.65784,86.17319,87.10954
"5120",77.6712,84.805984,85.93525
"5121",77.68451,83.53887,84.81832
"5122",77.697876,82.41337,83.803406
"5123",77.71118,81.48318,82.94863
"5124",77.72455,80.82155,82.33335
"5125",77.737854,80.49683,82.03431
"5126",77.75122,80.54322,82.09622
"5127",77.76453,80.92409,82.494064
"5128",77.77789,81.53445,83.1333
"5129",77.7912,82.22049,83.867294
"5130",77.804565,82.828415,84.54461
"5131",77.81787,83.228806,85.03339
"5132",77.83124,83.33868,85.244156
"5133",77.84454,83.13603,85.14584
"5134",77.85791,82.63798,84.74579
"5135",77.871216,81.90311,84.09335
"5136",77.88458,81.01198,83.261696
"5137",77.89789,80.045166,82.32651
"5138",77.911255,79.07347,81.356224
"5139",77.92456,78.150604,80.4044
"5140",77.93793,77.31808,79.514084
"5141",77.95123,76.60761,78.71981
"5142",77.9646,76.033875,78.04006
"5143",77.977905,75.60662,77.48887
"5144",77.99127,75.31121,77.05617
"5145",78.00458,75.13786,76.7363
"5146",78.017944,75.0695,76.516
"5147",78.03125,75.08415,76.37657
"5148",78.04462,75.159836,76.29864
"5149",78.05792,75.26971,76.257256
"5150",78.07129,75.386894,76.22662
"5151",78.084595,75.48211,76.17768
"5152",78.09796,75.545586,76.099976
"5153",78.11127,75.560234,75.975426
"5154",78.12463,75.51873,75.79518
"5155",78.13794,75.40887,75.54528
"5156",78.151306,75.23552,75.22846
"5157",78.16461,75.001144,74.8452
"5158",78.17798,74.74235,74.43019
"5159",78.191284,74.54948,74.07302
"5160",78.20465,74.60807,73.96129
"5161",78.21796,75.16228,74.347
"5162",78.23132,76.40986,75.443405
"5163",78.24463,78.38987,77.311226
"5164",78.257996,80.94606,79.8171
"5165",78.2713,83.76349,82.66409
"5166",78.28467,86.42954,85.447754
"5167",78.29797,88.57069,87.78982
"5168",78.31134,89.96475,89.45172
"5169",78.324646,90.56779,90.36616
"5170",78.33801,90.45548,90.5841
"5171",78.35132,89.76456,90.21991
"5172",78.364685,88.67567,89.436165
"5173",78.37799,87.37438,88.40599
"5174",78.39136,86.012054,87.27411
"5175",78.40466,84.68391,86.133835
"5176",78.41803,83.455864,85.05216
"5177",78.431335,82.38163,84.08592
"5178",78.4447,81.51736,83.296074
"5179",78.45801,80.938736,82.76487
"5180",78.471375,80.70191,82.55738
"5181",78.48468,80.81911,82.69651
"5182",78.49805,81.23903,83.14203
"5183",78.51135,81.849396,83.791115
"5184",78.52472,82.496376,84.49589
"5185",78.538025,83.02373,85.10125
"5186",78.55139,83.319145,85.49116
"5187",78.5647,83.32647,85.6022
"5188",78.578064,83.02373,85.40341
"5189",78.59137,82.43778,84.91196
"5190",78.60474,81.63943,84.18978
"5191",78.61804,80.709236,83.31082
"5192",78.63141,79.72289,82.34664
"5193",78.644714,78.746315,81.361404
"5194",78.65808,77.83566,80.411575
"5195",78.67139,77.02754,79.53582
"5196",78.68475,76.35615,78.77154
"5197",78.69806,75.83124,78.13276
"5198",78.711426,75.45037,77.62162
"5199",78.72473,75.208664,77.23774
"5200",78.7381,75.08171,76.96106
"5201",78.7514,75.04753,76.773186
"5202",78.76477,75.07683,76.64772
"5203",78.778076,75.15251,76.56956
"5204",78.79144,75.250175,76.51574
"5205",78.80475,75.34539,76.462524
"5206",78.818115,75.41619,76.38787
"5207",78.83142,75.44549,76.273926
"5208",78.84479,75.42596,76.11207
"5209",78.85809,75.34051,75.88368
"5210",78.87146,75.194016,75.59158
"5211",78.884766,74.99138,75.23876
"5212",78.89813,74.76433,74.855194
"5213",78.91144,74.5861,74.51335
"5214",78.924805,74.62272,74.38079
"5215",78.93811,75.0988,74.688835
"5216",78.95148,76.21698,75.653854
"5217",78.96478,78.05783,77.37649
"5218",78.97815,80.50904,79.767006
"5219",78.991455,83.284966,82.55884
"5220",79.00482,85.994965,85.37149
"5221",79.01813,88.2533,87.81717
"5222",79.031494,89.80606,89.62784
"5223",79.0448,90.56046,90.68868
"5224",79.05817,90.56779,91.026024
"5225",79.07147,89.95987,90.74835
"5226",79.08484,88.91005,90.00978
"5227",79.098145,87.61608,88.99425
"5228",79.11151,86.24643,87.862595
"5229",79.12482,84.910965,86.72233
"5230",79.13818,83.67559,85.64042
"5231",79.15149,82.59403,84.67372
"5232",79.164856,81.72488,83.88563
"5233",79.17816,81.13405,83.3487
"5234",79.19153,80.87526,83.12535
"5235",79.204834,80.96559,83.243034
"5236",79.2182,81.356224,83.66384
"5237",79.23151,81.92996,84.27996
"5238",79.24487,82.53788,84.94819
"5239",79.25818,83.03349,85.52311
"5240",79.271545,83.30694,85.89135
"5241",79.28485,83.29229,85.98004
"5242",79.29822,82.97002,85.76065
"5243",79.31152,82.36698,85.25043
"5244",79.32489,81.54177,84.49918
"5245",79.338196,80.58228,83.587875
"5246",79.35156,79.569084,82.59287
"5247",79.36487,78.5803,81.59062
"5248",79.378235,77.6672,80.633156
"5249",79.39154,76.87373,79.76679
"5250",79.40491,76.21698,79.012344
"5251",79.41821,75.70428,78.381424
"5252",79.43158,75.335625,77.87853
"5253",79.444885,75.10368,77.50083
"5254",79.45825,74.986496,77.23064
"5255",79.47156,74.96208,77.04955
"5256",79.484924,75.00847,76.93851
"5257",79.49823,75.10124,76.8753
"5258",79.5116,75.208664,76.829636
"5259",79.5249,75.31121,76.782455
"5260",79.53827,75.39178,76.7165
"5261",79.551575,75.42596,76.606674
"5262",79.56494,75.3991,76.43688
"5263",79.57825,75.299,76.19301
"5264",79.59161,75.123215,75.870316
"5265",79.60492,74.89128,75.485985
"5266",79.618286,74.67643,75.11149
"5267",79.63159,74.617836,74.886536
"5268",79.64496,74.93034,75.03085
"5269",79.658264,75.82147,75.76356
"5270",79.67163,77.40841,77.21992
"5271",79.68494,79.62035,79.350876
"5272",79.6983,82.210724,81.92938
"5273",79.71161,84.805984,84.59373
"5274",79.724976,87.030136,86.96806
"5275",79.73828,88.602425,88.76004
"5276",79.75165,89.39834,89.82478
"5277",79.76495,89.444725,90.16487
"5278",79.77832,88.87099,89.886284
"5279",79.791626,87.85779,89.1503
"5280",79.80499,86.60288,88.140945
"5281",79.8183,85.26742,87.01182
"5282",79.831665,83.96857,85.87757
"5283",79.84497,82.7625,84.79552
"5284",79.85834,81.69558,83.814926
"5285",79.87164,80.816666,82.989
"5286",79.88501,80.201416,82.39927
"5287",79.898315,79.903564,82.10771
"5288",79.91168,79.94995,82.151085
"5289",79.92499,80.30152,82.50109
"5290",79.938354,80.85329,83.06228
"5291",79.95166,81.45632,83.69198
"5292",79.96503,81.9617,84.24287
"5293",79.97833,82.24979,84.592255
"5294",79.9917,82.247345,84.66012
"5295",80.005005,81.93973,84.42273
"5296",80.01837,81.35134,83.89496
"5297",80.03168,80.55543,83.14127
"5298",80.045044,79.63744,82.24065
"5299",80.05835,78.677956,81.26983
"5300",80.07172,77.73556,80.28612
"5301",80.08502,76.86885,79.34865
"5302",80.09839,76.11444,78.49639
"5303",80.111694,75.50164,77.76217
"5304",80.12506,75.04021,77.160164
"5305",80.13837,74.7277,76.692665
"5306",80.15173,74.54215,76.34236
"5307",80.16504,74.461586,76.09124
"5308",80.178406,74.4567,75.913284
"5309",80.19171,74.50309,75.786446
"5310",80.20508,74.58366,75.69524
"5311",80.21838,74.67155,75.61387
"5312",80.23175,74.74235,75.51816
"5313",80.245056,74.776535,75.38805
"5314",80.25842,74.76433,75.21261
"5315",80.27173,74.69352,74.97819
"5316",80.285095,74.56901,74.68785
"5317",80.2984,74.390785,74.33991
"5318",80.31177,74.18082,73.95466
"5319",80.32507,73.98062,73.57262
"5320",80.33844,73.89273,73.29662
"5321",80.351746,74.09537,73.30841
"5322",80.36511,74.80583,73.83436
"5323",80.37842,76.16571,75.03192
"5324",80.391785,78.16037,76.90676
"5325",80.40509,80.601814,79.29072
"5326",80.41846,83.15312,81.86083
"5327",80.43176,85.43099,84.237236
"5328",80.44513,87.11803,86.09399
"5329",80.458435,88.06287,87.26126
"5330",80.4718,88.26551,87.715866
"5331",80.48511,87.835815,87.544464
"5332",80.498474,86.95445,86.907974
"5333",80.51178,85.80209,85.97294
"5334",80.52515,84.55207,84.90423
"5335",80.53845,83.32159,83.815994
"5336",80.55182,82.178986,82.77719
"5337",80.565125,81.15846,81.82476
"5338",80.57849,80.31617,81.01867
"5339",80.5918,79.71801,80.43039
"5340",80.60516,79.42748,80.13105
"5341",80.61847,79.47875,80.16443
"5342",80.631836,79.84497,80.51436
"5343",80.64514,80.43824,81.10278
"5344",80.65851,81.109634,81.78787
"5345",80.671814,81.69802,82.410934
"5346",80.68518,82.08377,82.84975
"5347",80.69849,82.193634,83.02473
"5348",80.71185,81.99832,82.897964
"5349",80.72516,81.51736,82.47945
"5350",80.738525,80.816666,81.82617
"5351",80.75183,79.98169,81.016716
"5352",80.7652,79.08812,80.122574
"5353",80.7785,78.21652,79.22248
"5354",80.79187,77.42794,78.37817
"5355",80.805176,76.76143,77.63128
"5356",80.81854,76.23163,77.000275
"5357",80.83185,75.84589,76.49677
"5358",80.845215,75.60418,76.12525
"5359",80.85852,75.48211,75.865814
"5360",80.87189,75.457695,75.70022
"5361",80.88519,75.50164,75.60222
"5362",80.89856,75.58709,75.5471
"5363",80.911865,75.67742,75.49953
"5364",80.92523,75.75067,75.4377
"5365",80.93854,75.77753,75.331764
"5366",80.951904,75.755554,75.17784
"5367",80.96521,75.67742,74.96707
"5368",80.97858,75.5407,74.695274
"5369",80.99188,75.36004,74.37526
"5370",81.00525,75.16716,74.037384
"5371",81.018555,75.028,73.7472
"5372",81.03192,75.07683,73.640656
"5373",81.04523,75.50652,73.916504
"5374",81.05859,76.490425,74.75999
"5375",81.0719,78.08469,76.244576
"5376",81.085266,80.184326,78.28436
"5377",81.09857,82.52567,80.63147
"5378",81.11194,84.76692,82.951645
"5379",81.125244,86.571144,84.90483
"5380",81.13861,87.728386,86.26742
"5381",81.15192,88.18005,86.9606
"5382",81.16528,87.99939,87.03557
"5383",81.17859,87.325554,86.61171
"5384",81.191956,86.33189,85.84697
"5385",81.20526,85.19173,84.90468
"5386",81.21863,84.03693,83.91212
"5387",81.23193,82.94072,82.94206
"5388",81.2453,81.94949,82.04273
"5389",81.258606,81.094986,81.249146
"5390",81.27197,80.430916,80.61929
"5391",81.28528,80.02319,80.22504
"5392",81.298645,79.91821,80.12078
"5393",81.31195,80.12085,80.32086
"5394",81.32532,80.58228,80.78607
"5395",81.33862,81.19508,81.41707
"5396",81.35199,81.80789,82.06722
"5397",81.365295,82.28886,82.60468
"5398",81.37866,82.53544,82.92279
"5399",81.39197,82.50126,82.96784
"5400",81.405334,82.178986,82.72373
"5401",81.41864,81.60769,82.22053
"5402",81.43201,80.85573,81.51881
"5403",81.44531,80.0061,80.69592
"5404",81.45868,79.132065,79.822075
"5405",81.471985,78.29954,78.962425
"5406",81.48535,77.557335,78.16708
"5407",81.49866,76.94209,77.47551
"5408",81.512024,76.473335,76.911194
"5409",81.52533,76.1535,76.481155
"5410",81.5387,75.965515,76.172966
"5411",81.552,75.88495,75.966324
"5412",81.56537,75.877625,75.83041
"5413",81.578674,75.90936,75.73332
"5414",81.59204,75.95087,75.646996
"5415",81.60535,75.982605,75.5522
"5416",81.61871,75.98016,75.42422
"5417",81.63202,75.931335,75.24977
"5418",81.645386,75.826355,75.01765
"5419",81.65869,75.667656,74.72852
"5420",81.67206,75.48943,74.41492
"5421",81.68536,75.36736,74.15189
"5422",81.69873,75.46014,74.0999
"5423",81.712036,75.95575,74.45364
"5424",81.7254,77.01045,75.381966
"5425",81.73871,78.658424,76.936516
"5426",81.752075,80.782486,79.018654
"5427",81.76538,83.12138,81.382
"5428",81.77875,85.32845,83.686615
"5429",81.79205,87.096054,85.62073
"5430",81.80542,88.23132,86.977745
"5431",81.818726,88.68543,87.68909
"5432",81.83209,88.51942,87.794495
"5433",81.8454,87.8822,87.42351
"5434",81.858765,86.939804,86.72743
"5435",81.87207,85.86313,85.86762
"5436",81.88544,84.77669,84.9644
"5437",81.89874,83.74639,84.083374
"5438",81.91211,82.80888,83.26294
"5439",81.925415,81.99344,82.53527
"5440",81.93878,81.339134,81.94326
"5441",81.95209,80.90944,81.55541
"5442",81.965454,80.75075,81.42514
"5443",81.97876,80.87526,81.57311
"5444",81.99213,81.231705,81.95691
"5445",82.00543,81.722435,82.48613
"5446",82.0188,82.20584,83.02336
"5447",82.032104,82.55741,83.44386
"5448",82.04547,82.69169,83.65806
"5449",82.05878,82.55497,83.60545
"5450",82.07214,82.142365,83.27269
"5451",82.08545,81.50027,82.69754
"5452",82.098816,80.69947,81.94363
"5453",82.11212,79.823,81.08901
"5454",82.12549,78.94896,80.20944
"5455",82.138794,78.1384,79.366035
"5456",82.15216,77.42794,78.597404
"5457",82.16547,76.859085,77.94817
"5458",82.17883,76.44404,77.434975
"5459",82.19214,76.175476,77.05529
"5460",82.205505,76.0412,76.8015
"5461",82.21881,76.01434,76.65093
"5462",82.23218,76.053406,76.565445
"5463",82.24548,76.121765,76.510475
"5464",82.25885,76.19501,76.462524
"5465",82.272156,76.25361,76.40222
"5466",82.28552,76.27802,76.30956
"5467",82.29883,76.24872,76.16395
"5468",82.312195,76.15839,75.95639
"5469",82.3255,76.00214,75.68009
"5470",82.33887,75.79462,75.34764
"5471",82.35217,75.58221,75.003815
"5472",82.36554,75.50652,74.79008
"5473",82.378845,75.7702,74.91334
"5474",82.39221,76.58076,75.59171
"5475",82.40552,78.03342,76.93752
"5476",82.418884,80.076904,78.919556
"5477",82.43219,82.48661,81.331665
"5478",82.44556,84.91341,83.83617
"5479",82.45886,86.99107,86.067375
"5480",82.47223,88.46815,87.76292
"5481",82.485535,89.249405,88.80881
"5482",82.4989,89.359276,89.20772
"5483",82.51221,88.93202,89.072945
"5484",82.52557,88.131226,88.55127
"5485",82.53888,87.14244,87.81659
"5486",82.552246,86.10727,87.004616
"5487",82.56555,85.1136,86.2018
"5488",82.57892,84.19562,85.44361
"5489",82.592224,83.370415,84.74952
"5490",82.60559,82.65751,84.14194
"5491",82.6189,82.091095,83.65857
"5492",82.63226,81.72488,83.3577
"5493",82.64557,81.58816,83.27488
"5494",82.658936,81.685814,83.422165
"5495",82.67224,81.95682,83.74585
"5496",82.68561,82.29862,84.1488
"5497",82.69891,82.59159,84.5136
"5498",82.71228,82.73075,84.73375
"5499",82.725586,82.6453,84.733635
"5500",82.73895,82.30106,84.47206
"5501",82.75226,81.71755,83.96046
"5502",82.765625,80.94362,83.2402
"5503",82.77893,80.06714,82.3932
"5504",82.7923,79.15648,81.48464
"5505",82.8056,78.277565,80.57937
"5506",82.81897,77.48165,79.72963
"5507",82.832275,76.80293,78.97221
"5508",82.84564,76.25849,78.327866
"5509",82.85895,75.85809,77.81055
"5510",82.872314,75.5993,77.42232
"5511",82.88562,75.457695,77.143196
"5512",82.89899,75.41131,76.954865
"5513",82.91229,75.43572,76.835884
"5514",82.92566,75.491875,76.749405
"5515",82.938965,75.55047,76.66712
"5516",82.95233,75.58465,76.562256
"5517",82.96564,75.579765,76.419395
"5518",82.979004,75.52361,76.22511
"5519",82.99231,75.406425,75.96804
"5520",83.00568,75.23552,75.65359
"5521",83.01898,75.020676,75.289856
"5522",83.03235,74.77165,74.88523
"5523",83.045654,74.49821,74.4484
"5524",83.05902,74.24429,74.02256
"5525",83.07233,74.13443,73.732834
"5526",83.08569,74.356606,73.77171
"5527",83.099,75.11589,74.354645
"5528",83.112366,76.53681,75.62294
"5529",83.12567,78.57786,77.55576
"5530",83.13904,81.02663,79.96009
"5531",83.15234,83.53399,82.499535
"5532",83.16571,85.72396,84.79994
"5533",83.179016,87.310905,86.56576
"5534",83.19238,88.18005,87.663376
"5535",83.20569,88.360725,88.09967
"5536",83.219055,87.9823,87.98251
"5537",83.23236,87.220566,87.47023
"5538",83.24573,86.26841,86.74371
"5539",83.25903,85.28207,85.953255
"5540",83.2724,84.37385,85.2101
"5541",83.285706,83.57305,84.54598
"5542",83.29907,82.87236,83.95695
"5543",83.31238,82.262,83.43635
"5544",83.325745,81.75174,82.99677
"5545",83.33905,81.36599,82.665764
"5546",83.35242,81.13649,82.47895
"5547",83.36572,81.092545,82.47052
"5548",83.37909,81.197525,82.60964
"5549",83.392395,81.375755,82.825294
"5550",83.40576,81.529564,83.022095
"5551",83.41907,81.57839,83.11872
"5552",83.432434,81.45632,83.045975
"5553",83.44574,81.13893,82.77409
"5554",83.45911,80.63111,82.301865
"5555",83.47241,79.96948,81.65996
"5556",83.48578,79.20775,80.89727
"5557",83.499084,78.4094,80.074165
"5558",83.51245,77.63302,79.24808
"5559",83.52576,76.91524,78.45633
"5560",83.53912,76.29511,77.73981
"5561",83.55243,75.78241,77.11133
"5562",83.565796,75.386894,76.584015
"5563",83.5791,75.106125,76.15909
"5564",83.59247,74.93034,75.830376
"5565",83.605774,74.83269,75.574295
"5566",83.61914,74.78874,75.36887
"5567",83.63245,74.77409,75.191376
"5568",83.64581,74.76677,75.020744
"5569",83.65912,74.75212,74.84256
"5570",83.672485,74.72282,74.64926
"5571",83.68579,74.67643,74.437965
"5572",83.69916,74.60807,74.20325
"5573",83.72583,74.41764,73.67308
"5574",83.739136,74.30045,73.38145
"5575",83.7525,74.16861,73.071495
"5576",83.76581,74.022125,72.74278
"5577",83.779175,73.86832,72.40217
"5578",83.79248,73.69985,72.04209
"5579",83.80585,73.52895,71.67432
"5580",83.81915,73.3605,71.30364
"5581",83.83252,73.2018,70.93746
"5582",83.845825,73.06264,70.58586
"5583",83.85919,72.955215,70.26165
"5584",83.8725,72.94789,70.03418
"5585",83.885864,73.18227,70.04818
"5586",83.89917,73.85855,70.51141
"5587",83.91254,75.1281,71.58904
"5588",83.92584,77.00557,73.31427
"5589",83.93921,79.344475,75.5596
"5590",83.952515,81.84207,78.03671
"5591",83.96588,84.1297,80.381905
"5592",83.97919,85.89487,82.27612
"5593",83.99255,86.98131,83.546776
"5594",84.00586,87.396355,84.179985
"5595",84.019226,87.24742,84.26219
"5596",84.03253,86.6981,83.93935
"5597",84.0459,85.93393,83.38449
"5598",84.059204,85.11116,82.747154
"5599",84.07257,84.35432,82.15003
