"","Time..s.","PPG.trace","Preprocessed.PPG"
"46573",634.70514,77.591515,112.2482
"46574",634.71857,77.55489,112.136314
"46575",634.73175,77.51827,112.023285
"46576",634.7452,77.53536,111.96282
"46577",634.75836,77.68917,112.03961
"46578",634.7718,78.08469,112.362915
"46579",634.785,78.79759,113.01597
"46580",634.7984,79.818115,113.99892
"46581",634.8116,81.058365,115.23348
"46582",634.825,82.36698,116.57517
"46583",634.8382,83.55596,117.83812
"46584",634.8516,84.473946,118.867226
"46585",634.8648,85.04036,119.57345
"46586",634.87823,85.24544,119.936035
"46587",634.8914,85.138016,119.99253
"46588",634.90485,84.79378,119.80885
"46589",634.918,84.298164,119.46304
"46590",634.93146,83.734184,119.03338
"46591",634.94464,83.160446,118.57633
"46592",634.95807,82.61356,118.12821
"46593",634.97125,82.10574,117.702065
"46594",634.9847,81.64919,117.31132
"46595",634.99786,81.24391,116.95757
"46596",635.0113,80.89479,116.64732
"46597",635.0245,80.61646,116.39696
"46598",635.0379,80.411385,116.21114
"46599",635.0511,80.289314,116.10193
"46600",635.0645,80.24536,116.06702
"46601",635.0777,80.26246,116.09178
"46602",635.0911,80.31129,116.14881
"46603",635.1043,80.365,116.21225
"46604",635.11774,80.39918,116.257835
"46605",635.1309,80.39185,116.262985
"46606",635.14435,80.3357,116.21908
"46607",635.15753,80.22339,116.117256
"46608",635.17096,80.06958,115.97043
"46609",635.18414,79.87427,115.77729
"46610",635.1976,79.64965,115.548744
"46611",635.21075,79.415276,115.30342
"46612",635.2242,79.17845,115.048325
"46613",635.23737,78.95384,114.79804
"46614",635.2508,78.74387,114.55538
"46615",635.264,78.553444,114.3257
"46616",635.2774,78.38499,114.11204
"46617",635.2906,78.23361,113.910194
"46618",635.304,78.10422,113.7256
"46619",635.3172,77.98703,113.54917
"46620",635.3306,77.88937,113.38861
"46621",635.3438,77.80148,113.234764
"46622",635.35724,77.72335,113.08793
"46623",635.3704,77.65499,112.948425
"46624",635.38385,77.59884,112.81899
"46625",635.39703,77.55001,112.69513
"46626",635.41046,77.506065,112.57462
"46627",635.42365,77.46456,112.455185
"46628",635.4371,77.418175,112.32957
"46629",635.45026,77.36446,112.195175
"46630",635.4637,77.31075,112.059105
"46631",635.47687,77.298546,111.96286
"46632",635.4903,77.420616,112.00051
"46633",635.5035,77.77707,112.27636
"46634",635.5169,78.43626,112.86608
"46635",635.5301,79.398186,113.779144
"46636",635.5435,80.57984,114.94199
"46637",635.5567,81.81766,116.19793
"46638",635.5701,82.933395,117.37047
"46639",635.5833,83.773254,118.301994
"46640",635.59674,84.27131,118.91796
"46641",635.6099,84.420235,119.20036
"46642",635.62335,84.27619,119.19445
"46643",635.63654,83.90509,118.95698
"46644",635.64996,83.39483,118.56875
"46645",635.66315,82.82353,118.10354
"46646",635.6766,82.24979,117.61803
"46647",635.68976,81.71023,117.14877
"46648",635.7032,81.22682,116.71881
"46649",635.7164,80.80202,116.332344
"46650",635.7298,80.43824,115.99363
"46651",635.743,80.130615,115.6997
"46652",635.7564,79.888916,115.46208
"46653",635.7696,79.71801,115.287704
"46654",635.783,79.62768,115.18856
"46655",635.7962,79.605705,115.15495
"46656",635.80963,79.639885,115.17681
"46657",635.8228,79.7058,115.231476
"46658",635.83624,79.77173,115.28821
"46659",635.8494,79.81323,115.32258
"46660",635.86285,79.81323,115.31674
"46661",635.87604,79.76929,115.26696
"46662",635.88947,79.66674,115.1572
"46663",635.90265,79.520256,115.000305
"46664",635.9161,79.33715,114.80221
"46665",635.92926,79.13451,114.57885
"46666",635.9427,78.93187,114.34917
"46667",635.9559,78.73899,114.12291
"46668",635.9693,78.55833,113.90284
"46669",635.9825,78.39475,113.694214
"46670",635.9959,78.24582,113.49512
"46671",636.0091,78.11398,113.308464
"46672",636.0225,77.99924,113.13478
"46673",636.0357,77.908905,112.981926
"46674",636.04913,77.84299,112.85066
"46675",636.0623,77.79416,112.73443
"46676",636.07574,77.75021,112.62155
"46677",636.0889,77.71114,112.51218
"46678",636.10236,77.6672,112.396706
"46679",636.11554,77.61593,112.27254
"46680",636.12897,77.55245,112.13456
"46681",636.14215,77.486534,111.99216
"46682",636.1556,77.43282,111.8599
"46683",636.16876,77.44991,111.79677
"46684",636.1822,77.625694,111.89286
"46685",636.1954,78.048065,112.241035
"46686",636.2088,78.751205,112.88318
"46687",636.222,79.70092,113.79387
"46688",636.2354,80.78981,114.87341
"46689",636.2486,81.85428,115.96256
"46690",636.262,82.73075,116.89698
"46691",636.2752,83.30694,117.5585
"46692",636.28864,83.546196,117.9011
"46693",636.3018,83.47051,117.93623
"46694",636.31525,83.15068,117.72485
"46695",636.3284,82.667274,117.339905
"46696",636.34186,82.11551,116.87149
"46697",636.35504,81.55886,116.38095
"46698",636.36847,81.03883,115.90964
"46699",636.38165,80.57496,115.478226
"46700",636.3951,80.17456,115.095795
"46701",636.40826,79.83032,114.75701
"46702",636.4217,79.551994,114.47338
"46703",636.4349,79.33959,114.24698
"46704",636.4483,79.21263,114.09938
"46705",636.4615,79.17113,114.03327
"46706",636.4749,79.21019,114.04643
"46707",636.4881,79.31274,114.1243
"46708",636.5015,79.4519,114.24198
"46709",636.5147,79.59106,114.36401
"46710",636.52814,79.69848,114.45866
"46711",636.5413,79.75464,114.505394
"46712",636.55475,79.74975,114.492836
"46713",636.56793,79.68871,114.42398
"46714",636.58136,79.57641,114.30195
"46715",636.59454,79.42504,114.137344
"46716",636.608,79.25414,113.94848
"46717",636.62115,79.08324,113.754265
"46718",636.6346,78.91966,113.56204
"46719",636.64777,78.768295,113.376915
"46720",636.6612,78.63401,113.20414
"46721",636.6744,78.52415,113.05159
"46722",636.6878,78.433815,112.91514
"46723",636.701,78.36057,112.79295
"46724",636.7144,78.30198,112.68313
"46725",636.7276,78.25315,112.58124
"46726",636.741,78.21652,112.49002
"46727",636.7542,78.18234,112.40011
"46728",636.76764,78.14572,112.30669
"46729",636.7808,78.11398,112.217
"46730",636.79425,78.10666,112.15074
"46731",636.80743,78.18234,112.16726
"46732",636.82086,78.42649,112.35461
"46733",636.83405,78.91234,112.79128
"46734",636.8475,79.65942,113.50437
"46735",636.86066,80.61646,114.450775
"46736",636.8741,81.6614,115.51498
"46737",636.88727,82.63798,116.54347
"46738",636.9007,83.39727,117.3852
"46739",636.9139,83.85382,117.947914
"46740",636.9273,83.99786,118.21239
"46741",636.9405,83.86847,118.207924
"46742",636.9539,83.53155,117.99189
"46743",636.9671,83.072556,117.64326
"46744",636.9805,82.562294,117.22901
"46745",636.9937,82.05936,116.806145
"46746",637.00714,81.59304,116.40418
"46747",637.0203,81.17555,116.036476
"46748",637.03375,80.81178,115.70944
"46749",637.04694,80.50416,115.427185
"46750",637.06036,80.2478,115.186584
"46751",637.07355,80.05493,115.00146
"46752",637.087,79.93286,114.8811
"46753",637.10016,79.886475,114.83262
"46754",637.1136,79.91089,114.853485
"46755",637.1268,79.98901,114.928825
"46756",637.1402,80.096436,115.035904
"46757",637.1534,80.198975,115.14146
"46758",637.1668,80.26978,115.21848
"46759",637.18,80.29664,115.25377
"46760",637.1934,80.2649,115.2313
"46761",637.2066,80.17944,115.15412
"46762",637.22003,80.045166,115.02545
"46763",637.2332,79.88403,114.86573
"46764",637.24664,79.70336,114.681435
"46765",637.2598,79.520256,114.48906
"46766",637.27325,79.344475,114.29829
"46767",637.28644,79.19066,114.123985
"46768",637.29987,79.061264,113.9693
"46769",637.31305,78.95628,113.834984
"46770",637.3265,78.86839,113.71448
"46771",637.33966,78.79271,113.60343
"46772",637.3531,78.71946,113.492455
"46773",637.3663,78.64866,113.38164
"46774",637.3797,78.57786,113.26861
"46775",637.3929,78.51682,113.16313
"46776",637.4063,78.47532,113.07528
"46777",637.4195,78.49241,113.04472
"46778",637.4329,78.63889,113.1441
"46779",637.4461,78.99779,113.46046
"46780",637.45953,79.622795,114.054146
"46781",637.4727,80.5066,114.92616
"46782",637.48615,81.566185,116.00158
"46783",637.4993,82.65751,117.141846
"46784",637.51276,83.614555,118.18194
"46785",637.52594,84.31281,118.99315
"46786",637.53937,84.698555,119.513664
"46787",637.55255,84.77913,119.741066
"46788",637.566,84.60578,119.717064
"46789",637.57916,84.2591,119.51431
"46790",637.5926,83.81476,119.203064
"46791",637.6058,83.346,118.853516
"46792",637.6192,82.9041,118.516174
"46793",637.6324,82.52323,118.22606
"46794",637.6458,82.2034,117.98508
"46795",637.659,81.92996,117.780495
"46796",637.6724,81.67605,117.58689
"46797",637.6856,81.427025,117.39024
"46798",637.69904,81.17555,117.183365
"46799",637.7122,80.936295,116.98084
"46800",637.72565,80.723885,116.79769
"46801",637.73883,80.552986,116.649414
"46802",637.75226,80.43336,116.547066
"46803",637.76544,80.35523,116.48248
"46804",637.7789,80.31373,116.45208
"46805",637.79205,80.289314,116.43747
"46806",637.8055,80.26978,116.42698
"46807",637.81866,80.23804,116.40366
"46808",637.8321,80.17944,116.35251
"46809",637.8453,80.08179,116.26046
"46810",637.8587,79.94995,116.13118
"46811",637.8719,79.78882,115.96848
"46812",637.8853,79.605705,115.77877
"46813",637.8985,79.412834,115.57358
"46814",637.9119,79.2224,115.36479
"46815",637.9251,79.046616,115.16471
"46816",637.93854,78.88548,114.973785
"46817",637.9517,78.746315,114.79979
"46818",637.96515,78.626686,114.64098
"46819",637.97833,78.52415,114.49553
"46820",637.99176,78.44114,114.3664
"46821",638.00494,78.37034,114.24689
"46822",638.0184,78.30442,114.13004
"46823",638.03156,78.23361,114.00625
"46824",638.045,78.15793,113.87537
"46825",638.05817,78.08957,113.74944
"46826",638.0716,78.065155,113.66533
"46827",638.0848,78.16525,113.70496
"46828",638.0982,78.47288,113.95525
"46829",638.1114,79.046616,114.48127
"46830",638.1248,79.87915,115.28401
"46831",638.138,80.89723,116.29832
"46832",638.1514,81.9617,117.39082
"46833",638.1646,82.92363,118.414055
"46834",638.17804,83.65606,119.23785
"46835",638.1912,84.09308,119.789116
"46836",638.20465,84.23956,120.06351
"46837",638.21783,84.137024,120.09345
"46838",638.23126,83.861145,119.94685
"46839",638.24445,83.4876,119.69397
"46840",638.2579,83.08232,119.397675
"46841",638.27106,82.69901,119.11069
"46842",638.2845,82.3621,118.858116
"46843",638.29767,82.074005,118.64384
"46844",638.3111,81.812775,118.44742
"46845",638.3243,81.5613,118.252594
"46846",638.3377,81.29519,118.03527
"46847",638.3509,81.00954,117.79009
"46848",638.3643,80.71168,117.52378
"46849",638.3775,80.42603,117.260376
"46850",638.3909,80.17456,117.02222
"46851",638.4041,79.98169,116.8348
"46852",638.41754,79.852295,116.704834
"46853",638.4307,79.783936,116.63186
"46854",638.44415,79.75952,116.60069
"46855",638.45734,79.7522,116.58585
"46856",638.47076,79.73754,116.56345
"46857",638.48395,79.693596,116.51131
"46858",638.4974,79.60815,116.41628
"46859",638.51056,79.483635,116.279526
"46860",638.524,79.327385,116.10714
"46861",638.5372,79.149155,115.90789
"46862",638.5506,78.95628,115.68843
"46863",638.5638,78.765854,115.465385
"46864",638.5772,78.57786,115.23882
"46865",638.5904,78.397194,115.01372
"46866",638.6038,78.22873,114.795166
"46867",638.617,78.0798,114.59089
"46868",638.63043,77.95041,114.40149
"46869",638.6436,77.83566,114.222694
"46870",638.65704,77.738,114.057396
"46871",638.6702,77.65255,113.90126
"46872",638.68365,77.58419,113.759544
"46873",638.69684,77.5256,113.62546
"46874",638.71027,77.48165,113.50419
"46875",638.72345,77.44747,113.39131
"46876",638.7369,77.4255,113.28957
"46877",638.75006,77.41085,113.19447
"46878",638.7635,77.39376,113.09647
"46879",638.7767,77.37667,112.99794
"46880",638.7901,77.36202,112.90131
"46881",638.8033,77.35226,112.80911
"46882",638.8167,77.34493,112.71905
"46883",638.8299,77.34493,112.63608
"46884",638.8433,77.349815,112.55799
"46885",638.8565,77.3547,112.48006
"46886",638.86993,77.347374,112.39007
"46887",638.8831,77.330284,112.290085
"46888",638.89655,77.30343,112.1798
"46889",638.9097,77.26925,112.061356
"46890",638.92316,77.26681,111.97358
"46891",638.93634,77.36202,111.98338
"46892",638.94977,77.65743,112.19636
"46893",638.96295,78.22629,112.69201
"46894",638.9764,79.08568,113.49597
"46895",638.98956,80.181885,114.56361
"46896",639.003,81.38552,115.77293
"46897",639.0162,82.51835,116.94905
"46898",639.0296,83.42901,117.93841
"46899",639.0428,84.01984,118.63639
"46900",639.0562,84.27619,119.018364
"46901",639.0694,84.23956,119.115364
"46902",639.0828,83.9881,118.99638
"46903",639.096,83.60723,118.74014
"46904",639.10944,83.18974,118.43538
"46905",639.1226,82.794235,118.13955
"46906",639.13605,82.44999,117.88262
"46907",639.14923,82.16434,117.67353
"46908",639.16266,81.92752,117.50435
"46909",639.17584,81.71023,117.34729
"46910",639.1893,81.48318,117.17368
"46911",639.20245,81.23659,116.97344
"46912",639.2159,80.970474,116.74597
"46913",639.22906,80.70435,116.51018
"46914",639.2425,80.45533,116.283165
"46915",639.2557,80.25269,116.09476
"46916",639.2691,80.111084,115.961044
"46917",639.2823,80.025635,115.87907
"46918",639.2957,79.98657,115.840805
"46919",639.3089,79.971924,115.82574
"46920",639.3223,79.95972,115.81265
"46921",639.3355,79.92554,115.777214
"46922",639.34894,79.85718,115.70653
"46923",639.3621,79.75464,115.599525
"46924",639.37555,79.62035,115.45757
"46925",639.38873,79.466545,115.2919
"46926",639.40216,79.290764,115.09945
"46927",639.41534,79.10521,114.89173
"46928",639.4288,78.91478,114.67334
"46929",639.44196,78.73411,114.458755
"46930",639.4554,78.56565,114.25074
"46931",639.46857,78.42161,114.061874
"46932",639.482,78.29954,113.89048
"46933",639.4952,78.19699,113.734795
"46934",639.5086,78.1091,113.59056
"46935",639.5218,78.030975,113.45335
"46936",639.5352,77.96506,113.3259
"46937",639.5484,77.90646,113.20371
"46938",639.5618,77.857635,113.08946
"46939",639.575,77.81125,112.97613
"46940",639.58844,77.77219,112.86867
"46941",639.6016,77.74044,112.7673
"46942",639.61505,77.71114,112.6674
"46943",639.62823,77.68673,112.57146
"46944",639.64166,77.66964,112.48208
"46945",639.65485,77.659874,112.39949
"46946",639.6683,77.65499,112.32148
"46947",639.68146,77.65255,112.24576
"46948",639.6949,77.65011,112.16996
"46949",639.70807,77.645226,112.091644
"46950",639.7215,77.63302,112.00585
"46951",639.7347,77.608604,111.90747
"46952",639.7481,77.576866,111.801
"46953",639.7613,77.53048,111.678894
"46954",639.7747,77.471886,111.54313
"46955",639.7879,77.41085,111.40309
"46956",639.80133,77.366905,111.27824
"46957",639.8145,77.3962,111.22525
"46958",639.82794,77.591515,111.339195
"46959",639.8411,78.0383,111.71072
"46960",639.85455,78.768295,112.37941
"46961",639.86774,79.74731,113.31993
"46962",639.88116,80.86549,114.43022
"46963",639.89435,81.95682,115.54859
"46964",639.9078,82.847946,116.50087
"46965",639.92096,83.43145,117.17337
"46966",639.9344,83.68047,117.529625
"46967",639.9476,83.6292,117.59337
"46968",639.961,83.35088,117.42846
"46969",639.9742,82.93828,117.12057
"46970",639.9876,82.47196,116.74607
"46971",640.0008,82.01785,116.36921
"46972",640.0142,81.61501,116.02943
"46973",640.0274,81.2781,115.74298
"46974",640.04083,80.99977,115.50459
"46975",640.054,80.75807,115.294136
"46976",640.06744,80.5359,115.09565
"46977",640.0806,80.31861,114.89511
"46978",640.09406,80.113525,114.69998
"46979",640.10724,79.937744,114.52775
"46980",640.12067,79.81079,114.39885
"46981",640.13385,79.74731,114.32945
"46982",640.1473,79.75464,114.32889
"46983",640.16046,79.815674,114.382256
"46984",640.1739,79.91089,114.47171
"46985",640.1871,80.01099,114.56902
"46986",640.2005,80.096436,114.654816
"46987",640.2137,80.14282,114.704216
"46988",640.2271,80.1355,114.701355
"46989",640.2403,80.07202,114.64211
"46990",640.2537,79.95972,114.53206
"46991",640.2669,79.81079,114.381874
"46992",640.28033,79.63744,114.202614
"46993",640.2935,79.46166,114.0155
"46994",640.30695,79.29565,113.832664
"46995",640.3201,79.14671,113.66172
"46996",640.33356,79.012436,113.50078
"46997",640.34674,78.890366,113.34785
"46998",640.36017,78.785385,113.20819
"46999",640.37335,78.70237,113.08722
"47000",640.3868,78.63645,112.98075
"47001",640.39996,78.58518,112.88687
"47002",640.4134,78.54856,112.80604
"47003",640.4266,78.52415,112.73627
"47004",640.44,78.49973,112.66573
"47005",640.4532,78.47776,112.59688
"47006",640.4666,78.46067,112.53222
"47007",640.4798,78.450905,112.47435
"47008",640.4932,78.44114,112.416176
"47009",640.5064,78.43137,112.3577
"47010",640.51984,78.416725,112.29403
"47011",640.533,78.39475,112.22258
"47012",640.54645,78.365456,112.14312
"47013",640.55963,78.32395,112.05054
"47014",640.57306,78.27024,111.94445
"47015",640.58624,78.21652,111.83668
"47016",640.5997,78.19211,111.75653
"47017",640.61285,78.25803,111.76596
"47018",640.6263,78.49973,111.953224
"47019",640.63947,78.99046,112.39707
"47020",640.6529,79.73266,113.10772
"47021",640.6661,80.66773,114.03444
"47022",640.6795,81.67605,115.06362
"47023",640.6927,82.61112,116.05107
"47024",640.7061,83.32891,116.85046
"47025",640.7193,83.75372,117.379295
"47026",640.7327,83.88312,117.62599
"47027",640.7459,83.758606,117.622826
"47028",640.75934,83.44854,117.430214
"47029",640.7725,83.03105,117.12049
"47030",640.78595,82.57694,116.7611
"47031",640.79913,82.144806,116.40949
"47032",640.81256,81.76395,116.09566
"47033",640.82574,81.444115,115.83095
"47034",640.8392,81.180435,115.6124
"47035",640.85236,80.953384,115.42223
"47036",640.8658,80.73853,115.237175
"47037",640.87897,80.5359,115.05762
"47038",640.8924,80.34547,114.883934
"47039",640.9056,80.19165,114.74091
"47040",640.919,80.08179,114.63704
"47041",640.9322,80.03052,114.588326
"47042",640.9456,80.03296,114.59172
"47043",640.9588,80.0647,114.62449
"47044",640.9722,80.09888,114.66069
"47045",640.9854,80.11841,114.68331
"47046",640.99884,80.10376,114.67236
"47047",641.012,80.04028,114.61213
"47048",641.02545,79.9353,114.50841
"47049",641.03864,79.798584,114.36967
"47050",641.05206,79.63744,114.20223
"47051",641.06525,79.46899,114.022446
"47052",641.0787,79.29809,113.83495
"47053",641.09186,79.13695,113.65188
"47054",641.1053,78.98802,113.47598
"47055",641.11847,78.856186,113.31252
"47056",641.1319,78.73411,113.1547
"47057",641.1451,78.626686,113.00772
"47058",641.1585,78.52903,112.86715
"47059",641.1717,78.44602,112.738174
"47060",641.1851,78.37522,112.61881
"47061",641.1983,78.31663,112.509445
"47062",641.21173,78.27024,112.41045
"47063",641.2249,78.23605,112.32221
"47064",641.23834,78.204315,112.23535
"47065",641.2515,78.17258,112.1475
"47066",641.26495,78.14572,112.06354
"47067",641.27814,78.12863,111.9885
"47068",641.29156,78.118866,111.92026
"47069",641.30475,78.11398,111.85659
"47070",641.3182,78.11398,111.79765
"47071",641.33136,78.11154,111.736275
"47072",641.3448,78.09689,111.66261
"47073",641.358,78.07004,111.57629
"47074",641.3714,78.02609,111.47203
"47075",641.3846,77.96994,111.354195
"47076",641.398,77.89914,111.219955
"47077",641.4112,77.8259,111.08106
"47078",641.4246,77.77707,110.964294
"47079",641.4378,77.83078,110.94854
"47080",641.45123,78.07492,111.12489
"47081",641.4644,78.58762,111.57744
"47082",641.47784,79.38842,112.3341
"47083",641.491,80.42603,113.3526
"47084",641.50446,81.57595,114.51583
"47085",641.51764,82.67216,115.661285
"47086",641.53107,83.55352,116.62615
"47087",641.54425,84.139465,117.32314
"47088",641.5577,84.403145,117.71618
"47089",641.57086,84.38117,117.8318
"47090",641.5843,84.14435,117.73189
"47091",641.5975,83.7879,117.50495
"47092",641.6109,83.389946,117.225365
"47093",641.6241,83.00664,116.94799
"47094",641.6375,82.669716,116.705025
"47095",641.6507,82.391396,116.51013
"47096",641.6641,82.16678,116.360245
"47097",641.6773,81.98367,116.24485
"47098",641.69073,81.812775,116.13594
"47099",641.7039,81.636986,116.0168
"47100",641.71735,81.444115,115.875084
"47101",641.7305,81.23659,115.712685
"47102",641.74396,81.03151,115.54625
"47103",641.75714,80.84352,115.390495
"47104",641.77057,80.69947,115.272804
"47105",641.78375,80.59449,115.18968
"47106",641.7972,80.51881,115.132576
"47107",641.81036,80.46021,115.090195
"47108",641.8238,80.4065,115.050865
"47109",641.837,80.33082,114.987885
"47110",641.8504,80.23804,114.90544
"47111",641.8636,80.12329,114.798134
"47112",641.877,79.98657,114.66527
"47113",641.8902,79.83765,114.51592
"47114",641.9036,79.676506,114.34971
"47115",641.9168,79.51049,114.173584
"47116",641.93024,79.34936,113.997154
"47117",641.9434,79.200424,113.82789
"47118",641.95685,79.07347,113.67595
"47119",641.97003,78.97337,113.5469
"47120",641.98346,78.89769,113.43913
"47121",641.99664,78.84154,113.34853
"47122",642.0101,78.79759,113.26839
"47123",642.02325,78.75853,113.19175
"47124",642.0367,78.72434,113.11877
"47125",642.04987,78.695045,113.04961
"47126",642.0633,78.675514,112.989296
"47127",642.0765,78.66331,112.9357
"47128",642.0899,78.65598,112.886604
"47129",642.1031,78.64866,112.83728
"47130",642.1165,78.63889,112.785286
"47131",642.1297,78.626686,112.730545
"47132",642.1431,78.61204,112.67298
"47133",642.1563,78.59739,112.61496
"47134",642.16974,78.5803,112.55404
"47135",642.1829,78.553444,112.48282
"47136",642.19635,78.51682,112.40099
"47137",642.20953,78.46555,112.303375
"47138",642.22296,78.40208,112.19195
"47139",642.23615,78.3386,112.07854
"47140",642.2496,78.29954,111.98756
"47141",642.26276,78.35813,111.99301
"47142",642.2762,78.60471,112.188286
"47143",642.28937,79.114975,112.654945
"47144",642.3028,79.89868,113.410995
"47145",642.316,80.90456,114.413704
"47146",642.3294,82.00809,115.5455
"47147",642.3426,83.038376,116.63854
"47148",642.356,83.85138,117.54649
"47149",642.3692,84.36652,118.18199
"47150",642.3826,84.5716,118.52352
"47151",642.3958,84.505684,118.600464
"47152",642.40924,84.23224,118.46782
"47153",642.4224,83.82941,118.19724
"47154",642.43585,83.37774,117.86524
"47155",642.44904,82.92851,117.52157
"47156",642.46246,82.51835,117.20292
"47157",642.47565,82.161896,116.92516
"47158",642.4891,81.864044,116.69487
"47159",642.50226,81.60769,116.496765
"47160",642.5157,81.38064,116.319954
"47161",642.5289,81.16823,116.15069
"47162",642.5423,80.96803,115.987
"47163",642.5555,80.7776,115.82682
"47164",642.5689,80.604256,115.67777
"47165",642.5821,80.46021,115.55261
"47166",642.5955,80.35767,115.464455
"47167",642.6087,80.29664,115.4146
"47168",642.62213,80.26978,115.39701
"47169",642.6353,80.255135,115.39079
"47170",642.64874,80.235596,115.37923
"47171",642.6619,80.19409,115.345085
"47172",642.67535,80.11597,115.273026
"47173",642.68854,80.00366,115.164345
"47174",642.70197,79.85962,115.02042
"47175",642.71515,79.69604,114.85245
"47176",642.7286,79.517815,114.66473
"47177",642.74176,79.33471,114.46655
"47178",642.7552,79.16136,114.272415
"47179",642.7684,79.00267,114.08752
"47180",642.7818,78.856186,113.90987
"47181",642.795,78.72434,113.74228
"47182",642.8084,78.607155,113.58523
"47183",642.8216,78.49485,113.4294
"47184",642.835,78.38743,113.27494
"47185",642.8482,78.294655,113.131775
"47186",642.86163,78.21652,113.00035
"47187",642.8748,78.15549,112.88358
"47188",642.88824,78.10666,112.777115
"47189",642.9014,78.0676,112.67889
"47190",642.91486,78.03342,112.58432
"47191",642.92804,77.99924,112.488686
"47192",642.94147,77.960175,112.3871
"47193",642.95465,77.91867,112.28185
"47194",642.9681,77.86496,112.1631
"47195",642.98126,77.81369,112.04511
"47196",642.9947,77.79172,111.95482
"47197",643.0079,77.872284,111.96638
"47198",643.0213,78.14328,112.17088
"47199",643.0345,78.675514,112.645096
"47200",643.0479,79.46899,113.39718
"47201",643.0611,80.45533,114.36693
"47202",643.0745,81.50515,115.43098
"47203",643.0877,82.46464,116.4375
"47204",643.10114,83.192184,117.242065
"47205",643.1143,83.62432,117.77396
"47206",643.12775,83.758606,118.0215
"47207",643.1409,83.631645,118.01199
"47208",643.15436,83.31182,117.80566
"47209",643.16754,82.87724,117.47457
"47210",643.18097,82.39872,117.08596
"47211",643.19415,81.934845,116.697044
"47212",643.2076,81.52224,116.3449
"47213",643.22076,81.17311,116.04334
"47214",643.2342,80.88014,115.78703
"47215",643.2474,80.62867,115.563065
"47216",643.2608,80.4065,115.36054
"47217",643.274,80.198975,115.16572
"47218",643.2874,80.02075,114.99371
"47219",643.3006,79.886475,114.860085
"47220",643.314,79.80347,114.77353
"47221",643.3272,79.77661,114.74053
"47222",643.34064,79.79614,114.75308
"47223",643.3538,79.84741,114.79798
"47224",643.36725,79.90112,114.846924
"47225",643.38043,79.9353,114.87801
"47226",643.39386,79.93286,114.87355
"47227",643.40704,79.88403,114.822624
"47228",643.4205,79.78638,114.721344
"47229",643.43365,79.64965,114.57794
"47230",643.4471,79.483635,114.40098
"47231",643.46027,79.30053,114.20174
"47232",643.4737,79.11742,113.996765
"47233",643.4869,78.941635,113.7934
"47234",643.5003,78.77806,113.596756
"47235",643.5135,78.62913,113.40964
"47236",643.5269,78.49485,113.23252
"47237",643.5401,78.37766,113.0683
"47238",643.5535,78.277565,112.9175
"47239",643.5667,78.18967,112.77578
"47240",643.58014,78.11398,112.643524
"47241",643.5933,78.05295,112.52355
"47242",643.60675,77.996796,112.406555
"47243",643.61993,77.95041,112.29757
"47244",643.63336,77.90646,112.189575
"47245",643.64655,77.86496,112.08265
"47246",643.66,77.823456,111.97443
"47247",643.67316,77.80148,111.88444
"47248",643.6866,77.84787,111.86212
"47249",643.69977,78.05051,111.997505
"47250",643.7132,78.4802,112.36628
"47251",643.7264,79.168686,113.00727
"47252",643.7398,80.08179,113.894394
"47253",643.753,81.10719,114.922356
"47254",643.7664,82.08865,115.938416
"47255",643.7796,82.87724,116.792274
"47256",643.793,83.37774,117.38268
"47257",643.8062,83.56573,117.67622
"47258",643.81964,83.47295,117.69488
"47259",643.8328,83.16777,117.49822
"47260",643.84625,82.72587,117.15531
"47261",643.85944,82.22537,116.74
"47262",643.87286,81.7322,116.31637
"47263",643.88605,81.2781,115.9164
"47264",643.8995,80.88258,115.56082
"47265",643.91266,80.5481,115.25392
"47266",643.9261,80.26246,114.985405
"47267",643.9393,80.02075,114.7519
"47268",643.9527,79.82544,114.557236
"47269",643.9659,79.693596,114.41994
"47270",643.9793,79.62768,114.344444
"47271",643.9925,79.63012,114.33525
"47272",644.0059,79.693596,114.38717
"47273",644.0191,79.7937,114.4777
"47274",644.03253,79.903564,114.581116
"47275",644.0457,79.99878,114.67332
"47276",644.05914,80.05249,114.72699
"47277",644.0723,80.05493,114.73107
"47278",644.08575,80.008545,114.6864
"47279",644.09894,79.91577,114.593895
"47280",644.11237,79.78882,114.46431
"47281",644.12555,79.63744,114.306335
"47282",644.139,79.46899,114.12655
"47283",644.15216,79.293205,113.93417
"47284",644.1656,79.114975,113.73386
"47285",644.1788,78.94408,113.5353
"47286",644.1922,78.79515,113.35338
"47287",644.2054,78.66331,113.18388
"47288",644.2188,78.551,113.02981
"47289",644.232,78.45335,112.88687
"47290",644.2454,78.35813,112.743324
"47291",644.2586,78.2678,112.601685
"47292",644.27203,78.1799,112.459656
"47293",644.2852,78.09201,112.31489
"47294",644.29865,78.030975,112.19423
"47295",644.3118,78.06027,112.161995
"47296",644.32526,78.26292,112.30402
"47297",644.33844,78.71946,112.70628
"47298",644.35187,79.44457,113.39138
"47299",644.36505,80.394295,114.323746
"47300",644.3785,81.446556,115.38833
"47301",644.39166,82.442665,116.42964
"47302",644.4051,83.23369,117.297
"47303",644.4183,83.73174,117.8961
"47304",644.4317,83.914856,118.19583
"47305",644.4449,83.82208,118.225395
"47306",644.4583,83.51934,118.04209
"47307",644.4715,83.087204,117.71993
"47308",644.4849,82.598915,117.32812
"47309",644.4981,82.11551,116.92593
"47310",644.51154,81.668724,116.54525
"47311",644.5247,81.27566,116.20433
"47312",644.53815,80.93141,115.89995
"47313",644.55133,80.63355,115.631195
"47314",644.56476,80.37232,115.38976
"47315",644.57794,80.15015,115.17922
"47316",644.5914,79.96704,115.00081
"47317",644.60455,79.83276,114.8655
"47318",644.618,79.7522,114.77971
"47319",644.63116,79.725334,114.7451
"47320",644.6446,79.74731,114.75849
"47321",644.6578,79.7937,114.79699
"47322",644.6712,79.84985,114.846695
"47323",644.6844,79.89136,114.88351
"47324",644.6978,79.89868,114.887436
"47325",644.711,79.85718,114.842766
"47326",644.7244,79.76929,114.75041
"47327",644.7376,79.63744,114.61136
"47328",644.75104,79.47631,114.438896
"47329",644.7642,79.29565,114.24187
"47330",644.77765,79.114975,114.039185
"47331",644.79083,78.94408,113.84063
"47332",644.80426,78.78294,113.6465
"47333",644.81744,78.643776,113.4693
"47334",644.8309,78.521706,113.30485
"47335",644.84406,78.42161,113.158554
"47336",644.8575,78.3386,113.02622
"47337",644.87067,78.27512,112.91083
"47338",644.8841,78.21164,112.79344
"47339",644.8973,78.14572,112.67164
"47340",644.9107,78.07492,112.54289
"47341",644.9239,78.01877,112.42658
"47342",644.9373,78.011444,112.357346
"47343",644.9505,78.14328,112.42704
"47344",644.9639,78.50706,112.732796
"47345",644.9771,79.15892,113.338005
"47346",644.99054,80.08423,114.23703
"47347",645.0037,81.20241,115.35784
"47348",645.01715,82.36454,116.55755
"47349",645.03033,83.39483,117.66173
"47350",645.04376,84.159,118.53198
"47351",645.05695,84.6009,119.10385
"47352",645.0704,84.72785,119.37458
"47353",645.08356,84.59113,119.385605
"47354",645.097,84.26887,119.20681
"47355",645.11017,83.844055,118.9154
"47356",645.1236,83.389946,118.58141
"47357",645.1368,82.95537,118.25277
"47358",645.1502,82.56962,117.95937
"47359",645.1634,82.24002,117.710075
"47360",645.1768,81.95438,117.49443
"47361",645.19,81.70046,117.30159
"47362",645.2034,81.461205,117.11547
"47363",645.2166,81.22682,116.92675
"47364",645.23004,80.99245,116.73071
"47365",645.2432,80.77516,116.54444
"47366",645.25665,80.587166,116.38067
"47367",645.26984,80.43824,116.25009
"47368",645.28326,80.33082,116.156364
"47369",645.29645,80.26978,116.10567
"47370",645.3099,80.235596,116.07991
"47371",645.32306,80.20874,116.06042
"47372",645.3365,80.17212,116.03032
"47373",645.3497,80.11597,115.979546
"47374",645.3631,80.025635,115.89284
"47375",645.3763,79.903564,115.77157
"47376",645.3897,79.74731,115.6123
"47377",645.4029,79.56664,115.42374
"47378",645.4163,79.37133,115.21488
"47379",645.4295,79.17113,114.99503
"47380",645.44293,78.97826,114.77626
"47381",645.4561,78.80003,114.56611
"47382",645.46954,78.63645,114.36503
"47383",645.4827,78.487526,114.17349
"47384",645.49615,78.35569,113.99439
"47385",645.50934,78.23361,113.82093
"47386",645.52277,78.12375,113.65587
"47387",645.53595,78.030975,113.50446
"47388",645.5494,77.95285,113.36481
"47389",645.56256,77.87717,113.22515
"47390",645.576,77.803925,113.08557
"47391",645.5892,77.730675,112.943695
"47392",645.6026,77.662315,112.80442
"47393",645.6158,77.63058,112.69963
"47394",645.6292,77.70382,112.69883
"47395",645.6424,77.98459,112.907845
"47396",645.6558,78.54612,113.406395
"47397",645.669,79.40063,114.21547
"47398",645.68243,80.49439,115.290504
"47399",645.6956,81.69314,116.5047
"47400",645.70905,82.82353,117.688
"47401",645.7222,83.7293,118.68201
"47402",645.73566,84.32014,119.38938
"47403",645.74884,84.58625,119.7905
"47404",645.76227,84.56184,119.9094
"47405",645.77545,84.317696,119.807816
"47406",645.7889,83.931946,119.55699
"47407",645.80206,83.4876,119.23552
"47408",645.8155,83.04082,118.89772
"47409",645.8287,82.63554,118.58746
"47410",645.8421,82.28886,118.32314
"47411",645.8553,81.986115,118.09193
"47412",645.8687,81.71999,117.88787
"47413",645.8819,81.46609,117.68771
"47414",645.8953,81.214615,117.482056
"47415",645.9085,80.96559,117.27099
"47416",645.92194,80.72877,117.06434
"47417",645.9351,80.52369,116.882034
"47418",645.94855,80.35767,116.73238
"47419",645.96173,80.24048,116.626366
"47420",645.97516,80.16235,116.555756
"47421",645.98834,80.11841,116.516884
"47422",646.0018,80.08667,116.488846
"47423",646.01495,80.05249,116.457375
"47424",646.0284,79.99634,116.40286
"47425",646.04156,79.91089,116.3173
"47426",646.055,79.78882,116.192444
"47427",646.0682,79.63256,116.02959
"47428",646.0816,79.447014,115.83256
"47429",646.0948,79.23949,115.60775
"47430",646.1082,79.02464,115.36914
"47431",646.1214,78.80492,115.118935
"47432",646.1348,78.59495,114.87162
"47433",646.148,78.397194,114.62996
"47434",646.16144,78.21652,114.3992
"47435",646.1746,78.05539,114.182335
"47436",646.18805,77.91379,113.979965
"47437",646.20123,77.79172,113.7927
"47438",646.21466,77.69405,113.62603
"47439",646.22784,77.60616,113.46608
"47440",646.2413,77.52804,113.31315
"47441",646.25446,77.45724,113.1651
"47442",646.2679,77.3962,113.024605
"47443",646.28107,77.34249,112.88953
"47444",646.2945,77.30343,112.76742
"47445",646.3077,77.27413,112.653854
"47446",646.3211,77.242386,112.53693
"47447",646.3343,77.19844,112.40681
"47448",646.3477,77.13985,112.260666
"47449",646.3609,77.06416,112.095604
"47450",646.3743,76.99336,111.93306
"47451",646.3875,76.978714,111.824455
"47452",646.40094,77.12276,111.874084
"47453",646.4141,77.5256,112.18701
"47454",646.42755,78.25315,112.83724
"47455",646.44073,79.28832,113.817825
"47456",646.45416,80.52857,115.035835
"47457",646.46735,81.80545,116.32923
"47458",646.4808,82.930954,117.511154
"47459",646.49396,83.758606,118.4304
"47460",646.5074,84.227356,119.0166
"47461",646.52057,84.35432,119.275665
"47462",646.534,84.20294,119.26036
"47463",646.5472,83.85138,119.04014
"47464",646.5606,83.389946,118.69906
"47465",646.5738,82.89189,118.30694
"47466",646.5872,82.41093,117.91634
"47467",646.6004,81.97879,117.55955
"47468",646.61383,81.61013,117.25272
"47469",646.627,81.30007,116.99298
"47470",646.64044,81.03639,116.76993
"47471",646.6536,80.797134,116.56306
"47472",646.66705,80.570076,116.36091
"47473",646.68024,80.360115,116.16876
"47474",646.69366,80.16968,115.98958
"47475",646.70685,80.0061,115.83131
"47476",646.7203,79.87915,115.704544
"47477",646.73346,79.78638,115.607994
"47478",646.7469,79.71801,115.53295
"47479",646.7601,79.66918,115.47531
"47480",646.7735,79.622795,115.41859
"47481",646.7867,79.571526,115.35553
"47482",646.8001,79.51049,115.281105
"47483",646.8133,79.429924,115.18524
"47484",646.8267,79.32494,115.06245
"47485",646.8399,79.200424,114.91683
"47486",646.85333,79.0515,114.74292
"47487",646.8665,78.88548,114.547264
"47488",646.87994,78.709694,114.33665
"47489",646.90656,78.36057,113.90139
"47490",646.91974,78.19943,113.68902
"47491",646.93317,78.05295,113.48627
"47492",646.94635,77.92111,113.29359
"47493",646.9598,77.803925,113.111435
"47494",646.97296,77.70382,112.9427
"47495",646.9864,77.62325,112.79038
"47496",646.9996,77.55245,112.64531
"47497",647.013,77.4963,112.51267
"47498",647.0262,77.44991,112.38805
"47499",647.0396,77.40841,112.26685
"47500",647.0528,77.37423,112.15169
"47501",647.0662,77.347374,112.04278
"47502",647.0794,77.32296,111.93547
"47503",647.09283,77.30343,111.83228
"47504",647.106,77.2839,111.728485
"47505",647.11945,77.25704,111.61675
"47506",647.1326,77.23262,111.506615
"47507",647.14606,77.19844,111.385956
"47508",647.15924,77.15694,111.256905
"47509",647.17267,77.120316,111.13144
"47510",647.18585,77.13252,111.05366
"47511",647.1993,77.27169,111.10322
"47512",647.21246,77.642784,111.38905
"47513",647.2259,78.32639,111.999
"47514",647.2391,79.32494,112.94525
"47515",647.2525,80.552986,114.1522
"47516",647.2657,81.85672,115.47321
"47517",647.2791,83.04082,116.71533
"47518",647.2923,83.94415,117.71369
"47519",647.3057,84.488594,118.381386
"47520",647.3189,84.66926,118.70232
"47521",647.33234,84.53742,118.71639
"47522",647.3455,84.17609,118.49685
"47523",647.35895,83.67559,118.126854
"47524",647.37213,83.11406,117.68018
"47525",647.38556,82.55741,117.22085
"47526",647.39874,82.04959,116.792946
"47527",647.4122,81.60769,116.41509
"47528",647.42535,81.22926,116.08691
"47529",647.4388,80.907,115.803055
"47530",647.45197,80.62379,115.54819
"47531",647.4654,80.36988,115.313774
"47532",647.4786,80.15259,115.10804
"47533",647.492,79.98413,114.94435
"47534",647.5052,79.87915,114.838875
"47535",647.5186,79.83032,114.78627
"47536",647.5318,79.83765,114.78829
"47537",647.5452,79.87671,114.82228
"47538",647.5584,79.92554,114.867256
"47539",647.57184,79.957275,114.89667
"47540",647.585,79.957275,114.89533
"47541",647.59845,79.91821,114.854935
"47542",647.61163,79.835205,114.76937
"47543",647.62506,79.710686,114.6397
"47544",647.63824,79.55932,114.479294
"47545",647.6517,79.39086,114.297066
"47546",647.66486,79.219955,114.107124
"47547",647.6783,79.05394,113.91673
"47548",647.69147,78.89769,113.73092
"47549",647.7049,78.75365,113.55243
"47550",647.7181,78.61936,113.379196
"47551",647.7315,78.49485,113.21154
"47552",647.7447,78.37766,113.04732
"47553",647.7581,78.2678,112.88676
"47554",647.7713,78.16037,112.7252
"47555",647.7847,78.05783,112.56517
"47556",647.7979,77.960175,112.40682
"47557",647.81134,77.872284,112.25519
"47558",647.8245,77.7966,112.113014
"47559",647.83795,77.733116,111.980675
"47560",647.85114,77.679405,111.856125
"47561",647.86456,77.63546,111.73966
"47562",647.87775,77.59884,111.62915
"47563",647.8912,77.57198,111.52726
"47564",647.90436,77.55001,111.42941
"47565",647.9178,77.53292,111.33576
"47566",647.93097,77.52071,111.24646
"47567",647.9444,77.503624,111.15189
"47568",647.9576,77.47921,111.04947
"47569",647.971,77.44991,110.9414
"47570",647.9842,77.44015,110.851944
"47571",647.9976,77.5256,110.8574
"47572",648.0108,77.81613,111.07061
"47573",648.02423,78.40208,111.58831
"47574",648.0374,79.30785,112.44415
"47575",648.05084,80.479744,113.59441
"47576",648.064,81.77127,114.90093
"47577",648.07745,82.98955,116.17456
"47578",648.09064,83.966125,117.24456
"47579",648.10406,84.6009,118.00327
"47580",648.11725,84.87923,118.42538
"47581",648.1307,84.842606,118.54123
"47582",648.14386,84.55451,118.404465
"47583",648.1573,84.102844,118.09512
"47584",648.1705,83.56573,117.68622
"47585",648.1839,83.00664,117.238556
"47586",648.1971,82.4744,116.80028
"47587",648.2105,81.99344,116.39664
"47588",648.2237,81.57595,116.04144
"47589",648.2371,81.214615,115.729355
"47590",648.2503,80.907,115.459694
"47591",648.26373,80.6482,115.22924
"47592",648.2769,80.445564,115.04686
"47593",648.29034,80.30396,114.91918
"47594",648.3035,80.233154,114.85787
"47595",648.31696,80.22095,114.85295
"47596",648.33014,80.255135,114.89404
"47597",648.34357,80.31373,114.96061
"47598",648.35675,80.36744,115.024124
"47599",648.3702,80.394295,115.06246
"47600",648.38336,80.377205,115.05769
"47601",648.3968,80.31129,115.00356
"47602",648.41,80.19653,114.89854
"47603",648.4234,80.03784,114.74599
"47604",648.4366,79.852295,114.56162
"47605",648.45,79.656975,114.36169
"47606",648.4632,79.4641,114.1581
"47607",648.4766,79.281,113.958244
"47608",648.4898,79.10765,113.76243
"47609",648.50323,78.94652,113.57341
"47610",648.5164,78.79027,113.38424
"47611",648.52985,78.64622,113.202385
"47612",648.543,78.51194,113.0258
"47613",648.55646,78.39475,112.862114
"47614",648.56964,78.29221,112.70941
"47615",648.58307,78.19455,112.55838
"47616",648.59625,78.11398,112.421394
"47617",648.6097,78.04074,112.289215
"47618",648.62286,77.98215,112.169395
"47619",648.6363,77.9382,112.06239
"47620",648.6495,77.90158,111.96134
"47621",648.6629,77.8674,111.86159
"47622",648.6761,77.83566,111.76321
"47623",648.6895,77.80881,111.66872
"47624",648.7027,77.78439,111.57583
"47625",648.7161,77.7673,111.4895
"47626",648.7293,77.75998,111.41241
"47627",648.74274,77.752655,111.33508
"47628",648.7559,77.74288,111.25508
"47629",648.76935,77.733116,111.17478
"47630",648.78253,77.76242,111.13325
"47631",648.79596,77.92111,111.222015
"47632",648.80914,78.31663,111.55257
"47633",648.8226,79.03441,112.21774
"47634",648.83575,80.06958,113.22274
"47635",648.8492,81.33425,114.489586
"47636",648.86237,82.65995,115.85698
"47637",648.8758,83.85382,117.13397
"47638",648.889,84.7596,118.16018
"47639",648.9024,85.30648,118.8558
"47640",648.9156,85.49447,119.20961
"47641",648.929,85.37484,119.26168
"47642",648.9422,85.015945,119.07075
"47643",648.9556,84.5008,118.71235
"47644",648.9688,83.90021,118.2524
"47645",648.98224,83.284966,117.75904
"47646",648.9954,82.69901,117.27574
"47647",649.00885,82.17166,116.83273
"47648",649.02203,81.70779,116.43672
"47649",649.03546,81.31472,116.09702
"47650",649.04865,80.990005,115.81339
"47651",649.0621,80.73609,115.590416
"47652",649.07526,80.55787,115.435196
"47653",649.0887,80.45777,115.35253
"47654",649.10187,80.428474,115.33754
"47655",649.1153,80.45777,115.380226
"47656",649.1285,80.51881,115.45557
"47657",649.1419,80.584724,115.5377
"47658",649.1551,80.63355,115.6048
"47659",649.1685,80.638435,115.62948
"47660",649.1817,80.59449,115.605484
"47661",649.1951,80.50172,115.53129
"47662",649.2083,80.36256,115.40781
"47663",649.22174,80.18921,115.24579
"47664",649.2349,79.991455,115.05395
"47665",649.24835,79.78638,114.8486
"47666",649.26154,79.58373,114.63928
"47667",649.27496,79.39086,114.4334
"47668",649.28815,79.21507,114.23858
"47669",649.3016,79.05394,114.05292
"47670",649.31476,78.9099,113.87931
"47671",649.3282,78.7805,113.71585
"47672",649.3414,78.660866,113.558105
"47673",649.3548,78.551,113.406395
"47674",649.368,78.45335,113.26346
"47675",649.3814,78.37034,113.13212
"47676",649.3946,78.2971,113.00795
"47677",649.408,78.23361,112.89125
"47678",649.4212,78.17746,112.7799
"47679",649.43463,78.12619,112.67168
"47680",649.4478,78.07736,112.56429
"47681",649.46124,78.030975,112.457825
"47682",649.4744,77.98703,112.35235
"47683",649.48785,77.93576,112.238174
"47684",649.50104,77.87717,112.115074
"47685",649.51447,77.82834,111.99991
"47686",649.52765,77.84299,111.94669
"47687",649.5411,78.01633,112.05263
"47688",649.55426,78.45579,112.4301
"47689",649.5677,79.217514,113.14357
"47690",649.5809,80.26978,114.17139
"47691",649.5943,81.497826,115.40786
"47692",649.6075,82.738075,116.694916
"47693",649.6209,83.809875,117.85228
"47694",649.6341,84.58137,118.74283
"47695",649.6475,85.00618,119.31081
"47696",649.6607,85.10628,119.567345
"47697",649.67413,84.93294,119.55357
"47698",649.6873,84.55695,119.33174
"47699",649.70074,84.0589,118.97609
"47700",649.7139,83.509575,118.553604
"47701",649.72736,82.96025,118.11395
"47702",649.74054,82.44755,117.693756
"47703",649.75397,81.98367,117.306366
"47704",649.76715,81.57595,116.96063
"47705",649.7806,81.2195,116.65343
"47706",649.79376,80.92409,116.396126
"47707",649.8072,80.69703,116.197945
"47708",649.8204,80.550545,116.07324
"47709",649.8338,80.48707,116.02697
"47710",649.847,80.5066,116.06172
"47711",649.8604,80.58228,116.15324
"47712",649.8736,80.68238,116.27153
"47713",649.887,80.782486,116.39296
"47714",649.9002,80.84596,116.48089
"47715",649.91364,80.85573,116.51709
"47716",649.9268,80.80446,116.49256
"47717",649.94025,80.69215,116.40539
"47718",649.9534,80.533455,116.268326
"47719",649.96686,80.3357,116.08724
"47720",649.98004,80.11597,115.878
"47721",649.99347,79.88403,115.64969
"47722",650.00665,79.65942,115.42145
"47723",650.0201,79.44213,115.19352
"47724",650.03326,79.237045,114.971
"47725",650.0467,79.04906,114.75917
"47726",650.0599,78.87816,114.558556
"47727",650.0733,78.71946,114.3648
"47728",650.0865,78.572975,114.1783
"47729",650.0999,78.43626,113.99699
"47730",650.1131,78.311745,113.82361
"47731",650.1265,78.20187,113.66098
"47732",650.1397,78.10422,113.50713
"47733",650.15314,78.02121,113.36488
"47734",650.1663,77.945526,113.22736
"47735",650.17975,77.872284,113.08992
"47736",650.19293,77.789276,112.94042
"47737",650.20636,77.696495,112.77856
"47738",650.21954,77.60128,112.61136
"47739",650.233,77.52804,112.46316
"47740",650.24615,77.55489,112.412766
"47741",650.2596,77.78439,112.56586
"47742",650.27277,78.314186,113.02641
"47743",650.2862,79.17601,113.835556
"47744",650.2994,80.32838,114.96217
"47745",650.3128,81.63943,116.283485
"47746",650.326,82.933395,117.628685
"47747",650.3394,84.03204,118.819
"47748",650.3526,84.81575,119.72871
"47749",650.366,85.25277,120.316216
"47750",650.3792,85.35531,120.5829
"47751",650.39264,85.189285,120.58423
"47752",650.4058,84.825516,120.38262
"47753",650.41925,84.351875,120.05978
"47754",650.43243,83.83185,119.67574
"47755",650.44586,83.32403,119.28767
"47756",650.45905,82.85527,118.92278
"47757",650.4725,82.442665,118.5994
"47758",650.48566,82.07645,118.30952
"47759",650.4991,81.75418,118.05214
"47760",650.51227,81.480736,117.83351
"47761",650.5257,81.25857,117.657616
"47762",650.5389,81.094986,117.53336
"47763",650.5523,80.99733,117.469925
"47764",650.5655,80.95827,117.46203
"47765",650.5789,80.955826,117.48953
"47766",650.5921,80.972916,117.53649
"47767",650.6055,80.98024,117.57422
"47768",650.6187,80.955826,117.58044
"47769",650.63214,80.89235,117.54683
"47770",650.6453,80.7776,117.45997
"47771",650.65875,80.61158,117.318245
"47772",650.67194,80.4065,117.13228
"47773",650.68536,80.177,116.91548
"47774",650.69855,79.93286,116.67687
"47775",650.712,79.693596,116.43551
"47776",650.72516,79.466545,116.19888
"47777",650.7386,79.259026,115.97469
"47778",650.7518,79.07103,115.76354
"47779",650.7652,78.9099,115.57338
"47780",650.7784,78.77074,115.400154
"47781",650.7918,78.64866,115.23966
"47782",650.805,78.536354,115.08513
"47783",650.8184,78.433815,114.93685
"47784",650.8316,78.331276,114.78537
"47785",650.84503,78.22873,114.63068
"47786",650.8582,78.12863,114.47523
"47787",650.87164,78.02365,114.31177
"47788",650.8848,77.91623,114.142586
"47789",650.89825,77.80881,113.97005
"47790",650.91144,77.70382,113.796585
"47791",650.92487,77.608604,113.629616
"47792",650.93805,77.557335,113.50362
"47793",650.9515,77.62081,113.49076
"47794",650.96466,77.89914,113.69474
"47795",650.9781,78.46067,114.19062
"47796",650.9913,79.31518,114.997025
"47797",651.0047,80.40894,116.06939
"47798",651.0179,81.600365,117.27359
"47799",651.0313,82.7161,118.43934
"47800",651.0445,83.60235,119.41046
"47801",651.0579,84.16632,120.087006
"47802",651.0711,84.39826,120.44914
"47803",651.08453,84.334785,120.52311
"47804",651.0977,84.03693,120.36071
"47805",651.11115,83.597466,120.0474
"47806",651.1243,83.087204,119.64956
"47807",651.13776,82.56962,119.22845
"47808",651.15094,82.08621,118.82534
"47809",651.16437,81.65896,118.46328
"47810",651.17755,81.287865,118.14403
"47811",651.191,80.96559,117.862
"47812",651.20416,80.68726,117.613846
"47813",651.2176,80.45777,117.40583
"47814",651.2308,80.274666,117.23703
"47815",651.2442,80.14526,117.11621
"47816",651.2574,80.076904,117.05239
"47817",651.2708,80.05493,117.03282
"47818",651.284,80.06714,117.046745
"47819",651.2974,80.08667,117.068375
"47820",651.3106,80.093994,117.07841
"47821",651.32404,80.0647,117.05205
"47822",651.3372,80.00122,116.99059
"47823",651.35065,79.89136,116.88077
"47824",651.36383,79.73754,116.72356
"47825",651.37726,79.54955,116.52737
"47826",651.39044,79.344475,116.30821
"47827",651.4039,79.12962,116.072876
"47828",651.41705,78.91234,115.82839
"47829",651.4305,78.70237,115.584435
"47830",651.44366,78.5095,115.35101
"47831",651.4571,78.33616,115.131096
"47832",651.4703,78.184784,114.92773
"47833",651.4837,78.048065,114.73428
"47834",651.4969,77.93088,114.5561
"47835",651.5103,77.8259,114.38646
"47836",651.5235,77.73556,114.22818
"47837",651.5369,77.65499,114.07685
"47838",651.5501,77.58419,113.93277
"47839",651.56354,77.52071,113.7938
"47840",651.5767,77.46212,113.65773
"47841",651.59015,77.40841,113.52471
"47842",651.60333,77.3547,113.390015
"47843",651.61676,77.30099,113.25364
"47844",651.62994,77.24483,113.11314
"47845",651.6434,77.20332,112.985535
"47846",651.65656,77.22041,112.91523
"47847",651.67,77.37911,112.98707
"47848",651.68317,77.769745,113.2958
"47849",651.6966,78.44114,113.8975
"47850",651.7098,79.36889,114.776535
"47851",651.7232,80.46998,115.8579
"47852",651.7364,81.58816,116.99077
"47853",651.7498,82.55497,118.00721
"47854",651.763,83.25323,118.78531
"47855",651.7764,83.62432,119.258064
"47856",651.7896,83.682915,119.42992
"47857",651.80304,83.48516,119.34725
"47858",651.8162,83.11406,119.08506
"47859",651.82965,82.650185,118.7185
"47860",651.84283,82.16434,118.31547
"47861",651.85626,81.70779,117.92655
"47862",651.86945,81.30984,117.58197
"47863",651.8829,80.972916,117.28598
"47864",651.89606,80.6775,117.020966
"47865",651.9095,80.41627,116.78091
"47866",651.92267,80.181885,116.55953
"47867",651.9361,79.974365,116.3577
"47868",651.9493,79.80347,116.186
"47869",651.9627,79.68627,116.06266
"47870",651.9759,79.61791,115.9845
"47871",651.9893,79.59106,115.9457
"47872",652.0025,79.588615,115.93048
"47873",652.0159,79.59106,115.92007
"47874",652.0291,79.57885,115.89508
"47875",652.04254,79.54467,115.84774
"47876",652.0557,79.47631,115.76515
"47877",652.06915,79.36645,115.63892
"47878",652.08234,79.22484,115.477516
"47879",652.09576,79.061264,115.28972
"47880",652.10895,78.8806,115.07972
"47881",652.1224,78.69749,114.861626
"47882",652.13556,78.51682,114.64026
"47883",652.149,78.348366,114.42545
"47884",652.1622,78.19699,114.222466
"47885",652.1756,78.06271,114.031845
"47886",652.1888,77.943085,113.85168
"47887",652.2022,77.838104,113.68242
"47888",652.2154,77.74288,113.51964
"47889",652.2288,77.65743,113.363655
"47890",652.242,77.58175,113.21477
"47891",652.25543,77.52071,113.07816
"47892",652.2686,77.47433,112.9543
"47893",652.28204,77.44015,112.841194
"47894",652.2952,77.418175,112.73923
"47895",652.30865,77.40597,112.64634
"47896",652.32184,77.3962,112.55551
"47897",652.33527,77.38155,112.459496
"47898",652.34845,77.36446,112.36058
"47899",652.3619,77.34249,112.25625
"47900",652.37506,77.315636,112.14635
"47901",652.3885,77.30343,112.050255
"47902",652.4017,77.36446,112.02702
"47903",652.4151,77.576866,112.15707
"47904",652.4283,78.02609,112.53057
"47905",652.4417,78.74387,113.18667
"47906",652.4549,79.691154,114.094696
"47907",652.4683,80.762955,115.156845
"47908",652.4815,81.795685,116.21342
"47909",652.49493,82.633095,117.10694
"47910",652.5081,83.17998,117.73611
"47911",652.52155,83.407036,118.06254
"47912",652.5347,83.353325,118.115295
"47913",652.54816,83.08476,117.95152
"47914",652.56134,82.684364,117.64752
"47915",652.57477,82.2327,117.27974
"47916",652.58795,81.7908,116.907616
"47917",652.6014,81.40017,116.572945
"47918",652.61456,81.07057,116.2871
"47919",652.628,80.79469,116.04468
"47920",652.6412,80.56275,115.83757
"47921",652.6546,80.35523,115.64764
"47922",652.6678,80.16235,115.46586
"47923",652.6812,79.98657,115.29515
"47924",652.6944,79.84009,115.14825
"47925",652.7078,79.73022,115.03338
"47926",652.721,79.66674,114.96147
"47927",652.73444,79.64233,114.92664
"47928",652.7476,79.64965,114.92279
"47929",652.76105,79.67162,114.933815
"47930",652.77423,79.68627,114.9382
"47931",652.78766,79.676506,114.91863
"47932",652.80084,79.63256,114.86458
"47933",652.8143,79.551994,114.77253
"47934",652.82745,79.43969,114.646225
"47935",652.8409,79.30053,114.489555
"47936",652.85406,79.149155,114.31632
"47937",652.8675,78.995346,114.135925
"47938",652.8807,78.84398,113.95316
"47939",652.8941,78.69749,113.770546
"47940",652.9073,78.56565,113.59801
"47941",652.9207,78.44358,113.431114
"47942",652.9339,78.33372,113.27261
"47943",652.9473,78.23605,113.12288
"47944",652.9605,78.14816,112.979866
"47945",652.97394,78.07492,112.848755
"47946",652.9871,78.013885,112.72756
"47947",653.00055,77.960175,112.611786
"47948",653.01373,77.91867,112.50654
"47949",653.02716,77.88449,112.40732
"47950",653.04034,77.86008,112.316795
"47951",653.0538,77.84787,112.23772
"47952",653.06696,77.84543,112.16802
"47953",653.0804,77.84299,112.09825
"47954",653.09357,77.84543,112.03329
"47955",653.107,77.84299,111.96352
"47956",653.1202,77.82834,111.88146
"47957",653.1336,77.806366,111.791626
"47958",653.1468,77.77707,111.69378
"47959",653.1602,77.74288,111.590126
"47960",653.1734,77.71114,111.487854
"47961",653.1868,77.713585,111.41877
"47962",653.2,77.81613,111.44987
"47963",653.21344,78.11398,111.679474
"47964",653.2266,78.66819,112.17474
"47965",653.24005,79.48119,112.94613
"47966",653.25323,80.48707,113.93579
"47967",653.26666,81.54665,115.0106
"47968",653.27985,82.49882,116.01109
"47969",653.2933,83.20439,116.794754
"47970",653.30646,83.59991,117.290405
"47971",653.3199,83.69024,117.49323
"47972",653.33307,83.529106,117.44742
"47973",653.3465,83.194626,117.22322
"47974",653.3597,82.7625,116.89092
"47975",653.3731,82.31083,116.52558
"47976",653.3863,81.88602,116.17298
"47977",653.3997,81.51736,115.86326
"47978",653.4129,81.214615,115.60793
"47979",653.42633,80.96559,115.396866
"47980",653.4395,80.75563,115.21708
"47981",653.45294,80.56519,115.050255
"47982",653.4661,80.394295,114.89702
"47983",653.47955,80.2478,114.76285
"47984",653.49274,80.1355,114.65829
"47985",653.50616,80.059814,114.58684
"47986",653.51935,80.025635,114.55453
"47987",653.5328,80.02075,114.550446
"47988",653.54596,80.03052,114.56086
"47989",653.5594,80.03784,114.56914
"47990",653.5726,80.03296,114.56544
"47991",653.586,79.99878,114.53229
"47992",653.5992,79.937744,114.471214
"47993",653.6126,79.84253,114.374054
"47994",653.6258,79.71801,114.24461
"47995",653.6392,79.57885,114.09664
"47996",653.6524,79.429924,113.934555
"47997",653.66583,79.281,113.767815
"47998",653.679,79.14183,113.60618
"47999",653.69244,79.009995,113.447525
"48000",653.7056,78.88548,113.292076
"48001",653.71906,78.77562,113.147385
"48002",653.73224,78.675514,113.00902
"48003",653.74567,78.58518,112.8773
"48004",653.75885,78.49973,112.747635
"48005",653.7723,78.42161,112.62263
"48006",653.78546,78.35325,112.504944
"48007",653.7989,78.28733,112.387566
"48008",653.8121,78.23117,112.277885
"48009",653.8255,78.18967,112.18111
"48010",653.8387,78.16525,112.10012
"48011",653.8521,78.153046,112.03058
"48012",653.8653,78.14572,111.96554
"48013",653.8787,78.1384,111.90027
"48014",653.8919,78.13107,111.83477
"48015",653.90533,78.12131,111.7666
"48016",653.9185,78.10666,111.693245
"48017",653.93195,78.08957,111.61699
"48018",653.9451,78.07248,111.5402
"48019",653.95856,78.048065,111.45555
"48020",653.97174,78.01633,111.362816
"48021",653.98517,77.99191,111.27641
"48022",653.99835,78.01877,111.24052
"48023",654.0118,78.17502,111.334854
"48024",654.02496,78.551,111.65381
"48025",654.0384,79.19066,112.248184
"48026",654.0516,80.06714,113.09937
"48027",654.065,81.08034,114.11467
"48028",654.0782,82.08377,115.15186
"48029",654.0916,82.916306,116.049515
"48030",654.1048,83.46319,116.68753
"48031",654.1182,83.69512,117.02769
"48032",654.1314,83.64385,117.09189
"48033",654.14484,83.36797,116.92988
"48034",654.158,82.95781,116.62496
"48035",654.17145,82.493935,116.25352
"48036",654.18463,82.04715,115.88467
"48037",654.19806,81.654076,115.555565
"48038",654.21124,81.33425,115.28743
"48039",654.2247,81.075455,115.07033
"48040",654.23785,80.86305,114.89153
"48041",654.2513,80.68238,114.73783
"48042",654.26447,80.52613,114.602905
"48043",654.2779,80.394295,114.48751
"48044",654.2911,80.29908,114.40462
"48045",654.3045,80.2478,114.362686
"48046",654.3177,80.235596,114.35822
"48047",654.3311,80.26002,114.39001
"48048",654.3443,80.30396,114.44208
"48049",654.3577,80.34791,114.49552
"48050",654.3709,80.37965,114.53813
"48051",654.38434,80.37476,114.54511
"48052",654.3975,80.33082,114.51288
"48053",654.41095,80.2478,114.4402
"48054",654.42413,80.1355,114.33564
"48055",654.43756,80.00366,114.20804
"48056",654.45074,79.869385,114.073875
"48057",654.4642,79.73266,113.93307
"48058",654.47736,79.59594,113.787994
"48059",654.4908,79.46166,113.64109
"48060",654.50397,79.33715,113.499756
"48061",654.5174,79.22728,113.36917
"48062",654.5306,79.132065,113.24981
"48063",654.544,79.061264,113.151886
"48064",654.5572,79.00511,113.0664
"48065",654.5706,78.9514,112.9816
"48066",654.5838,78.90257,112.9
"48067",654.5972,78.853745,112.81688
"48068",654.6104,78.80736,112.73467
"48069",654.62384,78.77074,112.66078
"48070",654.637,78.74387,112.595505
"48071",654.65045,78.72678,112.53916
"48072",654.66364,78.7219,112.49449
"48073",654.67706,78.71702,112.44967
"48074",654.69025,78.712135,112.40469
"48075",654.7037,78.695045,112.34736
"48076",654.71686,78.67063,112.282166
"48077",654.7303,78.63889,112.208885
"48078",654.74347,78.63645,112.16391
"48079",654.7569,78.73655,112.2214
"48080",654.7701,79.01732,112.462685
"48081",654.7835,79.54223,112.95689
"48082",654.7967,80.31373,113.71408
"48083",654.8101,81.26101,114.671165
"48084",654.8233,82.247345,115.69691
"48085",654.83673,83.1165,116.63629
"48086",654.8499,83.74639,117.36357
"48087",654.86334,84.08087,117.815125
"48088",654.8765,84.12482,117.986595
"48089",654.88995,83.931946,117.92262
"48090",654.90314,83.58282,117.696365
"48091",654.91656,83.15068,117.37619
"48092",654.92975,82.703896,117.02786
"48093",654.9432,82.28397,116.69244
"48094",654.95636,81.9202,116.40003
"48095",654.9698,81.617455,116.157295
"48096",654.983,81.36843,115.95882
"48097",654.9964,81.146255,115.7794
"48098",655.0096,80.94606,115.61503
"48099",655.023,80.765396,115.46393
"48100",655.0362,80.604256,115.326706
"48101",655.0496,80.46998,115.21131
"48102",655.0628,80.38209,115.13811
"48103",655.07623,80.34058,115.10854
"48104",655.0894,80.343025,115.12163
"48105",655.10284,80.36744,115.15676
"48106",655.116,80.396736,115.19754
"48107",655.12946,80.4065,115.2197
"48108",655.14264,80.37965,115.20555
"48109",655.15607,80.30396,115.14173
"48110",655.16925,80.18677,115.034035
"48111",655.1827,80.03784,114.890945
"48112",655.19586,79.871826,114.72611
"48113",655.2093,79.69848,114.54876
"48114",655.2225,79.52758,114.36844
"48115",655.2359,79.364006,114.1901
"48116",655.2491,79.21019,114.01641
"48117",655.2625,79.07103,113.85257
"48118",655.2757,78.94896,113.70147
"48119",655.2891,78.84886,113.56853
"48120",655.3023,78.76341,113.447105
"48121",655.31573,78.695045,113.340096
"48122",655.3289,78.63645,113.24072
"48123",655.34235,78.58274,113.1444
"48124",655.3555,78.536354,113.05373
"48125",655.36896,78.49729,112.968925
"48126",655.38214,78.46311,112.88779
"48127",655.39557,78.4387,112.815346
"48128",655.40875,78.42161,112.749466
"48129",655.4222,78.40696,112.68549
"48130",655.43536,78.397194,112.625946
"48131",655.4488,78.38987,112.568535
"48132",655.462,78.38499,112.513336
"48133",655.4754,78.37522,112.4531
"48134",655.4886,78.36057,112.38768
"48135",655.502,78.33372,112.30959
"48136",655.5152,78.2971,112.2209
"48137",655.5286,78.26536,112.13595
"48138",655.5418,78.29221,112.1086
"48139",655.55524,78.46311,112.22613
"48140",655.5684,78.873276,112.588264
"48141",655.58185,79.5642,113.24398
"48142",655.59503,80.51148,114.17764
"48143",655.60846,81.61013,115.292274
"48144",655.62164,82.703896,116.436356
"48145",655.6351,83.6292,117.44616
"48146",655.64825,84.27619,118.20656
"48147",655.6617,84.60334,118.667336
"48148",655.67487,84.63752,118.84537
"48149",655.6883,84.44465,118.79742
"48150",655.7015,84.102844,118.594505
"48151",655.7149,83.69024,118.31011
"48152",655.7281,83.27276,118.00795
"48153",655.7415,82.896774,117.73424
"48154",655.7547,82.58671,117.514694
"48155",655.7681,82.34257,117.35139
"48156",655.7813,82.142365,117.22439
"48157",655.79474,81.96658,117.115555
"48158",655.8079,81.7908,117.00123
"48159",655.82135,81.60525,116.871635
"48160",655.83453,81.40749,116.724045
"48161",655.84796,81.21217,116.57271
"48162",655.86115,81.03639,116.43481
"48163",655.8746,80.89723,116.32803
"48164",655.88776,80.797134,116.255974
"48165",655.9012,80.73121,116.21496
"48166",655.91437,80.69459,116.20119
"48167",655.9278,80.66773,116.19604
"48168",655.941,80.63111,116.18028
"48169",655.9544,80.567635,116.13653
"48170",655.9676,80.46754,116.05417
"48171",655.981,80.33326,115.9345
"48172",655.9942,80.16724,115.77889
"48173",656.0076,79.97925,115.59613
"48174",656.0208,79.781494,115.39773
"48175",656.03424,79.588615,115.19802
"48176",656.0474,79.40795,115.0045
"48177",656.06085,79.24193,114.81998
"48178",656.07404,79.09056,114.64492
"48179",656.08746,78.958725,114.484665
"48180",656.10065,78.839096,114.3325
"48181",656.1141,78.72678,114.18391
"48182",656.12726,78.626686,114.04402
"48183",656.1407,78.52903,113.90345
"48184",656.1539,78.44114,113.76959
"48185",656.1673,78.35569,113.63543
"48186",656.1805,78.28001,113.50836
"48187",656.1939,78.21408,113.38869
"48188",656.2071,78.16281,113.28161
"48189",656.2205,78.12131,113.18269
"48190",656.2337,78.09689,113.09957
"48191",656.24713,78.08713,113.030334
"48192",656.2603,78.0798,112.963234
"48193",656.27374,78.07492,112.898346
"48194",656.2869,78.0676,112.830864
"48195",656.30035,78.06271,112.765594
"48196",656.31354,78.05051,112.69285
"48197",656.32697,78.030975,112.6124
"48198",656.34015,78.00168,112.52157
"48199",656.3536,77.9675,112.42494
"48200",656.36676,77.9382,112.33213
"48201",656.3802,77.97482,112.30432
"48202",656.3934,78.17502,112.44123
"48203",656.4068,78.62913,112.83831
"48204",656.42,79.381096,113.54744
"48205",656.4334,80.40406,114.55106
"48206",656.4466,81.58816,115.74779
"48207",656.46,82.76982,116.97908
"48208",656.4732,83.78302,118.078835
"48209",656.48663,84.508125,118.92216
"48210",656.4998,84.90608,119.46099
"48211",656.51324,84.99153,119.69975
"48212",656.5264,84.82796,119.69216
"48213",656.53986,84.49592,119.510994
"48214",656.55304,84.07599,119.23156
"48215",656.56647,83.63653,118.91947
"48216",656.57965,83.228806,118.62539
"48217",656.5931,82.879684,118.37717
"48218",656.60626,82.59647,118.183945
"48219",656.6197,82.36942,118.03803
"48220",656.6329,82.16922,117.91187
"48221",656.6463,81.97879,117.78923
"48222",656.6595,81.78592,117.658195
"48223",656.6729,81.58572,117.5138
"48224",656.6861,81.3904,117.36804
"48225",656.6995,81.214615,117.2357
"48226",656.7127,81.07057,117.129616
"48227",656.72614,80.96071,117.05321
"48228",656.7393,80.88014,117.00266
"48229",656.75275,80.814224,116.96425
"48230",656.7659,80.75075,116.926216
"48231",656.77936,80.672615,116.871544
"48232",656.79254,80.567635,116.78758
"48233",656.80597,80.42359,116.66128
"48234",656.81915,80.24536,116.496284
"48235",656.8326,80.04028,116.298874
"48236",656.84576,79.815674,116.07552
"48237",656.8592,79.58129,115.83538
"48238",656.8724,79.33959,115.5806
"48239",656.8858,79.10765,115.32802
"48240",656.899,78.8806,115.07308
"48241",656.9124,78.66331,114.82081
"48242",656.9256,78.46067,114.5764
"48243",656.939,78.277565,114.34519
"48244",656.9522,78.11154,114.12534
"48245",656.96564,77.96506,113.919846
"48246",656.9788,77.840546,113.73174
"48247",656.99225,77.73556,113.55927
"48248",657.00543,77.645226,113.39818
"48249",657.01886,77.5671,113.24647
"48250",657.03204,77.49874,113.10208
"48251",657.0455,77.437706,112.96288
"48252",657.05865,77.38888,112.833984
"48253",657.0721,77.34493,112.70844
"48254",657.08527,77.30587,112.58641
"48255",657.0987,77.27413,112.47048
"48256",657.1119,77.24483,112.355995
"48257",657.1253,77.21553,112.2406
"48258",657.1385,77.188675,112.12673
"48259",657.1519,77.16182,112.012024
"48260",657.1651,77.134964,111.89648
"48261",657.1785,77.10567,111.77765
"48262",657.1917,77.06416,111.6457
"48263",657.20514,77.01778,111.50757
"48264",657.2183,76.995804,111.3924
"48265",657.23175,77.066605,111.36932
"48266",657.24493,77.33517,111.54622
"48267",657.25836,77.90158,112.02936
"48268",657.27155,78.78783,112.85003
"48269",657.285,79.94263,113.96695
"48270",657.29816,81.22682,115.24935
"48271",657.3116,82.45243,116.5133
"48272",657.32477,83.46075,117.59825
"48273",657.3382,84.14191,118.38756
"48274",657.3514,84.47639,118.85147
"48275",657.3648,84.49836,119.01333
"48276",657.378,84.27375,118.92929
"48277",657.3914,83.88556,118.67465
"48278",657.4046,83.41192,118.32243
"48279",657.418,82.92607,117.94321
"48280",657.4312,82.47929,117.58786
"48281",657.44464,82.09598,117.28203
"48282",657.4578,81.78104,117.032585
"48283",657.47125,81.514915,116.82212
"48284",657.48444,81.28054,116.635086
"48285",657.49786,81.058365,116.45293
"48286",657.51105,80.84352,116.27116
"48287",657.5245,80.65064,116.10464
"48288",657.53766,80.49439,115.96872
"48289",657.5511,80.38453,115.874306
"48290",657.5643,80.325935,115.82773
"48291",657.5777,80.308846,115.82082
"48292",657.5909,80.308846,115.830475
"48293",657.6043,80.30396,115.83524
"48294",657.6175,80.27955,115.82033
"48295",657.6309,80.216064,115.76558
"48296",657.6441,80.111084,115.66735
"48297",657.65753,79.96216,115.5219
"48298",657.6707,79.77661,115.33517
"48299",657.68414,79.56664,115.11822
"48300",657.6973,79.344475,114.88251
"48301",657.71075,79.11742,114.634964
"48302",657.72394,78.90257,114.39254
"48303",657.73737,78.69993,114.1556
"48304",657.75055,78.50706,113.922104
"48305",657.764,78.32639,113.694786
"48306",657.77716,78.16037,113.47646
"48307",657.7906,78.009,113.26761
"48308",657.8038,77.87961,113.076
"48309",657.8172,77.77219,112.90231
"48310",657.8304,77.68429,112.7448
"48311",657.8438,77.611046,112.59919
"48312",657.857,77.54757,112.46106
"48313",657.8704,77.49386,112.33071
"48314",657.8836,77.452354,112.21089
"48315",657.89703,77.4255,112.10442
"48316",657.9102,77.40597,112.00444
"48317",657.92365,77.38644,111.90385
"48318",657.9368,77.3547,111.790436
"48319",657.95026,77.313194,111.66627
"48320",657.96344,77.261925,111.53104
"48321",657.97687,77.21065,111.394196
"48322",657.99005,77.19356,111.28994
"48323",658.0035,77.28878,111.29746
"48324",658.01666,77.58663,111.51059
"48325",658.0301,78.153046,112.00159
"48326",658.0433,78.99779,112.78861
"48327",658.0567,80.05493,113.81444
"48328",658.0699,81.18776,114.94898
"48329",658.0833,82.21805,116.01639
"48330",658.0965,83.01152,116.87917
"48331",658.1099,83.48272,117.44448
"48332",658.1231,83.631645,117.70224
"48333",658.13654,83.50469,117.688774
"48334",658.1497,83.17998,117.47358
"48335",658.16315,82.738075,117.13105
"48336",658.17633,82.2449,116.72344
"48337",658.18976,81.75662,116.30531
"48338",658.20294,81.304955,115.90854
"48339",658.2164,80.89235,115.53671
"48340",658.22955,80.52125,115.1935
"48341",658.243,80.198975,114.88751
"48342",658.25616,79.93042,114.625175
"48343",658.2696,79.725334,114.417915
"48344",658.2828,79.603264,114.28726
"48345",658.2962,79.56664,114.23824
"48346",658.3094,79.61059,114.26865
"48347",658.3228,79.71801,114.3639
"48348",658.336,79.85962,114.4967
"48349",658.3494,80.00122,114.63391
"48350",658.3626,80.10864,114.74137
"48351",658.37604,80.164795,114.80092
"48352",658.3892,80.15503,114.7963
"48353",658.40265,80.079346,114.725464
"48354",658.41583,79.94751,114.59611
"48355",658.42926,79.781494,114.42845
"48356",658.44244,79.59594,114.23607
"48357",658.4559,79.40307,114.03057
"48358",658.46906,79.217514,113.82636
"48359",658.4825,79.04906,113.63345
"48360",658.49567,78.90257,113.45725
"48361",658.5091,78.768295,113.28868
"48362",658.5223,78.6511,113.132996
"48363",658.5357,78.555885,112.99563
"48364",658.5489,78.47532,112.869934
"48365",658.5623,78.41184,112.75881
"48366",658.5755,78.35813,112.65547
"48367",658.5889,78.314186,112.56022
"48368",658.6021,78.2678,112.46115
"48369",658.61554,78.21164,112.35086
"48370",658.6287,78.14816,112.2315
"48371",658.64215,78.07736,112.10283
"48372",658.65533,78.00656,111.97195
"48373",658.66876,77.96506,111.86815
"48374",658.68195,78.02609,111.86559
"48375",658.6954,78.27268,112.0505
"48376",658.70856,78.785385,112.509224
"48377",658.722,79.58129,113.26717
"48378",658.73517,80.604256,114.277054
"48379",658.7486,81.71999,115.411674
"48380",658.7618,82.76494,116.51037
"48381",658.7752,83.5877,117.41953
"48382",658.7884,84.102844,118.04679
"48383",658.8018,84.300606,118.372765
"48384",658.815,84.22003,118.42658
"48385",658.8284,83.92218,118.260605
"48386",658.8416,83.48516,117.94615
"48387",658.85504,82.98222,117.552124
"48388",658.8682,82.47196,117.135056
"48389",658.88165,81.986115,116.726456
"48390",658.89484,81.55154,116.35394
"48391",658.90826,81.160904,116.011795
"48392",658.92145,80.81178,115.69895
"48393",658.9349,80.50904,115.42158
"48394",658.94806,80.255135,115.18358
"48395",658.9615,80.059814,114.99623
"48396",658.9747,79.9353,114.87359
"48397",658.9881,79.886475,114.82274
"48398",659.0013,79.903564,114.83628
"48399",659.0147,79.95972,114.88942
"48400",659.0279,80.0354,114.963844
"48401",659.0413,80.10864,115.03819
"48402",659.0545,80.15259,115.08553
"48403",659.06793,80.147705,115.08542
"48404",659.0811,80.09155,115.03388
"48405",659.09454,79.98169,114.92688
"48406",659.1077,79.82788,114.7725
"48407",659.12115,79.64233,114.581566
"48408",659.13434,79.44213,114.37019
"48409",659.14777,79.237045,114.147675
"48410",659.16095,79.04173,113.92852
"48411",659.1744,78.86839,113.725235
"48412",659.18756,78.712135,113.533615
"48413",659.201,78.57542,113.35665
"48414",659.2142,78.45823,113.19495
"48415",659.2276,78.365456,113.05399
"48416",659.2408,78.28977,112.92723
"48417",659.2542,78.23361,112.81763
"48418",659.2674,78.18967,112.71848
"48419",659.2808,78.15793,112.63017
"48420",659.294,78.13107,112.54575
"48421",659.30743,78.099335,112.45561
"48422",659.3206,78.05783,112.35471
"48423",659.33405,78.04318,112.27937
"48424",659.3472,78.116425,112.291466
"48425",659.36066,78.37766,112.49384
"48426",659.37384,78.91722,112.982704
"48427",659.38727,79.76929,113.800934
"48428",659.40045,80.87526,114.8997
"48429",659.4139,82.10574,116.15753
"48430",659.42706,83.28741,117.405
"48431",659.4405,84.26154,118.481865
"48432",659.4537,84.928055,119.28155
"48433",659.4671,85.26742,119.77491
"48434",659.4803,85.30648,119.97858
"48435",659.4937,85.11116,119.94908
"48436",659.5069,84.74738,119.745026
"48437",659.5203,84.29572,119.44172
"48438",659.5335,83.81964,119.09988
"48439",659.54694,83.36797,118.76757
"48440",659.5601,82.97002,118.47486
"48441",659.57355,82.63554,118.23319
"48442",659.58673,82.354774,118.03479
"48443",659.60016,82.1033,117.8569
"48444",659.61334,81.86893,117.688255
"48445",659.6268,81.636986,117.51472
"48446",659.63995,81.40017,117.329056
"48447",659.6534,81.16823,117.14087
"48448",659.66656,80.96071,116.96986
"48449",659.68,80.78981,116.82898
"48450",659.6932,80.66285,116.7267
"48451",659.7066,80.57496,116.65952
"48452",659.7198,80.51392,116.616455
"48453",659.7332,80.465096,116.58369
"48454",659.7464,80.39918,116.5323
"48455",659.7598,80.306404,116.452
"48456",659.773,80.17944,116.33462
"48457",659.78644,80.02319,116.183975
"48458",659.7996,79.835205,115.99671
"48459",659.81305,79.63012,115.786476
"48460",659.82623,79.412834,115.55763
"48461",659.83966,79.1931,115.31955
"48462",659.85284,78.97093,115.07217
"48463",659.8663,78.76341,114.83249
"48464",659.87946,78.58274,114.613174
"48465",659.8929,78.42893,114.41508
"48466",659.90607,78.2971,114.234146
"48467",659.9195,78.18234,114.06618
"48468",659.9327,78.07248,113.89951
"48469",659.9461,77.96506,113.73186
"48470",659.9593,77.855194,113.5584
"48471",659.9727,77.74288,113.37907
"48472",659.9859,77.63546,113.20111
"48473",659.9993,77.55489,113.04665
"48474",660.0125,77.55245,112.967804
"48475",660.02594,77.72335,113.06222
"48476",660.0391,78.15549,113.42321
"48477",660.05255,78.89281,114.10289
"48478",660.06573,79.90112,115.07661
"48479",660.07916,81.06813,116.240524
"48480",660.09235,82.22781,117.433586
"48481",660.1058,83.209274,118.484665
"48482",660.11896,83.90265,119.27833
"48483",660.1324,84.26887,119.7665
"48484",660.14557,84.3299,119.96094
"48485",660.159,84.156555,119.9229
"48486",660.1722,83.826965,119.7232
"48487",660.1856,83.421684,119.43751
"48488",660.1988,83.004196,119.126945
"48489",660.2122,82.62089,118.83752
"48490",660.2254,82.2913,118.58983
"48491",660.23883,82.01785,118.387985
"48492",660.252,81.77615,118.20934
"48493",660.26544,81.54665,118.03535
"48494",660.2786,81.30984,117.84686
"48495",660.29205,81.05348,117.63144
"48496",660.30524,80.7776,117.38848
"48497",660.31866,80.5066,117.14178
"48498",660.33185,80.257576,116.908585
"48499",660.3453,80.04761,116.706665
"48500",660.35846,79.8938,116.554344
"48501",660.3719,79.78638,116.4436
"48502",660.3851,79.71557,116.36612
"48503",660.3985,79.66186,116.30352
"48504",660.4117,79.61059,116.241684
"48505",660.4251,79.53979,116.158714
"48506",660.4383,79.43969,116.044235
"48507",660.4517,79.30785,115.89489
"48508",660.4649,79.151596,115.717
"48509",660.47833,78.97337,115.51227
"48510",660.4915,78.77806,115.284874
"48511",660.50494,78.572975,115.0416
"48512",660.5181,78.37034,114.79437
"48513",660.53156,78.17258,114.545685
"48514",660.54474,77.98703,114.30303
"48515",660.55817,77.821014,114.07411
"48516",660.57135,77.67696,113.86197
"48517",660.5848,77.55245,113.66486
"48518",660.59796,77.44015,113.476074
"48519",660.6114,77.332726,113.28866
"48520",660.6246,77.242386,113.11497
"48521",660.638,77.16182,112.94823
"48522",660.6512,77.09102,112.788734
"48523",660.6646,77.032425,112.63924
"48524",660.6778,76.98604,112.500114
"48525",660.6912,76.946976,112.36687
"48526",660.7044,76.910355,112.23484
"48527",660.71783,76.87373,112.10167
"48528",660.731,76.84444,111.97468
"48529",660.74445,76.85664,111.888275
"48530",660.7576,76.98848,111.92188
"48531",660.77106,77.33761,112.1769
"48532",660.78424,77.97482,112.73092
"48533",660.79767,78.905014,113.597824
"48534",660.81085,80.04761,114.7062
"48535",660.8243,81.24635,115.90643
"48536",660.83746,82.320595,117.01962
"48537",660.8509,83.123825,117.89537
"48538",660.8641,83.58282,118.45198
"48539",660.8775,83.70977,118.690895
"48540",660.8907,83.56573,118.66278
"48541",660.9041,83.24101,118.44949
"48542",660.9173,82.81621,118.12597
"48543",660.9307,82.36942,117.76719
"48544",660.9439,81.95438,117.426186
"48545",660.95734,81.59792,117.130806
"48546",660.9705,81.307396,116.89021
"48547",660.98395,81.075455,116.69913
"48548",660.99713,80.8777,116.53498
"48549",661.01056,80.69215,116.376854
"48550",661.02374,80.50172,116.20805
"48551",661.0372,80.29664,116.018654
"48552",661.05035,80.08667,115.817955
"48553",661.0638,79.88403,115.61803
"48554",661.07697,79.70336,115.43373
"48555",661.0904,79.55688,115.27798
"48556",661.1036,79.45434,115.16159
"48557",661.117,79.3933,115.0835
"48558",661.1302,79.35912,115.030365
"48559",661.1436,79.32983,114.98104
"48560",661.1568,79.28588,114.91615
"48561",661.1702,79.20775,114.815704
"48562",661.1834,79.09056,114.67376
"48563",661.19684,78.941635,114.496414
"48564",661.21,78.768295,114.29
"48565",661.22345,78.58518,114.0684
"48566",661.23663,78.397194,113.8362
"48567",661.25006,78.21408,113.603
"48568",661.26324,78.030975,113.36408
"48569",661.2767,77.85031,113.12189
"48570",661.28986,77.67452,112.87892
"48571",661.3033,77.51339,112.64512
"48572",661.31647,77.37179,112.42581
"48573",661.3299,77.2546,112.226494
"48574",661.3431,77.16914,112.055244
"48575",661.3565,77.10811,111.90575
"48576",661.3697,77.07637,111.78364
"48577",661.3831,77.066605,111.68251
"48578",661.3963,77.07881,111.60305
"48579",661.4097,77.103226,111.53618
"48580",661.4229,77.137405,111.479836
"48581",661.43634,77.16914,111.42212
"48582",661.4495,77.19844,111.36295
"48583",661.46295,77.225296,111.30226
"48584",661.47614,77.24971,111.23997
"48585",661.48956,77.26925,111.17356
"48586",661.50275,77.28634,111.105316
"48587",661.5162,77.296104,111.03028
"48588",661.52936,77.298546,110.94823
"48589",661.5428,77.29122,110.85648
"48590",661.55597,77.30831,110.788925
"48591",661.5694,77.43282,110.82932
"48592",661.5826,77.75998,111.076256
"48593",661.596,78.363014,111.60929
"48594",661.6092,79.26147,112.45659
"48595",661.6226,80.377205,113.54925
"48596",661.6358,81.55886,114.74269
"48597",661.64923,82.63065,115.8632
"48598",661.6624,83.44366,116.75841
"48599",661.67584,83.92462,117.346985
"48600",661.689,84.07843,117.623436
"48601",661.70245,83.95392,117.62637
"48602",661.71564,83.62676,117.422775
"48603",661.72906,83.18242,117.09177
"48604",661.74225,82.69413,116.70293
"48605",661.7557,82.21805,116.311035
"48606",661.76886,81.80301,115.96531
"48607",661.7823,81.45876,115.67741
"48608",661.7955,81.1902,115.45443
"48609",661.8089,80.98512,115.286545
"48610",661.8221,80.82399,115.1562
"48611",661.8355,80.68726,115.04522
"48612",661.8487,80.56031,114.93974
"48613",661.8621,80.44312,114.840065
"48614",661.8753,80.33326,114.74405
"48615",661.88873,80.24292,114.66412
"48616",661.9019,80.181885,114.61068
"48617",661.91534,80.15015,114.584625
"48618",661.9285,80.1355,114.57467
"48619",661.94196,80.128174,114.57158
"48620",661.95514,80.10864,114.55605
"48621",661.96857,80.062256,114.51306
"48622",661.98175,79.97925,114.432
"48623",661.9952,79.85962,114.31172
"48624",662.00836,79.708244,114.15596
"48625",662.0218,79.53246,113.97106
"48626",662.035,79.34203,113.76602
"48627",662.0484,79.14671,113.55014
"48628",662.0616,78.958725,113.33549
"48629",662.075,78.78294,113.12717
"48630",662.0882,78.6218,112.92799
"48631",662.1016,78.47532,112.73844
"48632",662.1148,78.345924,112.5614
"48633",662.12823,78.23605,112.39984
"48634",662.1414,78.14328,112.251945
"48635",662.15485,78.07248,112.12312
"48636",662.168,78.01633,112.00674
"48637",662.18146,77.97482,111.903244
"48638",662.19464,77.943085,111.80822
"48639",662.20807,77.92111,111.72197
"48640",662.22125,77.91135,111.64724
"48641",662.2347,77.90646,111.57709
"48642",662.24786,77.908905,111.51411
"48643",662.2613,77.91379,111.45364
"48644",662.2745,77.92355,111.39822
"48645",662.2879,77.93088,111.34065
"48646",662.3011,77.9382,111.28332
"48647",662.3145,77.93576,111.216446
"48648",662.3277,77.925995,111.14217
"48649",662.3411,77.908905,111.06027
"48650",662.3543,77.88449,110.97051
"48651",662.36774,77.86008,110.87999
"48652",662.3809,77.86984,110.82288
"48653",662.39435,77.99191,110.87839
"48654",662.40753,78.314186,111.13791
"48655",662.42096,78.91234,111.68338
"48656",662.43414,79.78882,112.52587
"48657",662.4476,80.867935,113.59839
"48658",662.46075,82.00809,114.76566
"48659",662.4742,83.03105,115.85138
"48660",662.48737,83.78546,116.70051
"48661",662.5008,84.207825,117.241165
"48662",662.514,84.30793,117.47276
"48663",662.5274,84.137024,117.43648
"48664",662.5406,83.775696,117.20443
"48665",662.554,83.31182,116.85854
"48666",662.5672,82.81865,116.468864
"48667",662.5806,82.34989,116.08819
"48668",662.5938,81.94705,115.75878
"48669",662.60724,81.619896,115.49247
"48670",662.6204,81.36111,115.2843
"48671",662.63385,81.1487,115.114426
"48672",662.64703,80.96559,114.96722
"48673",662.66046,80.79225,114.82405
"48674",662.67365,80.63111,114.68767
"48675",662.6871,80.48951,114.56579
"48676",662.70026,80.38209,114.47366
"48677",662.7137,80.31861,114.42213
"48678",662.72687,80.291756,114.40523
"48679",662.7403,80.289314,114.4119
"48680",662.7535,80.2942,114.42583
"48681",662.7669,80.291756,114.43258
"48682",662.7801,80.26002,114.40996
"48683",662.7935,80.19653,114.3546
"48684",662.8067,80.09888,114.263084
"48685",662.8201,79.971924,114.13922
"48686",662.8333,79.815674,113.98209
"48687",662.84674,79.64721,113.80787
"48688",662.8599,79.47143,113.62106
"48689",662.87335,79.29809,113.431206
"48690",662.88654,79.12962,113.24081
"48691",662.89996,78.975815,113.0598
"48692",662.91315,78.839096,112.891075
"48693",662.9266,78.72434,112.74004
"48694",662.93976,78.626686,112.60252
"48695",662.9532,78.553444,112.48637
"48696",662.9664,78.49241,112.38013
"48697",662.9798,78.44602,112.28663
"48698",662.993,78.399635,112.19168
"48699",663.0064,78.35569,112.097725
"48700",663.0196,78.314186,112.00484
"48701",663.033,78.277565,111.915535
"48702",663.0462,78.24338,111.82752
"48703",663.05963,78.21652,111.74577
"48704",663.0728,78.20187,111.67539
"48705",663.08624,78.19211,111.609436
"48706",663.0994,78.187225,111.54806
"48707",663.11285,78.184784,111.48897
"48708",663.12604,78.187225,111.434685
"48709",663.13947,78.187225,111.37804
"48710",663.15265,78.1799,111.314064
"48711",663.1661,78.16037,111.237656
"48712",663.17926,78.1384,111.158195
"48713",663.1927,78.150604,111.11223
"48714",663.2059,78.277565,111.1814
"48715",663.2193,78.626686,111.47669
"48716",663.2325,79.26635,112.07344
"48717",663.2459,80.17944,112.96361
"48718",663.2591,81.27566,114.06543
"48719",663.2725,82.39384,115.22347
"48720",663.2857,83.35577,116.26021
"48721",663.29913,84.0296,117.03891
"48722",663.3123,84.36652,117.501755
"48723",663.32574,84.386055,117.65774
"48724",663.3389,84.15411,117.56286
"48725",663.35236,83.74883,117.28739
"48726",663.36554,83.250786,116.906494
"48727",663.37897,82.73319,116.490486
"48728",663.39215,82.24246,116.08517
"48729",663.4056,81.81033,115.723114
"48730",663.41876,81.446556,115.41591
"48731",663.4322,81.15114,115.165695
"48732",663.4454,80.91188,114.96241
"48733",663.4588,80.71168,114.7907
"48734",663.472,80.54078,114.642044
"48735",663.4854,80.40162,114.51978
"48736",663.4986,80.29908,114.429794
"48737",663.512,80.235596,114.375656
"48738",663.5252,80.20874,114.35616
"48739",663.53864,80.20874,114.362686
"48740",663.5518,80.22827,114.38874
"48741",663.56525,80.24048,114.40808
"48742",663.5784,80.233154,114.40827
"48743",663.59186,80.18921,114.37161
"48744",663.60504,80.10864,114.29696
"48745",663.61847,79.98901,114.180725
"48746",663.63165,79.83765,114.029015
"48747",663.6451,79.6643,113.85059
"48748",663.65826,79.48119,113.657
"48749",663.6717,79.29809,113.45768
"48750",663.6849,79.11986,113.257515
"48751",663.6983,78.95384,113.063995
"48752",663.7115,78.80736,112.88482
"48753",663.7249,78.6804,112.72059
"48754",663.7381,78.57542,112.57437
"48755",663.7515,78.48997,112.444405
"48756",663.7647,78.41917,112.326416
"48757",663.77814,78.363014,112.22086
"48758",663.7913,78.3093,112.116
"48759",663.80475,78.260475,112.014336
"48760",663.81793,78.22385,111.92335
"48761",663.83136,78.19943,111.84343
"48762",663.84454,78.184784,111.772514
"48763",663.858,78.1799,111.71091
"48764",663.87115,78.1799,111.65403
"48765",663.8846,78.170135,111.58739
"48766",663.89777,78.150604,111.51067
"48767",663.9112,78.118866,111.42114
"48768",663.9244,78.07492,111.31841
"48769",663.9378,78.03342,111.21675
"48770",663.951,78.04074,111.16262
"48771",663.9644,78.1799,111.240555
"48772",663.9776,78.54368,111.547455
"48773",663.991,79.185776,112.14404
"48774",664.0042,80.08179,113.01461
"48775",664.01764,81.13649,114.07187
"48776",664.0308,82.19119,115.16209
"48777",664.04425,83.07744,116.116806
"48778",664.05743,83.67559,116.81113
"48779",664.07086,83.946594,117.19699
"48780",664.08405,83.914856,117.28858
"48781",664.0975,83.64141,117.137474
"48782",664.11066,83.20683,116.81669
"48783",664.1241,82.69169,116.40176
"48784",664.13727,82.17166,115.96584
"48785",664.1507,81.685814,115.54786
"48786",664.1639,81.26101,115.175735
"48787",664.1773,80.902115,114.85625
"48788",664.1905,80.6067,114.58902
"48789",664.2039,80.37476,114.376045
"48790",664.2171,80.201416,114.21441
"48791",664.2305,80.096436,114.11572
"48792",664.2437,80.06958,114.09188
"48793",664.25714,80.11597,114.14044
"48794",664.2703,80.22583,114.25393
"48795",664.28375,80.37476,114.40992
"48796",664.29694,80.533455,114.58032
"48797",664.31036,80.672615,114.73615
"48798",664.32355,80.76784,114.852394
"48799",664.337,80.797134,114.905685
"48800",664.35016,80.76051,114.893974
"48801",664.3636,80.66285,114.820076
"48802",664.3768,80.52369,114.70163
"48803",664.3902,80.360115,114.55442
"48804",664.4034,80.17944,114.385
"48805",664.4168,80.00122,114.21239
"48806",664.43,79.83032,114.04153
"48807",664.4434,79.66674,113.87264
"48808",664.4566,79.517815,113.7133
"48809",664.47003,79.38598,113.5664
"48810",664.4832,79.273674,113.434906
"48811",664.49664,79.17845,113.316986
"48812",664.5098,79.10033,113.21319
"48813",664.52325,79.03197,113.116714
"48814",664.53644,78.97337,113.02787
"48815",664.54987,78.91478,112.937195
"48816",664.56305,78.8513,112.839806
"48817",664.5765,78.77806,112.73067
"48818",664.58966,78.692604,112.607025
"48819",664.6031,78.607155,112.48072
"48820",664.6163,78.54368,112.37372
"48821",664.6297,78.57542,112.35995
"48822",664.6429,78.802475,112.54249
"48823",664.6563,79.293205,112.9958
"48824",664.6695,80.05737,113.73788
"48825",664.6829,81.02907,114.711365
"48826",664.6961,82.074005,115.78846
"48827",664.70953,83.02861,116.80788
"48828",664.7227,83.74639,117.6203
"48829",664.73615,84.16144,118.15242
"48830",664.7493,84.27863,118.39966
"48831",664.76276,84.14191,118.39664
"48832",664.77594,83.82208,118.206245
"48833",664.78937,83.389946,117.89355
"48834",664.80255,82.916306,117.52584
"48835",664.816,82.44511,117.145775
"48836",664.82916,82.00809,116.785164
"48837",664.8426,81.61257,116.4524
"48838",664.8558,81.26345,116.15367
"48839",664.8692,80.9485,115.878204
"48840",664.8824,80.66773,115.627075
"48841",664.8958,80.42603,115.40624
"48842",664.909,80.23071,115.224236
"48843",664.9224,80.093994,115.09473
"48844",664.9356,80.02319,115.02686
"48845",664.94904,80.01587,115.02026
"48846",664.9622,80.059814,115.064705
"48847",664.97565,80.128174,115.13493
"48848",664.98883,80.19653,115.2073
"48849",665.00226,80.24048,115.257385
"48850",665.01544,80.24048,115.2649
"48851",665.0289,80.181885,115.21382
"48852",665.04205,80.06958,115.1072
"48853",665.0555,79.91577,114.95557
"48854",665.06866,79.73266,114.76982
"48855",665.0821,79.534904,114.56371
"48856",665.0953,79.33471,114.34898
"48857",665.1087,79.13695,114.13043
"48858",665.1219,78.95628,113.9228
"48859",665.1353,78.79515,113.72905
"48860",665.1485,78.6511,113.54735
"48861",665.1619,78.53391,113.38801
"48862",665.1751,78.44602,113.2543
"48863",665.18854,78.382545,113.142265
"48864",665.2017,78.3386,113.047775
"48865",665.21515,78.3093,112.96656
"48866",665.22833,78.28245,112.88687
"48867",665.24176,78.25071,112.80146
"48868",665.25494,78.20676,112.70284
"48869",665.2684,78.15793,112.59798
"48870",665.28156,78.12619,112.508675
"48871",665.295,78.1799,112.50383
"48872",665.30817,78.416725,112.68378
"48873",665.3216,78.91478,113.132355
"48874",665.3348,79.693596,113.87726
"48875",665.3482,80.69459,114.868675
"48876",665.3614,81.78348,115.97927
"48877",665.3748,82.78447,117.035995
"48878",665.388,83.54131,117.87985
"48879",665.4014,83.96857,118.41777
"48880",665.4146,84.07599,118.64921
"48881",665.42804,83.9173,118.61789
"48882",665.4412,83.57061,118.393616
"48883",665.45465,83.12627,118.06085
"48884",665.46783,82.65507,117.68735
"48885",665.48126,82.20096,117.31621
"48886",665.49445,81.79813,116.982155
"48887",665.5079,81.45632,116.69654
"48888",665.52106,81.17067,116.4564
"48889",665.5345,80.93385,116.256165
"48890",665.54767,80.73609,116.087585
"48891",665.5611,80.552986,115.92748
"48892",665.5743,80.38453,115.776306
"48893",665.5877,80.233154,115.63695
"48894",665.6009,80.1062,115.51728
"48895",665.6143,80.01343,115.427826
"48896",665.6275,79.9646,115.37942
"48897",665.6409,79.95239,115.366104
"48898",665.6541,79.96704,115.379265
"48899",665.66754,79.98657,115.397766
"48900",665.6807,79.99634,115.40711
"48901",665.69415,79.974365,115.385025
"48902",665.70734,79.91333,115.32319
"48903",665.72076,79.81323,115.22038
"48904",665.73395,79.67895,115.08026
"48905",665.7474,79.517815,114.909096
"48906",665.76056,79.34203,114.71825
"48907",665.774,79.1638,114.519455
"48908",665.7872,78.98558,114.3151
"48909",665.8006,78.81224,114.11006
"48910",665.8138,78.6511,113.911804
"48911",665.8272,78.504616,113.72317
"48912",665.8404,78.37522,113.54704
"48913",665.8538,78.26292,113.383965
"48914",665.867,78.167694,113.23446
"48915",665.88043,78.08957,113.099075
"48916",665.8936,78.01877,112.968575
"48917",665.90704,77.95773,112.84563
"48918",665.9202,77.908905,112.73298
"48919",665.93365,77.86008,112.618805
"48920",665.94684,77.81369,112.50555
"48921",665.96027,77.769745,112.39328
"48922",665.97345,77.747765,112.301605
"48923",665.9869,77.81369,112.29715
"48924",666.00006,78.05783,112.47297
"48925",666.0135,78.555885,112.91033
"48926",666.0267,79.327385,113.6367
"48927",666.0401,80.32105,114.60935
"48928",666.0533,81.40017,115.6985
"48929",666.0667,82.39872,116.74081
"48930",666.0799,83.16533,117.582375
"48931",666.0933,83.61944,118.1354
"48932",666.1065,83.75372,118.38279
"48933",666.11993,83.62188,118.36825
"48934",666.1331,83.29473,118.15428
"48935",666.14655,82.85771,117.82022
"48936",666.1597,82.38651,117.438324
"48937",666.17316,81.934845,117.06123
"48938",666.18634,81.53445,116.7213
"48939",666.19977,81.19997,116.43477
"48940",666.21295,80.92409,116.19639
"48941",666.2264,80.68238,115.98356
"48942",666.23956,80.462654,115.78516
"48943",666.253,80.255135,115.592094
"48944",666.2662,80.062256,115.40719
"48945",666.2796,79.89136,115.238235
"48946",666.2928,79.75464,115.09812
"48947",666.3062,79.656975,114.99279
"48948",666.3194,79.60082,114.92592
"48949",666.3328,79.57641,114.88903
"48950",666.346,79.569084,114.86847
"48951",666.35944,79.56176,114.84768
"48952",666.3726,79.54223,114.81445
"48953",666.38605,79.4934,114.75132
"48954",666.39923,79.40795,114.65004
"48955",666.41266,79.28832,114.51191
"48956",666.42584,79.14183,114.34318
"48957",666.4393,78.98558,114.16011
"48958",666.45245,78.82933,113.97216
"48959",666.4659,78.68772,113.79397
"48960",666.47906,78.56565,113.63089
"48961",666.4925,78.45579,113.476204
"48962",666.5057,78.35813,113.33029
"48963",666.5191,78.2678,113.18865
"48964",666.5323,78.18234,113.049065
"48965",666.5457,78.10422,112.91414
"48966",666.5589,78.03586,112.78654
"48967",666.5723,77.9675,112.6568
"48968",666.5855,77.90402,112.52981
"48969",666.59894,77.85031,112.4106
"48970",666.6121,77.80881,112.30192
"48971",666.62555,77.78195,112.20659
"48972",666.63873,77.769745,112.12507
"48973",666.65216,77.77463,112.06026
"48974",666.66534,77.786835,112.00292
"48975",666.6788,77.80148,111.94841
"48976",666.69196,77.81369,111.891914
"48977",666.7054,77.81613,111.826035
"48978",666.71857,77.81125,111.75291
"48979",666.732,77.7966,111.66986
"48980",666.7452,77.803925,111.60833
"48981",666.7586,77.90158,111.63736
"48982",666.7718,78.19211,111.86231
"48983",666.7852,78.74387,112.35758
"48984",666.7984,79.569084,113.14354
"48985",666.8118,80.604256,114.165245
"48986",666.825,81.70779,115.28766
"48987",666.83844,82.703896,116.337135
"48988",666.8516,83.4461,117.16383
"48989",666.86505,83.8587,117.68413
"48990",666.87823,83.949036,117.89504
"48991",666.89166,83.76837,117.83778
"48992",666.90485,83.39483,117.582
"48993",666.9183,82.92119,117.21445
"48994",666.93146,82.41825,116.802795
"48995",666.9449,81.94949,116.40961
"48996",666.95807,81.549095,116.07013
"48997",666.9715,81.231705,115.80115
"48998",666.9847,80.98024,115.58817
"48999",666.9981,80.780045,115.41861
"49000",667.0113,80.61158,115.27452
"49001",667.0247,80.465096,115.14715
"49002",667.0379,80.33082,115.027405
"49003",667.05133,80.21362,114.92055
"49004",667.0645,80.12329,114.83689
"49005",667.07794,80.05493,114.772385
"49006",667.0911,80.01099,114.730156
"49007",667.10455,79.98657,114.706085
"49008",667.11774,79.974365,114.69346
"49009",667.13116,79.96216,114.68045
"49010",667.14435,79.9353,114.65241
"49011",667.1578,79.886475,114.60156
"49012",667.17096,79.81079,114.52233
"49013",667.1844,79.710686,114.41631
"49014",667.1976,79.59594,114.29253
"49015",667.211,79.47143,114.15539
"49016",667.2242,79.344475,114.01192
"49017",667.2376,79.2224,113.869354
"49018",667.2508,79.10277,113.725426
"49019",667.2642,78.98558,113.5802
"49020",667.2774,78.87816,113.44108
"49021",667.29083,78.7805,113.308365
"49022",667.304,78.68528,113.17503
"49023",667.31744,78.59739,113.04606
"49024",667.3306,78.51682,112.92166
"49025",667.34406,78.4387,112.79719
"49026",667.35724,78.363014,112.672714
"49027",667.37067,78.29221,112.55076
"49028",667.38385,78.22629,112.431465
"49029",667.3973,78.16525,112.315
"49030",667.41046,78.116425,112.20884
"49031",667.4239,78.0798,112.11336
"49032",667.4371,78.06027,112.03382
"49033",667.4505,78.05539,111.96832
"49034",667.4637,78.065155,111.91732
"49035",667.4771,78.0798,111.871506
"49036",667.4903,78.09445,111.82615
"49037",667.5037,78.101776,111.773926
"49038",667.5169,78.099335,111.712166
"49039",667.53033,78.08469,111.63812
"49040",667.5435,78.06271,111.5563
"49041",667.55695,78.05051,111.48355
"49042",667.5701,78.099335,111.47146
"49043",667.58356,78.30442,111.61715
"49044",667.59674,78.75853,112.01827
"49045",667.61017,79.49828,112.71923
"49046",667.62335,80.48707,113.69234
"49047",667.6368,81.61013,114.83062
"49048",667.64996,82.69413,115.964935
"49049",667.6634,83.57549,116.93049
"49050",667.6766,84.139465,117.60619
"49051",667.69,84.36164,117.957726
"49052",667.7032,84.281075,118.01346
"49053",667.7166,83.97101,117.83717
"49054",667.7298,83.51202,117.50227
"49055",667.7432,82.98711,117.08711
"49056",667.7564,82.46464,116.65799
"49057",667.76984,81.986115,116.256485
"49058",667.783,81.58083,115.91327
"49059",667.79645,81.24147,115.62331
"49060",667.80963,80.96559,115.38622
"49061",667.82306,80.73853,115.18934
"49062",667.83624,80.552986,115.02687
"49063",667.8497,80.39918,114.89034
"49064",667.86285,80.28199,114.78563
"49065",667.8763,80.216064,114.728516
"49066",667.88947,80.19165,114.71085
"49067",667.9029,80.2063,114.73149
"49068",667.9161,80.24292,114.77456
"49069",667.9295,80.28687,114.8261
"49070",667.9427,80.31617,114.864365
"49071",667.9561,80.32105,114.87913
"49072",667.9693,80.28687,114.85498
"49073",667.9827,80.21362,114.790695
"49074",667.9959,80.1062,114.68995
"49075",668.00934,79.96704,114.55411
"49076",668.0225,79.818115,114.40415
"49077",668.03595,79.6643,114.24465
"49078",668.04913,79.51537,114.085236
"49079",668.06256,79.378654,113.93337
"49080",668.07574,79.25414,113.789444
"49081",668.0892,79.13695,113.64894
"49082",668.10236,79.027084,113.51211
"49083",668.1158,78.922104,113.376724
"49084",668.12897,78.82201,113.24294
"49085",668.1424,78.729225,113.11335
"49086",668.1556,78.64622,112.99063
"49087",668.169,78.56565,112.86776
"49088",668.1822,78.49241,112.749695
"49089",668.1956,78.43626,112.64643
"49090",668.2088,78.38743,112.54874
"49091",668.2222,78.35081,112.46172
"49092",668.2354,78.331276,112.390656
"49093",668.24884,78.32151,112.32874
"49094",668.262,78.311745,112.266525
"49095",668.27545,78.30442,112.20644
"49096",668.28864,78.2971,112.14613
"49097",668.30206,78.28977,112.085594
"49098",668.31525,78.28489,112.02727
"49099",668.3287,78.277565,111.96635
"49100",668.34186,78.26536,111.900314
"49101",668.3553,78.24094,111.821686
"49102",668.36847,78.22873,111.75451
"49103",668.3819,78.29221,111.76264
"49104",668.3951,78.53147,111.94853
"49105",668.4085,79.04173,112.4129
"49106",668.4217,79.84985,113.19108
"49107",668.4351,80.89967,114.236206
"49108",668.4483,82.05203,115.41668
"49109",668.46173,83.12871,116.55748
"49110",668.4749,83.963684,117.49023
"49111",668.48834,84.473946,118.12435
"49112",668.5015,84.644844,118.43506
"49113",668.51495,84.52766,118.46302
"49114",668.52814,84.19562,118.27247
"49115",668.54156,83.73174,117.939705
"49116",668.55475,83.211716,117.53629
"49117",668.5682,82.68925,117.11419
"49118",668.58136,82.21561,116.72459
"49119",668.5948,81.80301,116.381226
"49120",668.608,81.45388,116.08844
"49121",668.6214,81.160904,115.8409
"49122",668.6346,80.921646,115.63792
"49123",668.648,80.726326,115.4714
"49124",668.6612,80.57496,115.34273
"49125",668.6746,80.47486,115.2606
"49126",668.6878,80.430916,115.23149
"49127",668.70123,80.43336,115.2474
"49128",668.7144,80.47242,115.3
"49129",668.72784,80.52613,115.36848
"49130",668.741,80.57252,115.431305
"49131",668.75446,80.59205,115.46873
"49132",668.76764,80.57496,115.47014
"49133",668.78107,80.51881,115.43195
"49134",668.79425,80.41871,115.34807
"49135",668.8077,80.28687,115.22932
"49136",668.82086,80.130615,115.08202
"49137",668.8343,79.9646,114.92009
"49138",668.8475,79.79614,114.75053
"49139",668.8609,79.63012,114.57813
"49140",668.8741,79.47875,114.41521
"49141",668.8875,79.33959,114.25976
"49142",668.9007,79.20531,114.104836
"49143",668.9141,79.078354,113.95305
"49144",668.9273,78.96117,113.80706
"49145",668.94073,78.84642,113.65985
"49146",668.9539,78.73655,113.51393
"49147",668.96735,78.63645,113.37435
"49148",668.9805,78.54612,113.24141
"49149",668.99396,78.46311,113.11297
"49150",669.00714,78.39475,112.99658
"49151",669.02057,78.34104,112.89271
"49152",669.03375,78.29954,112.79936
"49153",669.0472,78.27512,112.72181
"49154",669.06036,78.25803,112.65082
"49155",669.0738,78.24338,112.581726
"49156",669.087,78.22385,112.5073
"49157",669.1004,78.19943,112.42738
"49158",669.1136,78.16281,112.334496
"49159",669.127,78.12131,112.23558
"49160",669.1402,78.07248,112.128044
"49161",669.1536,78.03342,112.02875
"49162",669.1668,78.065155,111.99903
"49163",669.18024,78.25803,112.13145
"49164",669.1934,78.709694,112.52867
"49165",669.20685,79.45922,113.23788
"49166",669.22003,80.479744,114.2415
"49167",669.23346,81.65652,115.433266
"49168",669.24664,82.81865,116.64716
"49169",669.2601,83.79767,117.714264
"49170",669.27325,84.47639,118.51166
"49171",669.2867,84.825516,119.00067
"49172",669.29987,84.86458,119.19053
"49173",669.3133,84.65705,119.13502
"49174",669.3265,84.27619,118.89969
"49175",669.3399,83.80011,118.557236
"49176",669.3531,83.29473,118.17061
"49177",669.3665,82.804,117.78284
"49178",669.3797,82.35233,117.41879
"49179",669.3931,81.951935,117.0919
"49180",669.4063,81.59792,116.79889
"49181",669.41974,81.28298,116.53388
"49182",669.4329,81.007095,116.29809
"49183",669.44635,80.780045,116.10251
"49184",669.45953,80.60914,115.95598
"49185",669.47296,80.50172,115.86759
"49186",669.48615,80.46021,115.84177
"49187",669.4996,80.46998,115.86591
"49188",669.51276,80.51148,115.922104
"49189",669.5262,80.55787,115.984474
"49190",669.53937,80.587166,116.031204
"49191",669.5528,80.57984,116.04223
"49192",669.566,80.52857,116.00908
"49193",669.5794,80.428474,115.9255
"49194",669.5926,80.28443,115.794846
"49195",669.606,80.1062,115.6255
"49196",669.6192,79.91089,115.43351
"49197",669.6326,79.7058,115.22564
"49198",669.6458,79.50561,115.01625
"49199",669.65924,79.31274,114.80793
"49200",669.6724,79.13451,114.60822
"49201",669.68585,78.96849,114.41516
"49202",669.69904,78.81468,114.22912
"49203",669.71246,78.675514,114.05291
"49204",669.72565,78.555885,113.89189
"49205",669.7391,78.45335,113.744225
"49206",669.75226,78.363014,113.60556
"49207",669.7657,78.28733,113.47872
"49208",669.7789,78.21896,113.356834
"49209",669.7923,78.15793,113.24014
"49210",669.8055,78.101776,113.12643
"49211",669.8189,78.05783,113.02316
"49212",669.8321,78.02121,112.92585
"49213",669.8455,77.98703,112.829834
"49214",669.8587,77.95285,112.73275
"49215",669.87213,77.91867,112.6346
"49216",669.8853,77.874725,112.52561
"49217",669.89874,77.821014,112.40549
"49218",669.9119,77.77219,112.28857
"49219",669.92535,77.78439,112.231155
"49220",669.93854,77.94797,112.32549
"49221",669.95197,78.35813,112.67153
"49222",669.96515,79.063705,113.3258
"49223",669.9786,80.045166,114.278
"49224",669.99176,81.19508,115.42933
"49225",670.0052,82.34501,116.6166
"49226",670.0184,83.32403,117.6689
"49227",670.0318,84.01495,118.4637
"49228",670.045,84.368965,118.94318
"49229",670.0584,84.41291,119.12365
"49230",670.0716,84.2005,119.04914
"49231",670.085,83.80011,118.780014
"49232",670.0982,83.28741,118.38606
"49233",670.11163,82.73319,117.93458
"49234",670.1248,82.18631,117.47311
"49235",670.13824,81.68337,117.03849
"49236",670.1514,81.24147,116.64919
"49237",670.16486,80.86305,116.30957
"49238",670.17804,80.54078,116.01427
"49239",670.19147,80.272224,115.76261
"49240",670.20465,80.05249,115.551384
"49241",670.2181,79.8938,115.39433
"49242",670.23126,79.79614,115.29336
"49243",670.2447,79.766846,115.25769
"49244",670.2579,79.78882,115.27238
"49245",670.2713,79.84741,115.32437
"49246",670.2845,79.91821,115.3904
"49247",670.2979,79.974365,115.444
"49248",670.3111,79.99634,115.46517
"49249",670.3245,79.96704,115.43576
"49250",670.3377,79.87915,115.34684
"49251",670.35114,79.744865,115.20878
"49252",670.3643,79.57397,115.02991
"49253",670.37775,79.38354,114.826164
"49254",670.3909,79.18822,114.61158
"49255",670.40436,79.00023,114.398224
"49256",670.41754,78.82445,114.1912
"49257",670.43097,78.65598,113.986
"49258",670.44415,78.49729,113.78531
"49259",670.4576,78.348366,113.589424
"49260",670.47076,78.21408,113.40353
"49261",670.4842,78.09445,113.22809
"49262",670.4974,77.98703,113.06112
"49263",670.5108,77.891815,112.903
"49264",670.524,77.81125,112.75655
"49265",670.5374,77.747765,112.62467
"49266",670.5506,77.70138,112.507904
"49267",670.564,77.66964,112.404335
"49268",670.5772,77.65499,112.316864
"49269",670.59064,77.65011,112.2387
"49270",670.6038,77.642784,112.15794
"49271",670.61725,77.628136,112.06963
"49272",670.63043,77.60128,111.96866
"49273",670.64386,77.56222,111.85464
"49274",670.65704,77.55489,111.77113
"49275",670.6705,77.65743,111.797264
"49276",670.68365,77.97482,112.04145
"49277",670.6971,78.58274,112.58608
"49278",670.71027,79.47387,113.43292
"49279",670.7237,80.56275,114.50536
"49280",670.7369,81.6907,115.650894
"49281",670.7503,82.67948,116.69251
"49282",670.7635,83.39239,117.48915
"49283",670.7769,83.76593,117.968704
"49284",670.7901,83.81232,118.132774
"49285",670.8035,83.5877,118.02729
"49286",670.8167,83.16777,117.719475
"49287",670.83014,82.63554,117.28623
"49288",670.8433,82.06424,116.797295
"49289",670.85675,81.51736,116.31492
"49290",670.86993,81.02907,115.87405
"49291",670.88336,80.61402,115.49116
"49292",670.89655,80.26734,115.163666
"49293",670.91,79.97681,114.881485
"49294",670.92316,79.73266,114.63661
"49295",670.9366,79.53002,114.42562
"49296",670.94977,79.37621,114.257126
"49297",670.9632,79.273674,114.13509
"49298",670.9764,79.23216,114.070885
"49299",670.9898,79.23949,114.054214
"49300",671.003,79.28344,114.0744
"49301",671.0164,79.34692,114.115486
"49302",671.0296,79.40551,114.15367
"49303",671.043,79.429924,114.15951
"49304",671.0562,79.412834,114.1246
"49305",671.06964,79.34203,114.03545
"49306",671.0828,79.22728,113.90014
"49307",671.09625,79.07347,113.72218
"49308",671.10944,78.90013,113.51989
"49309",671.12286,78.7219,113.30729
"49310",671.13605,78.54612,113.09157
"49311",671.1495,78.37766,112.87768
"49312",671.16266,78.22629,112.675606
"49313",671.1761,78.09201,112.4859
"49314",671.1893,77.96506,112.299324
"49315",671.2027,77.855194,112.12587
"49316",671.2159,77.76486,111.96851
"49317",671.2293,77.696495,111.8303
"49318",671.2425,77.65743,111.71925
"49319",671.2559,77.642784,111.6314
"49320",671.2691,77.642784,111.55774
"49321",671.28253,77.64767,111.48896
"49322",671.2957,77.65255,111.420334
"49323",671.30914,77.65499,111.34942
"49324",671.3223,77.65499,111.27614
"49325",671.33575,77.65499,111.20286
"49326",671.34894,77.65499,111.12958
"49327",671.36237,77.65255,111.053856
"49328",671.37555,77.65499,110.98294
"49329",671.389,77.71847,110.97314
"49330",671.40216,77.93088,111.11425
"49331",671.4156,78.37766,111.496376
"49332",671.4288,79.10033,112.16834
"49333",671.4422,80.05737,113.097275
"49334",671.4554,81.13649,114.178185
"49335",671.4688,82.161896,115.239105
"49336",671.482,82.9749,116.11967
"49337",671.4954,83.47784,116.71557
"49338",671.5086,83.65606,117.00247
"49339",671.52203,83.54864,117.0093
"49340",671.5352,83.23369,116.805244
"49341",671.54865,82.78691,116.45952
"49342",671.5618,82.28153,116.04123
"49343",671.57526,81.77615,115.60715
"49344",671.58844,81.307396,115.19389
"49345",671.60187,80.89723,114.824585
"49346",671.61505,80.550545,114.505936
"49347",671.6285,80.26734,114.23994
"49348",671.64166,80.0354,114.01635
"49349",671.6551,79.84497,113.82703
"49350",671.6683,79.70336,113.68057
"49351",671.6817,79.61791,113.58585
"49352",671.6949,79.5935,113.5495
"49353",671.7083,79.62524,113.568535
"49354",671.7215,79.7058,113.63739
"49355",671.7349,79.81079,113.733185
"49356",671.7481,79.91089,113.82737
"49357",671.76154,79.98169,113.895386
"49358",671.7747,80.01343,113.92655
"49359",671.78815,79.9939,113.90744
"49360",671.80133,79.93042,113.84377
"49361",671.81476,79.83032,113.7415
"49362",671.82794,79.710686,113.61656
"49363",671.8414,79.58129,113.47813
"49364",671.85455,79.4519,113.33565
"49365",671.868,79.32006,113.18668
"49366",671.88116,79.19066,113.03603
"49367",671.8946,79.06859,112.88867
"49368",671.9078,78.958725,112.7497
"49369",671.9212,78.86351,112.62195
"49370",671.9344,78.785385,112.50831
"49371",671.9478,78.72434,112.40931
"49372",671.961,78.66819,112.31329
"49373",671.9744,78.61936,112.22285
"49374",671.9876,78.57542,112.13576
"49375",672.00104,78.536354,112.05218
"49376",672.0142,78.49973,111.96982
"49377",672.02765,78.467995,111.8912
"49378",672.04083,78.4387,111.814026
"49379",672.05426,78.42649,111.75303
"49380",672.06744,78.485085,111.76245
"49381",672.0809,78.70481,111.93484
"49382",672.09406,79.15648,112.34603
"49383",672.1075,79.85718,113.02037
"49384",672.12067,80.74586,113.90459
"49385",672.1341,81.70779,114.889824
"49386",672.1473,82.58671,115.82211
"49387",672.1607,83.24834,116.564575
"49388",672.1739,83.617,117.034744
"49389",672.1873,83.69512,117.2259
"49390",672.2005,83.526665,117.17291
"49391",672.2139,83.17021,116.92667
"49392",672.2271,82.701454,116.55698
"49393",672.24054,82.18875,116.12869
"49394",672.2537,81.6907,115.699036
"49395",672.26715,81.24635,115.307526
"49396",672.28033,80.87282,114.97294
"49397",672.29376,80.57252,114.69991
"49398",672.30695,80.3357,114.48099
"49399",672.3204,80.15503,114.31081
"49400",672.33356,80.02075,114.18137
"49401",672.347,79.93286,114.09413
"49402",672.36017,79.89624,114.05541
"49403",672.3736,79.903564,114.059494
"49404",672.3868,79.954834,114.10775
"49405",672.4002,80.03784,114.18935
"49406",672.4134,80.12573,114.27842
"49407",672.4268,80.198975,114.35559
"49408",672.44,80.24292,114.405754
"49409",672.4534,80.2478,114.41823
"49410",672.4666,80.20874,114.38691
"49411",672.48004,80.13306,114.31775
"49412",672.4932,80.03296,114.22181
"49413",672.50665,79.91821,114.10809
"49414",672.51984,79.79126,113.978584
"49415",672.53326,79.65942,113.84022
"49416",672.54645,79.52758,113.69774
"49417",672.5599,79.40063,113.55602
"49418",672.57306,79.28832,113.42499
"49419",672.5865,79.1931,113.307526
"49420",672.5997,79.114975,113.204185
"49421",672.6131,79.04906,113.11061
"49422",672.6263,78.98802,113.01986
"49423",672.6397,78.924545,112.92476
"49424",672.6529,78.856186,112.82279
"49425",672.6663,78.78783,112.71869
"49426",672.6795,78.71946,112.61244
"49427",672.69293,78.64866,112.501625
"49428",672.7061,78.58518,112.39592
"49429",672.71954,78.553444,112.31997
"49430",672.7327,78.6096,112.33092
"49431",672.74615,78.82689,112.50476
"49432",672.75934,79.27856,112.91977
"49433",672.77277,79.98413,113.6028
"49434",672.78595,80.89723,114.5154
"49435",672.7994,81.90555,115.55176
"49436",672.81256,82.85771,116.56347
"49437",672.826,83.617,117.412056
"49438",672.8392,84.09552,118.00361
"49439",672.8526,84.28596,118.32203
"49440",672.8658,84.21759,118.387596
"49441",672.8792,83.95392,118.25572
"49442",672.8924,83.57305,117.99841
"49443",672.9058,83.14336,117.680374
"49444",672.919,82.720985,117.35623
"49445",672.93243,82.34501,117.065285
"49446",672.9456,82.03494,116.8285
"49447",672.95905,81.78592,116.64307
"49448",672.9722,81.58083,116.49379
"49449",672.98566,81.40261,116.36497
"49450",672.99884,81.234146,116.24033
"49451",673.01227,81.075455,116.12021
"49452",673.02545,80.92897,116.00733
"49453",673.0389,80.80446,115.91185
"49454",673.05206,80.71412,115.84665
"49455",673.0655,80.655525,115.81037
"49456",673.0787,80.618904,115.794235
"49457",673.0921,80.59693,115.7916
"49458",673.1053,80.57496,115.788284
"49459",673.1187,80.53101,115.76231
"49460",673.1319,80.462654,115.71054
"49461",673.1453,80.35767,115.62002
"49462",673.1585,80.22095,115.49447
"49463",673.17194,80.059814,115.34024
"49464",673.1851,79.88159,115.16389
"49465",673.19855,79.693596,114.97219
"49466",673.21173,79.51049,114.77951
"49467",673.22516,79.33715,114.59087
"49468",673.23834,79.183334,114.41634
"49469",673.2518,79.04906,114.256546
"49470",673.26495,78.93919,114.11697
"49471",673.2784,78.853745,113.99837
"49472",673.29156,78.79027,113.89907
"49473",673.305,78.73899,113.80999
"49474",673.3182,78.695045,113.72664
"49475",673.3316,78.6511,113.641914
"49476",673.3448,78.59251,113.54117
"49477",673.3582,78.51194,113.41662
"49478",673.3714,78.41428,113.27246
"49479",673.3848,78.32151,113.130135
"49480",673.398,78.27268,113.028854
"49481",673.41144,78.35813,113.060326
"49482",673.4246,78.660866,113.31175
"49483",673.43805,79.217514,113.82655
"49484",673.45123,80.0061,114.59069
"49485",673.46466,80.94118,115.525955
"49486",673.47784,81.88602,116.500206
"49487",673.4913,82.69413,117.367256
"49488",673.50446,83.26055,118.01787
"49489",673.5179,83.55108,118.410286
"49490",673.53107,83.577934,118.54811
"49491",673.5445,83.39483,118.476814
"49492",673.5577,83.06767,118.255745
"49493",673.5711,82.65995,117.943886
"49494",673.5843,82.2327,117.599754
"49495",673.5977,81.829865,117.26669
"49496",673.6109,81.478294,116.972305
"49497",673.6243,81.18532,116.725525
"49498",673.6375,80.94362,116.52087
"49499",673.65094,80.73609,116.34283
"49500",673.6641,80.54322,116.17296
"49501",673.67755,80.36744,116.01415
"49502",673.69073,80.2063,115.864494
"49503",673.70416,80.079346,115.74399
"49504",673.71735,79.98901,115.656136
"49505",673.7308,79.937744,115.60452
"49506",673.74396,79.920654,115.58549
"49507",673.7574,79.92798,115.59033
"49508",673.77057,79.94507,115.60517
"49509",673.784,79.954834,115.61322
"49510",673.7972,79.94507,115.60204
"49511",673.8106,79.89624,115.5515
"49512",673.8238,79.80591,115.457924
"49513",673.8372,79.67895,115.3249
"49514",673.8504,79.53002,115.16594
"49515",673.86383,79.36889,114.99012
"49516",673.877,79.21263,114.81414
"49517",673.89044,79.061264,114.63817
"49518",673.9036,78.91966,114.46723
"49519",673.91705,78.785385,114.299194
"49520",673.93024,78.660866,114.13672
"49521",673.94366,78.54612,113.980125
"49522",673.95685,78.44358,113.83215
"49523",673.9703,78.35325,113.693184
"49524",673.98346,78.28001,113.56848
"49525",673.9969,78.221405,113.45613
"49526",674.0101,78.17502,113.354164
"49527",674.0235,78.14328,113.265396
"49528",674.0367,78.12131,113.1854
"49529",674.0501,78.10422,113.109604
"49530",674.0633,78.08713,113.03327
"49531",674.0767,78.07492,112.96129
"49532",674.0899,78.06027,112.88648
"49533",674.10333,78.07004,112.83563
"49534",674.1165,78.15549,112.86077
"49535",674.12994,78.399635,113.04728
"49536",674.1431,78.87816,113.47579
"49537",674.15656,79.60815,114.17072
"49538",674.16974,80.54566,115.09599
"49539",674.18317,81.57839,116.145775
"49540",674.19635,82.55741,117.17412
"49541",674.2098,83.336235,118.03286
"49542",674.22296,83.826965,118.627846
"49543",674.2364,84.01007,118.93054
"49544",674.2496,83.91974,118.96552
"49545",674.263,83.6292,118.79748
"49546",674.2762,83.21416,118.49584
"49547",674.2896,82.75029,118.132416
"49548",674.3028,82.2913,117.75937
"49549",674.3162,81.883575,117.42325
"49550",674.3294,81.532005,117.13054
"49551",674.34283,81.23659,116.882996
"49552",674.356,80.990005,116.67506
"49553",674.36945,80.782486,116.498474
"49554",674.3826,80.59937,116.33981
"49555",674.39606,80.448006,116.20718
"49556",674.40924,80.32838,116.10155
"49557",674.42267,80.24048,116.02391
"49558",674.43585,80.17944,115.97039
"49559",674.4493,80.14526,115.94182
"49560",674.46246,80.12085,115.92194
"49561",674.4759,80.09888,115.90375
"49562",674.4891,80.07202,115.87998
"49563",674.5025,80.03296,115.84317
"49564",674.5157,79.96948,115.78072
"49565",674.5291,79.869385,115.67967
"49566",674.5423,79.73754,115.54375
"49567",674.5557,79.58373,115.38174
"49568",674.5689,79.415276,115.20027
"49569",674.58234,79.24437,115.01109
"49570",674.5955,79.080795,114.823906
"49571",674.60895,78.92699,114.64137
"49572",674.62213,78.78783,114.46868
"49573",674.63556,78.66331,114.30628
"49574",674.64874,78.555885,114.15709
"49575",674.6622,78.46311,114.01919
"49576",674.67535,78.38987,113.89792
"49577",674.6888,78.331276,113.78901
"49578",674.70197,78.28977,113.69536
"49579",674.7154,78.25803,113.610176
"49580",674.7286,78.23361,113.53132
"49581",674.742,78.2092,113.451706
"49582",674.7552,78.18234,113.36889
"49583",674.7686,78.15549,113.28523
"49584",674.7818,78.12375,113.195854
"49585",674.7952,78.09201,113.105484
"49586",674.8084,78.06027,113.01412
"49587",674.82184,78.02365,112.916885
"49588",674.835,77.979706,112.81118
"49589",674.84845,77.9382,112.70654
"49590",674.86163,77.92111,112.62502
"49591",674.87506,77.994354,112.6333
"49592",674.88824,78.23361,112.80988
"49593",674.9017,78.70237,113.22344
"49594",674.91486,79.412834,113.89336
"49595",674.9283,80.30152,114.763695
"49596",674.94147,81.25857,115.73016
"49597",674.9549,82.13748,116.64841
"49598",674.9681,82.81377,117.39149
"49599",674.9815,83.2166,117.88225
"49600",674.9947,83.34356,118.109726
"49601",675.0081,83.226364,118.097015
"49602",675.0213,82.92851,117.89999
"49603",675.0347,82.51591,117.578896
"49604",675.0479,82.06424,117.20585
"49605",675.06134,81.62234,116.82845
"49606",675.0745,81.22438,116.48119
"49607",675.08795,80.88747,116.18254
"49608",675.10114,80.61158,115.93439
"49609",675.11456,80.37965,115.721565
"49610",675.12775,80.181885,115.53567
"49611",675.1412,80.0061,115.36557
"49612",675.15436,79.852295,115.21195
"49613",675.1678,79.72289,115.077934
"49614",675.18097,79.62768,114.97406
"49615",675.1944,79.57397,114.908714
"49616",675.2076,79.5642,114.885635
"49617",675.221,79.59106,114.89887
"49618",675.2342,79.635,114.93004
"49619",675.2476,79.67895,114.96258
"49620",675.2608,79.7058,114.9794
"49621",675.27423,79.7058,114.97021
"49622",675.2874,79.66918,114.92439
"49623",675.30084,79.603264,114.84814
"49624",675.314,79.50805,114.740524
"49625",675.32745,79.38842,114.60552
"49626",675.34064,79.25414,114.45213
"49627",675.35406,79.11009,114.284775
"49628",675.36725,78.97093,114.117805
"49629",675.3807,78.84154,113.95625
"49630",675.39386,78.729225,113.80774
"49631",675.4073,78.626686,113.66549
"49632",675.4205,78.538795,113.53468
"49633",675.4339,78.45579,113.40601
"49634",675.4471,78.37766,113.27963
"49635",675.4605,78.29954,113.15081
"49636",675.4737,78.22385,113.02198
"49637",675.4871,78.153046,112.895676
"49638",675.5003,78.09689,112.78181
"49639",675.51373,78.05051,112.67595
"49640",675.5269,78.01877,112.58329
"49641",675.54034,78.00412,112.50673
"49642",675.5535,77.996796,112.437035
"49643",675.56696,78.00412,112.38176
"49644",675.58014,78.01633,112.3316
"49645",675.59357,78.03586,112.28914
"49646",675.60675,78.05295,112.24485
"49647",675.6202,78.06271,112.19377
"49648",675.63336,78.0676,112.138115
"49649",675.6468,78.09445,112.10458
"49650",675.66,78.221405,112.17199
"49651",675.6734,78.52659,112.42159
"49652",675.6866,79.063705,112.91267
"49653",675.7,79.835205,113.65491
"49654",675.7132,80.765396,114.57995
"49655",675.7266,81.72732,115.56579
"49656",675.7398,82.562294,116.45474
"49657",675.75323,83.158005,117.13052
"49658",675.7664,83.46075,117.53195
"49659",675.77985,83.492485,117.67184
"49660",675.793,83.29717,117.58566
"49661",675.80646,82.95293,117.34445
"49662",675.81964,82.530556,117.01436
"49663",675.83307,82.09598,116.65886
"49664",675.84625,81.69314,116.32152
"49665",675.8597,81.35134,116.03263
"49666",675.87286,81.07301,115.79653
"49667",675.8863,80.84352,115.60057
"49668",675.8995,80.65308,115.43649
"49669",675.9129,80.4773,115.28112
"49670",675.9261,80.306404,115.12514
"49671",675.9395,80.14282,114.97113
"49672",675.9527,79.99634,114.82911
"49673",675.9661,79.88159,114.71425
"49674",675.9793,79.80835,114.63731
"49675",675.99274,79.77173,114.594696
"49676",676.0059,79.766846,114.58268
"49677",676.01935,79.77905,114.5876
"49678",676.03253,79.79126,114.5929
"49679",676.04596,79.781494,114.576614
"49680",676.05914,79.73998,114.528275
"49681",676.0726,79.66918,114.44935
"49682",676.08575,79.56664,114.33647
"49683",676.0992,79.44457,114.20086
"49684",676.11237,79.31274,114.05167
"49685",676.1258,79.18089,113.898346
"49686",676.139,79.05638,113.74824
"49687",676.1524,78.94896,113.61133
"49688",676.1656,78.853745,113.48327
"49689",676.179,78.765854,113.35956
"49690",676.1922,78.69016,113.2453
"49691",676.2056,78.6218,113.13601
"49692",676.2188,78.551,113.02214
"49693",676.23224,78.485085,112.91094
"49694",676.2454,78.42161,112.800125
"49695",676.25885,78.365456,112.69465
"49696",676.27203,78.311745,112.58986
"49697",676.28546,78.27268,112.49804
"49698",676.29865,78.24094,112.412315
"49699",676.3121,78.22385,112.340256
"49700",676.32526,78.21652,112.27743
"49701",676.3387,78.221405,112.22658
"49702",676.35187,78.23361,112.183205
"49703",676.3653,78.25071,112.1451
"49704",676.3785,78.260475,112.100204
"49705",676.3919,78.26292,112.04829
"49706",676.4051,78.260475,111.99156
"49707",676.4185,78.25315,111.92988
"49708",676.4317,78.23605,111.85819
"49709",676.4451,78.21652,111.78354
"49710",676.4583,78.20676,111.71804
"49711",676.47174,78.25071,111.705956
"49712",676.4849,78.44114,111.84172
"49713",676.49835,78.856186,112.20805
"49714",676.51154,79.53002,112.846146
"49715",676.52496,80.428474,113.72991
"49716",676.53815,81.444115,114.75894
"49717",676.5516,82.41825,115.778206
"49718",676.56476,83.19707,116.63259
"49719",676.5782,83.69024,117.22567
"49720",676.5914,83.87335,117.5241
"49721",676.6048,83.7879,117.55969
"49722",676.618,83.492485,117.382645
"49723",676.6314,83.07744,117.07674
"49724",676.6446,82.60624,116.701706
"49725",676.658,82.144806,116.32172
"49726",676.6712,81.72976,115.973694
"49727",676.68463,81.38308,115.68107
"49728",676.6978,81.09743,115.43864
"49729",676.71124,80.86305,115.238556
"49730",676.7244,80.66529,115.067764
"49731",676.73785,80.49195,114.915215
"49732",676.75104,80.343025,114.78166
"49733",676.76447,80.218506,114.66786
"49734",676.77765,80.12573,114.58192
"49735",676.7911,80.06714,114.52725
"49736",676.80426,80.03784,114.50005
"49737",676.8177,80.028076,114.49147
"49738",676.8309,80.03296,114.49723
"49739",676.8443,80.042725,114.508026
"49740",676.8575,80.045166,114.5118
"49741",676.8709,80.028076,114.496124
"49742",676.8841,79.98413,114.45306
"49743",676.8975,79.90845,114.37688
"49744",676.9107,79.80835,114.27392
"49745",676.92413,79.693596,114.153175
"49746",676.9373,79.571526,114.02153
"49747",676.95074,79.447014,113.88363
"49748",676.9639,79.3225,113.74184
"49749",676.97736,79.19798,113.596146
"49750",676.99054,79.07591,113.44901
"49751",677.00397,78.96605,113.31027
"49752",677.01715,78.870834,113.18275
"49753",677.0306,78.79515,113.07178
"49754",677.04376,78.73167,112.97064
"49755",677.0572,78.67307,112.87241
"49756",677.0704,78.61448,112.772354
"49757",677.0838,78.555885,112.67046
"49758",677.097,78.504616,112.574066
"49759",677.1104,78.45823,112.48095
"49760",677.1236,78.416725,112.391266
