"","Time..s.","PPG.trace","Preprocessed.PPG"
"60705",820.96027,69.12459,204.2222
"60706",820.9736,68.70466,203.46242
"60707",820.9869,68.387276,202.79205
"60708",821.0002,68.1651,202.20699
"60709",821.0135,68.02594,201.69798
"60710",821.0268,67.95758,201.25543
"60711",821.0401,67.94537,200.8669
"60712",821.0534,67.97711,200.52193
"60713",821.0667,68.04303,200.21213
"60714",821.08,68.13336,199.9288
"60715",821.0933,68.243225,199.66783
"60716",821.1066,68.3653,199.42252
"60717",821.11993,68.492256,199.18588
"60718",821.13324,68.61433,198.94833
"60719",821.14655,68.71931,198.69751
"60720",821.15985,68.787674,198.41336
"60721",821.17316,68.81697,198.09227
"60722",821.18646,68.878006,197.80383
"60723",821.19977,69.224686,197.80295
"60724",821.2131,70.311134,198.55267
"60725",821.2264,72.567024,200.50578
"60726",821.2397,76.17792,203.8844
"60727",821.253,80.99245,208.57948
"60728",821.2663,86.54185,214.1599
"60729",821.2796,92.14984,219.97232
"60730",821.2929,97.14748,225.34964
"60731",821.3062,101.1075,229.84552
"60732",821.3195,103.868774,233.2664
"60733",821.3328,105.44106,235.5846
"60734",821.3461,105.88785,236.82642
"60735",821.35944,105.338524,237.08609
"60736",821.37274,103.9762,236.5156
"60737",821.38605,102.0206,235.30925
"60738",821.39935,99.698784,233.67558
"60739",821.41266,97.213394,231.80579
"60740",821.42596,94.72068,229.85098
"60741",821.4393,92.33051,227.92084
"60742",821.4526,90.09415,226.0698
"60743",821.4659,88.043335,224.33443
"60744",821.4792,86.202484,222.74493
"60745",821.4925,84.60578,221.34206
"60746",821.5058,83.284966,220.16518
"60747",821.5191,82.27177,219.25464
"60748",821.5324,81.56374,218.61761
"60749",821.5457,81.13649,218.23923
"60750",821.559,80.919205,218.05746
"60751",821.5723,80.82155,217.98854
"60752",821.58563,80.75319,217.94586
"60753",821.59894,80.62379,217.84
"60754",821.61224,80.37232,217.60803
"60755",821.62555,79.96216,217.2095
"60756",821.63885,79.38598,216.63214
"60757",821.65216,78.65598,215.88295
"60758",821.66547,77.80148,214.98645
"60759",821.6788,76.8542,213.97046
"60760",821.6921,75.84589,212.86383
"60761",821.7054,74.813156,211.70128
"60762",821.7187,73.79019,210.51622
"60763",821.732,72.80385,209.33582
"60764",821.7453,71.88098,208.18806
"60765",821.7586,71.03868,207.09204
"60766",821.7719,70.28916,206.06248
"60767",821.7852,69.63973,205.10959
"60768",821.7985,69.09529,204.2414
"60769",821.8118,68.65095,203.45628
"60770",821.82513,68.31403,202.76471
"60771",821.83844,68.07233,202.15782
"60772",821.85175,67.9234,201.63615
"60773",821.86505,67.8526,201.18796
"60774",821.87836,67.8526,200.80835
"60775",821.89166,67.90631,200.48245
"60776",821.90497,68.00885,200.20706
"60777",821.9183,68.14557,199.96906
"60778",821.9316,68.30183,199.75487
"60779",821.9449,68.47028,199.55775
"60780",821.9582,68.63386,199.36102
"60781",821.9715,68.76814,199.14012
"60782",821.9848,68.85359,198.87457
"60783",821.9981,68.89754,198.57019
"60784",822.0114,69.02937,198.35507
"60785",822.0247,69.590904,198.57378
"60786",822.038,71.05333,199.71092
"60787",822.05133,73.78287,202.16087
"60788",822.06464,77.838104,206.02182
"60789",822.07794,82.933395,211.04955
"60790",822.09125,88.50721,216.71503
"60791",822.10455,93.85153,222.3252
"60792",822.11786,98.3682,227.27472
"60793",822.13116,101.749596,231.23012
"60794",822.1445,103.92737,234.08757
"60795",822.1578,104.94545,235.85338
"60796",822.1711,104.89662,236.58409
"60797",822.1844,103.94202,236.4075
"60798",822.1977,102.26719,235.48087
"60799",822.211,100.09674,234.00627
"60800",822.2243,97.635765,232.17332
"60801",822.2376,95.06981,230.15848
"60802",822.2509,92.53071,228.0903
"60803",822.2642,90.11124,226.06241
"60804",822.2775,87.87244,224.13959
"60805",822.29083,85.872894,222.38606
"60806",822.30414,84.16876,220.86546
"60807",822.31744,82.811325,219.6383
"60808",822.33075,81.83475,218.74959
"60809",822.34406,81.22682,218.199
"60810",822.35736,80.93385,217.94438
"60811",822.37067,80.867935,217.90765
"60812",822.384,80.921646,217.9885
"60813",822.3973,80.98512,218.08078
"60814",822.4106,80.972916,218.09937
"60815",822.4239,80.80934,217.9662
"60816",822.4372,80.462654,217.6448
"60817",822.4505,79.92554,217.12215
"60818",822.4638,79.219955,216.41425
"60819",822.4771,78.382545,215.55246
"60820",822.4904,77.44991,214.56927
"60821",822.5037,76.46113,213.5008
"60822",822.517,75.45037,212.37944
"60823",822.53033,74.44938,211.23627
"60824",822.54364,73.480125,210.09355
"60825",822.55695,72.57435,208.98402
"60826",822.57025,71.75159,207.92921
"60827",822.58356,71.02159,206.94145
"60828",822.59686,70.38926,206.02855
"60829",822.61017,69.857025,205.19598
"60830",822.6235,69.417564,204.43956
"60831",822.6368,69.06355,203.75485
"60832",822.6501,68.79744,203.14697
"60833",822.6634,68.61433,202.61378
"60834",822.6767,68.51179,202.15544
"60835",822.69,68.48249,201.76714
"60836",822.7033,68.51911,201.44383
"60837",822.7166,68.60212,201.16806
"60838",822.7299,68.70954,200.9193
"60839",822.7432,68.83162,200.68855
"60840",822.75653,68.94881,200.45673
"60841",822.76984,69.0367,200.19926
"60842",822.78314,69.09041,199.91037
"60843",822.79645,69.15144,199.63048
"60844",822.80975,69.42245,199.56247
"60845",822.82306,70.28184,200.09131
"60846",822.83636,72.147095,201.65288
"60847",822.8497,75.23796,204.49834
"60848",822.863,79.46166,208.57323
"60849",822.8763,84.41291,213.50766
"60850",822.8896,89.47402,218.70668
"60851",822.9029,93.99802,223.52673
"60852",822.9162,97.53811,227.50426
"60853",822.9295,99.92096,230.43518
"60854",822.9428,101.15633,232.29308
"60855",822.9561,101.33944,233.13733
"60856",822.9694,100.607,233.07175
"60857",822.9827,99.12993,232.23865
"60858",822.99603,97.110855,230.81738
"60859",823.00934,94.747536,228.98877
"60860",823.02264,92.21088,226.91296
"60861",823.03595,89.63271,224.71638
"60862",823.04926,87.12291,222.5076
"60863",823.06256,84.77913,220.38641
"60864",823.07587,82.701454,218.45808
"60865",823.0892,80.98268,216.82373
"60866",823.1025,79.69604,215.5678
"60867",823.1158,78.88548,214.74774
"60868",823.1291,78.53391,214.36134
"60869",823.1424,78.54856,214.33017
"60870",823.1557,78.80492,214.54117
"60871",823.169,79.15648,214.85538
"60872",823.1823,79.48119,215.15373
"60873",823.1956,79.67162,215.32794
"60874",823.2089,79.6643,215.31035
"60875",823.2222,79.44213,215.07768
"60876",823.23553,79.01976,214.63788
"60877",823.24884,78.42405,214.01154
"60878",823.26215,77.69161,213.22984
"60879",823.27545,76.86153,212.32762
"60880",823.28876,75.97284,211.34085
"60881",823.30206,75.0573,210.29945
"60882",823.31537,74.15152,209.23921
"60883",823.3287,73.27749,208.18242
"60884",823.342,72.46693,207.16177
"60885",823.3553,71.727165,206.1866
"60886",823.3686,71.06798,205.26889
"60887",823.3819,70.4918,204.41359
"60888",823.3952,69.99863,203.62329
"60889",823.4085,69.58358,202.8957
"60890",823.4218,69.25155,202.23816
"60891",823.4351,69.00252,201.65324
"60892",823.4484,68.83162,201.13867
"60893",823.46173,68.7364,200.69444
"60894",823.47504,68.7071,200.31316
"60895",823.48834,68.72419,199.97734
"60896",823.50165,68.77791,199.6787
"60897",823.51495,68.84871,199.3988
"60898",823.52826,68.91463,199.11624
"60899",823.54156,68.9659,198.82109
"60900",823.5549,69.02205,198.53242
"60901",823.5682,69.22957,198.39688
"60902",823.5815,69.91318,198.74391
"60903",823.5948,71.45373,199.96925
"60904",823.6081,74.073395,202.32185
"60905",823.6214,77.70138,205.76463
"60906",823.6347,81.97879,209.97021
"60907",823.648,86.33677,214.39003
"60908",823.6613,90.17227,218.42355
"60909",823.6746,93.0605,221.62967
"60910",823.6879,94.872055,223.84937
"60911",823.70123,95.66064,225.10269
"60912",823.71454,95.5581,225.48955
"60913",823.72784,94.72068,225.13832
"60914",823.74115,93.30953,224.1872
"60915",823.75446,91.48089,222.77448
"60916",823.76776,89.391014,221.04338
"60917",823.78107,87.16441,219.11024
"60918",823.7944,84.910965,217.08069
"60919",823.8077,82.7161,215.03929
"60920",823.821,80.672615,213.08069
"60921",823.8343,78.890366,211.31946
"60922",823.8476,77.47677,209.87119
"60923",823.8609,76.51972,208.83528
"60924",823.8742,76.06561,208.27242
"60925",823.8875,76.085144,208.16899
"60926",823.9008,76.46601,208.42752
"60927",823.9141,77.06172,208.9128
"60928",823.9274,77.70626,209.46552
"60929",823.94073,78.25559,209.94316
"60930",823.95404,78.624245,210.2573
"60931",823.96735,78.77074,210.3608
"60932",823.98065,78.69016,210.2418
"60933",823.99396,78.4094,209.9201
"60934",824.00726,77.96506,209.42606
"60935",824.02057,77.3962,208.79361
"60936",824.0339,76.74677,208.0628
"60937",824.0472,76.053406,207.26778
"60938",824.0605,75.34295,206.43399
"60939",824.0738,74.64469,205.5902
"60940",824.0871,73.97818,204.75633
"60941",824.1004,73.35317,203.94315
"60942",824.1137,72.781876,203.16414
"60943",824.127,72.26917,202.42587
"60944",824.1403,71.817505,201.73262
"60945",824.1536,71.431755,201.09117
"60946",824.16693,71.10948,200.50114
"60947",824.18024,70.855576,199.9694
"60948",824.19354,70.67002,199.4981
"60949",824.20685,70.555275,199.09178
"60950",824.22015,70.504005,198.74536
"60951",824.23346,70.50645,198.45105
"60952",824.24677,70.55283,198.20076
"60953",824.2601,70.623634,197.97633
"60954",824.2734,70.70176,197.76144
"60955",824.2867,70.784775,197.5539
"60956",824.3,70.98497,197.46611
"60957",824.3133,71.58312,197.78255
"60958",824.3266,72.938126,198.87453
"60959",824.3399,75.267265,200.98299
"60960",824.3532,78.53147,204.09929
"60961",824.3665,82.39628,207.9182
"60962",824.3798,86.31724,211.91405
"60963",824.3931,89.7084,215.50262
"60964",824.40643,92.16449,218.2621
"60965",824.41974,93.56588,220.04362
"60966",824.43304,94.012665,220.91434
"60967",824.44635,93.68551,221.02507
"60968",824.45966,92.755325,220.52255
"60969",824.47296,91.37591,219.54173
"60970",824.48627,89.68154,218.20287
"60971",824.4996,87.799194,216.62306
"60972",824.5129,85.821625,214.88922
"60973",824.5262,83.83673,213.08626
"60974",824.5395,81.92264,211.29207
"60975",824.5528,80.16724,209.59676
"60976",824.5661,78.67063,208.10538
"60977",824.5794,77.53048,206.92368
"60978",824.5927,76.82735,206.14337
"60979",824.606,76.60517,205.82205
"60980",824.6193,76.83711,205.9479
"60981",824.6326,77.420616,206.43257
"60982",824.64594,78.21652,207.14787
"60983",824.65924,79.061264,207.93687
"60984",824.67255,79.81079,208.65706
"60985",824.68585,80.36744,209.2078
"60986",824.69916,80.68726,209.53911
"60987",824.71246,80.765396,209.63872
"60988",824.72577,80.63111,209.52835
"60989",824.7391,80.32838,209.24535
"60990",824.7524,79.89624,208.82347
"60991",824.7657,79.37377,208.29776
"60992",824.779,78.79515,207.69957
"60993",824.7923,78.18967,207.05643
"60994",824.8056,77.58175,206.39194
"60995",824.8189,76.98604,205.72066
"60996",824.8322,76.41718,205.05762
"60997",824.8455,75.89227,204.42075
"60998",824.8588,75.41863,203.81874
"60999",824.87213,75.003586,203.26053
"61000",824.88544,74.649574,202.75038
"61001",824.89874,74.35905,202.29265
"61002",824.91205,74.127106,201.88443
"61003",824.92535,73.94644,201.52023
"61004",824.93866,73.81705,201.20166
"61005",824.95197,73.72915,200.92055
"61006",824.9653,73.66811,200.66354
"61007",824.9786,73.62661,200.42416
"61008",824.9919,73.670555,200.26894
"61009",825.0052,74.002594,200.40318
"61010",825.0185,74.95232,201.16548
"61011",825.0318,76.77852,202.83394
"61012",825.0451,79.49828,205.45303
"61013",825.0584,82.86748,208.80655
"61014",825.0717,86.42222,212.4509
"61015",825.085,89.60342,215.8328
"61016",825.0983,91.966736,218.49622
"61017",825.11163,93.33883,220.24226
"61018",825.12494,93.785614,221.10588
"61019",825.13824,93.46578,221.21684
"61020",825.15155,92.56245,220.73431
"61021",825.16486,91.229416,219.79385
"61022",825.17816,89.61074,218.5261
"61023",825.19147,87.8114,217.02708
"61024",825.2048,85.92905,215.38884
"61025",825.2181,84.04181,213.68689
"61026",825.2314,82.22293,211.99432
"61027",825.2447,80.55787,210.39873
"61028",825.258,79.14183,209.00012
"61029",825.2713,78.07492,207.90639
"61030",825.2846,77.43038,207.20169
"61031",825.2979,77.25216,206.94316
"61032",825.3112,77.51095,207.11607
"61033",825.3245,78.1091,207.63644
"61034",825.3378,78.907455,208.3757
"61035",825.35114,79.7522,209.1863
"61036",825.36444,80.50416,209.93051
"61037",825.37775,81.07057,210.51268
"61038",825.39105,81.40017,210.87573
"61039",825.40436,81.49294,211.01227
"61040",825.41766,81.38064,210.94662
"61041",825.43097,81.09743,210.70656
"61042",825.4443,80.689705,210.33313
"61043",825.4576,80.198975,209.86395
"61044",825.4709,79.66186,209.33305
"61045",825.4842,79.097885,208.75851
"61046",825.4975,78.536354,208.1688
"61047",825.5108,77.99191,207.57861
"61048",825.5241,77.47921,207.00316
"61049",825.5374,77.01289,206.45807
"61050",825.5507,76.60273,205.95456
"61051",825.564,76.243835,205.4895
"61052",825.57733,75.93622,205.0645
"61053",825.59064,75.667656,204.66895
"61054",825.60394,75.42596,204.29185
"61055",825.61725,75.208664,203.93163
"61056",825.63055,75.07439,203.64761
"61057",825.64386,75.20622,203.62552
"61058",825.65717,75.89227,204.16176
"61059",825.6705,77.36935,205.51047
"61060",825.6838,79.66186,207.72076
"61061",825.6971,82.56962,210.61795
"61062",825.7104,85.680016,213.80865
"61063",825.7237,88.497444,216.80359
"61064",825.737,90.616615,219.18831
"61065",825.7503,91.85443,220.75789
"61066",825.7636,92.25239,221.52629
"61067",825.7769,91.94476,221.60155
"61068",825.7902,91.10002,221.13008
"61069",825.8035,89.867096,220.24403
"61070",825.81683,88.38026,219.06554
"61071",825.83014,86.74937,217.69653
"61072",825.84344,85.067215,216.2253
"61073",825.85675,83.404594,214.72102
"61074",825.87006,81.83475,213.25757
"61075",825.88336,80.43336,211.91351
"61076",825.89667,79.26879,210.7625
"61077",825.91,78.416725,209.88757
"61078",825.9233,77.92111,209.34248
"61079",825.9366,77.80148,209.15788
"61080",825.9499,78.01877,209.30646
"61081",825.9632,78.49241,209.71819
"61082",825.9765,79.114975,210.29364
"61083",825.9898,79.77173,210.92273
"61084",826.0031,80.34791,211.49178
"61085",826.0164,80.76784,211.92258
"61086",826.0297,80.99733,212.17607
"61087",826.043,81.041275,212.25119
"61088",826.05634,80.90944,212.1519
"61089",826.06964,80.64088,211.91176
"61090",826.08295,80.26734,211.55826
"61091",826.09625,79.83032,211.1296
"61092",826.10956,79.3518,210.64577
"61093",826.12286,78.85863,210.13234
"61094",826.13617,78.37522,209.61327
"61095",826.1495,77.91623,209.1035
"61096",826.1628,77.49386,208.61601
"61097",826.1761,77.10567,208.1495
"61098",826.1894,76.754105,207.70749
"61099",826.2027,76.43183,207.28378
"61100",826.216,76.13641,206.87686
"61101",826.2293,75.87274,206.49245
"61102",826.2426,75.733574,206.2243
"61103",826.2559,75.928894,206.2863
"61104",826.2692,76.717476,206.94766
"61105",826.28253,78.260475,208.38808
"61106",826.29584,80.51881,210.59204
"61107",826.30914,83.24834,213.33778
"61108",826.32245,86.03891,216.22987
"61109",826.33575,88.44373,218.82341
"61110",826.34906,90.14053,220.78407
"61111",826.36237,91.02922,221.98965
"61112",826.3757,91.17326,222.47836
"61113",826.389,90.70695,222.3612
"61114",826.4023,89.79141,221.78026
"61115",826.4156,88.57313,220.86795
"61116",826.4289,87.1815,219.74423
"61117",826.4422,85.71908,218.50623
"61118",826.4555,84.26154,217.22742
"61119",826.4688,82.87236,215.9714
"61120",826.4821,81.59304,214.78185
"61121",826.4954,80.482185,213.72078
"61122",826.5087,79.586174,212.83984
"61123",826.52203,78.94896,212.1897
"61124",826.53534,78.59739,211.80528
"61125",826.54865,78.538795,211.70285
"61126",826.56195,78.72678,211.84517
"61127",826.57526,79.09056,212.16916
"61128",826.58856,79.53979,212.58997
"61129",826.60187,79.98169,213.01749
"61130",826.6152,80.33082,213.36604
"61131",826.6285,80.54078,213.58635
"61132",826.6418,80.58961,213.65208
"61133",826.6551,80.48951,213.57042
"61134",826.6684,80.26002,213.35623
"61135",826.6817,79.9353,213.03964
"61136",826.695,79.54467,212.64699
"61137",826.7083,79.114975,212.20306
"61138",826.7216,78.67307,211.7335
"61139",826.7349,78.238495,211.25746
"61140",826.7482,77.821014,210.78493
"61141",826.76154,77.43282,210.32864
"61142",826.77484,77.07393,209.88953
"61143",826.78815,76.74677,209.47093
"61144",826.80145,76.44892,209.07141
"61145",826.81476,76.1828,208.69432
"61146",826.82806,76.01434,208.40657
"61147",826.8414,76.102234,208.3699
"61148",826.8547,76.67353,208.8194
"61149",826.868,77.89914,209.94106
"61150",826.8813,79.78638,211.76263
"61151",826.8946,82.15213,214.1217
"61152",826.9079,84.661934,216.69876
"61153",826.9212,86.90074,219.08325
"61154",826.9345,88.551155,220.94931
"61155",826.9478,89.47158,222.13696
"61156",826.9611,89.70107,222.66245
"61157",826.9744,89.359276,222.62381
"61158",826.98773,88.59022,222.14723
"61159",827.00104,87.5404,221.36586
"61160",827.01434,86.33677,220.39787
"61161",827.02765,85.07942,219.33855
"61162",827.04095,83.83917,218.25703
"61163",827.05426,82.66483,217.20267
"61164",827.06757,81.59304,216.21416
"61165",827.0809,80.655525,215.32643
"61166",827.0942,79.87915,214.57054
"61167",827.1075,79.290764,213.97838
"61168",827.1208,78.91234,213.57779
"61169",827.1341,78.751205,213.38266
"61170",827.1474,78.79027,213.38269
"61171",827.1607,78.9807,213.53531
"61172",827.174,79.256584,213.77934
"61173",827.1873,79.54467,214.04419
"61174",827.2006,79.783936,214.26923
"61175",827.2139,79.923096,214.40164
"61176",827.22723,79.937744,214.41388
"61177",827.24054,79.823,214.29718
"61178",827.25385,79.59838,214.06703
"61179",827.26715,79.290764,213.74686
"61180",827.28046,78.92699,213.36092
"61181",827.29376,78.53147,212.93187
"61182",827.30707,78.12863,212.48314
"61183",827.3204,77.73556,212.03159
"61184",827.3337,77.36202,211.58728
"61185",827.347,77.01045,211.15327
"61186",827.3603,76.68574,210.73514
"61187",827.3736,76.383,210.32883
"61188",827.3869,76.10712,209.93991
"61189",827.4002,75.88739,209.59853
"61190",827.4135,75.8288,209.4114
"61191",827.4268,76.11932,209.57158
"61192",827.4401,76.9543,210.28528
"61193",827.4534,78.416725,211.65253
"61194",827.46674,80.41627,213.60258
"61195",827.48004,82.70634,215.90567
"61196",827.49335,84.9305,218.2144
"61197",827.50665,86.744484,220.18246
"61198",827.51996,87.93347,221.58221
"61199",827.53326,88.45594,222.3526
"61200",827.5466,88.394905,222.55582
"61201",827.5599,87.87732,222.30057
"61202",827.5732,87.04967,221.71909
"61203",827.5865,86.04135,220.93108
"61204",827.5998,84.972,220.05052
"61205",827.6131,83.912415,219.14632
"61206",827.6264,82.913864,218.27003
"61207",827.6397,81.99832,217.44556
"61208",827.653,81.16823,216.67792
"61209",827.6663,80.43336,215.97955
"61210",827.6796,79.81323,215.37297
"61211",827.69293,79.32983,214.88373
"61212",827.70624,79.00267,214.53563
"61213",827.71954,78.839096,214.34088
"61214",827.73285,78.819565,214.28506
"61215",827.74615,78.91234,214.34094
"61216",827.75946,79.05394,214.44855
"61217",827.77277,79.20775,214.57278
"61218",827.7861,79.31518,214.65546
"61219",827.7994,79.34692,214.66579
"61220",827.8127,79.281,214.57945
"61221",827.826,79.11986,214.39584
"61222",827.8393,78.870834,214.11931
"61223",827.8526,78.56077,213.77396
"61224",827.8659,78.20676,213.37497
"61225",827.8792,77.83566,212.94783
"61226",827.8925,77.45968,212.50421
"61227",827.9058,77.09346,212.05861
"61228",827.9191,76.74677,211.6211
"61229",827.93243,76.422066,211.19472
"61230",827.94574,76.12665,210.78749
"61231",827.95905,75.860535,210.40033
"61232",827.97235,75.62615,210.03659
"61233",827.98566,75.457695,209.73145
"61234",827.99896,75.46014,209.59193
"61235",828.01227,75.80438,209.79431
"61236",828.0256,76.65156,210.51038
"61237",828.0389,78.05783,211.81201
"61238",828.0522,79.937744,213.63123
"61239",828.0655,82.04959,215.74112
"61240",828.0788,84.071106,217.82669
"61241",828.0921,85.70199,219.5848
"61242",828.1054,86.7567,220.81769
"61243",828.1187,87.203476,221.47562
"61244",828.132,87.12047,221.61772
"61245",828.1453,86.63218,221.35194
"61246",828.1586,85.875336,220.80235
"61247",828.17194,84.97688,220.08751
"61248",828.18524,84.03693,219.30309
"61249",828.19855,83.12871,218.52103
"61250",828.21185,82.286415,217.7765
"61251",828.22516,81.5198,217.08134
"61252",828.23846,80.82399,216.43303
"61253",828.2518,80.19165,215.82645
"61254",828.2651,79.63012,215.2709
"61255",828.2784,79.151596,214.78082
"61256",828.2917,78.78294,214.38565
"61257",828.305,78.536354,214.10103
"61258",828.3183,78.41428,213.93321
"61259",828.3316,78.399635,213.869
"61260",828.3449,78.45579,213.87514
"61261",828.3582,78.54368,213.91476
"61262",828.3715,78.61936,213.94493
"61263",828.3848,78.641335,213.92375
"61264",828.39813,78.590065,213.83002
"61265",828.41144,78.45579,213.65167
"61266",828.42474,78.24338,213.391
"61267",828.43805,77.96506,213.05779
"61268",828.45135,77.642784,212.67192
"61269",828.46466,77.296104,212.25157
"61270",828.47797,76.946976,211.81795
"61271",828.4913,76.610054,211.38562
"61272",828.5046,76.297554,210.96718
"61273",828.5179,76.02167,210.57559
"61274",828.5312,75.77997,210.20956
"61275",828.5445,75.57,209.86772
"61276",828.5578,75.38445,209.54373
"61277",828.5711,75.22087,209.23592
"61278",828.5844,75.07683,208.94252
"61279",828.5977,74.97429,208.68613
"61280",828.611,75.01335,208.56813
"61281",828.6243,75.3576,208.75655
"61282",828.63763,76.16571,209.41959
"61283",828.65094,77.506065,210.64012
"61284",828.66425,79.30541,212.36153
"61285",828.67755,81.34402,214.37842
"61286",828.69086,83.30938,216.38579
"61287",828.70416,84.9012,218.08102
"61288",828.71747,85.94125,219.27425
"61289",828.7308,86.400246,219.9189
"61290",828.7441,86.346535,220.0652
"61291",828.7574,85.909515,219.8265
"61292",828.7707,85.22835,219.33002
"61293",828.784,84.43,218.69505
"61294",828.7973,83.60967,218.01317
"61295",828.8106,82.8333,217.3496
"61296",828.8239,82.127716,216.73256
"61297",828.8372,81.48562,216.15695
"61298",828.8505,80.885025,215.60278
"61299",828.86383,80.31129,215.0567
"61300",828.87714,79.76929,214.52443
"61301",828.89044,79.273674,214.0216
"61302",828.90375,78.856186,213.58142
"61303",828.91705,78.536354,213.22585
"61304",828.93036,78.33616,212.9799
"61305",828.94366,78.24826,212.84001
"61306",828.957,78.24582,212.78282
"61307",828.9703,78.28733,212.76952
"61308",828.9836,78.3386,212.76726
"61309",828.9969,78.36057,212.7373
"61310",829.0102,78.32151,212.647
"61311",829.0235,78.2092,212.48224
"61312",829.0368,78.02121,212.23828
"61313",829.0501,77.769745,211.92497
"61314",829.0634,77.471886,211.55742
"61315",829.0767,77.14961,211.15614
"61316",829.09,76.824905,210.74236
"61317",829.10333,76.51484,210.33307
"61318",829.11664,76.226746,209.93607
"61319",829.12994,75.965515,209.55692
"61320",829.14325,75.736015,209.20134
"61321",829.15656,75.53582,208.86789
"61322",829.16986,75.372246,208.5648
"61323",829.18317,75.2404,208.28835
"61324",829.1965,75.13054,208.02974
"61325",829.2098,75.04509,207.79211
"61326",829.2231,74.97673,207.56891
"61327",829.2364,74.92058,207.35577
"61328",829.2497,74.86931,207.14577
"61329",829.263,74.82048,206.9366
"61330",829.2763,74.79851,206.75276
"61331",829.2896,74.89372,206.68542
"61332",829.3029,75.25262,206.88475
"61333",829.3162,76.04364,207.52742
"61334",829.3295,77.34005,208.7002
"61335",829.34283,79.07347,210.3505
"61336",829.35614,81.04372,212.29178
"61337",829.36945,82.95537,214.23605
"61338",829.38275,84.52277,215.89581
"61339",829.39606,85.56527,217.07965
"61340",829.40936,86.04379,217.73209
"61341",829.42267,86.03891,217.91608
"61342",829.436,85.677574,217.74345
"61343",829.4493,85.09651,217.33981
"61344",829.4626,84.41535,216.81792
"61345",829.4759,83.719536,216.26009
"61346",829.4892,83.06767,215.72446
"61347",829.5025,82.47196,215.22461
"61348",829.5158,81.92752,214.75742
"61349",829.5291,81.409935,214.30006
"61350",829.5424,80.902115,213.8363
"61351",829.5557,80.396736,213.35912
"61352",829.56903,79.91577,212.89055
"61353",829.58234,79.48852,212.46066
"61354",829.59564,79.14427,212.10043
"61355",829.60895,78.907455,211.83687
"61356",829.62225,78.77806,211.67332
"61357",829.63556,78.73899,211.59607
"61358",829.64886,78.75609,211.57376
"61359",829.6622,78.79759,211.57639
"61360",829.6755,78.81468,211.5559
"61361",829.6888,78.78294,211.4871
"61362",829.7021,78.68772,211.35385
"61363",829.7154,78.52415,211.14926
"61364",829.7287,78.29954,210.87852
"61365",829.742,78.030975,210.55682
"61366",829.7553,77.73556,210.19987
"61367",829.7686,77.4255,209.81905
"61368",829.7819,77.117874,209.43097
"61369",829.7952,76.824905,209.04793
"61370",829.80853,76.56367,208.68747
"61371",829.82184,76.33173,208.34814
"61372",829.83514,76.13153,208.03331
"61373",829.84845,75.96063,207.74152
"61374",829.86176,75.81903,207.47368
"61375",829.87506,75.699394,207.22339
"61376",829.88837,75.60418,206.99377
"61377",829.9017,75.528496,206.78072
"61378",829.915,75.47234,206.58482
"61379",829.9283,75.43084,206.40182
"61380",829.9416,75.403984,206.23218
"61381",829.9549,75.39422,206.07878
"61382",829.9682,75.39422,205.93484
"61383",829.9815,75.39666,205.79335
"61384",829.9948,75.40154,205.65437
"61385",830.0081,75.3991,205.50822
"61386",830.0214,75.38201,205.34735
"61387",830.0347,75.34783,205.16885
"61388",830.04803,75.318535,204.99417
"61389",830.06134,75.37713,204.90646
"61390",830.07465,75.6701,205.05496
"61391",830.08795,76.35859,205.60814
"61392",830.10126,77.54269,206.67844
"61393",830.11456,79.17845,208.23741
"61394",830.12787,81.092545,210.12582
"61395",830.1412,83.004196,212.07162
"61396",830.1545,84.62043,213.78174
"61397",830.1678,85.74593,215.05164
"61398",830.1811,86.329445,215.81471
"61399",830.1944,86.42954,216.11261
"61400",830.2077,86.16342,216.04741
"61401",830.221,85.65804,215.73463
"61402",830.2343,85.04036,215.29376
"61403",830.2476,84.39582,214.80673
"61404",830.2609,83.790344,214.33862
"61405",830.27423,83.245895,213.91263
"61406",830.28754,82.76738,213.53555
"61407",830.30084,82.320595,213.17525
"61408",830.31415,81.87625,212.80342
"61409",830.32745,81.42458,212.41039
"61410",830.34076,80.97536,212.00568
"61411",830.35406,80.550545,211.61134
"61412",830.3674,80.19165,211.26965
"61413",830.3807,79.92798,211.01196
"61414",830.394,79.76929,210.85101
"61415",830.4073,79.70336,210.77788
"61416",830.4206,79.710686,210.77592
"61417",830.4339,79.74975,210.80594
"61418",830.4472,79.77905,210.82742
"61419",830.4605,79.766846,210.80832
"61420",830.4738,79.68871,210.7229
"61421",830.4871,79.537346,210.5618
"61422",830.5004,79.31762,210.3276
"61423",830.51373,79.04906,210.03772
"61424",830.52704,78.746315,209.70526
"61425",830.54034,78.433815,209.35358
"61426",830.55365,78.133514,209.00433
"61427",830.56696,77.86252,208.675
"61428",830.58026,77.61837,208.36406
"61429",830.59357,77.40353,208.07478
"61430",830.6069,77.21065,207.80077
"61431",830.6202,77.04219,207.54514
"61432",830.6335,76.88838,207.29889
"61433",830.6468,76.754105,207.06737
"61434",830.6601,76.64179,206.85362
"61435",830.6734,76.54902,206.6559
"61436",830.6867,76.473335,206.47237
"61437",830.7,76.41474,206.30356
"61438",830.7133,76.37324,206.15001
"61439",830.7266,76.34394,206.00737
"61440",830.7399,76.32929,205.87846
"61441",830.75323,76.32197,205.75642
"61442",830.76654,76.317085,205.6366
"61443",830.77985,76.30732,205.51173
"61444",830.79315,76.29023,205.37924
"61445",830.80646,76.25849,205.23157
"61446",830.81976,76.2121,205.06825
"61447",830.83307,76.16327,204.90105
"61448",830.8464,76.190125,204.808
"61449",830.8597,76.41718,204.916
"61450",830.873,76.998245,205.3851
"61451",830.8863,78.0383,206.33134
"61452",830.8996,79.52514,207.75688
"61453",830.9129,81.31716,209.53406
"61454",830.9262,83.160446,211.4185
"61455",830.9395,84.77669,213.13351
"61456",830.9528,85.94858,214.45468
"61457",830.9661,86.60532,215.29732
"61458",830.97943,86.77379,215.6722
"61459",830.99274,86.55894,215.66902
"61460",831.00604,86.09506,215.41011
"61461",831.01935,85.50912,215.01463
"61462",831.03265,84.89143,214.5691
"61463",831.04596,84.317696,214.14822
"61464",831.05927,83.809875,213.77533
"61465",831.0726,83.36553,213.45004
"61466",831.0859,82.95781,213.14749
"61467",831.0992,82.55741,212.83952
"61468",831.1125,82.142365,212.5044
"61469",831.1258,81.71999,212.14897
"61470",831.1391,81.304955,211.78769
"61471",831.1524,80.93141,211.45493
"61472",831.1657,80.635994,211.18861
"61473",831.179,80.43824,211.01074
"61474",831.1923,80.33326,210.91946
"61475",831.2056,80.308846,210.90547
"61476",831.21893,80.33082,210.9371
"61477",831.23224,80.360115,210.97675
"61478",831.24554,80.35767,210.98557
"61479",831.25885,80.29908,210.93816
"61480",831.27216,80.16968,210.8181
"61481",831.28546,79.97925,210.63297
"61482",831.29877,79.73754,210.39061
"61483",831.3121,79.4641,210.10896
"61484",831.3254,79.17845,209.80656
"61485",831.3387,78.89525,209.49768
"61486",831.352,78.61936,209.18727
"61487",831.3653,78.363014,208.88777
"61488",831.3786,78.12863,208.60223
"61489",831.3919,77.92844,208.34355
"61490",831.4052,77.7551,208.10547
"61491",831.4185,77.60616,207.88638
"61492",831.4318,77.47677,207.68217
"61493",831.4451,77.366905,207.49345
"61494",831.45844,77.261925,207.30618
"61495",831.47174,77.16914,207.12784
"61496",831.48505,77.09346,206.96368
"61497",831.49835,77.032425,206.81181
"61498",831.51166,76.99336,206.68001
"61499",831.52496,76.96895,206.56163
"61500",831.53827,76.95918,206.45714
"61501",831.5516,76.94942,206.35234
"61502",831.5649,76.93477,206.24236
"61503",831.5782,76.910355,206.12215
"61504",831.5915,76.8835,205.99873
"61505",831.6048,76.84932,205.86716
"61506",831.6181,76.807816,205.72719
"61507",831.6314,76.76387,205.58348
"61508",831.6447,76.749214,205.4677
"61509",831.658,76.86641,205.4833
"61510",831.6713,77.26925,205.78822
"61511",831.68463,78.09201,206.52565
"61512",831.69794,79.378654,207.75267
"61513",831.71124,81.0486,209.4032
"61514",831.72455,82.89433,211.28171
"61515",831.73785,84.63264,213.11046
"61516",831.75116,86.01694,214.63953
"61517",831.76447,86.90318,215.7138
"61518",831.7778,87.274284,216.30063
"61519",831.7911,87.21324,216.4669
"61520",831.8044,86.83971,216.31879
"61521",831.8177,86.2855,215.97832
"61522",831.831,85.66781,215.55705
"61523",831.8443,85.06233,215.1287
"61524",831.8576,84.51789,214.74245
"61525",831.8709,84.054016,214.41975
"61526",831.8842,83.64385,214.13628
"61527",831.8975,83.25323,213.85953
"61528",831.9108,82.85771,213.56567
"61529",831.92413,82.44511,213.24237
"61530",831.93744,82.01785,212.89153
"61531",831.95074,81.60769,212.54442
"61532",831.96405,81.25857,212.24554
"61533",831.97736,81.00221,212.02852
"61534",831.99066,80.85329,211.91092
"61535",832.00397,80.80202,211.88632
"61536",832.0173,80.81911,211.92848
"61537",832.0306,80.85573,211.9907
"61538",832.0439,80.8777,212.03943
"61539",832.0572,80.84108,212.03024
"61540",832.0705,80.73853,211.95398
"61541",832.0838,80.56031,211.79884
"61542",832.0971,80.325935,211.58199
"61543",832.1104,80.05249,211.31873
"61544",832.1237,79.75708,211.02496
"61545",832.137,79.45678,210.71707
"61546",832.1503,79.166245,210.40956
"61547",832.16364,78.89525,210.1125
"61548",832.17694,78.641335,209.82407
"61549",832.19025,78.41428,209.55455
"61550",832.20355,78.21164,209.30235
"61551",832.21686,78.02609,209.06091
"61552",832.23016,77.86008,208.8332
"61553",832.24347,77.71603,208.62228
"61554",832.2568,77.593956,208.42883
"61555",832.2701,77.4963,208.25598
"61556",832.2834,77.41573,208.09717
"61557",832.2967,77.347374,207.94804
"61558",832.31,77.28878,207.80655
"61559",832.3233,77.23506,207.6681
"61560",832.3366,77.188675,207.53531
"61561",832.3499,77.152054,207.41083
"61562",832.3632,77.1252,207.29497
"61563",832.3765,77.100784,207.18071
"61564",832.38983,77.07637,207.06569
"61565",832.40314,77.04707,206.94502
"61566",832.41644,77.01289,206.81856
"61567",832.42975,76.96895,206.68126
"61568",832.44305,76.92012,206.5377
"61569",832.45636,76.86153,206.38286
"61570",832.46967,76.81758,206.24083
"61571",832.483,76.87129,206.19508
"61572",832.4963,77.15694,206.38295
"61573",832.5096,77.8259,206.96306
"61574",832.5229,78.958725,208.02794
"61575",832.5362,80.52613,209.5628
"61576",832.5495,82.357216,211.41034
"61577",832.5628,84.19318,213.31996
"61578",832.5761,85.75571,215.01353
"61579",832.5894,86.85924,216.29694
"61580",832.6027,87.44274,217.09479
"61581",832.616,87.555046,217.43968
"61582",832.62933,87.31335,217.43408
"61583",832.64264,86.837265,217.18654
"61584",832.65594,86.24643,216.80937
"61585",832.66925,85.62386,216.382
"61586",832.68256,85.033035,215.96692
"61587",832.69586,84.508125,215.59929
"61588",832.70917,84.06378,215.29582
"61589",832.7225,83.67071,215.02974
"61590",832.7358,83.299614,214.77336
"61591",832.7491,82.91875,214.4956
"61592",832.7624,82.52567,214.19374
"61593",832.7757,82.13016,213.87715
"61594",832.789,81.76395,213.57751
"61595",832.8023,81.46853,213.33722
"61596",832.8156,81.26345,213.17804
"61597",832.8289,81.1487,213.10277
"61598",832.8422,81.10475,213.09473
"61599",832.8555,81.09987,213.12437
"61600",832.86884,81.09743,213.15631
"61601",832.88214,81.06081,213.15399
"61602",832.89545,80.96315,213.0895
"61603",832.90875,80.799576,212.95602
"61604",832.92206,80.57252,212.75395
"61605",832.93536,80.291756,212.49109
"61606",832.94867,79.98413,212.19258
"61607",832.962,79.6643,211.87225
"61608",832.9753,79.34692,211.54437
"61609",832.9886,79.04906,211.2261
"61610",833.0019,78.77562,210.92294
"61611",833.0152,78.52903,210.63809
"61612",833.0285,78.311745,210.37483
"61613",833.0418,78.118866,210.1292
"61614",833.0551,77.945526,209.89706
"61615",833.0684,77.789276,209.6766
"61616",833.0817,77.65011,209.46835
"61617",833.09503,77.53292,209.27773
"61618",833.10834,77.4255,209.0932
"61619",833.12164,77.33517,208.92241
"61620",833.13495,77.2546,208.75856
"61621",833.14825,77.17647,208.59464
"61622",833.16156,77.09834,208.42827
"61623",833.17487,77.02998,208.26923
"61624",833.1882,76.96895,208.11537
"61625",833.2015,76.91524,207.96693
"61626",833.2148,76.87373,207.82903
"61627",833.2281,76.83467,207.69226
"61628",833.2414,76.79561,207.55428
"61629",833.2547,76.754105,207.41263
"61630",833.268,76.715034,207.27213
"61631",833.2813,76.67597,207.1304
"61632",833.2946,76.63935,206.9899
"61633",833.3079,76.592964,206.83849
"61634",833.3212,76.54902,206.68806
"61635",833.33453,76.56611,206.5973
"61636",833.34784,76.773636,206.69753
"61637",833.36115,77.3254,207.14847
"61638",833.37445,78.32639,208.06587
"61639",833.38776,79.77417,209.46135
"61640",833.40106,81.53933,211.21945
"61641",833.41437,83.38506,213.1133
"61642",833.4277,85.04036,214.87437
"61643",833.441,86.29038,216.2819
"61644",833.4543,87.04234,217.23044
"61645",833.4676,87.31823,217.7264
"61646",833.4809,87.19859,217.83545
"61647",833.4942,86.800644,217.66246
"61648",833.5075,86.24399,217.31833
"61649",833.5208,85.63119,216.90065
"61650",833.5341,85.04036,216.4858
"61651",833.5474,84.51057,216.11351
"61652",833.5607,84.05646,215.80035
"61653",833.57404,83.66338,215.53404
"61654",833.58734,83.29717,215.28232
"61655",833.60065,82.92607,215.01425
"61656",833.61395,82.53544,214.71506
"61657",833.62726,82.1326,214.39145
"61658",833.64056,81.739525,214.06502
"61659",833.6539,81.38552,213.76538
"61660",833.6672,81.10475,213.52791
"61661",833.6805,80.907,213.36469
"61662",833.6938,80.79469,213.28073
"61663",833.7071,80.740974,213.25185
"61664",833.7204,80.709236,213.24327
"61665",833.7337,80.66773,213.22394
"61666",833.747,80.584724,213.1618
"61667",833.7603,80.44068,213.03604
"61668",833.7736,80.235596,212.84473
"61669",833.7869,79.98413,212.60062
"61670",833.80023,79.70092,212.31691
"61671",833.81354,79.395744,212.00238
"61672",833.82684,79.08568,211.67343
"61673",833.84015,78.78294,211.34212
"61674",833.85345,78.48997,211.01111
"61675",833.86676,78.22385,210.6978
"61676",833.88007,77.98215,210.40059
"61677",833.8934,77.769745,210.12512
"61678",833.9067,77.58419,209.86987
"61679",833.92,77.420616,209.6308
"61680",833.9333,77.27657,209.40614
"61681",833.9466,77.14961,209.19408
"61682",833.9599,77.04219,208.99757
"61683",833.9732,76.9543,208.81725
"61684",833.9865,76.88106,208.64882
"61685",833.9998,76.81758,208.48787
"61686",834.0131,76.76387,208.3347
"61687",834.0264,76.71259,208.1823
"61688",834.03973,76.663765,208.03073
"61689",834.05304,76.61738,207.88008
"61690",834.06635,76.57343,207.73042
"61691",834.07965,76.53193,207.58183
"61692",834.09296,76.490425,207.43195
"61693",834.10626,76.44892,207.28076
"61694",834.11957,76.4123,207.13316
"61695",834.1329,76.38056,206.9893
"61696",834.1462,76.35371,206.84933
"61697",834.1595,76.334175,206.71585
"61698",834.1728,76.31953,206.58664
"61699",834.1861,76.30732,206.45941
"61700",834.1994,76.29023,206.32692
"61701",834.2127,76.265816,206.18657
"61702",834.226,76.23895,206.04301
"61703",834.2393,76.23163,205.91815
"61704",834.2526,76.317085,205.88585
"61705",834.2659,76.62226,206.07593
"61706",834.27924,77.296104,206.64421
"61707",834.29254,78.42649,207.6901
"61708",834.30585,79.98169,209.19612
"61709",834.31915,81.81033,211.0242
"61710",834.33246,83.67559,212.94603
"61711",834.34576,85.313805,214.69911
"61712",834.3591,86.52964,216.08101
"61713",834.3724,87.24254,216.99796
"61714",834.3857,87.48669,217.46843
"61715",834.399,87.34753,217.56323
"61716",834.4123,86.93248,217.37779
"61717",834.4256,86.36118,217.02313
"61718",834.4389,85.73861,216.59935
"61719",834.4522,85.1429,216.18297
"61720",834.4655,84.613106,215.81389
"61721",834.4788,84.173645,215.51859
"61722",834.4921,83.809875,215.28525
"61723",834.50543,83.4876,215.08203
"61724",834.51874,83.17021,214.87363
"61725",834.53204,82.83818,214.64067
"61726",834.54535,82.476845,214.36803
"61727",834.55865,82.108185,214.07677
"61728",834.57196,81.75662,213.79109
"61729",834.58527,81.45632,213.54568
"61730",834.5986,81.231705,213.36658
"61731",834.6119,81.075455,213.24883
"61732",834.6252,80.97536,213.18234
"61733",834.6385,80.90944,213.14691
"61734",834.6518,80.84352,213.10942
"61735",834.6651,80.75075,213.04301
"61736",834.6784,80.618904,212.93463
"61737",834.6917,80.43824,212.77332
"61738",834.705,80.21118,212.55995
"61739",834.7183,79.94751,212.30289
"61740",834.7316,79.66186,212.0156
"61741",834.74493,79.364006,211.70717
"61742",834.75824,79.06615,211.38943
"61743",834.77155,78.77806,211.07216
"61744",834.78485,78.50706,210.76297
"61745",834.79816,78.260475,210.46973
"61746",834.81146,78.04562,210.20052
"61747",834.82477,77.86496,209.95877
"61748",834.8381,77.713585,209.74068
"61749",834.8514,77.57931,209.53494
"61750",834.8647,77.46212,209.3421
"61751",834.878,77.35958,209.16025
"61752",834.8913,77.26925,208.9874
"61753",834.9046,77.19356,208.82637
"61754",834.9179,77.13008,208.67519
"61755",834.9312,77.07637,208.53178
"61756",834.9445,77.02266,208.3867
"61757",834.9578,76.97139,208.24239
"61758",834.9711,76.925,208.10135
"61759",834.98444,76.8835,207.96375
"61760",834.99774,76.85176,207.83461
"61761",835.01105,76.822464,207.70692
"61762",835.02435,76.790726,207.57588
"61763",835.03766,76.754105,207.43896
"61764",835.05096,76.71992,207.30334
"61765",835.0643,76.680855,207.16177
"61766",835.0776,76.64423,207.02142
"61767",835.0909,76.612495,206.88481
"61768",835.1042,76.58808,206.75453
"61769",835.1175,76.558784,206.6186
"61770",835.1308,76.53193,206.4842
"61771",835.1441,76.50507,206.34897
"61772",835.1574,76.48554,206.22021
"61773",835.1707,76.52705,206.15189
"61774",835.184,76.73945,206.25575
"61775",835.1973,77.264366,206.67877
"61776",835.21063,78.21164,207.54056
"61777",835.22394,79.605705,208.87874
"61778",835.23724,81.3489,210.6096
"61779",835.25055,83.23613,212.53899
"61780",835.26385,85.00862,214.41261
"61781",835.27716,86.44175,216.00226
"61782",835.29047,87.411,217.17282
"61783",835.3038,87.89685,217.89026
"61784",835.3171,87.953,218.19319
"61785",835.3304,87.67956,218.16827
"61786",835.3437,87.186386,217.91508
"61787",835.357,86.58091,217.53418
"61788",835.3703,85.95834,217.11726
"61789",835.3836,85.384605,216.72972
"61790",835.3969,84.89143,216.40482
"61791",835.4102,84.47883,216.14507
"61792",835.4235,84.12726,215.93346
"61793",835.4368,83.80011,215.73529
"61794",835.45013,83.47051,215.52444
"61795",835.46344,83.12871,215.29109
"61796",835.47675,82.777145,215.03731
"61797",835.49005,82.44022,214.78717
"61798",835.50336,82.14725,214.57045
"61799",835.51666,81.917755,214.40807
"61800",835.52997,81.75418,214.30443
"61801",835.5433,81.654076,214.25914
"61802",835.5566,81.58816,214.24492
"61803",835.5699,81.52468,214.23108
"61804",835.5832,81.43923,214.19328
"61805",835.5965,81.30984,214.10887
"61806",835.6098,81.129166,213.96913
"61807",835.6231,80.89967,213.77493
"61808",835.6364,80.62379,213.52716
"61809",835.6497,80.31861,213.24149
"61810",835.663,79.9939,212.92673
"61811",835.67633,79.6643,212.59694
"61812",835.68964,79.344475,212.26662
"61813",835.70294,79.04173,211.94339
"61814",835.71625,78.76341,211.63512
"61815",835.72955,78.51682,211.34988
"61816",835.74286,78.294655,211.08136
"61817",835.75616,78.101776,210.83519
"61818",835.7695,77.93332,210.6074
"61819",835.7828,77.78439,210.39389
"61820",835.7961,77.65011,210.19037
"61821",835.8094,77.53536,210.00218
"61822",835.8227,77.437706,209.8275
"61823",835.836,77.3547,209.66441
"61824",835.8493,77.2839,209.51094
"61825",835.8626,77.222855,209.36502
"61826",835.8759,77.1667,209.22208
"61827",835.8892,77.11055,209.07738
"61828",835.9025,77.05684,208.93336
"61829",835.91583,77.00557,208.79012
"61830",835.92914,76.95674,208.6477
"61831",835.94244,76.90547,208.50133
"61832",835.95575,76.8542,208.35335
"61833",835.96906,76.80049,208.20132
"61834",835.98236,76.74677,208.04762
"61835",835.99567,76.69306,207.89224
"61836",836.009,76.65156,207.74739
"61837",836.0223,76.61494,207.60612
"61838",836.0356,76.58076,207.46616
"61839",836.0489,76.544136,207.32268
"61840",836.0622,76.50263,207.17317
"61841",836.0755,76.4831,207.04434
"61842",836.0888,76.558784,207.01012
"61843",836.1021,76.86397,207.20776
"61844",836.1154,77.54757,207.79337
"61845",836.1287,78.692604,208.86176
"61846",836.142,80.27711,210.4054
"61847",836.15533,82.15457,212.29152
"61848",836.16864,84.09796,214.30225
"61849",836.18195,85.85336,216.18571
"61850",836.19525,87.23277,217.74805
"61851",836.20856,88.148315,218.88962
"61852",836.22186,88.59998,219.59592
"61853",836.23517,88.64393,219.90862
"61854",836.2485,88.37293,219.90775
"61855",836.2618,87.89441,219.69087
"61856",836.2751,87.30602,219.34918
"61857",836.2884,86.695656,218.96713
"61858",836.3017,86.1268,218.60751
"61859",836.315,85.626305,218.29848
"61860",836.3283,85.19173,218.03972
"61861",836.3416,84.80354,217.81378
"61862",836.3549,84.42512,217.58546
"61863",836.3682,84.04181,217.34044
"61864",836.38153,83.65606,217.081
"61865",836.39484,83.28008,216.81927
"61866",836.40814,82.94316,216.58485
"61867",836.42145,82.66483,216.3985
"61868",836.43475,82.45487,216.27182
"61869",836.44806,82.30839,216.20206
"61870",836.46136,82.19852,216.16432
"61871",836.4747,82.1033,216.13782
"61872",836.488,81.99832,216.09857
"61873",836.5013,81.8616,216.0243
"61874",836.5146,81.67361,215.89449
"61875",836.5279,81.42947,215.70265
"61876",836.5412,81.13649,215.45435
"61877",836.5545,80.799576,215.15295
"61878",836.5678,80.4358,214.81416
"61879",836.5811,80.059814,214.4518
"61880",836.5944,79.68139,214.07524
"61881",836.6077,79.31274,213.69662
"61882",836.62103,78.96361,213.32602
"61883",836.63434,78.63889,212.96892
"61884",836.64764,78.3386,212.62608
"61885",836.66095,78.07004,212.3056
"61886",836.67426,77.8259,212.00114
"61887",836.68756,77.61349,211.7208
"61888",836.70087,77.4255,211.45822
"61889",836.7142,77.25948,211.21175
"61890",836.7275,77.11055,210.97717
"61891",836.7408,76.9836,210.75992
"61892",836.7541,76.87373,210.55579
"61893",836.7674,76.7834,210.36775
"61894",836.7807,76.70771,210.19154
"61895",836.794,76.63935,210.0203
"61896",836.8073,76.57099,209.84691
"61897",836.8206,76.50019,209.66895
"61898",836.8339,76.419624,209.479
"61899",836.8472,76.33906,209.28654
"61900",836.86053,76.26093,209.09401
"61901",836.87384,76.18768,208.90392
"61902",836.88715,76.11688,208.71397
"61903",836.90045,76.04852,208.52426
"61904",836.91376,75.98505,208.3373
"61905",836.92706,75.91913,208.1459
"61906",836.94037,75.85809,207.95734
"61907",836.9537,75.7995,207.7693
"61908",836.967,75.74334,207.58188
"61909",836.9803,75.69451,207.40002
"61910",836.9936,75.65301,207.22397
"61911",837.0069,75.648125,207.08324
"61912",837.0202,75.76044,207.05956
"61913",837.0335,76.14374,207.31036
"61914",837.0468,76.93477,207.98088
"61915",837.0601,78.21408,209.1644
"61916",837.0734,79.94507,210.83957
"61917",837.08673,81.97879,212.87158
"61918",837.10004,84.06622,215.02086
"61919",837.11334,85.9559,217.03761
"61920",837.12665,87.450066,218.7179
"61921",837.13995,88.463264,219.96391
"61922",837.15326,88.98573,220.75085
"61923",837.16656,89.07118,221.11711
"61924",837.1799,88.80263,221.13203
"61925",837.1932,88.289925,220.89441
"61926",837.2065,87.63317,220.49672
"61927",837.2198,86.93004,220.03212
"61928",837.2331,86.24643,219.56508
"61929",837.2464,85.628746,219.1426
"61930",837.2597,85.084305,218.77405
"61931",837.273,84.59846,218.44708
"61932",837.2863,84.14679,218.13911
"61933",837.2996,83.719536,217.84145
"61934",837.3129,83.31426,217.55241
"61935",837.32623,82.9456,217.28732
"61936",837.33954,82.62821,217.06198
"61937",837.35284,82.38651,216.90242
"61938",837.36615,82.210724,216.80121
"61939",837.37946,82.08865,216.74823
"61940",837.39276,81.99588,216.72073
"61941",837.40607,81.90799,216.69522
"61942",837.4194,81.78836,216.63522
"61943",837.4327,81.62234,216.52509
"61944",837.446,81.40017,216.35362
"61945",837.4593,81.11696,216.11417
"61946",837.4726,80.7776,215.80972
"61947",837.4859,80.394295,215.45071
"61948",837.4992,79.98413,215.05287
"61949",837.5125,79.5642,214.63245
"61950",837.5258,79.151596,214.20622
"61951",837.5391,78.75853,213.78664
"61952",837.5524,78.38743,213.37674
"61953",837.56573,78.04074,212.97966
"61954",837.57904,77.72091,212.5986
"61955",837.59235,77.43282,212.23929
"61956",837.60565,77.16914,211.89539
"61957",837.61896,76.94209,211.57986
"61958",837.63226,76.74189,211.2841
"61959",837.64557,76.56855,211.00894
"61960",837.6589,76.4123,210.74545
"61961",837.6722,76.27802,210.49905
"61962",837.6855,76.16327,210.26799
"61963",837.6988,76.06317,210.04799
"61964",837.7121,75.97772,209.83951
"61965",837.7254,75.90692,209.643
"61966",837.7387,75.83856,209.44673
"61967",837.752,75.772644,209.25076
"61968",837.7653,75.701836,209.04785
"61969",837.7786,75.62859,208.84029
"61970",837.79193,75.55535,208.63043
"61971",837.80524,75.48699,208.42317
"61972",837.81854,75.421074,208.21622
"61973",837.83185,75.36736,208.01941
"61974",837.84515,75.32098,207.82825
"61975",837.85846,75.28191,207.64296
"61976",837.87177,75.250175,207.46378
"61977",837.8851,75.21599,207.28116
"61978",837.8984,75.18425,207.09991
"61979",837.9117,75.14519,206.91035
"61980",837.925,75.10368,206.71713
"61981",837.9383,75.06706,206.5275
"61982",837.9516,75.089035,206.39531
"61983",837.9649,75.29412,206.44693
"61984",837.9782,75.843445,206.8492
"61985",837.9915,76.87129,207.74715
"61986",838.0048,78.41184,209.18993
"61987",838.0181,80.37965,211.1081
"61988",838.03143,82.564735,213.30505
"61989",838.04474,84.69611,215.51659
"61990",838.05804,86.522316,217.48955
"61991",838.07135,87.8822,219.05325
"61992",838.08466,88.72205,220.13942
"61993",838.09796,89.05165,220.74158
"61994",838.11127,88.94179,220.91458
"61995",838.1246,88.497444,220.74966
"61996",838.1379,87.83093,220.3487
"61997",838.1512,87.05211,219.81459
"61998",838.1645,86.24155,219.22441
"61999",838.1778,85.46273,218.64064
"62000",838.1911,84.7425,218.09113
"62001",838.2044,84.08331,217.58014
"62002",838.2177,83.48516,217.10959
"62003",838.231,82.9456,216.67894
"62004",838.2443,82.476845,216.30223
"62005",838.2576,82.09598,215.99876
"62006",838.27094,81.81033,215.77863
"62007",838.28424,81.62478,215.64964
"62008",838.29755,81.529564,215.60521
"62009",838.31085,81.495384,215.61884
"62010",838.32416,81.49294,215.66313
"62011",838.33746,81.480736,215.69759
"62012",838.35077,81.42947,215.6926
"62013",838.3641,81.31472,215.62253
"62014",838.3774,81.12428,215.47318
"62015",838.3907,80.85817,215.2422
"62016",838.404,80.533455,214.9443
"62017",838.4173,80.164795,214.59232
"62018",838.4306,79.764404,214.19708
"62019",838.4439,79.3518,213.77711
"62020",838.4572,78.93919,213.34425
"62021",838.4705,78.538795,212.9107
"62022",838.4838,78.16281,212.48906
"62023",838.49713,77.81369,212.08252
"62024",838.51044,77.488976,211.68948
"62025",838.52374,77.19112,211.31316
"62026",838.53705,76.92256,210.95682
"62027",838.55035,76.68574,210.62383
"62028",838.56366,76.48066,210.31517
"62029",838.57697,76.30488,210.0294
"62030",838.5903,76.15839,209.76744
"62031",838.6036,76.03876,209.52776
"62032",838.6169,75.9411,209.3063
"62033",838.6302,75.86542,209.10378
"62034",838.6435,75.80682,208.91597
"62035",838.6568,75.757996,208.7361
"62036",838.6701,75.718925,208.56447
"62037",838.6834,75.682304,208.39406
"62038",838.6967,75.650566,208.22739
"62039",838.71,75.61639,208.05728
"62040",838.7233,75.58465,207.88855
"62041",838.73663,75.55291,207.71883
"62042",838.74994,75.51385,207.54079
"62043",838.76324,75.46502,207.35176
"62044",838.77655,75.406425,207.15144
"62045",838.78986,75.35027,206.95174
"62046",838.80316,75.34783,206.80399
"62047",838.81647,75.51385,206.82462
"62048",838.8298,76.00946,207.18004
"62049",838.8431,76.9543,208.00017
"62050",838.8564,78.382545,209.33324
"62051",838.8697,80.2063,211.10645
"62052",838.883,82.22781,213.1344
"62053",838.8963,84.18341,215.15962
"62054",838.9096,85.8436,216.95055
"62055",838.9229,87.047226,218.33679
"62056",838.9362,87.743034,219.25282
"62057",838.9495,87.953,219.70476
"62058",838.9628,87.743034,219.74332
"62059",838.97614,87.2108,219.45305
"62060",838.98944,86.47105,218.93863
"62061",839.00275,85.63607,218.30588
"62062",839.01605,84.771805,217.61774
"62063",839.02936,83.93927,216.93433
"62064",839.04266,83.16533,216.2835
"62065",839.05597,82.4622,215.67928
"62066",839.0693,81.83963,215.13365
"62067",839.0826,81.31472,214.66623
"62068",839.0959,80.90944,214.30203
"62069",839.1092,80.638435,214.05945
"62070",839.1225,80.49195,213.93292
"62071",839.1358,80.45777,213.91412
"62072",839.1491,80.50904,213.9797
"62073",839.1624,80.59693,214.08351
"62074",839.1757,80.6775,214.18274
"62075",839.189,80.72144,214.24786
"62076",839.20233,80.69703,214.246
"62077",839.21564,80.59693,214.1677
"62078",839.22894,80.40894,213.99837
"62079",839.24225,80.15015,213.75235
"62080",839.25555,79.83276,213.43967
"62081",839.26886,79.47875,213.08043
"62082",839.28217,79.10521,212.6906
"62083",839.2955,78.729225,212.28665
"62084",839.3088,78.363014,211.88072
"62085",839.3221,78.013885,211.48044
"62086",839.3354,77.68429,211.08878
"62087",839.3487,77.37423,210.70634
"62088",839.362,77.0959,210.34596
"62089",839.3753,76.84932,210.00862
"62090",839.3886,76.63691,209.69775
"62091",839.4019,76.453804,209.40955
"62092",839.4152,76.30488,209.1498
"62093",839.4285,76.17792,208.90736
"62094",839.44183,76.07782,208.68782
"62095",839.45514,75.999695,208.48712
"62096",839.46844,75.945984,208.3084
"62097",839.48175,75.914246,208.14996
"62098",839.49506,75.897156,208.00519
"62099",839.50836,75.88495,207.86476
"62100",839.52167,75.88251,207.73372
"62101",839.535,75.880066,207.6026
"62102",839.5483,75.87274,207.46652
"62103",839.5616,75.85565,207.32045
"62104",839.5749,75.8288,207.16408
"62105",839.5882,75.80438,207.00931
"62106",839.6015,75.85321,206.92702
"62107",839.6148,76.10956,207.05377
"62108",839.6281,76.7248,207.54744
"62109",839.6414,77.786835,208.50713
"62110",839.6547,79.27856,209.92969
"62111",839.668,81.07057,211.69916
"62112",839.68134,82.93828,213.60033
"62113",839.69464,84.61555,215.36942
"62114",839.70795,85.90219,216.8003
"62115",839.72125,86.70298,217.78552
"62116",839.73456,87.010605,218.30261
"62117",839.74786,86.87877,218.38986
"62118",839.76117,86.40513,218.13118
"62119",839.7745,85.70199,217.6282
"62120",839.7878,84.874344,216.97874
"62121",839.8011,84.00519,216.26192
"62122",839.8144,83.15068,215.53258
"62123",839.8277,82.34989,214.83025
"62124",839.841,81.62234,214.17613
"62125",839.8543,80.98268,213.58717
"62126",839.8676,80.45289,213.08809
"62127",839.8809,80.045166,212.69452
"62128",839.8942,79.77905,212.42981
"62129",839.90753,79.656975,212.30083
"62130",839.92084,79.67162,212.30475
"62131",839.93414,79.79614,212.419
"62132",839.94745,79.97925,212.59573
"62133",839.96075,80.17212,212.78796
"62134",839.97406,80.32838,212.9496
"62135",839.98737,80.4065,213.038
"62136",840.0007,80.38941,213.03362
"62137",840.014,80.274666,212.93105
"62138",840.0273,80.06958,212.73454
"62139",840.0406,79.801025,212.46817
"62140",840.0539,79.48852,212.14944
"62141",840.0672,79.149155,211.7941
"62142",840.0805,78.80003,211.41838
"62143",840.0938,78.46555,211.0464
"62144",840.1071,78.14572,210.67862
"62145",840.1204,77.85031,210.32526
"62146",840.1337,77.58175,209.98952
"62147",840.14703,77.34005,209.67224
"62148",840.16034,77.12764,209.37671
"62149",840.17365,76.93965,209.09895
"62150",840.18695,76.788284,208.85194
"62151",840.20026,76.66621,208.6295
"62152",840.21356,76.57343,208.43254
"62153",840.22687,76.507515,208.25954
"62154",840.2402,76.46357,208.10645
"62155",840.2535,76.42939,207.96175
"62156",840.2668,76.404976,207.82574
"62157",840.2801,76.37812,207.68654
"62158",840.2934,76.36591,207.56114
"62159",840.3067,76.43183,207.51349
"62160",840.32,76.69306,207.66321
"62161",840.3333,77.29122,208.15802
"62162",840.3466,78.30442,209.08656
"62163",840.3599,79.72289,210.45204
"62164",840.3732,81.41726,212.13774
"62165",840.38654,83.16289,213.92766
"62166",840.39984,84.70832,215.57193
"62167",840.41315,85.86801,216.87875
"62168",840.42645,86.54917,217.74329
"62169",840.43976,86.75426,218.15303
"62170",840.45306,86.54917,218.15901
"62171",840.4664,86.03891,217.85341
"62172",840.4797,85.32113,217.32434
"62173",840.493,84.49836,216.66786
"62174",840.5063,83.648735,215.95882
"62175",840.5196,82.82353,215.24763
"62176",840.5329,82.04959,214.56194
"62177",840.5462,81.34646,213.92285
"62178",840.5595,80.73121,213.34969
"62179",840.5728,80.22827,212.8696
"62180",840.5861,79.84985,212.49832
"62181",840.5994,79.61791,212.26169
"62182",840.61273,79.53246,212.16429
"62183",840.62604,79.57641,212.19362
"62184",840.63934,79.71801,212.32198
"62185",840.65265,79.91333,212.50848
"62186",840.66595,80.1062,212.69864
"62187",840.67926,80.255135,212.85089
"62188",840.69257,80.323494,212.92723
"62189",840.7059,80.29908,212.91293
"62190",840.7192,80.17456,212.79776
"62191",840.7325,79.96704,212.5957
"62192",840.7458,79.70092,212.32855
"62193",840.7591,79.3933,212.01158
"62194",840.7724,79.06615,211.66547
"62195",840.7857,78.73899,211.30913
"62196",840.799,78.42405,210.95477
"62197",840.8123,78.12863,210.6101
"62198",840.8256,77.86252,210.2855
"62199",840.8389,77.625694,209.98189
"62200",840.85223,77.41085,209.69284
"62201",840.86554,77.21797,209.41905
"62202",840.87885,77.04707,209.16121
"62203",840.89215,76.893265,208.91512
"62204",840.90546,76.75899,208.68375
"62205",840.91876,76.64912,208.4726
"62206",840.93207,76.578316,208.29707
"62207",840.9454,76.62226,208.23409
"62208",840.9587,76.90303,208.4093
"62209",840.972,77.54757,208.95706
"62210",840.9853,78.626686,209.95953
"62211",840.9986,80.09888,211.38881
"62212",841.0119,81.815216,213.10825
"62213",841.0252,83.53399,214.88374
"62214",841.0385,85.01106,216.47125
"62215",841.0518,86.07065,217.68744
"62216",841.0651,86.65171,218.4582
"62217",841.0784,86.75914,218.7735
"62218",841.09174,86.47105,218.69662
"62219",841.10504,85.892426,218.32022
"62220",841.11835,85.138016,217.74995
"62221",841.13165,84.300606,217.0731
"62222",841.14496,83.458305,216.3652
"62223",841.15826,82.65507,215.67004
"62224",841.1716,81.91531,215.01326
"62225",841.1849,81.24635,214.40416
"62226",841.1982,80.65797,213.85472
"62227",841.2115,80.17212,213.38943
"62228",841.2248,79.80835,213.03104
"62229",841.2381,79.57885,212.79555
"62230",841.2514,79.49096,212.69449
"62231",841.2647,79.520256,212.70787
"62232",841.278,79.635,212.80762
"62233",841.2913,79.79126,212.95247
"62234",841.3046,79.937744,213.09244
"62235",841.31793,80.03296,213.1857
"62236",841.33124,80.05737,213.21115
"62237",841.34454,79.9939,213.14948
"62238",841.35785,79.84741,213.0028
"62239",841.37115,79.63012,212.78075
"62240",841.38446,79.364006,212.50307
"62241",841.39777,79.07103,212.19022
"62242",841.4111,78.768295,211.85844
"62243",841.4244,78.46311,211.51477
"62244",841.4377,78.16281,211.16644
"62245",841.451,77.88205,210.82826
"62246",841.4643,77.62081,210.50084
"62247",841.4776,77.383995,210.18967
"62248",841.4909,77.17891,209.90283
"62249",841.5042,76.998245,209.634
"62250",841.5175,76.83467,209.37662
"62251",841.5308,76.69062,209.13365
"62252",841.5441,76.58564,208.92525
"62253",841.55743,76.60761,208.84052
"62254",841.57074,76.895706,209.0226
"62255",841.58405,77.57931,209.60919
"62256",841.59735,78.70725,210.66148
"62257",841.61066,80.22339,212.13722
"62258",841.62396,81.951935,213.87274
"62259",841.63727,83.64629,215.6281
"62260",841.6506,85.05989,217.15564
"62261",841.6639,86.031586,218.28546
"62262",841.6772,86.51011,218.95247
"62263",841.6905,86.52964,219.17545
"62264",841.7038,86.17563,219.02548
"62265",841.7171,85.56771,218.61055
"62266",841.7304,84.81575,218.03258
"62267",841.7437,84.01007,217.3774
"62268",841.757,83.22148,216.71413
"62269",841.7703,82.48661,216.07993
"62270",841.7836,81.81766,215.48868
"62271",841.79694,81.22194,214.94977
"62272",841.81024,80.69703,214.46304
"62273",841.82355,80.25269,214.0405
"62274",841.83685,79.89868,213.69438
"62275",841.85016,79.64477,213.4373
"62276",841.86346,79.500725,213.28215
"62277",841.8768,79.46166,213.22748
"62278",841.8901,79.50805,213.25703
"62279",841.9034,79.60082,213.33443
"62280",841.9167,79.70092,213.42204
"62281",841.93,79.77417,213.48595
"62282",841.9433,79.78882,213.49353
"62283",841.9566,79.727776,213.42589
"62284",841.9699,79.588615,213.27821
"62285",841.9832,79.381096,213.05783
"62286",841.9965,79.11986,212.77725
"62287",842.0098,78.83177,212.46165
"62288",842.02313,78.53147,212.12485
"62289",842.03644,78.22873,211.77621
"62290",842.04974,77.94064,211.43277
"62291",842.06305,77.67208,211.09985
"62292",842.07635,77.4255,210.78052
"62293",842.08966,77.208206,210.48277
"62294",842.10297,77.02022,210.20753
"62295",842.1163,76.85664,209.95084
"62296",842.1296,76.71015,209.70612
"62297",842.1429,76.595406,209.48856
"62298",842.1562,76.561226,209.34798
"62299",842.1695,76.72236,209.40164
"62300",842.1828,77.21309,209.78995
"62301",842.1961,78.13107,210.62083
"62302",842.2094,79.466545,211.8979
"62303",842.2227,81.10231,213.517
"62304",842.236,82.811325,215.26047
"62305",842.2493,84.33723,216.87422
"62306",842.26263,85.47982,218.15236
"62307",842.27594,86.136566,218.98035
"62308",842.28925,86.3148,219.35034
"62309",842.30255,86.09018,219.32306
"62310",842.31586,85.57748,219.00067
"62311",842.32916,84.88899,218.48648
"62312",842.34247,84.1297,217.87997
"62313",842.3558,83.38018,217.2595
"62314",842.3691,82.686806,216.67177
"62315",842.3824,82.06424,216.13316
"62316",842.3957,81.50515,215.63858
"62317",842.409,80.99977,215.18024
"62318",842.4223,80.54322,214.75493
"62319",842.4356,80.14282,214.3715
"62320",842.4489,79.815674,214.04883
"62321",842.4622,79.586174,213.81357
"62322",842.4755,79.46166,213.67612
"62323",842.48883,79.43481,213.63243
"62324",842.50214,79.47875,213.6587
"62325",842.51544,79.56176,213.72542
"62326",842.52875,79.639885,213.78984
"62327",842.54205,79.68139,213.82008
"62328",842.55536,79.65209,213.78082
"62329",842.56866,79.54711,213.66496
"62330",842.582,79.36645,213.47014
"62331",842.5953,79.132065,213.21596
"62332",842.6086,78.85863,212.91539
"62333",842.6219,78.56321,212.5843
"62334",842.6352,78.2678,212.24399
"62335",842.6485,77.97482,211.89688
"62336",842.6618,77.69894,211.55771
"62337",842.6751,77.44747,211.23433
"62338",842.6884,77.22774,210.93483
"62339",842.7017,77.03731,210.65776
"62340",842.715,76.87862,210.40648
"62341",842.72833,76.73945,210.16977
"62342",842.74164,76.61494,209.94336
"62343",842.75494,76.50263,209.72527
"62344",842.76825,76.41474,209.52808
"62345",842.78156,76.4123,209.41359
"62346",842.79486,76.612495,209.50166
"62347",842.80817,77.14961,209.93292
"62348",842.8215,78.11398,210.80821
"62349",842.8348,79.49096,212.12625
"62350",842.8481,81.146255,213.76564
"62351",842.8614,82.85527,215.51048
"62352",842.8747,84.35676,217.1012
"62353",842.888,85.45541,218.336
"62354",842.9013,86.07065,219.12172
"62355",842.9146,86.219574,219.46036
"62356",842.9279,85.980316,219.41547
"62357",842.9412,85.47494,219.09697
"62358",842.9545,84.82063,218.61375
"62359",842.96783,84.11505,218.05882
"62360",842.98114,83.43145,217.50381
"62361",842.99445,82.811325,216.99092
"62362",843.00775,82.25956,216.52701
"62363",843.02106,81.76395,216.102
"62364",843.03436,81.307396,215.70058
"62365",843.04767,80.88014,215.31418
"62366",843.061,80.48707,214.94861
"62367",843.0743,80.14526,214.62202
"62368",843.0876,79.869385,214.35068
"62369",843.1009,79.674065,214.15128
"62370",843.1142,79.5642,214.03122
"62371",843.1275,79.53002,213.98341
"62372",843.1408,79.54223,213.98093
"62373",843.1541,79.56664,213.99103
"62374",843.1674,79.56664,213.97748
"62375",843.1807,79.520256,213.91754
"62376",843.19403,79.412834,213.79512
"62377",843.20734,79.24193,213.60587
"62378",843.22064,79.01976,213.36
"62379",843.23395,78.768295,213.0779
"62380",843.24725,78.49973,212.77084
"62381",843.26056,78.21896,212.44319
"62382",843.27386,77.945526,212.11409
"62383",843.2872,77.68429,211.78865
"62384",843.3005,77.44503,211.47702
"62385",843.3138,77.225296,211.17744
"62386",843.3271,77.03731,210.90274
"62387",843.3404,76.87862,210.65146
"62388",843.3537,76.749214,210.42451
"62389",843.367,76.64423,210.21794
"62390",843.3803,76.561226,210.03006
"62391",843.3936,76.49287,209.85423
"62392",843.4069,76.42939,209.68115
"62393",843.4202,76.36591,209.50609
"62394",843.43353,76.32197,209.34857
"62395",843.44684,76.3708,209.28246
"62396",843.46014,76.63203,209.43027
"62397",843.47345,77.2375,209.9305
"62398",843.48676,78.26536,210.87202
"62399",843.50006,79.68383,212.23628
"62400",843.51337,81.339134,213.8817
"62401",843.5267,82.99931,215.58372
"62402",843.54,84.41779,217.09593
"62403",843.5533,85.4139,218.2301
"62404",843.5666,85.926605,218.91199
"62405",843.5799,85.994965,219.16556
"62406",843.5932,85.71664,219.07457
"62407",843.6065,85.20882,218.74539
"62408",843.6198,84.593575,218.29292
"62409",843.6331,83.95636,217.79926
"62410",843.6464,83.35577,217.3223
"62411",843.6597,82.81865,216.89005
"62412",843.67303,82.34257,216.50204
"62413",843.68634,81.90799,216.14067
"62414",843.69965,81.49294,215.78525
"62415",843.71295,81.08522,215.42418
"62416",843.72626,80.69215,215.06502
"62417",843.73956,80.32838,214.72289
"62418",843.75287,80.02319,214.42796
"62419",843.7662,79.7937,214.19919
"62420",843.7795,79.65209,214.05113
"62421",843.7928,79.588615,213.97678
"62422",843.8061,79.57885,213.95415
"62423",843.8194,79.588615,213.95074
"62424",843.8327,79.588615,213.93788
"62425",843.846,79.54223,213.87863
"62426",843.8593,79.43725,213.75934
"62427",843.8726,79.26635,213.57085
"62428",843.8859,79.03685,213.31842
"62429",843.89923,78.768295,213.01976
"62430",843.91254,78.467995,212.68097
"62431",843.92584,78.15793,212.32303
"62432",843.93915,77.85031,211.95784
"62433",843.95245,77.56222,211.60257
"62434",843.96576,77.30343,211.2676
"62435",843.97906,77.083694,210.9636
"62436",843.9924,76.89815,210.6869
"62437",844.0057,76.749214,210.44104
"62438",844.019,76.627144,210.21738
"62439",844.0323,76.53681,210.02164
"62440",844.0456,76.46357,209.84016
"62441",844.0589,76.40986,209.67593
"62442",844.0722,76.3708,209.52467
"62443",844.0855,76.34638,209.38684
"62444",844.0988,76.32197,209.24825
"62445",844.1121,76.299995,209.11133
"62446",844.1254,76.27802,208.97372
"62447",844.13873,76.27802,208.8574
"62448",844.15204,76.37812,208.84119
"62449",844.16534,76.70527,209.05515
"62450",844.17865,77.39376,209.64067
"62451",844.19196,78.49973,210.66519
"62452",844.20526,79.97681,212.09538
"62453",844.21857,81.66384,213.7817
"62454",844.2319,83.32647,215.49632
"62455",844.2452,84.72297,216.99678
"62456",844.2585,85.697105,218.11852
"62457",844.2718,86.204926,218.80437
"62458",844.2851,86.2855,219.07884
"62459",844.2984,86.029144,219.0189
"62460",844.3117,85.56039,218.73856
"62461",844.325,84.98421,218.33614
"62462",844.3383,84.39094,217.89862
"62463",844.3516,83.84161,217.48651
"62464",844.3649,83.35577,217.12071
"62465",844.37823,82.92607,216.79588
"62466",844.39154,82.528114,216.48936
"62467",844.40485,82.13748,216.17773
"62468",844.41815,81.73464,215.84169
"62469",844.43146,81.32693,215.48819
"62470",844.44476,80.938736,215.14146
"62471",844.45807,80.6067,214.83876
"62472",844.4714,80.360115,214.61115
"62473",844.4847,80.20386,214.46614
"62474",844.498,80.130615,214.39926
"62475",844.5113,80.113525,214.38626
"62476",844.5246,80.111084,214.38736
"62477",844.5379,80.093994,214.37375
"62478",844.5512,80.03296,214.31564
"62479",844.5645,79.90845,214.19217
"62480",844.5778,79.725334,214.0062
"62481",844.5911,79.48852,213.76079
"62482",844.60443,79.20775,213.46404
"62483",844.61774,78.905014,213.13654
"62484",844.63104,78.59739,212.7947
"62485",844.64435,78.29954,212.453
"62486",844.65765,78.01877,212.1191
"62487",844.67096,77.76486,211.80327
"62488",844.68427,77.53536,211.50392
"62489",844.6976,77.33517,211.2267
"62490",844.7109,77.15694,210.9652
"62491",844.7242,77.00313,210.72253
"62492",844.7375,76.87373,210.49948
"62493",844.7508,76.76631,210.29436
"62494",844.7641,76.67353,210.10052
"62495",844.7774,76.60517,209.9282
"62496",844.7907,76.54658,209.76352
"62497",844.804,76.50019,209.6092
"62498",844.8173,76.46357,209.46321
"62499",844.8306,76.436714,209.32584
"62500",844.84393,76.4123,209.19006
"62501",844.85724,76.39033,209.05597
"62502",844.87054,76.3708,208.92363
"62503",844.88385,76.34882,208.78824
"62504",844.89716,76.30732,208.63263
"62505",844.91046,76.25605,208.46596
"62506",844.92377,76.209656,208.30257
"62507",844.9371,76.24628,208.22073
"62508",844.9504,76.49531,208.35246
"62509",844.9637,77.10811,208.85574
"62510",844.977,78.167694,209.82495
"62511",844.9903,79.65209,211.25209
"62512",845.0036,81.42947,213.01859
"62513",845.0169,83.265434,214.89923
"62514",845.0302,84.91585,216.65169
"62515",845.0435,86.185394,218.07486
"62516",845.0568,86.99596,219.07872
"62517",845.0701,87.35729,219.65868
"62518",845.08344,87.34264,219.87395
"62519",845.09674,87.05455,219.8153
"62520",845.11005,86.60532,219.58653
"62521",845.12335,86.08774,219.27536
"62522",845.13666,85.575035,218.9529
"62523",845.14996,85.10628,218.65836
"62524",845.16327,84.681465,218.39311
"62525",845.1766,84.28596,218.1439
"62526",845.1899,83.895325,217.8872
"62527",845.2032,83.48272,217.59633
"62528",845.2165,83.04814,217.27058
"62529",845.2298,82.616005,216.9337
"62530",845.2431,82.22781,216.62726
"62531",845.2564,81.91287,216.38194
"62532",845.2697,81.6907,216.21954
"62533",845.283,81.55398,216.13567
"62534",845.2963,81.48562,216.11588
"62535",845.30963,81.449,216.12569
"62536",845.32294,81.40017,216.12215
"62537",845.33624,81.30984,216.07558
"62538",845.34955,81.160904,215.96758
"62539",845.36285,80.94606,215.78902
"62540",845.37616,80.66773,215.54025
"62541",845.38947,80.34547,215.23886
"62542",845.4028,79.99634,214.90053
"62543",845.4161,79.63256,214.53664
"62544",845.4294,79.26879,214.16138
"62545",845.4427,78.91478,213.78452
"62546",845.456,78.57786,213.41368
"62547",845.4693,78.26536,213.05673
"62548",845.4826,77.98215,212.71931
"62549",845.4959,77.730675,212.40479
"62550",845.5092,77.506065,212.10925
"62551",845.5225,77.31075,211.836
"62552",845.5358,77.14229,211.5835
"62553",845.54913,76.99336,211.34526
"62554",845.56244,76.86641,211.12434
"62555",845.57574,76.754105,210.91411
"62556",845.58905,76.64912,210.70769
"62557",845.60236,76.55146,210.50531
"62558",845.61566,76.46357,210.30965
"62559",845.62897,76.387886,210.12344
"62560",845.6423,76.31953,209.9422
"62561",845.6556,76.26093,209.76859
"62562",845.6689,76.2121,209.6029
"62563",845.6822,76.16327,209.4357
"62564",845.6955,76.112,209.26453
"62565",845.7088,76.05585,209.08687
"62566",845.7221,75.99481,208.90257
"62567",845.7354,75.92401,208.7066
"62568",845.7487,75.86786,208.52307
"62569",845.762,75.897156,208.42323
"62570",845.7753,76.14618,208.54404
"62571",845.78864,76.76875,209.04617
"62572",845.80194,77.857635,210.03407
"62573",845.81525,79.40795,211.51744
"62574",845.82855,81.29275,213.38373
"62575",845.84186,83.29229,215.42368
"62576",845.85516,85.14534,217.37961
"62577",845.86847,86.65659,219.05165
"62578",845.8818,87.71618,220.31926
"62579",845.8951,88.32166,221.16588
"62580",845.9084,88.514534,221.6188
"62581",845.9217,88.38514,221.7555
"62582",845.935,88.03845,221.67084
"62583",845.9483,87.569695,221.45328
"62584",845.9616,87.05943,221.17957
"62585",845.9749,86.56382,220.90456
"62586",845.9882,86.0975,220.64336
"62587",846.0015,85.65316,220.38956
"62588",846.01483,85.20149,220.11455
"62589",846.02814,84.72785,219.80345
"62590",846.04144,84.224915,219.44826
"62591",846.05475,83.719536,219.0749
"62592",846.06805,83.243454,218.71506
"62593",846.08136,82.83818,218.41115
"62594",846.09467,82.528114,218.18977
"62595",846.108,82.30839,218.04906
"62596",846.1213,82.16922,217.98203
"62597",846.1346,82.06912,217.94972
"62598",846.1479,81.971466,217.91673
"62599",846.1612,81.83963,217.84651
"62600",846.1745,81.651634,217.716
"62601",846.1878,81.3904,217.5064
"62602",846.2011,81.058365,217.2178
"62603",846.2144,80.67017,216.86269
"62604",846.2277,80.24292,216.45638
"62605",846.241,79.79126,216.0123
"62606",846.25433,79.34203,215.55655
"62607",846.26764,78.907455,215.10141
"62608",846.28094,78.49241,214.65222
"62609",846.29425,78.10422,214.21692
"62610",846.30756,77.74288,213.79634
"62611",846.32086,77.40353,213.38644
"62612",846.33417,77.08858,212.99036
"62613",846.3475,76.805374,212.61617
"62614",846.3608,76.55146,212.26242
"62615",846.3741,76.334175,211.93736
"62616",846.3874,76.14618,211.63481
"62617",846.4007,75.98749,211.35568
"62618",846.414,75.85077,211.09357
"62619",846.4273,75.72869,210.84183
"62620",846.4406,75.61883,210.59848
"62621",846.4539,75.51629,210.35902
"62622",846.4672,75.421074,210.12369
"62623",846.4805,75.33318,209.8927
"62624",846.49384,75.25506,209.66873
"62625",846.50714,75.18669,209.45209
"62626",846.52045,75.13054,209.24551
"62627",846.53375,75.07927,209.04207
"62628",846.54706,75.03044,208.83946
"62629",846.56036,74.97429,208.628
"62630",846.57367,74.898605,208.39526
"62631",846.587,74.813156,208.15039
"62632",846.6003,74.76189,207.93703
"62633",846.6136,74.8571,207.86855
"62634",846.6269,75.26238,208.11311
"62635",846.6402,76.11932,208.822
"62636",846.6535,77.506065,210.08748
"62637",846.6668,79.364006,211.86748
"62638",846.6801,81.52224,214.00583
"62639",846.6934,83.72442,216.25558
"62640",846.7067,85.714195,218.36176
"62641",846.72003,87.308464,220.1346
"62642",846.73334,88.41688,221.4714
"62643",846.74664,89.039444,222.357
"62644",846.75995,89.22499,222.82503
"62645",846.77325,89.06386,222.95218
"62646",846.78656,88.66102,222.83258
"62647",846.79987,88.12634,222.56856
"62648",846.8132,87.54528,222.24144
"62649",846.8265,86.97154,221.90349
"62650",846.8398,86.42954,221.57935
"62651",846.8531,85.90463,221.25536
"62652",846.8664,85.3724,220.90764
"62653",846.8797,84.81819,220.52132
"62654",846.893,84.24933,220.10303
"62655",846.9063,83.685356,219.67184
"62656",846.9196,83.16777,219.26942
"62657",846.9329,82.72831,218.92896
"62658",846.9462,82.38651,218.67242
"62659",846.95953,82.13748,218.49797
"62660",846.97284,81.9617,218.38899
"62661",846.98615,81.82254,218.31114
"62662",846.99945,81.67849,218.22404
"62663",847.01276,81.497826,218.09584
"62664",847.02606,81.253685,217.89851
"62665",847.03937,80.936295,217.6203
"62666",847.0527,80.5481,217.26137
"62667",847.066,80.10132,216.83171
"62668",847.0793,79.61059,216.34415
"62669",847.0926,79.10277,215.82416
"62670",847.1059,78.59739,215.29074
"62671",847.1192,78.1091,214.75862
"62672",847.1325,77.65011,214.24054
"62673",847.1458,77.225296,213.7423
"62674",847.1591,76.83467,213.26495
"62675",847.1724,76.473335,212.8047
"62676",847.1857,76.14862,212.36978
"62677",847.19904,75.862976,211.96378
"62678",847.21234,75.6115,211.58302
"62679",847.22565,75.39178,211.22615
"62680",847.23895,75.20134,210.89171
"62681",847.25226,75.035324,210.57573
"62682",847.26556,74.88884,210.2741
"62683",847.2789,74.75456,209.98009
"62684",847.2922,74.634926,209.69653
"62685",847.3055,74.529945,209.42389
"62686",847.3188,74.43717,209.16017
"62687",847.3321,74.356606,208.90576
"62688",847.3454,74.288246,208.66104
"62689",847.3587,74.2272,208.42151
"62690",847.372,74.17105,208.18495
"62691",847.3853,74.11734,207.94908
"62692",847.3986,74.05875,207.70665
"62693",847.4119,74.00015,207.46239
"62694",847.42523,73.94156,207.2163
"62695",847.43854,73.882965,206.96837
"62696",847.45184,73.81705,206.71129
"62697",847.46515,73.763336,206.46436
"62698",847.47845,73.78531,206.29143
"62699",847.49176,74.01724,206.32915
"62700",847.50507,74.6276,206.75255
"62701",847.5184,75.74334,207.7004
"62702",847.5317,77.39132,209.21535
"62703",847.545,79.48119,211.2237
"62704",847.5583,81.78836,213.51465
"62705",847.5716,84.03937,215.82155
"62706",847.5849,85.98276,217.89117
"62707",847.5982,87.46227,219.55765
"62708",847.6115,88.41932,220.7479
"62709",847.6248,88.866104,221.45778
"62710",847.6381,88.87831,221.74706
"62711",847.6514,88.57069,221.71687
"62712",847.66473,88.05798,221.472
"62713",847.67804,87.44518,221.11101
"62714",847.69135,86.81285,220.71133
"62715",847.70465,86.204926,220.31631
"62716",847.71796,85.64095,219.94624
"62717",847.73126,85.09651,219.57808
"62718",847.74457,84.54963,219.19046
"62719",847.7579,83.9881,218.7711
"62720",847.7712,83.41924,218.32687
"62721",847.7845,82.86748,217.88196
"62722",847.7978,82.371864,217.47595
"62723",847.8111,81.95926,217.13747
"62724",847.8244,81.654076,216.89351
"62725",847.8377,81.444115,216.73524
"62726",847.851,81.29519,216.63145
"62727",847.8643,81.16823,216.54497
"62728",847.8776,81.02907,216.44232
"62729",847.8909,80.84352,216.28894
"62730",847.90424,80.587166,216.05894
"62731",847.91754,80.257576,215.74771
"62732",847.93085,79.85718,215.35536
"62733",847.94415,79.40795,214.90167
"62734",847.95746,78.92943,214.40465
"62735",847.97076,78.43626,213.87802
"62736",847.9841,77.95041,213.3433
"62737",847.9974,77.48409,212.81294
"62738",848.0107,77.03975,212.28998
"62739",848.024,76.627144,211.78487
"62740",848.0373,76.25361,211.30592
"62741",848.0506,75.92401,210.85925
"62742",848.0639,75.63836,210.44623
"62743",848.0772,75.3991,210.07066
"62744",848.0905,75.1989,209.72668
"62745",848.1038,75.03044,209.40819
"62746",848.1171,74.89372,209.11617
"62747",848.13043,74.77898,208.84184
"62748",848.14374,74.68131,208.58102
"62749",848.15704,74.59342,208.32692
"62750",848.17035,74.50797,208.07251
"62751",848.18365,74.42741,207.82031
"62752",848.19696,74.3444,207.56316
"62753",848.21027,74.26627,207.30829
"62754",848.2236,74.20035,207.06319
"62755",848.2369,74.144196,206.82579
"62756",848.2502,74.10025,206.59885
"62757",848.2635,74.06851,206.38274
"62758",848.2768,74.04654,206.1754
"62759",848.2901,74.02945,205.97226
"62760",848.3034,74.01724,205.77347
"62761",848.3167,74.00015,205.56941
"62762",848.33,73.97818,205.35994
"62763",848.3433,73.951324,205.1449
"62764",848.3566,73.96353,204.96808
"62765",848.36993,74.11978,204.93568
"62766",848.38324,74.581215,205.21336
"62767",848.39655,75.494316,205.95712
"62768",848.40985,76.925,207.24701
"62769",848.42316,78.83177,209.05768
"62770",848.43646,81.041275,211.23067
"62771",848.44977,83.29473,213.51666
"62772",848.4631,85.33578,215.66068
"62773",848.4764,86.9691,217.46074
"62774",848.4897,88.09949,218.80891
"62775",848.503,88.71961,219.68214
"62776",848.5163,88.88808,220.1231
"62777",848.5296,88.70496,220.21773
"62778",848.5429,88.27772,220.06252
"62779",848.5562,87.71618,219.75966
"62780",848.5695,87.10338,219.38799
"62781",848.5828,86.502785,219.00937
"62782",848.5961,85.943695,218.65349
"62783",848.60944,85.42367,218.3192
"62784",848.62274,84.928055,217.99307
"62785",848.63605,84.43,217.64902
"62786",848.64935,83.914856,217.27231
"62787",848.66266,83.39483,216.87462
"62788",848.67596,82.89189,216.47777
"62789",848.6893,82.44511,216.12135
"62790",848.7026,82.07889,215.83154
"62791",848.7159,81.80057,215.6182
"62792",848.7292,81.600365,215.47426
"62793",848.7425,81.45388,215.37779
"62794",848.7558,81.3196,215.28896
"62795",848.7691,81.16579,215.17638
"62796",848.7824,80.96803,215.01506
"62797",848.7957,80.706795,214.78407
"62798",848.809,80.38209,214.48146
"62799",848.8223,80.0061,214.11742
"62800",848.83563,79.5935,213.705
"62801",848.84894,79.15648,213.25528
"62802",848.86224,78.712135,212.78458
"62803",848.87555,78.2678,212.29999
"62804",848.88885,77.840546,211.8186
"62805",848.90216,77.435265,211.34584
"62806",848.91547,77.06172,210.89215
"62807",848.9288,76.72724,210.46585
"62808",848.9421,76.43427,210.0706
"62809",848.9554,76.18036,209.70526
"62810",848.9687,75.96796,209.37349
"62811",848.982,75.792175,209.0717
"62812",848.9953,75.64324,208.79128
"62813",849.0086,75.51629,208.52817
"62814",849.0219,75.41131,208.28307
"62815",849.0352,75.318535,208.04689
"62816",849.0485,75.2404,207.82246
"62817",849.0618,75.174484,207.6078
"62818",849.07513,75.11833,207.40085
"62819",849.08844,75.06706,207.19702
"62820",849.10175,75.018234,206.99403
"62821",849.11505,74.97185,206.79196
"62822",849.12836,74.93523,206.5982
"62823",849.14166,74.90349,206.40819
"62824",849.15497,74.879074,206.2245
"62825",849.1683,74.8571,206.0425
"62826",849.1816,74.83757,205.86224
"62827",849.1949,74.8156,205.67894
"62828",849.2082,74.793625,205.49495
"62829",849.2215,74.76433,205.30295
"62830",849.2348,74.73502,205.11003
"62831",849.2481,74.71061,204.92108
"62832",849.2614,74.73014,204.77531
"62833",849.2747,74.898605,204.7791
"62834",849.288,75.36492,205.086
"62835",849.30133,76.27802,205.85425
"62836",849.31464,77.71603,207.17593
"62837",849.32794,79.63256,209.02109
"62838",849.34125,81.87137,211.24841
"62839",849.35455,84.18585,213.62138
"62840",849.36786,86.312355,215.8787
"62841",849.38116,88.05554,217.81914
"62842",849.3945,89.31045,219.32578
"62843",849.4078,90.0502,220.35648
"62844",849.4211,90.31632,220.93666
"62845",849.4344,90.18936,221.13208
"62846",849.4477,89.78165,221.04279
"62847",849.461,89.2079,220.77472
"62848",849.4743,88.5658,220.42036
"62849",849.4876,87.93347,220.05571
"62850",849.5009,87.34997,219.72012
"62851",849.5142,86.82506,219.4249
"62852",849.5275,86.33677,219.14989
"62853",849.54083,85.855804,218.86694
"62854",849.55414,85.367516,218.56165
"62855",849.56744,84.859695,218.22156
"62856",849.58075,84.35676,217.87048
"62857",849.59406,83.88556,217.53543
"62858",849.60736,83.475395,217.24669
"62859",849.62067,83.14336,217.02325
"62860",849.634,82.88457,216.8627
"62861",849.6473,82.68192,216.7502
"62862",849.6606,82.50126,216.65335
"62863",849.6739,82.31327,216.54353
"62864",849.6872,82.09354,216.39609
"62865",849.7005,81.81766,216.18564
"62866",849.7138,81.480736,215.90552
"62867",849.7271,81.092545,215.5636
"62868",849.7404,80.655525,215.16072
"62869",849.7537,80.18921,214.71489
"62870",849.767,79.708244,214.23984
"62871",849.78033,79.2224,213.74487
"62872",849.79364,78.74876,213.24693
"62873",849.80695,78.29954,212.7586
"62874",849.82025,77.88205,212.28798
"62875",849.83356,77.4963,211.83604
"62876",849.84686,77.14961,211.41112
"62877",849.86017,76.84688,211.0193
"62878",849.8735,76.578316,210.6522
"62879",849.8868,76.34394,210.3109
"62880",849.9001,76.14374,209.99644
"62881",849.9134,75.97284,209.70503
"62882",849.9267,75.826355,209.4327
"62883",849.94,75.701836,209.17775
"62884",849.9533,75.596855,208.93845
"62885",849.9666,75.50408,208.70807
"62886",849.9799,75.41863,208.48212
"62887",849.9932,75.335625,208.25594
"62888",850.00653,75.250175,208.02472
"62889",850.01984,75.17204,207.79816
"62890",850.03314,75.0988,207.57404
"62891",850.04645,75.035324,207.35739
"62892",850.05975,74.98161,207.14853
"62893",850.07306,74.93767,206.94775
"62894",850.08636,74.896164,206.74805
"62895",850.0997,74.85466,206.54704
"62896",850.113,74.813156,206.34474
"62897",850.1263,74.76921,206.1387
"62898",850.1396,74.720375,205.9264
"62899",850.1529,74.67887,205.71991
"62900",850.1662,74.6984,205.57315
"62901",850.1795,74.898605,205.60768
"62902",850.1928,75.440605,205.99026
"62903",850.2061,76.473335,206.88051
"62904",850.2194,78.05051,208.34747
"62905",850.2327,80.111084,210.34712
"62906",850.24603,82.47196,212.71147
"62907",850.25934,84.874344,215.1911
"62908",850.27264,87.05943,217.52852
"62909",850.28595,88.84169,219.53139
"62910",850.29926,90.12344,221.08945
"62911",850.31256,90.88274,222.1651
"62912",850.32587,91.158615,222.78107
"62913",850.3392,91.03166,223.00282
"62914",850.3525,90.614174,222.93007
"62915",850.3658,90.01846,222.66605
"62916",850.3791,89.34463,222.30528
"62917",850.3924,88.6659,221.91858
"62918",850.4057,88.01892,221.5424
"62919",850.419,87.413445,221.18752
"62920",850.4323,86.82506,220.8308
"62921",850.4456,86.24155,220.46057
"62922",850.4589,85.65804,220.07211
"62923",850.4722,85.07698,219.66786
"62924",850.48553,84.52277,219.27231
"62925",850.49884,84.02472,218.91559
"62926",850.51215,83.59991,218.61655
"62927",850.52545,83.250786,218.37993
"62928",850.53876,82.97246,218.20319
"62929",850.55206,82.7454,218.06902
"62930",850.56537,82.53788,217.9473
"62931",850.5787,82.31327,217.802
"62932",850.592,82.04959,217.61061
"62933",850.6053,81.71999,217.34506
"62934",850.6186,81.32693,217.00575
"62935",850.6319,80.88258,216.60287
"62936",850.6452,80.39918,216.14705
"62937",850.6585,79.89136,215.6517
"62938",850.6718,79.37377,215.13072
"62939",850.6851,78.853745,214.59113
"62940",850.6984,78.3386,214.04016
"62941",850.71173,77.840546,213.49019
"62942",850.72504,77.37423,212.95639
"62943",850.73834,76.94942,212.44952
"62944",850.75165,76.56611,211.97089
"62945",850.76495,76.226746,211.52422
"62946",850.77826,75.931335,211.11089
"62947",850.79156,75.67742,210.72983
"62948",850.8049,75.45525,210.37257
"62949",850.8182,75.26238,210.03767
"62950",850.8315,75.09392,209.72116
"62951",850.8448,74.95232,209.42624
"62952",850.8581,74.83269,209.14886
"62953",850.8714,74.7277,208.8824
"62954",850.8847,74.634926,208.62486
"62955",850.898,74.54948,208.37175
"62956",850.9113,74.47135,208.12329
"62957",850.9246,74.39567,207.87483
"62958",850.9379,74.32975,207.63377
"62959",850.95123,74.268715,207.39554
"62960",850.96454,74.21011,207.15784
"62961",850.97784,74.1564,206.92319
"62962",850.99115,74.107574,206.69174
"62963",851.00446,74.06119,206.46121
"62964",851.01776,74.0148,206.22923
"62965",851.03107,73.968414,205.9958
"62966",851.0444,73.92691,205.76581
"62967",851.0577,73.953766,205.60287
"62968",851.071,74.178375,205.63853
"62969",851.0843,74.77898,206.0572
"62970",851.0976,75.897156,207.01222
"62971",851.1109,77.58419,208.57104
"62972",851.1242,79.77173,210.68309
"62973",851.1375,82.252235,213.15646
"62974",851.1508,84.74738,215.722
"62975",851.1641,86.99107,218.11404
"62976",851.1774,88.79286,220.13431
"62977",851.19073,90.04776,221.66399
"62978",851.20404,90.75334,222.68356
"62979",851.21735,90.95842,223.22469
"62980",851.23065,90.75578,223.3645
"62981",851.24396,90.252846,223.19768
"62982",851.25726,89.566795,222.83203
"62983",851.27057,88.79042,222.35461
"62984",851.2839,88.00183,221.84073
"62985",851.2972,87.235214,221.32417
"62986",851.3105,86.505226,220.82028
"62987",851.3238,85.80942,220.32776
"62988",851.3371,85.13069,219.83058
"62989",851.3504,84.473946,219.33417
"62990",851.3637,83.8465,218.84653
"62991",851.377,83.2752,218.39543
"62992",851.3903,82.77959,218.00217
"62993",851.4036,82.374306,217.68375
"62994",851.41693,82.04959,217.43323
"62995",851.43024,81.79324,217.24094
"62996",851.44354,81.57839,217.08212
"62997",851.45685,81.373314,216.92638
"62998",851.47015,81.143814,216.73979
"62999",851.48346,80.867935,216.49966
"63000",851.49677,80.533455,216.1923
"63001",851.5101,80.13306,215.80858
"63002",851.5234,79.67895,215.35863
"63003",851.5367,79.18822,214.85786
"63004",851.55,78.675514,214.3198
"63005",851.5633,78.153046,213.75594
"63006",851.5766,77.64034,213.18552
"63007",851.5899,77.14229,212.61372
"63008",851.6032,76.66865,212.05078
"63009",851.6165,76.21942,211.49745
"63010",851.6298,75.80682,210.9667
"63011",851.6431,75.43084,210.45969
"63012",851.65643,75.09148,209.97754
"63013",851.66974,74.79607,209.52873
"63014",851.68304,74.54459,209.11464
"63015",851.69635,74.337074,208.73663
"63016",851.70966,74.16373,208.38632
"63017",851.72296,74.0148,208.05501
"63018",851.73627,73.89273,207.7459
"63019",851.7496,73.79019,207.4525
"63020",851.7629,73.70229,207.17055
"63021",851.7762,73.62417,206.89561
"63022",851.7895,73.565575,206.63777
"63023",851.8028,73.51919,206.3903
"63024",851.8161,73.48257,206.15115
"63025",851.8294,73.45815,205.92307
"63026",851.8427,73.43862,205.6991
"63027",851.856,73.42153,205.47696
"63028",851.8693,73.39712,205.24696
"63029",851.8826,73.358055,205.00156
"63030",851.89594,73.31411,204.75005
"63031",851.90924,73.304344,204.53134
"63032",851.92255,73.43374,204.45149
"63033",851.93585,73.8732,204.68576
"63034",851.94916,74.77409,205.39519
"63035",851.96246,76.20233,206.66011
"63036",851.97577,78.10422,208.44331
"63037",851.9891,80.31129,210.59114
"63038",852.0024,82.55497,212.84456
"63039",852.0157,84.56672,214.93616
"63040",852.029,86.153656,216.6658
"63041",852.0423,87.22789,217.93234
"63042",852.0556,87.7699,218.70023
"63043",852.0689,87.83826,219.0114
"63044",852.0822,87.52087,218.93895
"63045",852.0955,86.93248,218.58559
"63046",852.1088,86.18051,218.05026
"63047",852.12213,85.365074,217.42796
"63048",852.13544,84.55207,216.78262
"63049",852.14874,83.773254,216.14606
"63050",852.16205,83.05058,215.5413
"63051",852.17535,82.38407,214.97012
"63052",852.18866,81.77371,214.43427
"63053",852.20197,81.234146,213.95013
"63054",852.2153,80.77516,213.52972
"63055",852.2286,80.41627,213.19505
"63056",852.2419,80.16968,212.96147
"63057",852.2552,80.028076,212.82516
"63058",852.2685,79.96704,212.76501
"63059",852.2818,79.957275,212.75421
"63060",852.2951,79.957275,212.75287
"63061",852.3084,79.93286,212.72711
"63062",852.3217,79.84985,212.642
"63063",852.335,79.693596,212.48105
"63064",852.3483,79.46899,212.24686
"63065",852.36163,79.185776,211.94705
"63066",852.37494,78.85863,211.59445
"63067",852.38824,78.49973,211.19989
"63068",852.40155,78.12863,210.7819
"63069",852.41486,77.75754,210.35233
"63070",852.42816,77.38888,209.91359
"63071",852.44147,77.032425,209.47554
"63072",852.4548,76.700386,209.05077
"63073",852.4681,76.39521,208.64247
"63074",852.4814,76.11688,208.2515
"63075",852.4947,75.8703,207.88356
"63076",852.508,75.66277,207.54698
"63077",852.5213,75.491875,207.24054
"63078",852.5346,75.352715,206.9605
"63079",852.5479,75.2404,206.70296
"63080",852.5612,75.159836,206.47365
"63081",852.5745,75.10368,206.26624
"63082",852.5878,75.071945,206.08148
"63083",852.60114,75.05974,205.91527
"63084",852.61444,75.06218,205.76332
"63085",852.62775,75.07439,205.62122
"63086",852.64105,75.09148,205.48438
"63087",852.65436,75.106125,205.34563
"63088",852.66766,75.12077,205.20734
"63089",852.68097,75.1281,205.06218
"63090",852.6943,75.123215,204.90504
"63091",852.7076,75.11589,204.74532
"63092",852.7209,75.14763,204.62442
"63093",852.7342,75.32586,204.65102
"63094",852.7475,75.80194,204.98103
"63095",852.7608,76.700386,205.74829
"63096",852.7741,78.05539,207.00018
"63097",852.7874,79.78882,208.67284
"63098",852.8007,81.705345,210.58276
"63099",852.814,83.546196,212.47691
"63100",852.82733,85.07942,214.12096
"63101",852.84064,86.1561,215.35637
"63102",852.85394,86.729836,216.12248
"63103",852.86725,86.83971,216.44266
"63104",852.88055,86.56626,216.38295
"63105",852.89386,86.01694,216.03882
"63106",852.90717,85.3016,215.5115
"63107",852.9205,84.51545,214.89104
"63108",852.9338,83.72198,214.23868
"63109",852.9471,82.97002,213.60303
"63110",852.9604,82.27421,213.00003
"63111",852.9737,81.64675,212.44365
"63112",852.987,81.09743,211.94579
"63113",853.0003,80.64332,211.52597
"63114",853.0136,80.29664,211.1994
"63115",853.0269,80.076904,210.98894
"63116",853.0402,79.98169,210.89612
"63117",853.0535,79.99878,210.91263
"63118",853.06683,80.09155,211.00537
"63119",853.08014,80.216064,211.13275
"63120",853.09344,80.33082,211.25426
"63121",853.10675,80.40406,211.33784
"63122",853.12006,80.40406,211.35048
"63123",853.13336,80.325935,211.28499
"63124",853.14667,80.17212,211.14136
"63125",853.16,79.954834,210.92944
"63126",853.1733,79.68871,210.66191
"63127",853.1866,79.398186,210.36165
"63128",853.1999,79.097885,210.04254
"63129",853.2132,78.802475,209.71893
"63130",853.2265,78.51682,209.39586
"63131",853.2398,78.25071,209.08339
"63132",853.2531,78.00412,208.78214
"63133",853.2664,77.786835,208.50247
"63134",853.2797,77.591515,208.23799
"63135",853.293,77.420616,207.99182
"63136",853.30634,77.27169,207.76228
"63137",853.31964,77.14717,207.5525
"63138",853.33295,77.04219,207.35837
"63139",853.34625,76.964066,207.1878
"63140",853.35956,76.912796,207.04166
"63141",853.37286,76.8835,206.91588
"63142",853.38617,76.86885,206.80383
"63143",853.3995,76.86153,206.69865
"63144",853.4128,76.859085,206.59813
"63145",853.4261,76.8542,206.49509
"63146",853.4394,76.841995,206.38457
"63147",853.4527,76.82735,206.27122
"63148",853.466,76.82979,206.17451
"63149",853.4793,76.93233,206.17798
"63150",853.4926,77.25216,206.40195
"63151",853.5059,77.91379,206.9777
"63152",853.5192,78.97337,207.97209
"63153",853.53253,80.38941,209.35605
"63154",853.54584,82.00809,210.9869
"63155",853.55914,83.60967,212.65123
"63156",853.57245,84.97688,214.13124
"63157",853.58575,85.95102,215.26091
"63158",853.59906,86.46616,215.96202
"63159",853.61237,86.556496,216.25443
"63160",853.6257,86.2855,216.18832
"63161",853.639,85.74593,215.84518
"63162",853.6523,85.04524,215.32405
"63163",853.6656,84.26887,214.70534
"63164",853.6789,83.48272,214.0526
"63165",853.6922,82.73075,213.40947
"63166",853.7055,82.0325,212.79655
"63167",853.7188,81.40505,212.23262
"63168",853.7321,80.86549,211.73697
"63169",853.7454,80.430916,211.32944
"63170",853.7587,80.11841,211.0304
"63171",853.77203,79.94263,210.8583
"63172",853.78534,79.90112,210.815
"63173",853.79865,79.96704,210.87784
"63174",853.81195,80.1062,211.01596
"63175",853.82526,80.272224,211.1853
"63176",853.83856,80.41627,211.33786
"63177",853.85187,80.5066,211.44121
"63178",853.8652,80.52125,211.4717
"63179",853.8785,80.45045,211.41719
"63180",853.8918,80.306404,211.28723
"63181",853.9051,80.1062,211.0966
"63182",853.9184,79.869385,210.8631
"63183",853.9317,79.60815,210.59778
"63184",853.945,79.33715,210.31453
"63185",853.9583,79.06859,210.02525
"63186",853.9716,78.81224,209.73979
"63187",853.9849,78.56809,209.45853
"63188",853.9982,78.34104,209.18672
"63189",854.01154,78.135956,208.9298
"63190",854.02484,77.95041,208.68599
"63191",854.03815,77.786835,208.45836
"63192",854.05145,77.64767,208.25003
"63193",854.06476,77.53536,208.06421
"63194",854.07806,77.44991,207.90173
"63195",854.0914,77.383995,207.75612
"63196",854.1047,77.33761,207.62798
"63197",854.118,77.30343,207.51059
"63198",854.1313,77.27657,207.39946
"63199",854.1446,77.24971,207.28749
"63200",854.1579,77.222855,207.17468
"63201",854.1712,77.19356,207.0586
"63202",854.1845,77.18135,206.95868
"63203",854.1978,77.25216,206.9414
"63204",854.2111,77.53048,207.13385
"63205",854.2244,78.133514,207.65971
"63206",854.23773,79.1223,208.59016
"63207",854.25104,80.46021,209.90065
"63208",854.26434,82.005646,211.46046
"63209",854.27765,83.53399,213.05148
"63210",854.29095,84.82063,214.44856
"63211",854.30426,85.69955,215.47812
"63212",854.31757,86.12192,216.0786
"63213",854.3309,86.11459,216.26259
"63214",854.3442,85.75571,216.09479
"63215",854.3575,85.14778,215.66673
"63216",854.3708,84.39582,215.07564
"63217",854.3841,83.58526,214.40245
"63218",854.3974,82.77959,213.70882
"63219",854.4107,82.020294,213.03639
"63220",854.424,81.32693,212.40616
"63221",854.4373,80.719,211.8397
"63222",854.4506,80.21362,211.3568
"63223",854.4639,79.823,210.97284
"63224",854.47723,79.569084,210.7134
"63225",854.49054,79.45922,210.59006
"63226",854.50385,79.483635,210.59756
"63227",854.51715,79.61547,210.71326
"63228",854.53046,79.815674,210.90144
"63229",854.54376,80.03296,211.11298
"63230",854.55707,80.22339,211.30444
"63231",854.5704,80.34547,211.4335
"63232",854.5837,80.38209,211.48093
"63233",854.597,80.325935,211.43672
"63234",854.6103,80.18677,211.30774
"63235",854.6236,79.98169,211.10849
"63236",854.6369,79.73754,210.86377
"63237",854.6502,79.47875,210.59677
"63238",854.6635,79.21019,210.31192
"63239",854.6768,78.9514,210.02844
"63240",854.6901,78.70237,209.74664
"63241",854.7034,78.467995,209.47171
"63242",854.71674,78.25071,209.20654
"63243",854.73004,78.05783,208.959
"63244",854.74335,77.88449,208.72496
"63245",854.75665,77.74044,208.5148
"63246",854.76996,77.61593,208.31967
"63247",854.78326,77.51095,208.14018
"63248",854.7966,77.42794,207.97939
"63249",854.8099,77.36935,207.84041
"63250",854.8232,77.32784,207.71669
"63251",854.8365,77.30343,207.60876
"63252",854.8498,77.2839,207.50496
"63253",854.8631,77.27169,207.40787
"63254",854.8764,77.29122,207.34213
"63255",854.8897,77.4255,207.39175
"63256",854.903,77.79172,207.67752
"63257",854.9163,78.502174,208.31897
"63258",854.9296,79.571526,209.3415
"63259",854.94293,80.92653,210.68312
"63260",854.95624,82.40116,212.1867
"63261",854.96954,83.76837,213.62895
"63262",854.98285,84.83284,214.81119
"63263",854.99615,85.47982,215.60919
"63264",855.00946,85.68978,215.9904
"63265",855.02277,85.51156,215.98999
"63266",855.0361,85.033035,215.6837
"63267",855.0494,84.35432,215.16226
"63268",855.0627,83.563286,214.50731
"63269",855.076,82.74052,213.7959
"63270",855.0893,81.94217,213.08319
"63271",855.1026,81.20241,212.40413
"63272",855.1159,80.54566,211.78496
"63273",855.1292,79.99634,211.25269
"63274",855.1425,79.57641,210.83264
"63275",855.1558,79.30297,210.54596
"63276",855.1691,79.17601,210.39722
"63277",855.18243,79.202866,210.39832
"63278",855.19574,79.35668,210.52722
"63279",855.20905,79.5935,210.74393
"63280",855.22235,79.86694,211.00467
"63281",855.23566,80.12573,211.25931
"63282",855.24896,80.33082,211.46832
"63283",855.26227,80.44312,211.59097
"63284",855.2756,80.46021,211.62192
"63285",855.2889,80.38209,211.55818
"63286",855.3022,80.22339,211.41142
"63287",855.3155,80.0061,211.20111
"63288",855.3288,79.75464,210.94983
"63289",855.3421,79.49096,210.67848
"63290",855.3554,79.23216,210.40378
"63291",855.3687,78.98558,210.1332
"63292",855.382,78.75853,209.87444
"63293",855.3953,78.551,209.62811
"63294",855.4086,78.3679,209.39972
"63295",855.42194,78.20187,209.1827
"63296",855.43524,78.05295,208.97757
"63297",855.44855,77.92355,208.78732
"63298",855.46185,77.81125,208.61012
"63299",855.47516,77.713585,208.44406
"63300",855.48846,77.63058,208.2896
"63301",855.5018,77.55978,208.14474
"63302",855.5151,77.52804,208.03674
"63303",855.5284,77.61593,208.04738
"63304",855.5417,77.94797,208.30492
"63305",855.555,78.63645,208.92928
"63306",855.5683,79.7058,209.95601
"63307",855.5816,81.094986,211.336
"63308",855.5949,82.63065,212.90588
"63309",855.6082,84.08087,214.43831
"63310",855.6215,85.23567,215.72064
"63311",855.6348,85.97055,216.61914
"63312",855.64813,86.2562,217.09137
"63313",855.66144,86.14633,217.177
"63314",855.67474,85.72152,216.94426
"63315",855.68805,85.0721,216.47363
"63316",855.70135,84.300606,215.86064
"63317",855.71466,83.48272,215.17715
"63318",855.72797,82.67216,214.47543
"63319",855.7413,81.91287,213.79965
"63320",855.7546,81.231705,213.17827
"63321",855.7679,80.65308,212.63814
"63322",855.7812,80.198975,212.20444
"63323",855.7945,79.88403,211.89572
"63324",855.8078,79.71557,211.72363
"63325",855.8211,79.69848,211.69765
"63326",855.8344,79.80835,211.7981
"63327",855.8477,79.99878,211.98254
"63328",855.861,80.23071,212.21445
"63329",855.8743,80.45533,212.44627
"63330",855.88763,80.62867,212.63385
"63331",855.90094,80.726326,212.75116
"63332",855.91425,80.73853,212.78607
"63333",855.92755,80.66285,212.73347
"63334",855.94086,80.51148,212.60283
"63335",855.95416,80.30152,212.40886
"63336",855.96747,80.05737,212.17413
"63337",855.9808,79.79126,211.90982
"63338",855.9941,79.51537,211.62741
"63339",856.0074,79.24925,211.34615
"63340",856.0207,78.995346,211.06877
"63341",856.034,78.76097,210.803
"63342",856.0473,78.54368,210.54698
"63343",856.0606,78.348366,210.30615
"63344",856.0739,78.1799,210.08607
"63345",856.0872,78.030975,209.88026
"63346",856.1005,77.89426,209.682
"63347",856.11383,77.769745,209.49168
"63348",856.12714,77.679405,209.33165
"63349",856.14044,77.68673,209.26645
"63350",856.15375,77.92355,209.43098
"63351",856.16705,78.51438,209.95692
"63352",856.18036,79.517815,210.91393
"63353",856.19366,80.89479,212.27583
"63354",856.207,82.493935,213.90294
"63355",856.2203,84.09308,215.58002
"63356",856.2336,85.45785,217.0727
"63357",856.2469,86.42954,218.21495
"63358",856.2602,86.94469,218.93102
"63359",856.2735,87.02037,219.22372
"63360",856.2868,86.729836,219.15257
"63361",856.3001,86.18051,218.81355
"63362",856.3134,85.470055,218.29623
"63363",856.3267,84.69123,217.68835
"63364",856.34,83.912415,217.05614
"63365",856.35333,83.17021,216.4362
"63366",856.36664,82.48417,215.84923
"63367",856.37994,81.87381,215.3165
"63368",856.39325,81.35378,214.85503
"63369",856.40656,80.936295,214.47984
"63370",856.41986,80.638435,214.21124
"63371",856.43317,80.47242,214.06519
"63372",856.4465,80.43336,214.0409
"63373",856.4598,80.49683,214.11792
"63374",856.4731,80.63355,214.27017
"63375",856.4864,80.79469,214.45111
"63376",856.4997,80.936295,214.61755
"63377",856.513,81.024185,214.73471
"63378",856.5263,81.03883,214.78137
"63379",856.5396,80.96803,214.74304
"63380",856.5529,80.81911,214.62437
"63381",856.5662,80.601814,214.43268
"63382",856.5795,80.33326,214.18294
"63383",856.59283,80.02319,213.88329
"63384",856.60614,79.70092,213.56174
"63385",856.61945,79.378654,213.23012
"63386",856.63275,79.063705,212.89575
"63387",856.64606,78.765854,212.56863
"63388",856.65936,78.49485,212.25906
"63389",856.67267,78.24826,211.96544
"63390",856.686,78.02609,211.68852
"63391",856.6993,77.8259,211.42664
"63392",856.7126,77.642784,211.17558
"63393",856.7259,77.488976,210.9481
"63394",856.7392,77.40353,210.78418
"63395",856.7525,77.49874,210.79825
"63396",856.7658,77.91379,211.13513
"63397",856.7791,78.74387,211.90002
"63398",856.7924,80.0061,213.123
"63399",856.8057,81.60769,214.72478
"63400",856.81903,83.35577,216.5231
"63401",856.83234,85.00374,218.27594
"63402",856.84564,86.34409,219.77266
"63403",856.85895,87.25231,220.87914
"63404",856.87225,87.69909,221.55255
"63405",856.88556,87.7235,221.81757
"63406",856.89886,87.40612,221.74155
"63407",856.9122,86.85191,221.41878
"63408",856.9255,86.16098,220.94197
"63409",856.9388,85.41634,220.38986
"63410",856.9521,84.67414,219.81693
"63411",856.9654,83.966125,219.25497
"63412",856.9787,83.299614,218.7124
"63413",856.992,82.68192,218.19783
"63414",857.0053,82.12283,217.72255
"63415",857.0186,81.64187,217.30792
"63416",857.0319,81.26101,216.97838
"63417",857.0452,80.99977,216.75655
"63418",857.05853,80.85573,216.64375
"63419",857.07184,80.816666,216.63144
"63420",857.08514,80.84596,216.68626
"63421",857.09845,80.902115,216.76886
"63422",857.11176,80.94362,216.83856
"63423",857.12506,80.938736,216.86317
"63424",857.13837,80.85817,216.81195
"63425",857.1517,80.69215,216.67274
"63426",857.165,80.448006,216.45024
"63427",857.1783,80.147705,216.16394
"63428",857.1916,79.80347,215.82431
"63429",857.2049,79.43725,215.45195
"63430",857.2182,79.063705,215.06082
"63431",857.2315,78.69749,214.66534
"63432",857.2448,78.34104,214.26819
"63433",857.2581,77.99924,213.87454
"63434",857.2714,77.679405,213.49219
"63435",857.2847,77.37911,213.11937
"63436",857.29803,77.10567,212.76402
"63437",857.31134,76.8542,212.4221
"63438",857.32465,76.63203,212.10162
"63439",857.33795,76.44648,211.81082
"63440",857.35126,76.34394,211.59723
"63441",857.36456,76.42939,211.56842
"63442",857.37787,76.841995,211.86945
"63443",857.3912,77.68917,212.61794
"63444",857.4045,78.98314,213.83969
"63445",857.4178,80.64576,215.47054
"63446",857.4311,82.48417,217.32913
"63447",857.4444,84.244446,219.16704
"63448",857.4577,85.70687,220.7621
"63449",857.471,86.73472,221.96829
"63450",857.4843,87.28405,222.72809
"63451",857.4976,87.38171,223.05338
"63452",857.5109,87.113144,223.01549
"63453",857.52423,86.57603,222.70065
"63454",857.53754,85.8851,222.21523
"63455",857.55084,85.12825,221.64229
"63456",857.56415,84.37141,221.0457
"63457",857.57745,83.63897,220.44987
"63458",857.59076,82.94316,219.86778
"63459",857.60406,82.28886,219.30545
"63460",857.6174,81.68337,218.7715
"63461",857.6307,81.13893,218.27966
"63462",857.644,80.67506,217.85138
"63463",857.6573,80.31861,217.51604
"63464",857.6706,80.076904,217.28429
"63465",857.6839,79.940186,217.14996
"63466",857.6972,79.88159,217.08951
"63467",857.7105,79.86694,217.07117
"63468",857.7238,79.85474,217.05481
"63469",857.7371,79.81079,217.00632
"63470",857.7504,79.7058,216.89542
"63471",857.76373,79.52514,216.70555
"63472",857.77704,79.276115,216.44168
"63473",857.79034,78.96117,216.10411
"63474",857.80365,78.59739,215.70787
"63475",857.81696,78.204315,215.27097
"63476",857.83026,77.79904,214.80957
"63477",857.84357,77.39376,214.33551
"63478",857.8569,77.00557,213.86588
"63479",857.8702,76.646675,213.4134
"63480",857.8835,76.31953,212.98146
"63481",857.8968,76.019226,212.56615
"63482",857.9101,75.75067,212.17319
"63483",857.9234,75.508965,211.79869
"63484",857.9367,75.29412,211.4435
"63485",857.95,75.09636,211.09868
"63486",857.9633,74.92302,210.7721
"63487",857.9766,74.79851,210.48892
"63488",857.9899,74.80827,210.33614
"63489",858.00323,75.09392,210.45953
"63490",858.01654,75.78485,210.99715
"63491",858.02985,76.961624,212.04219
"63492",858.04315,78.58762,213.57324
"63493",858.05646,80.50416,215.44563
"63494",858.06976,82.4622,217.41943
"63495",858.08307,84.19806,219.23224
"63496",858.0964,85.52865,220.69402
"63497",858.1097,86.35874,221.69688
"63498",858.123,86.695656,222.23251
"63499",858.1363,86.61265,222.35875
"63500",858.1496,86.20737,222.16011
"63501",858.1629,85.59457,221.74129
"63502",858.1762,84.874344,221.19589
"63503",858.1895,84.1297,220.60358
"63504",858.2028,83.407036,220.00996
"63505",858.2161,82.73075,219.44016
"63506",858.22943,82.10086,218.8956
"63507",858.24274,81.51003,218.37042
"63508",858.25604,80.96071,217.86829
"63509",858.26935,80.46021,217.39781
"63510",858.28265,80.025635,216.97762
"63511",858.29596,79.68139,216.63417
"63512",858.30927,79.43725,216.38007
"63513",858.3226,79.290764,216.21599
"63514",858.3359,79.2224,216.12546
"63515",858.3492,79.19554,216.0743
"63516",858.3625,79.17113,216.02473
"63517",858.3758,79.114975,215.94267
"63518",858.3891,78.995346,215.79538
"63519",858.4024,78.802475,215.5711
"63520",858.4157,78.538795,215.27
"63521",858.429,78.22385,214.9094
"63522",858.4423,77.8674,214.49744
"63523",858.4556,77.48409,214.04749
"63524",858.46893,77.09102,213.57579
"63525",858.48224,76.70771,213.10158
"63526",858.49554,76.34882,212.6398
"63527",858.50885,76.016785,212.19366
"63528",858.52216,75.718925,211.77133
"63529",858.53546,75.46014,211.37875
"63530",858.54877,75.23552,211.01227
"63531",858.5621,75.04021,210.66806
"63532",858.5754,74.87419,210.34705
"63533",858.5887,74.73014,210.04282
"63534",858.602,74.60319,209.75117
"63535",858.6153,74.486,209.46533
"63536",858.6286,74.39811,209.20512
"63537",858.6419,74.42008,209.05203
"63538",858.6552,74.683754,209.14133
"63539",858.6685,75.338066,209.6295
"63540",858.6818,76.470894,210.61664
"63541",858.6951,78.07004,212.1055
"63542",858.70844,80.00366,213.9788
"63543",858.72174,82.03494,216.0102
"63544",858.73505,83.90021,217.93906
"63545",858.74835,85.39437,219.5551
"63546",858.76166,86.40269,220.732
"63547",858.77496,86.90318,221.43257
"63548",858.78827,86.94957,221.69469
"63549",858.8016,86.641945,221.60423
"63550",858.8149,86.09506,221.26491
"63551",858.8282,85.42123,220.78154
"63552",858.8415,84.71076,220.2405
"63553",858.8548,84.02228,219.69922
"63554",858.8681,83.372856,219.17549
"63555",858.8814,82.76494,218.67297
"63556",858.8947,82.18631,218.18076
"63557",858.908,81.62722,217.68999
"63558",858.9213,81.09743,217.21104
"63559",858.93463,80.621346,216.76926
"63560",858.94794,80.22583,216.39316
"63561",858.96124,79.93286,216.10724
"63562",858.97455,79.74731,215.91959
"63563",858.98785,79.64965,215.81403
"63564",859.00116,79.61303,215.76645
"63565",859.01447,79.5935,215.73482
"63566",859.0278,79.551994,215.6806
"63567",859.0411,79.45922,215.57382
"63568",859.0544,79.29809,215.39578
"63569",859.0677,79.061264,215.13702
"63570",859.081,78.75853,214.80495
"63571",859.0943,78.40696,214.41458
"63572",859.1076,78.02121,213.97905
"63573",859.1209,77.625694,213.5217
"63574",859.1342,77.23506,213.05687
"63575",859.1475,76.8542,212.5896
"63576",859.1608,76.490425,212.12752
"63577",859.17413,76.155945,211.68336
"63578",859.18744,75.85077,211.25806
"63579",859.20074,75.58221,210.85983
"63580",859.21405,75.35027,210.48984
"63581",859.22736,75.157394,210.15166
"63582",859.24066,74.9987,209.84163
"63583",859.25397,74.86687,209.5535
"63584",859.2673,74.75212,209.27834
"63585",859.2806,74.652016,209.01424
"63586",859.2939,74.57633,208.77142
"63587",859.3072,74.57633,208.60193
"63588",859.3205,74.78142,208.63753
"63589",859.3338,75.335625,209.02866
"63590",859.3471,76.368355,209.91562
"63591",859.3604,77.8967,211.33047
"63592",859.3737,79.82056,213.1886
"63593",859.387,81.92752,215.28995
"63594",859.4003,83.95392,217.37659
"63595",859.41364,85.65804,219.20427
"63596",859.42694,86.890976,220.61401
"63597",859.44025,87.6112,221.54958
"63598",859.45355,87.850464,222.02669
"63599",859.46686,87.69421,222.11575
"63600",859.48016,87.26208,221.92407
"63601",859.49347,86.6688,221.55774
"63602",859.5068,86.012054,221.10939
"63603",859.5201,85.35531,220.64052
"63604",859.5334,84.72785,220.18042
"63605",859.5467,84.12482,219.72513
"63606",859.56,83.53643,219.26564
"63607",859.5733,82.948044,218.78777
"63608",859.5866,82.36942,218.30127
"63609",859.5999,81.8201,217.82599
"63610",859.6132,81.33669,217.39946
"63611",859.6265,80.94362,217.04816
"63612",859.63983,80.66773,216.80176
"63613",859.65314,80.499275,216.65417
"63614",859.66644,80.41627,216.58678
"63615",859.67975,80.37232,216.55585
"63616",859.69305,80.32838,216.52354
"63617",859.70636,80.233154,216.43858
"63618",859.71967,80.06958,216.28229
"63619",859.733,79.83032,216.0452
"63620",859.7463,79.520256,215.72983
"63621",859.7596,79.149155,215.34373
"63622",859.7729,78.73899,214.90698
"63623",859.7862,78.30686,214.43544
"63624",859.7995,77.86496,213.94063
"63625",859.8128,77.4255,213.43445
"63626",859.8261,77.00557,212.93407
"63627",859.8394,76.612495,212.44742
"63628",859.8527,76.25117,211.98022
"63629",859.866,75.92645,211.53836
"63630",859.87933,75.648125,211.13274
"63631",859.89264,75.406425,210.75504
"63632",859.90594,75.20378,210.40884
"63633",859.91925,75.035324,210.0905
"63634",859.93256,74.89372,209.79375
"63635",859.94586,74.78142,209.52187
"63636",859.95917,74.69108,209.26845
"63637",859.9725,74.615395,209.02686
"63638",859.9858,74.55192,208.7951
"63639",859.9991,74.49088,208.56381
"63640",860.0124,74.43229,208.33305
"63641",860.0257,74.42985,208.15662
"63642",860.039,74.59342,208.14612
"63643",860.0523,75.08415,208.4679
"63644",860.0656,76.0412,209.27132
"63645",860.0789,77.52804,210.63445
"63646",860.0922,79.483635,212.51279
"63647",860.1055,81.722435,214.73544
"63648",860.11884,83.96857,217.0354
"63649",860.13214,85.9559,219.14676
"63650",860.14545,87.49889,220.87587
"63651",860.15875,88.514534,222.12585
"63652",860.17206,89.01015,222.88754
"63653",860.18536,89.058975,223.21794
"63654",860.19867,88.77089,223.21295
"63655",860.212,88.26551,222.98166
"63656",860.2253,87.657585,222.63203
"63657",860.2386,87.01793,222.23167
"63658",860.2519,86.39292,221.82597
"63659",860.2652,85.79233,221.42516
"63660",860.2785,85.20149,221.01534
"63661",860.2918,84.59846,220.57484
"63662",860.3051,83.983215,220.1033
"63663",860.3184,83.36797,219.61253
"63664",860.3317,82.78447,219.13428
"63665",860.34503,82.27421,218.71103
"63666",860.35834,81.864044,218.37193
"63667",860.37164,81.56863,218.13477
"63668",860.38495,81.37087,217.98604
"63669",860.39825,81.23659,217.89459
"63670",860.41156,81.12428,217.82094
"63671",860.42487,80.990005,217.7218
"63672",860.4382,80.799576,217.56232
"63673",860.4515,80.5359,217.32362
"63674",860.4648,80.198975,217.00345
"63675",860.4781,79.79126,216.60196
"63676",860.4914,79.32983,216.134
"63677",860.5047,78.83177,215.615
"63678",860.518,78.31663,215.06335
"63679",860.5313,77.79904,214.49316
"63680",860.5446,77.30343,213.92877
"63681",860.5579,76.83467,213.37575
"63682",860.5712,76.39521,212.83737
"63683",860.58453,75.99237,212.32188
"63684",860.59784,75.62371,211.82799
"63685",860.61115,75.29412,211.36163
"63686",860.62445,75.00603,210.92648
"63687",860.63776,74.759445,210.52383
"63688",860.65106,74.54948,210.1501
"63689",860.66437,74.373695,209.80399
"63690",860.6777,74.22232,209.47679
"63691",860.691,74.09537,209.16928
"63692",860.7043,73.987946,208.87733
"63693",860.7176,73.9025,208.604
"63694",860.7309,73.83414,208.3451
"63695",860.7442,73.777985,208.09625
"63696",860.7575,73.72671,207.85054
"63697",860.7708,73.670555,207.59834
"63698",860.7841,73.60708,207.33707
"63699",860.7974,73.56069,207.0909
"63700",860.8107,73.619286,206.94826
"63701",860.82404,73.936676,207.06625
"63702",860.83734,74.68131,207.62141
"63703",860.85065,75.96307,208.73697
"63704",860.86395,77.77707,210.4248
"63705",860.87726,79.98901,212.56728
"63706",860.89056,82.34745,214.92537
"63707",860.9039,84.56184,217.21312
"63708",860.9172,86.39536,219.18921
"63709",860.9305,87.71374,220.70744
"63710",860.9438,88.48524,221.72
"63711",860.9571,88.75136,222.25128
"63712",860.9704,88.60731,222.3807
"63713",860.9837,88.17517,222.21754
"63714",860.997,87.572136,221.86998
"63715",861.0103,86.8983,221.43277
"63716",861.0236,86.219574,220.96962
"63717",861.0369,85.57259,220.517
"63718",861.05023,84.945145,220.06369
"63719",861.06354,84.3299,219.60298
"63720",861.07684,83.70489,219.11328
"63721",861.09015,83.070114,218.59428
"63722",861.10345,82.45243,218.07254
"63723",861.11676,81.88846,217.5852
"63724",861.13007,81.40505,217.16081
"63725",861.1434,81.02663,216.8263
"63726",861.1567,80.74586,216.5776
"63727",861.17,80.54322,216.39828
"63728",861.1833,80.377205,216.24925
"63729",861.1966,80.21362,216.09746
"63730",861.2099,80.01587,215.90637
"63731",861.2232,79.76196,215.65295
"63732",861.2365,79.43969,215.32324
"63733",861.2498,79.05394,214.91998
"63734",861.2631,78.6096,214.44608
"63735",861.2764,78.12375,213.91678
"63736",861.28973,77.62081,213.35521
"63737",861.30304,77.117874,212.77792
"63738",861.31635,76.6247,212.19469
"63739",861.32965,76.16571,211.63022
"63740",861.34296,75.74334,211.08803
"63741",861.35626,75.3576,210.56926
"63742",861.36957,75.01091,210.0775
"63743",861.3829,74.6984,209.60909
"63744",861.3962,74.424965,209.16997
"63745",861.4095,74.18814,208.75893
"63746",861.4228,73.985504,208.37466
"63747",861.4361,73.81705,208.01825
"63748",861.4494,73.67788,207.68587
"63749",861.4627,73.56313,207.37355
"63750",861.476,73.46792,207.07718
"63751",861.4893,73.392235,206.79736
"63752",861.5026,73.33364,206.53227
"63753",861.5159,73.289696,206.28
"63754",861.52924,73.26284,206.04344
"63755",861.54254,73.2433,205.81337
"63756",861.55585,73.22621,205.58513
"63757",861.56915,73.199356,205.34659
"63758",861.58246,73.162735,205.09744
"63759",861.59576,73.12123,204.84227
"63760",861.6091,73.12123,204.6273
"63761",861.6224,73.270164,204.56128
"63762",861.6357,73.72915,204.80995
"63763",861.649,74.63737,205.5222
"63764",861.6623,76.06317,206.78043
"63765",861.6756,77.9382,208.53242
"63766",861.6889,80.08911,210.6189
"63767",861.7022,82.24979,212.78235
"63768",861.7155,84.16388,214.76675
"63769",861.7288,85.643394,216.37639
"63770",861.7421,86.61265,217.522
"63771",861.75543,87.08629,218.20229
"63772",861.76874,87.12779,218.46524
"63773",861.78204,86.84215,218.40234
"63774",861.79535,86.346535,218.12054
"63775",861.80865,85.748375,217.72072
"63776",861.82196,85.12581,217.27779
"63777",861.83527,84.5301,216.84225
"63778",861.8486,83.97345,216.42717
"63779",861.8619,83.441216,216.0191
"63780",861.8752,82.91875,215.60417
"63781",861.8885,82.391396,215.16803
"63782",861.9018,81.866486,214.71785
"63783",861.9151,81.36355,214.27324
"63784",861.9284,80.921646,213.87395
"63785",861.9417,80.567635,213.54874
"63786",861.955,80.31617,213.31502
"63787",861.9683,80.164795,213.17352
"63788",861.9816,80.08179,213.09567
"63789",861.99493,80.03052,213.04697
"63790",862.00824,79.9646,212.982
"63791",862.02155,79.84741,212.86371
"63792",862.03485,79.66674,212.67827
"63793",862.04816,79.41772,212.41882
"63794",862.06146,79.11009,212.093
"63795",862.07477,78.75609,211.71118
"63796",862.0881,78.37278,211.289
"63797",862.1014,77.97482,210.8402
"63798",862.1147,77.574425,210.37651
"63799",862.128,77.18623,209.91252
"63800",862.1413,76.82002,209.45837
"63801",862.1546,76.48798,209.02696
"63802",862.1679,76.190125,208.61935
"63803",862.1812,75.92401,208.23418
"63804",862.1945,75.69451,207.8773
"63805",862.2078,75.4992,207.54744
"63806",862.2211,75.338066,207.24565
"63807",862.23444,75.21355,206.97545
"63808",862.24774,75.12077,206.7331
"63809",862.26105,75.054855,206.5147
"63810",862.27435,75.003586,206.30888
"63811",862.28766,74.966965,206.11612
"63812",862.30096,74.94255,205.93442
"63813",862.3143,74.92546,205.75928
"63814",862.3276,74.91081,205.58604
"63815",862.3409,74.90105,205.41724
"63816",862.3542,74.89372,205.25056
"63817",862.3675,74.89128,205.08855
"63818",862.3808,74.89128,204.9289
"63819",862.3941,74.89372,204.77168
"63820",862.4074,74.8864,204.60478
"63821",862.4207,74.87419,204.43277
"63822",862.434,74.91081,204.3092
"63823",862.4473,75.10857,204.34792
"63824",862.46063,75.62859,204.71509
"63825",862.47394,76.595406,205.54529
"63826",862.48724,78.05051,206.894
"63827",862.50055,79.903564,208.68613
"63828",862.51385,81.95682,210.73636
"63829",862.52716,83.949036,212.78973
"63830",862.54047,85.643394,214.6075
"63831",862.5538,86.88609,216.02655
"63832",862.5671,87.63317,216.98882
"63833",862.5804,87.921265,217.51544
"63834",862.5937,87.82605,217.66777
"63835",862.607,87.45739,217.54367
"63836",862.6203,86.92027,217.2396
"63837",862.6336,86.30259,216.83817
"63838",862.6469,85.680016,216.41255
"63839",862.6602,85.09651,216.00655
"63840",862.6735,84.55695,215.62625
"63841",862.6868,84.054016,215.26572
"63842",862.70013,83.57305,214.91144
"63843",862.71344,83.09941,214.54945
"63844",862.72675,82.63065,214.17755
"63845",862.74005,82.193634,213.82274
"63846",862.75336,81.815216,213.51288
"63847",862.76666,81.52224,213.27663
"63848",862.77997,81.32693,213.12889
"63849",862.7933,81.2195,213.06293
"63850",862.8066,81.17311,213.05466
"63851",862.8199,81.146255,213.06447
"63852",862.8332,81.09987,213.05391
"63853",862.8465,80.99977,212.98819
"63854",862.8598,80.82887,212.84854
"63855",862.8731,80.587166,212.63274
"63856",862.8864,80.27955,212.34348
"63857",862.8997,79.92554,211.9982
"63858",862.913,79.53979,211.61012
"63859",862.92633,79.14427,211.20023
"63860",862.93964,78.751205,210.78041
"63861",862.95294,78.37766,210.36784
"63862",862.96625,78.0383,209.97778
"63863",862.97955,77.730675,209.60886
"63864",862.99286,77.45724,209.2645
"63865",863.00616,77.21553,208.94333
"63866",863.0195,76.998245,208.63902
"63867",863.0328,76.807816,208.35478
"63868",863.0461,76.64423,208.09145
"63869",863.0594,76.50996,207.8523
"63870",863.0727,76.404976,207.63824
"63871",863.086,76.32685,207.44777
"63872",863.0993,76.26826,207.27438
"63873",863.1126,76.22186,207.11137
"63874",863.1259,76.1828,206.95424
"63875",863.1392,76.14862,206.80077
"63876",863.1525,76.121765,206.65355
"63877",863.16583,76.09735,206.50793
"63878",863.17914,76.085144,206.37376
"63879",863.19244,76.07782,206.2441
"63880",863.20575,76.07294,206.11664
"63881",863.21906,76.06561,205.98659
"63882",863.23236,76.04608,205.8441
"63883",863.24567,76.01434,205.6888
"63884",863.259,75.99237,205.54227
"63885",863.2723,76.06317,205.48782
"63886",863.2856,76.36347,205.6651
"63887",863.2989,77.04463,206.23262
"63888",863.3122,78.19699,207.29262
"63889",863.3255,79.80835,208.84763
"63890",863.3388,81.74197,210.77525
"63891",863.3521,83.77081,212.85854
"63892",863.3654,85.63851,214.84407
"63893",863.3787,87.14488,216.52664
"63894",863.392,88.18005,217.7851
"63895",863.40533,88.73182,218.59248
"63896",863.41864,88.85878,218.99231
"63897",863.43195,88.639046,219.04941
"63898",863.44525,88.18005,218.86038
"63899",863.45856,87.58434,218.5203
"63900",863.47186,86.94469,218.11765
"63901",863.48517,86.31724,217.70721
"63902",863.4985,85.73617,217.32356
"63903",863.5118,85.20393,216.97058
"63904",863.5251,84.698555,216.62782
"63905",863.5384,84.20538,216.28148
"63906",863.5517,83.71465,215.92216
"63907",863.565,83.23857,215.56216
"63908",863.5783,82.79668,215.22148
"63909",863.5916,82.42069,214.93289
"63910",863.6049,82.1326,214.72044
"63911",863.6182,81.93729,214.59178
"63912",863.63153,81.8201,214.53514
"63913",863.64484,81.75174,214.52367
"63914",863.65814,81.6907,214.51736
"63915",863.67145,81.60525,214.48476
"63916",863.68475,81.463646,214.39333
"63917",863.69806,81.253685,214.22911
