"","Time..s.","PPG.trace","Preprocessed.PPG"
"10362",151.69287,75.34295,71.60377
"10363",151.70618,78.133514,74.2488
"10364",151.71954,81.722435,77.779396
"10365",151.73285,85.7264,81.83719
"10366",151.74622,89.637596,85.92733
"10367",151.75952,92.99214,89.58305
"10368",151.77289,95.47753,92.47445
"10369",151.7862,96.971695,94.452286
"10370",151.79956,97.47463,95.48559
"10371",151.81287,97.08888,95.64592
"10372",151.82623,95.99512,95.08618
"10373",151.83954,94.42039,94.0113
"10374",151.8529,92.58686,92.62841
"10375",151.86621,90.69718,91.13207
"10376",151.87958,88.8954,89.66458
"10377",151.89288,87.259636,88.30679
"10378",151.90625,85.80942,87.083435
"10379",151.91956,84.53986,85.99542
"10380",151.93292,83.4461,85.043526
"10381",151.94623,82.53544,84.240555
"10382",151.9596,81.8201,83.60445
"10383",151.9729,81.322044,83.16327
"10384",151.98627,81.02663,82.909164
"10385",151.99957,80.89479,82.80941
"10386",152.01294,80.86305,82.80563
"10387",152.02625,80.86305,82.8326
"10388",152.03961,80.82155,82.81807
"10389",152.05292,80.68482,82.707016
"10390",152.06628,80.41627,82.45986
"10391",152.07959,80.00366,82.060265
"10392",152.09296,79.45678,81.5135
"10393",152.10626,78.80492,80.84466
"10394",152.11963,78.082245,80.08464
"10395",152.13293,77.3254,79.26787
"10396",152.1463,76.575874,78.43476
"10397",152.1596,75.85321,77.605095
"10398",152.17297,75.174484,76.79678
"10399",152.18628,74.5568,76.028305
"10400",152.19965,74.0148,75.31621
"10401",152.21295,73.54116,74.65553
"10402",152.22632,73.13344,74.045975
"10403",152.23962,72.796524,73.494484
"10404",152.25299,72.52064,72.99349
"10405",152.2663,72.30091,72.54004
"10406",152.27966,72.13489,72.13342
"10407",152.29297,72.01526,71.768005
"10408",152.30634,71.94446,71.44768
"10409",152.31964,71.91028,71.16176
"10410",152.33301,71.89807,70.89674
"10411",152.34631,71.89563,70.64111
"10412",152.35968,71.885864,70.37808
"10413",152.37299,71.851685,70.09033
"10414",152.38635,71.78577,69.769775
"10415",152.39966,71.71984,69.44716
"10416",152.41302,71.79309,69.26166
"10417",152.42633,72.274055,69.48616
"10418",152.4397,73.48989,70.460556
"10419",152.453,75.667656,72.43488
"10420",152.46637,78.84398,75.47582
"10421",152.47968,82.79668,79.392395
"10422",152.49304,87.10338,83.78649
"10423",152.50635,91.229416,88.13451
"10424",152.51971,94.7158,91.97181
"10425",152.53302,97.27688,94.99276
"10426",152.54639,98.7979,97.05368
"10427",152.5597,99.303276,98.14649
"10428",152.57306,98.92485,98.37129
"10429",152.58636,97.86282,97.900665
"10430",152.59973,96.35157,96.947624
"10431",152.61304,94.63035,95.73739
"10432",152.6264,92.892044,94.45628
"10433",152.63971,91.27581,93.24293
"10434",152.65308,89.84024,92.15973
"10435",152.66638,88.57313,91.20013
"10436",152.67975,87.42565,90.32056
"10437",152.69305,86.3563,89.48326
"10438",152.70642,85.33822,88.66381
"10439",152.71973,84.386055,87.87846
"10440",152.7331,83.53399,87.16346
"10441",152.7464,82.82109,86.561
"10442",152.75977,82.25468,86.08274
"10443",152.77307,81.812775,85.711296
"10444",152.78644,81.45876,85.41393
"10445",152.79974,81.146255,85.14701
"10446",152.81311,80.833755,84.87033
"10447",152.82642,80.46754,84.53017
"10448",152.83978,80.02319,84.10043
"10449",152.85309,79.48608,83.56404
"10450",152.86646,78.8513,82.91321
"10451",152.87976,78.1384,82.164406
"10452",152.89313,77.37667,81.344505
"10453",152.90643,76.59785,80.4837
"10454",152.9198,75.83124,79.61078
"10455",152.9331,75.09636,78.74563
"10456",152.94647,74.41764,77.91367
"10457",152.95978,73.79996,77.121544
"10458",152.97314,73.2433,76.37114
"10459",152.98645,72.75014,75.66683
"10460",152.99982,72.32288,75.01302
"10461",153.01312,71.956665,74.40689
"10462",153.02649,71.65392,73.8528
"10463",153.0398,71.412224,73.35028
"10464",153.05316,71.23155,72.901245
"10465",153.06647,71.1046,72.500275
"10466",153.07983,71.028915,72.14661
"10467",153.09314,70.994736,71.83208
"10468",153.1065,70.992294,71.54822
"10469",153.11981,71.009384,71.28381
"10470",153.13318,71.028915,71.022385
"10471",153.14648,71.026474,70.73959
"10472",153.15985,70.994736,70.42743
"10473",153.17316,70.93126,70.082535
"10474",153.18652,70.87511,69.74298
"10475",153.19983,70.960556,69.543274
"10476",153.2132,71.45617,69.75641
"10477",153.2265,72.6598,70.69304
"10478",153.23987,74.793625,72.59749
"10479",153.25317,77.87961,75.520775
"10480",153.26654,81.71511,79.290016
"10481",153.27985,85.88754,83.516045
"10482",153.29321,89.884186,87.69667
"10483",153.30652,93.24605,91.36742
"10484",153.31989,95.68993,94.22524
"10485",153.33319,97.09865,96.12427
"10486",153.34656,97.51125,97.071205
"10487",153.35986,97.074234,97.18141
"10488",153.37323,95.99756,96.638306
"10489",153.38654,94.52537,95.66604
"10490",153.3999,92.87984,94.47443
"10491",153.41321,91.244064,93.24115
"10492",153.42657,89.72793,92.07639
"10493",153.43988,88.36561,91.018074
"10494",153.45325,87.14244,90.056335
"10495",153.46655,86.01694,89.15403
"10496",153.47992,84.95491,88.28003
"10497",153.49323,83.949036,87.42899
"10498",153.50659,83.02861,86.63197
"10499",153.5199,82.22537,85.92338
"10500",153.53326,81.56863,85.336174
"10501",153.54657,81.05348,84.87005
"10502",153.55994,80.66285,84.51234
"10503",153.57324,80.35767,84.227875
"10504",153.58661,80.079346,83.960724
"10505",153.59991,79.781494,83.66535
"10506",153.61328,79.42748,83.30451
"10507",153.62659,78.98558,82.84472
"10508",153.63995,78.450905,82.27834
"10509",153.65326,77.83322,81.61225
"10510",153.66663,77.14961,80.86093
"10511",153.67993,76.422066,80.04431
"10512",153.6933,75.67986,79.1903
"10513",153.7066,74.94743,78.32287
"10514",153.71997,74.251625,77.46917
"10515",153.73328,73.6144,76.65231
"10516",153.74664,73.03578,75.874146
"10517",153.75995,72.5304,75.15114
"10518",153.77332,72.09827,74.48558
"10519",153.78662,71.72961,73.869995
"10520",153.79999,71.41955,73.30148
"10521",153.8133,71.168076,72.781876
"10522",153.82666,70.963,72.3008
"10523",153.83997,70.804306,71.859695
"10524",153.85333,70.68711,71.45514
"10525",153.86664,70.61143,71.088425
"10526",153.88,70.57481,70.75841
"10527",153.89331,70.572365,70.461426
"10528",153.90668,70.59922,70.193665
"10529",153.91998,70.64561,69.94627
"10530",153.93335,70.69932,69.70766
"10531",153.94666,70.748146,69.465836
"10532",153.96002,70.77745,69.20602
"10533",153.97333,70.77745,68.917816
"10534",153.9867,70.74326,68.59543
"10535",154,70.7042,68.26709
"10536",154.01337,70.77501,68.0474
"10537",154.02667,71.19493,68.17905
"10538",154.04004,72.26673,68.97569
"10539",154.05334,74.21988,70.68718
"10540",154.06671,77.10567,73.39234
"10541",154.08002,80.74586,76.942085
"10542",154.09338,84.749825,80.96936
"10543",154.10669,88.619514,84.98748
"10544",154.12006,91.89838,88.535706
"10545",154.13336,94.295876,91.30503
"10546",154.14673,95.69726,93.15316
"10547",154.16003,96.131836,94.07828
"10548",154.1734,95.73388,94.18444
"10549",154.1867,94.713356,93.6556
"10550",154.20007,93.29977,92.701805
"10551",154.21338,91.71038,91.52804
"10552",154.22675,90.13321,90.31682
"10553",154.24005,88.673225,89.1735
"10554",154.25342,87.37438,88.14569
"10555",154.26672,86.219574,87.22133
"10556",154.28009,85.18196,86.378075
"10557",154.2934,84.2298,85.587845
"10558",154.30676,83.36553,84.85576
"10559",154.32007,82.60868,84.20408
"10560",154.33344,81.99344,83.67036
"10561",154.34674,81.529564,83.268776
"10562",154.3601,81.20973,82.99674
"10563",154.37341,80.99245,82.81726
"10564",154.38678,80.831314,82.68714
"10565",154.40009,80.66773,82.54954
"10566",154.41345,80.45777,82.36044
"10567",154.42676,80.16724,82.08421
"10568",154.44012,79.77417,81.69637
"10569",154.45343,79.27856,81.1937
"10570",154.4668,78.695045,80.58765
"10571",154.4801,78.05051,79.90233
"10572",154.49347,77.36935,79.16025
"10573",154.50677,76.680855,78.38955
"10574",154.52014,76.00946,77.61443
"10575",154.53345,75.37713,76.8574
"10576",154.54681,74.79607,76.131874
"10577",154.56012,74.27848,75.45167
"10578",154.57349,73.82681,74.821205
"10579",154.58679,73.44106,74.242546
"10580",154.60016,73.11879,73.71531
"10581",154.61346,72.85512,73.2366
"10582",154.62683,72.64515,72.80336
"10583",154.64014,72.48402,72.412384
"10584",154.6535,72.36927,72.06276
"10585",154.66681,72.29359,71.74861
"10586",154.68018,72.24963,71.46384
"10587",154.69348,72.23987,71.21187
"10588",154.70685,72.254524,70.984024
"10589",154.72015,72.288704,70.77615
"10590",154.73352,72.33753,70.584
"10591",154.74683,72.39124,70.398254
"10592",154.7602,72.43275,70.20198
"10593",154.7735,72.444954,69.97771
"10594",154.78687,72.41566,69.71231
"10595",154.80017,72.342415,69.402054
"10596",154.81354,72.23743,69.05777
"10597",154.82684,72.1886,68.76636
"10598",154.84021,72.396126,68.72978
"10599",154.85352,73.14076,69.2368
"10600",154.86688,74.6569,70.53859
"10601",154.88019,77.051956,72.76668
"10602",154.89355,80.198975,75.82157
"10603",154.90686,83.78058,79.40939
"10604",154.92023,87.33044,83.07739
"10605",154.93353,90.39445,86.37048
"10606",154.9469,92.65766,88.95853
"10607",154.9602,93.98581,90.68223
"10608",154.97357,94.38865,91.522125
"10609",154.98688,93.98093,91.56405
"10610",155.00024,92.95064,90.970665
"10611",155.01355,91.51507,89.939804
"10612",155.02692,89.89151,88.676094
"10613",155.04022,88.2533,87.347
"10614",155.05359,86.70298,86.054596
"10615",155.0669,85.3016,84.86268
"10616",155.08026,84.06378,83.790535
"10617",155.09357,82.99687,82.85062
"10618",155.10693,82.11795,82.065346
"10619",155.12024,81.449,81.46258
"10620",155.1336,81.00954,81.0684
"10621",155.14691,80.79469,80.8851
"10622",155.16028,80.77516,80.8904
"10623",155.17358,80.88014,81.01961
"10624",155.18695,81.03883,81.2058
"10625",155.20026,81.17555,81.374985
"10626",155.21362,81.22926,81.46543
"10627",155.22693,81.146255,81.42084
"10628",155.2403,80.907,81.2174
"10629",155.2536,80.50904,80.847786
"10630",155.26697,79.974365,80.32902
"10631",155.28027,79.34203,79.695885
"10632",155.29364,78.64866,78.98195
"10633",155.30695,77.94064,78.231705
"10634",155.32031,77.2546,77.48131
"10635",155.33362,76.60761,76.74853
"10636",155.34698,76.01434,76.04925
"10637",155.36029,75.48699,75.39735
"10638",155.37366,75.028,74.797325
"10639",155.38696,74.634926,74.24888
"10640",155.40033,74.302895,73.74919
"10641",155.41364,74.03433,73.3026
"10642",155.427,73.81949,72.90133
"10643",155.4403,73.651024,72.53973
"10644",155.45367,73.53384,72.22414
"10645",155.46698,73.460594,71.94883
"10646",155.48035,73.42153,71.705414
"10647",155.49365,73.409325,71.48763
"10648",155.50702,73.402,71.27435
"10649",155.52032,73.38003,71.046196
"10650",155.53369,73.32876,70.788055
"10651",155.547,73.231094,70.48192
"10652",155.56036,73.08949,70.12879
"10653",155.57367,72.94301,69.76636
"10654",155.58704,72.91371,69.51653
"10655",155.60034,73.231094,69.61247
"10656",155.61371,74.158844,70.3287
"10657",155.62701,75.89227,71.87959
"10658",155.64038,78.44846,74.30742
"10659",155.65369,81.636986,77.44746
"10660",155.66705,85.09895,80.96058
"10661",155.68036,88.375374,84.39634
"10662",155.69373,91.07805,87.36075
"10663",155.70703,92.962845,89.591736
"10664",155.7204,93.941864,90.975845
"10665",155.7337,94.06149,91.53116
"10666",155.74707,93.4609,91.36999
"10667",155.76038,92.33784,90.66758
"10668",155.77374,90.90471,89.62001
"10669",155.78705,89.36416,88.420235
"10670",155.80042,87.86511,87.21382
"10671",155.81372,86.49058,86.08507
"10672",155.82709,85.25521,85.05253
"10673",155.8404,84.16144,84.12298
"10674",155.85376,83.192184,83.28377
"10675",155.86707,82.34989,82.54123
"10676",155.88043,81.654076,81.918846
"10677",155.89374,81.13161,81.44807
"10678",155.9071,80.78981,81.14163
"10679",155.92041,80.61646,80.992966
"10680",155.93378,80.56275,80.95852
"10681",155.94708,80.567635,80.98099
"10682",155.96045,80.56519,80.996284
"10683",155.97375,80.50416,80.95291
"10684",155.98712,80.33814,80.80265
"10685",156.00043,80.04761,80.52268
"10686",156.0138,79.62524,80.1018
"10687",156.0271,79.093,79.55785
"10688",156.04047,78.47532,78.91183
"10689",156.05377,77.806366,78.19523
"10690",156.06714,77.12276,77.44307
"10691",156.08044,76.46113,76.69153
"10692",156.09381,75.841,75.960815
"10693",156.10712,75.28191,75.27176
"10694",156.12048,74.78386,74.62627
"10695",156.13379,74.356606,74.03601
"10696",156.14716,73.99039,73.49344
"10697",156.16046,73.68032,72.995575
"10698",156.17383,73.41665,72.53442
"10699",156.18713,73.19447,72.106514
"10700",156.2005,73.01625,71.71562
"10701",156.2138,72.87709,71.35822
"10702",156.22717,72.77211,71.030655
"10703",156.24048,72.69642,70.729095
"10704",156.25385,72.65247,70.45691
"10705",156.26715,72.6305,70.20532
"10706",156.28052,72.6305,69.97502
"10707",156.29382,72.65003,69.76425
"10708",156.30719,72.68421,69.56874
"10709",156.3205,72.71595,69.37186
"10710",156.33386,72.725716,69.15399
"10711",156.34717,72.7013,68.90225
"10712",156.36053,72.65003,68.622894
"10713",156.37384,72.63538,68.378555
"10714",156.3872,72.83803,68.35106
"10715",156.40051,73.53384,68.82306
"10716",156.41388,74.99138,70.07854
"10717",156.42719,77.34493,72.27557
"10718",156.44055,80.52369,75.37136
"10719",156.45386,84.244446,79.10848
"10720",156.46722,88.06531,83.06198
"10721",156.48053,91.52239,86.7711
"10722",156.4939,94.2739,89.88269
"10723",156.5072,96.1416,92.19645
"10724",156.52057,97.09865,93.65792
"10725",156.53387,97.22316,94.316765
"10726",156.54724,96.66895,94.30078
"10727",156.56055,95.63378,93.786514
"10728",156.57391,94.32273,92.96402
"10729",156.58722,92.92378,92.01266
"10730",156.60059,91.580986,91.07373
"10731",156.61389,90.374916,90.22957
"10732",156.62726,89.31289,89.49176
"10733",156.64056,88.36317,88.83307
"10734",156.65393,87.4696,88.20085
"10735",156.66724,86.58579,87.550476
"10736",156.6806,85.70443,86.874916
"10737",156.69391,84.84993,86.19868
"10738",156.70728,84.06378,85.56409
"10739",156.72058,83.38506,85.01236
"10740",156.73395,82.8333,84.566376
"10741",156.74725,82.39628,84.217896
"10742",156.76062,82.05203,83.94853
"10743",156.77393,81.74929,83.709915
"10744",156.7873,81.444115,83.459404
"10745",156.8006,81.0901,83.15052
"10746",156.81396,80.65797,82.75245
"10747",156.82727,80.1355,82.25054
"10748",156.84064,79.52514,81.64442
"10749",156.85394,78.84886,80.9533
"10750",156.86731,78.12863,80.1971
"10751",156.88062,77.39132,79.401306
"10752",156.89398,76.663765,78.59223
"10753",156.90729,75.96796,77.79217
"10754",156.92065,75.31609,77.014305
"10755",156.93396,74.71793,76.269775
"10756",156.94733,74.178375,75.565155
"10757",156.96063,73.70229,74.90715
"10758",156.974,73.28237,74.29043
"10759",156.9873,72.92348,73.72161
"10760",157.00067,72.620735,73.19773
"10761",157.01398,72.36683,72.71323
"10762",157.02734,72.16174,72.26961
"10763",157.04065,72.00061,71.863525
"10764",157.05402,71.87854,71.49147
"10765",157.06732,71.783325,71.142456
"10766",157.08069,71.71496,70.81732
"10767",157.094,71.673454,70.51691
"10768",157.10736,71.656364,70.23961
"10769",157.12067,71.658806,69.98131
"10770",157.13403,71.68078,69.742615
"10771",157.14734,71.710075,69.51193
"10772",157.1607,71.72228,69.265076
"10773",157.17401,71.70275,68.98686
"10774",157.18738,71.64416,68.668976
"10775",157.20068,71.57336,68.33705
"10776",157.21405,71.59533,68.09569
"10777",157.22736,71.93469,68.17241
"10778",157.24072,72.89662,68.88229
"10779",157.25403,74.71061,70.474304
"10780",157.2674,77.44503,73.043434
"10781",157.2807,80.936295,76.45486
"10782",157.29407,84.82063,80.368454
"10783",157.30737,88.619514,84.31798
"10784",157.32074,91.89105,87.85887
"10785",157.33405,94.347145,90.68656
"10786",157.34741,95.87549,92.66325
"10787",157.36072,96.49317,93.77705
"10788",157.37408,96.307625,94.10691
"10789",157.38739,95.49218,93.80108
"10790",157.40076,94.25437,93.0474
"10791",157.41406,92.79927,92.03775
"10792",157.42743,91.30755,90.94601
"10793",157.44073,89.9086,89.90042
"10794",157.4541,88.66102,88.96249
"10795",157.4674,87.572136,88.14426
"10796",157.48077,86.60044,87.409195
"10797",157.49408,85.70443,86.719444
"10798",157.50745,84.84749,86.040764
"10799",157.52075,84.03204,85.3768
"10800",157.53412,83.28985,84.760605
"10801",157.54742,82.650185,84.22375
"10802",157.56079,82.1326,83.78898
"10803",157.5741,81.73708,83.460106
"10804",157.58746,81.42947,83.20677
"10805",157.60077,81.17799,82.99997
"10806",157.61414,80.92897,82.78776
"10807",157.62744,80.638435,82.52625
"10808",157.64081,80.272224,82.17999
"10809",157.65411,79.81079,81.727066
"10810",157.66748,79.25414,81.164505
"10811",157.68079,78.61448,80.50153
"10812",157.69415,77.91867,79.76243
"10813",157.70746,77.19356,78.972275
"10814",157.72083,76.46113,78.152145
"10815",157.73413,75.74578,77.32621
"10816",157.7475,75.06462,76.51211
"10817",157.7608,74.43717,75.73043
"10818",157.77417,73.87076,74.99018
"10819",157.78748,73.375145,74.30303
"10820",157.80084,72.94789,73.668755
"10821",157.81415,72.58167,73.08216
"10822",157.82751,72.271614,72.54028
"10823",157.84082,72.007935,72.035095
"10824",157.85419,71.78577,71.56317
"10825",157.8675,71.60754,71.12825
"10826",157.88086,71.46105,70.7195
"10827",157.89417,71.34875,70.34035
"10828",157.90753,71.26574,69.986984
"10829",157.92084,71.202255,69.65056
"10830",157.9342,71.15343,69.3268
"10831",157.94751,71.12901,69.025925
"10832",157.96088,71.12657,68.74626
"10833",157.97418,71.150986,68.49338
"10834",157.98755,71.19493,68.26079
"10835",158.00085,71.25353,68.044235
"10836",158.01422,71.30724,67.824615
"10837",158.02753,71.33898,67.5847
"10838",158.0409,71.3341,67.30916
"10839",158.0542,71.28771,66.99196
"10840",158.06757,71.22423,66.65622
"10841",158.08087,71.27795,66.4357
"10842",158.09424,71.69787,66.58305
"10843",158.10754,72.80629,67.43204
"10844",158.12091,74.84245,69.2434
"10845",158.13422,77.84299,72.08276
"10846",158.14758,81.60525,75.77762
"10847",158.16089,85.71908,79.94161
"10848",158.17426,89.671776,84.07303
"10849",158.18756,93.019,87.722496
"10850",158.20093,95.482414,90.59276
"10851",158.21423,96.96925,92.56342
"10852",158.2276,97.50637,93.63083
"10853",158.2409,97.20851,93.88004
"10854",158.25427,96.25147,93.46077
"10855",158.26758,94.84764,92.5648
"10856",158.28094,93.20943,91.39057
"10857",158.29425,91.527275,90.121216
"10858",158.30762,89.935455,88.889626
"10859",158.32092,88.499886,87.76454
"10860",158.33429,87.2401,86.77037
"10861",158.3476,86.1268,85.88332
"10862",158.36096,85.14046,85.08844
"10863",158.37427,84.26887,84.37749
"10864",158.38763,83.52422,83.76624
"10865",158.40094,82.930954,83.283104
"10866",158.4143,82.496376,82.94012
"10867",158.42761,82.20828,82.730034
"10868",158.44098,82.022736,82.613495
"10869",158.45428,81.900665,82.554634
"10870",158.46765,81.78348,82.49684
"10871",158.48096,81.62234,82.39143
"10872",158.49432,81.373314,82.19311
"10873",158.50763,81.01686,81.87957
"10874",158.521,80.54078,81.435265
"10875",158.5343,79.957275,80.86866
"10876",158.54767,79.28832,80.19837
"10877",158.56097,78.572975,79.460785
"10878",158.57434,77.83322,78.67644
"10879",158.58765,77.100784,77.87629
"10880",158.60101,76.39765,77.08256
"10881",158.61432,75.7409,76.31323
"10882",158.62769,75.140305,75.579544
"10883",158.64099,74.60563,74.893005
"10884",158.65436,74.13687,74.25568
"10885",158.66766,73.72915,73.664734
"10886",158.68103,73.37759,73.11721
"10887",158.69434,73.08461,72.61729
"10888",158.7077,72.84047,72.15704
"10889",158.72101,72.65003,71.742874
"10890",158.73438,72.50111,71.36426
"10891",158.74768,72.396126,71.02493
"10892",158.76105,72.32777,70.71895
"10893",158.77435,72.291145,70.442566
"10894",158.78772,72.27894,70.18945
"10895",158.80103,72.28626,69.95549
"10896",158.81439,72.308235,69.736404
"10897",158.8277,72.33265,69.52045
"10898",158.84106,72.35462,69.30281
"10899",158.85437,72.359505,69.06877
"10900",158.86774,72.33021,68.800705
"10901",158.88104,72.24963,68.48045
"10902",158.89441,72.12268,68.1113
"10903",158.90771,72.00305,67.7455
"10904",158.92108,72.05676,67.5493
"10905",158.93439,72.57435,67.818665
"10906",158.94775,73.85367,68.86594
"10907",158.96106,76.068054,70.88825
"10908",158.97443,79.166245,73.86357
"10909",158.98773,82.86992,77.54119
"10910",159.0011,86.71763,81.478584
"10911",159.0144,90.211334,85.18221
"10912",159.02777,92.9604,88.25039
"10913",159.04108,94.769516,90.464516
"10914",159.05444,95.59716,91.75371
"10915",159.06775,95.51415,92.15811
"10916",159.08112,94.65476,91.78354
"10917",159.09442,93.224075,90.810814
"10918",159.10779,91.43206,89.43205
"10919",159.1211,89.495995,87.85324
"10920",159.13446,87.572136,86.226135
"10921",159.14777,85.77768,84.668304
"10922",159.16113,84.1712,83.24238
"10923",159.17444,82.777145,81.97867
"10924",159.1878,81.62966,80.91797
"10925",159.20111,80.75807,80.097305
"10926",159.21448,80.19409,79.557014
"10927",159.22778,79.94263,79.311615
"10928",159.24115,79.96948,79.33668
"10929",159.25446,80.21118,79.57742
"10930",159.26782,80.56031,79.93315
"10931",159.28113,80.921646,80.312
"10932",159.2945,81.21217,80.631325
"10933",159.3078,81.373314,80.830345
"10934",159.32117,81.36843,80.86838
"10935",159.33447,81.17555,80.71826
"10936",159.34784,80.80446,80.3839
"10937",159.36115,80.28443,79.889015
"10938",159.37451,79.64721,79.26068
"10939",159.38782,78.93919,78.54164
"10940",159.40118,78.20187,77.77117
"10941",159.41449,77.471886,76.98499
"10942",159.42786,76.77608,76.21018
"10943",159.44116,76.12909,75.46245
"10944",159.45453,75.543144,74.75554
"10945",159.46783,75.018234,74.091354
"10946",159.4812,74.55436,73.4718
"10947",159.4945,74.158844,72.90611
"10948",159.50787,73.829254,72.39399
"10949",159.52118,73.56313,71.935036
"10950",159.53455,73.358055,71.52881
"10951",159.54785,73.21156,71.17476
"10952",159.56122,73.09926,70.85032
"10953",159.57452,72.99916,70.53458
"10954",159.58789,72.89418,70.21082
"10955",159.6012,72.76723,69.86182
"10956",159.61456,72.603645,69.47221
"10957",159.62787,72.39857,69.035995
"10958",159.64124,72.181274,68.58116
"10959",159.65454,72.042114,68.19766
"10960",159.66791,72.19104,68.0979
"10961",159.68121,72.90639,68.569214
"10962",159.69458,74.41764,69.858795
"10963",159.70789,76.76631,72.03302
"10964",159.72125,79.77417,74.93983
"10965",159.73456,83.075,78.2336
"10966",159.74792,86.19516,81.44985
"10967",159.76123,88.71229,84.160576
"10968",159.7746,90.392006,86.11255
"10969",159.7879,91.17326,87.21856
"10970",159.80127,91.11955,87.514015
"10971",159.81458,90.37003,87.111984
"10972",159.82794,89.1078,86.17382
"10973",159.84125,87.52087,84.871506
"10974",159.85461,85.79233,83.37799
"10975",159.86792,84.068665,81.835335
"10976",159.88129,82.44999,80.3438
"10977",159.89459,80.99489,78.96526
"10978",159.90796,79.742424,77.74389
"10979",159.92126,78.71458,76.70799
"10980",159.93463,77.94064,75.89389
"10981",159.94794,77.44747,75.336365
"10982",159.9613,77.23262,75.04175
"10983",159.97461,77.27169,74.99434
"10984",159.98798,77.49874,75.13613
"10985",160.00128,77.823456,75.38268
"10986",160.01465,78.153046,75.64426
"10987",160.02795,78.40452,75.83801
"10988",160.04132,78.52659,75.910225
"10989",160.05463,78.47776,75.81535
"10990",160.068,78.25803,75.54806
"10991",160.0813,77.88693,75.12252
"10992",160.09467,77.3962,74.56576
"10993",160.10797,76.82735,73.915535
"10994",160.12134,76.224304,73.21335
"10995",160.13464,75.62859,72.49965
"10996",160.14801,75.06218,71.79663
"10997",160.16132,74.54948,71.12962
"10998",160.17468,74.10513,70.51495
"10999",160.18799,73.72915,69.95476
"11000",160.20135,73.42153,69.45118
"11001",160.21466,73.17738,69.00146
"11002",160.22803,72.99184,68.60271
"11003",160.24133,72.85512,68.24699
"11004",160.2547,72.764786,67.93338
"11005",160.268,72.71351,67.656006
"11006",160.28137,72.691536,67.40633
"11007",160.29468,72.689095,67.17549
"11008",160.30804,72.69886,66.95679
"11009",160.32135,72.708626,66.73839
"11010",160.33472,72.71107,66.51297
"11011",160.34802,72.69398,66.2681
"11012",160.36139,72.66224,66.00804
"11013",160.3747,72.637825,65.75432
"11014",160.38806,72.75258,65.63901
"11015",160.40137,73.22865,65.8886
"11016",160.41473,74.32975,66.7781
"11017",160.42804,76.20477,68.47593
"11018",160.4414,78.80492,70.95747
"11019",160.45471,81.87381,73.98902
"11020",160.46808,84.99153,77.1653
"11021",160.48138,87.72106,80.05081
"11022",160.49475,89.74746,82.3185
"11023",160.50806,90.948654,83.8243
"11024",160.52142,91.36126,84.579056
"11025",160.53473,91.11223,84.68507
"11026",160.5481,90.36027,84.280365
"11027",160.5614,89.288475,83.53233
"11028",160.57477,88.05554,82.58967
"11029",160.58807,86.81285,81.59871
"11030",160.60144,85.66537,80.66412
"11031",160.61475,84.681465,79.85726
"11032",160.62811,83.878235,79.200325
"11033",160.64142,83.23613,78.67941
"11034",160.65479,82.70878,78.25319
"11035",160.66809,82.252235,77.881294
"11036",160.68146,81.83963,77.53907
"11037",160.69476,81.463646,77.22057
"11038",160.70813,81.13405,76.936714
"11039",160.72144,80.87526,76.71336
"11040",160.7348,80.689705,76.55516
"11041",160.74811,80.570076,76.457085
"11042",160.76147,80.48707,76.39189
"11043",160.77478,80.41627,76.33631
"11044",160.78815,80.325935,76.25899
"11045",160.80145,80.18677,76.130005
"11046",160.81482,79.98169,75.93076
"11047",160.82812,79.70336,75.65186
"11048",160.84149,79.35668,75.29591
"11049",160.8548,78.95384,74.87297
"11050",160.86816,78.52415,74.41058
"11051",160.88147,78.08713,73.927444
"11052",160.89484,77.65743,73.43797
"11053",160.90814,77.25704,72.96438
"11054",160.92151,76.89082,72.51244
"11055",160.93481,76.561226,72.085686
"11056",160.94818,76.265816,71.682816
"11057",160.96149,76.00946,71.30977
"11058",160.97485,75.78729,70.9629
"11059",160.98816,75.60662,70.65058
"11060",161.00153,75.47234,70.37901
"11061",161.01483,75.38201,70.147194
"11062",161.0282,75.32586,69.94673
"11063",161.0415,75.299,69.77381
"11064",161.05487,75.28924,69.61714
"11065",161.06818,75.27947,69.46017
"11066",161.08154,75.25994,69.29312
"11067",161.09485,75.22575,69.11081
"11068",161.10822,75.17204,68.907906
"11069",161.12152,75.12077,68.705765
"11070",161.13489,75.174484,68.607
"11071",161.1482,75.52117,68.802895
"11072",161.16156,76.3708,69.51256
"11073",161.17487,77.84543,70.87378
"11074",161.18823,79.903564,72.864586
"11075",161.20154,82.33036,75.28837
"11076",161.2149,84.78401,77.81484
"11077",161.22821,86.90074,80.08107
"11078",161.24158,88.41932,81.81529
"11079",161.25488,89.24452,82.903595
"11080",161.26825,89.42519,83.37315
"11081",161.28156,89.07851,83.32101
"11082",161.29492,88.36317,82.88937
"11083",161.30823,87.432976,82.220535
"11084",161.3216,86.42954,81.44939
"11085",161.3349,85.45541,80.67617
"11086",161.34827,84.59113,79.982376
"11087",161.36157,83.86359,79.3983
"11088",161.37494,83.27764,78.93309
"11089",161.38824,82.80156,78.55943
"11090",161.40161,82.39384,78.23926
"11091",161.41492,82.01541,77.93564
"11092",161.42828,81.654076,77.63728
"11093",161.44159,81.30984,77.344734
"11094",161.45496,81.00221,77.07804
"11095",161.46826,80.75807,76.86522
"11096",161.48163,80.58961,76.72044
"11097",161.49493,80.48463,76.63389
"11098",161.5083,80.42359,76.588
"11099",161.5216,80.377205,76.55485
"11100",161.53497,80.31861,76.50804
"11101",161.54828,80.218506,76.41789
"11102",161.56165,80.059814,76.26603
"11103",161.57495,79.84009,76.04817
"11104",161.58832,79.56176,75.76485
"11105",161.60162,79.23949,75.42888
"11106",161.61499,78.88304,75.04867
"11107",161.6283,78.51682,74.647545
"11108",161.64166,78.153046,74.23742
"11109",161.65497,77.803925,73.83058
"11110",161.66833,77.48409,73.44212
"11111",161.68164,77.20088,73.08029
"11112",161.695,76.94942,72.741356
"11113",161.70831,76.734566,72.431175
"11114",161.72168,76.558784,72.15335
"11115",161.73499,76.4123,71.89933
"11116",161.74835,76.29511,71.67003
"11117",161.76166,76.20233,71.46147
"11118",161.77502,76.12665,71.26711
"11119",161.78833,76.070496,71.08992
"11120",161.8017,76.02655,70.92318
"11121",161.815,75.99725,70.769714
"11122",161.82837,75.97528,70.62266
"11123",161.84167,75.95575,70.477356
"11124",161.85504,75.92401,70.31924
"11125",161.86835,75.88495,70.1528
"11126",161.88171,75.826355,69.965614
"11127",161.89502,75.77753,69.78636
"11128",161.90839,75.81415,69.69103
"11129",161.92169,76.09735,69.84343
"11130",161.93506,76.81514,70.43926
"11131",161.94836,78.082245,71.60684
"11132",161.96173,79.871826,73.336494
"11133",161.97504,81.99832,75.458984
"11134",161.9884,84.16388,77.68699
"11135",162.00171,86.03403,79.687256
"11136",162.01508,87.36706,81.20885
"11137",162.02838,88.07263,82.14464
"11138",162.04175,88.1947,82.51898
"11139",162.05505,87.852905,82.43327
"11140",162.06842,87.183945,82.00972
"11141",162.08173,86.33677,81.38704
"11142",162.0951,85.43832,80.68661
"11143",162.1084,84.58137,79.9996
"11144",162.12177,83.83185,79.39325
"11145",162.13507,83.211716,78.89286
"11146",162.14844,82.718544,78.50005
"11147",162.16174,82.31815,78.184616
"11148",162.17511,81.97635,77.91525
"11149",162.18842,81.66628,77.66695
"11150",162.20178,81.3782,77.43093
"11151",162.21509,81.11696,77.21276
"11152",162.22845,80.90944,77.040146
"11153",162.24176,80.765396,76.92452
"11154",162.25513,80.69215,76.87519
"11155",162.26843,80.67017,76.87485
"11156",162.2818,80.67506,76.90067
"11157",162.2951,80.67017,76.916885
"11158",162.30847,80.62867,76.896324
"11159",162.32178,80.53834,76.82564
"11160",162.33514,80.38941,76.693535
"11161",162.34845,80.177,76.49329
"11162",162.36182,79.91089,76.23271
"11163",162.37512,79.61303,75.93207
"11164",162.38849,79.29809,75.605034
"11165",162.4018,78.98314,75.26815
"11166",162.41516,78.6804,74.93363
"11167",162.42847,78.397194,74.60919
"11168",162.44183,78.1384,74.30031
"11169",162.45514,77.90646,74.0102
"11170",162.4685,77.69894,73.73725
"11171",162.48181,77.523155,73.48956
"11172",162.49518,77.37423,73.26324
"11173",162.50848,77.24727,73.05422
"11174",162.52185,77.13985,72.86078
"11175",162.53516,77.049515,72.68107
"11176",162.54852,76.97383,72.51318
"11177",162.56183,76.90791,72.3527
"11178",162.5752,76.859085,72.207245
"11179",162.5885,76.82002,72.07003
"11180",162.60187,76.79561,71.94624
"11181",162.61517,76.77852,71.82902
"11182",162.62854,76.771194,71.72102
"11183",162.64185,76.76631,71.61524
"11184",162.65521,76.754105,71.50198
"11185",162.66852,76.72968,71.37613
"11186",162.68188,76.69306,71.23731
"11187",162.69519,76.63691,71.07782
"11188",162.70856,76.575874,70.91169
"11189",162.72186,76.578316,70.80713
"11190",162.73523,76.78096,70.90285
"11191",162.74854,77.366905,71.3882
"11192",162.7619,78.46067,72.39968
"11193",162.7752,80.06714,73.958046
"11194",162.78857,82.03494,75.92795
"11195",162.80188,84.09796,78.05456
"11196",162.81525,85.94125,80.02591
"11197",162.82855,87.308464,81.57878
"11198",162.84192,88.08484,82.58354
"11199",162.85522,88.289925,83.041275
"11200",162.86859,88.01892,83.02933
"11201",162.8819,87.40856,82.669556
"11202",162.89526,86.59556,82.08807
"11203",162.90857,85.714195,81.41282
"11204",162.92194,84.86702,80.74421
"11205",162.93524,84.12482,80.1541
"11206",162.94861,83.51202,79.6702
"11207",162.96191,83.021286,79.289215
"11208",162.97528,82.62089,78.98323
"11209",162.98859,82.27665,78.720894
"11210",163.00195,81.971466,78.486855
"11211",163.01526,81.70046,78.27746
"11212",163.02863,81.478294,78.10843
"11213",163.04193,81.32693,78.00326
"11214",163.0553,81.25124,77.96904
"11215",163.0686,81.23659,77.993484
"11216",163.08197,81.26101,78.05655
"11217",163.09528,81.29275,78.12769
"11218",163.10864,81.29763,78.17297
"11219",163.12195,81.253685,78.16958
"11220",163.13531,81.146255,78.101326
"11221",163.14862,80.970474,77.961365
"11222",163.16199,80.73609,77.75731
"11223",163.1753,80.45045,77.49467
"11224",163.18866,80.1355,77.193794
"11225",163.20197,79.80591,76.86844
"11226",163.21533,79.47387,76.530334
"11227",163.22864,79.15404,76.19406
"11228",163.242,78.856186,75.869774
"11229",163.25531,78.58274,75.560585
"11230",163.26868,78.34104,75.2746
"11231",163.28198,78.12131,75.00302
"11232",163.29535,77.92844,74.75144
"11233",163.30865,77.75754,74.51581
"11234",163.32202,77.608604,74.2968
"11235",163.33533,77.47677,74.09023
"11236",163.3487,77.35958,73.894196
"11237",163.362,77.25704,73.709145
"11238",163.37537,77.16426,73.53065
"11239",163.38867,77.083694,73.361465
"11240",163.40204,77.02266,73.2093
"11241",163.41534,76.97383,73.06743
"11242",163.42871,76.93477,72.9338
"11243",163.44202,76.90791,72.81116
"11244",163.45538,76.88106,72.687675
"11245",163.46869,76.85176,72.56091
"11246",163.48206,76.81026,72.42103
"11247",163.49536,76.756546,72.26764
"11248",163.50873,76.68818,72.097916
"11249",163.52203,76.60273,71.90897
"11250",163.5354,76.53681,71.73689
"11251",163.5487,76.578316,71.67017
"11252",163.56207,76.87862,71.86355
"11253",163.57538,77.58175,72.46914
"11254",163.58875,78.76341,73.57523
"11255",163.60205,80.36744,75.14062
"11256",163.61542,82.22049,77.00515
"11257",163.62872,84.04425,78.8983
"11258",163.64209,85.57015,80.55058
"11259",163.6554,86.60044,81.75494
"11260",163.66876,87.08629,82.447044
"11261",163.68207,87.064316,82.646515
"11262",163.69543,86.64439,82.44734
"11263",163.70874,85.95834,81.96893
"11264",163.7221,85.14046,81.33724
"11265",163.73541,84.30793,80.66535
"11266",163.74878,83.53399,80.02603
"11267",163.76208,82.87236,79.47484
"11268",163.77545,82.33036,79.0226
"11269",163.78876,81.89578,78.66084
"11270",163.80212,81.53445,78.35875
"11271",163.81543,81.234146,78.1064
"11272",163.8288,80.97536,77.88618
"11273",163.8421,80.765396,77.706696
"11274",163.85547,80.62379,77.589005
"11275",163.86877,80.552986,77.5377
"11276",163.88214,80.550545,77.552536
"11277",163.89545,80.59449,77.613686
"11278",163.90881,80.65064,77.688416
"11279",163.92212,80.69215,77.75025
"11280",163.93549,80.68726,77.767
"11281",163.94879,80.61646,77.717674
"11282",163.96216,80.47242,77.592896
"11283",163.97546,80.2649,77.40014
"11284",163.98883,79.99878,77.142296
"11285",164.00214,79.693596,76.837074
"11286",164.0155,79.37133,76.50523
"11287",164.02881,79.05394,76.1682
"11288",164.04218,78.751205,75.8359
"11289",164.05548,78.470436,75.516106
"11290",164.06885,78.21164,75.20951
"11291",164.08215,77.977264,74.91925
"11292",164.09552,77.7673,74.64608
"11293",164.10883,77.58175,74.390755
"11294",164.1222,77.42306,74.156494
"11295",164.1355,77.29122,73.94413
"11296",164.14886,77.18623,73.75449
"11297",164.16217,77.10567,73.586
"11298",164.17554,77.04219,73.432076
"11299",164.18884,76.99336,73.29082
"11300",164.20221,76.95674,73.16024
"11301",164.21552,76.925,73.0334
"11302",164.22888,76.89082,72.90313
"11303",164.24219,76.85664,72.77179
"11304",164.25555,76.81026,72.627174
"11305",164.26886,76.749214,72.46645
"11306",164.28223,76.66621,72.28186
"11307",164.29553,76.57099,72.082466
"11308",164.3089,76.470894,71.87521
"11309",164.3222,76.41474,71.70878
"11310",164.33557,76.50996,71.691956
"11311",164.34888,76.90059,71.973526
"11312",164.36224,77.69161,72.667694
"11313",164.37555,78.90257,73.80652
"11314",164.38892,80.42603,75.295685
"11315",164.40222,82.05936,76.94232
"11316",164.41559,83.53643,78.48375
"11317",164.4289,84.6424,79.70023
"11318",164.44226,85.25765,80.460556
"11319",164.45557,85.382164,80.74937
"11320",164.46893,85.08675,80.62214
"11321",164.48224,84.491035,80.18539
"11322",164.4956,83.717094,79.55179
"11323",164.50891,82.87724,78.828094
"11324",164.52228,82.074005,78.11477
"11325",164.53558,81.36599,77.471565
"11326",164.54895,80.76784,76.9161
"11327",164.56226,80.27955,76.451805
"11328",164.57562,79.8938,76.07479
"11329",164.58893,79.59838,75.776054
"11330",164.6023,79.395744,75.56087
"11331",164.6156,79.29565,75.44189
"11332",164.62897,79.30297,75.4272
"11333",164.64227,79.415276,75.51772
"11334",164.65564,79.60082,75.685
"11335",164.66895,79.82544,75.89714
"11336",164.68231,80.03784,76.10409
"11337",164.69562,80.198975,76.2664
"11338",164.70898,80.27711,76.35075
"11339",164.72229,80.255135,76.33744
"11340",164.73566,80.13794,76.22822
"11341",164.74896,79.940186,76.034775
"11342",164.76233,79.691154,75.783875
"11343",164.77563,79.412834,75.4959
"11344",164.789,79.12718,75.1919
"11345",164.8023,78.853745,74.89119
"11346",164.81567,78.59739,74.599014
"11347",164.82898,78.37034,74.32813
"11348",164.84235,78.170135,74.077
"11349",164.85565,77.996796,73.84648
"11350",164.86902,77.85031,73.6374
"11351",164.88232,77.72579,73.4457
"11352",164.89569,77.61837,73.26721
"11353",164.909,77.53536,73.10978
"11354",164.92236,77.471886,72.969284
"11355",164.93567,77.42306,72.84145
"11356",164.94904,77.38644,72.724304
"11357",164.96234,77.3547,72.61089
"11358",164.97571,77.313194,72.486725
"11359",164.98901,77.261925,72.351494
"11360",165.00238,77.196,72.200005
"11361",165.01569,77.117874,72.034256
"11362",165.02905,77.05684,71.883156
"11363",165.04236,77.086136,71.82048
"11364",165.05573,77.332726,71.97601
"11365",165.06903,77.91379,72.473724
"11366",165.0824,78.89525,73.38999
"11367",165.0957,80.23804,74.69826
"11368",165.10907,81.77371,76.24137
"11369",165.12238,83.2752,77.79829
"11370",165.13574,84.505684,79.13112
"11371",165.14905,85.29916,80.06539
"11372",165.16241,85.60677,80.538605
"11373",165.17572,85.47982,80.58686
"11374",165.18909,85.01106,80.289345
"11375",165.2024,84.32014,79.75501
"11376",165.21576,83.53155,79.101425
"11377",165.22906,82.74296,78.423195
"11378",165.24243,82.022736,77.78869
"11379",165.25574,81.40749,77.23666
"11380",165.2691,80.902115,76.77526
"11381",165.28241,80.49683,76.39817
"11382",165.29578,80.181885,76.09875
"11383",165.30908,79.94751,75.870056
"11384",165.32245,79.79614,75.71705
"11385",165.33575,79.73998,75.65452
"11386",165.34912,79.77661,75.68302
"11387",165.36243,79.89136,75.79079
"11388",165.3758,80.05249,75.948524
"11389",165.3891,80.22583,76.123505
"11390",165.40247,80.37232,76.277054
"11391",165.41577,80.46021,76.37658
"11392",165.42914,80.46998,76.40073
"11393",165.44244,80.396736,76.34217
"11394",165.45581,80.24536,76.20319
"11395",165.46912,80.028076,75.993576
"11396",165.48248,79.76929,75.735664
"11397",165.49579,79.49096,75.45013
"11398",165.50916,79.21263,75.15589
"11399",165.52246,78.9514,74.870056
"11400",165.53583,78.71702,74.602905
"11401",165.54913,78.50706,74.35285
"11402",165.5625,78.32639,74.125534
"11403",165.5758,78.17258,73.91942
"11404",165.58917,78.04074,73.73048
"11405",165.60248,77.93332,73.56183
"11406",165.61584,77.84787,73.4118
"11407",165.62915,77.78195,73.278625
"11408",165.64252,77.730675,73.158035
"11409",165.65582,77.69161,73.04806
"11410",165.66919,77.66476,72.949066
"11411",165.6825,77.64034,72.85168
"11412",165.69586,77.61349,72.75108
"11413",165.70917,77.58175,72.64477
"11414",165.72253,77.5378,72.52525
"11415",165.73584,77.48165,72.39216
"11416",165.7492,77.44015,72.27196
"11417",165.76251,77.48409,72.23591
"11418",165.77588,77.738,72.411194
"11419",165.78918,78.34348,72.94599
"11420",165.80255,79.381096,73.93184
"11421",165.81586,80.82155,75.35295
"11422",165.82922,82.51835,77.075424
"11423",165.84253,84.23224,78.86801
"11424",165.8559,85.70931,80.47734
"11425",165.8692,86.76402,81.710464
"11426",165.88257,87.32067,82.478485
"11427",165.89587,87.40856,82.79515
"11428",165.90924,87.12047,82.73857
"11429",165.92255,86.57603,82.41664
"11430",165.93591,85.89487,81.94098
"11431",165.94922,85.1844,81.41473
"11432",165.96259,84.525215,80.91755
"11433",165.97589,83.966125,80.49987
"11434",165.98926,83.52178,80.17947
"11435",166.00256,83.17998,79.947716
"11436",166.01593,82.90654,79.77365
"11437",166.02924,82.65507,79.61301
"11438",166.0426,82.40116,79.44207
"11439",166.05591,82.13748,79.253426
"11440",166.06927,81.86893,79.05167
"11441",166.08258,81.62234,78.86348
"11442",166.09595,81.42214,78.71398
"11443",166.10925,81.27566,78.61194
"11444",166.12262,81.18532,78.56146
"11445",166.13593,81.13405,78.54723
"11446",166.14929,81.094986,78.54361
"11447",166.1626,81.04616,78.529
"11448",166.17596,80.96559,78.481125
"11449",166.18927,80.8362,78.381905
"11450",166.20264,80.65064,78.22248
"11451",166.21594,80.41871,78.01088
"11452",166.22931,80.15259,77.75784
"11453",166.24261,79.8645,77.474525
"11454",166.25598,79.569084,77.17487
"11455",166.26929,79.27856,76.87088
"11456",166.28265,79.012436,76.582214
"11457",166.29596,78.76341,76.30233
"11458",166.30933,78.54124,76.04151
"11459",166.32263,78.345924,75.80061
"11460",166.336,78.17258,75.57558
"11461",166.3493,78.01877,75.36466
"11462",166.36267,77.88937,75.173355
"11463",166.37598,77.77951,74.997536
"11464",166.38934,77.68917,74.83781
"11465",166.40265,77.62325,74.69968
"11466",166.41602,77.56954,74.57169
"11467",166.42932,77.52804,74.45424
"11468",166.44269,77.49142,74.34037
"11469",166.456,77.44503,74.21559
"11470",166.46936,77.38644,74.077156
"11471",166.48267,77.32052,73.929565
"11472",166.49603,77.24483,73.77014
"11473",166.50934,77.17403,73.61324
"11474",166.5227,77.16426,73.51517
"11475",166.53601,77.33517,73.59746
"11476",166.54938,77.82834,74.007355
"11477",166.56268,78.75609,74.86724
"11478",166.57605,80.128174,76.200455
"11479",166.58936,81.832306,77.90859
"11480",166.60272,83.65362,79.78716
"11481",166.61603,85.32357,81.57129
"11482",166.6294,86.624855,83.03893
"11483",166.6427,87.44518,84.066284
"11484",166.65607,87.782104,84.635864
"11485",166.66937,87.70641,84.80336
"11486",166.68274,87.33288,84.670654
"11487",166.69604,86.78111,84.34804
"11488",166.70941,86.16586,83.944695
"11489",166.72272,85.57992,83.55143
"11490",166.73608,85.07454,83.22042
"11491",166.74939,84.6717,82.97616
"11492",166.76276,84.35432,82.80476
"11493",166.77606,84.088196,82.67471
"11494",166.78943,83.826965,82.54124
"11495",166.80273,83.53155,82.36541
"11496",166.8161,83.192184,82.136406
"11497",166.8294,82.828415,81.87239
"11498",166.84277,82.46952,81.60188
"11499",166.85608,82.15213,81.361664
"11500",166.86945,81.90555,81.182335
"11501",166.88275,81.73464,81.07098
"11502",166.89612,81.619896,81.01044
"11503",166.90942,81.53689,80.97805
"11504",166.92279,81.45632,80.94551
"11505",166.9361,81.3489,80.8836
"11506",166.94946,81.19264,80.76949
"11507",166.96277,80.9778,80.59192
"11508",166.97614,80.71412,80.358795
"11509",166.98944,80.40406,80.07105
"11510",167.0028,80.0647,79.744316
"11511",167.01611,79.71557,79.39721
"11512",167.02948,79.361565,79.03432
"11513",167.04279,79.01732,78.67012
"11514",167.05615,78.692604,78.3147
"11515",167.06946,78.38987,77.97111
"11516",167.08282,78.1091,77.64002
"11517",167.09613,77.86008,77.33191
"11518",167.1095,77.63302,77.03798
"11519",167.1228,77.42794,76.758934
"11520",167.13617,77.24483,76.495445
"11521",167.14948,77.08125,76.24577
"11522",167.16284,76.93965,76.01296
"11523",167.17615,76.81514,75.792816
"11524",167.18951,76.70771,75.58586
"11525",167.20282,76.612495,75.387764
"11526",167.21619,76.52949,75.1989
"11527",167.22949,76.45869,75.019646
"11528",167.24286,76.39521,74.845505
"11529",167.25616,76.3415,74.679146
"11530",167.26953,76.29023,74.51355
"11531",167.28284,76.23895,74.346344
"11532",167.2962,76.18768,74.17754
"11533",167.30951,76.12421,73.994934
"11534",167.32288,76.04852,73.798134
"11535",167.33618,75.965515,73.591644
"11536",167.34955,75.90936,73.40942
"11537",167.36285,75.96307,73.3353
"11538",167.37622,76.27314,73.51921
"11539",167.38953,76.98604,74.11565
"11540",167.4029,78.17746,75.21288
"11541",167.4162,79.818115,76.796585
"11542",167.42957,81.74685,78.719635
"11543",167.44287,83.719536,80.74691
"11544",167.45624,85.46517,82.60878
"11545",167.46954,86.78844,84.10283
"11546",167.48291,87.60143,85.12796
"11547",167.49622,87.91882,85.68289
"11548",167.50958,87.818726,85.83026
"11549",167.52289,87.41833,85.674194
"11550",167.53625,86.83971,85.32739
"11551",167.54956,86.19272,84.89414
"11552",167.56293,85.56527,84.46021
"11553",167.57623,85.01106,84.07992
"11554",167.5896,84.54719,83.77264
"11555",167.6029,84.16632,83.53387
"11556",167.61627,83.83185,83.32959
"11557",167.62958,83.50713,83.12462
"11558",167.64294,83.16533,82.89241
"11559",167.65625,82.80644,82.63244
"11560",167.66962,82.44999,82.363686
"11561",167.68292,82.12283,82.11309
"11562",167.69629,81.846954,81.90355
"11563",167.7096,81.634544,81.748856
"11564",167.72296,81.480736,81.646126
"11565",167.73627,81.36355,81.57521
"11566",167.74963,81.25857,81.51284
"11567",167.76294,81.13649,81.43009
"11568",167.7763,80.97536,81.304474
"11569",167.78961,80.75807,81.11767
"11570",167.80298,80.482185,80.86547
"11571",167.81628,80.15503,80.55338
"11572",167.82965,79.78882,80.19202
"11573",167.84296,79.40063,79.797226
"11574",167.85632,79.00511,79.38298
"11575",167.86963,78.61936,78.96614
"11576",167.883,78.25559,78.55923
"11577",167.8963,77.91623,78.16535
"11578",167.90967,77.60372,77.78773
"11579",167.92297,77.315636,77.42476
"11580",167.93634,77.06172,77.08696
"11581",167.94965,76.83223,76.76565
"11582",167.96301,76.629585,76.46401
"11583",167.97632,76.44648,76.17558
"11584",167.98969,76.28535,75.903404
"11585",168.00299,76.1413,75.64327
"11586",168.01636,76.00946,75.390854
"11587",168.02966,75.88983,75.14652
"11588",168.04303,75.78729,74.91554
"11589",168.05634,75.69695,74.69356
"11590",168.0697,75.62127,74.483406
"11591",168.08301,75.55779,74.2831
"11592",168.09637,75.50408,74.09057
"11593",168.10968,75.45525,73.901245
"11594",168.12305,75.403984,73.707954
"11595",168.13635,75.35027,73.51062
"11596",168.14972,75.28924,73.30428
"11597",168.16302,75.22087,73.08871
"11598",168.17639,75.15007,72.86856
"11599",168.1897,75.08415,72.651085
"11600",168.20306,75.071945,72.48526
"11601",168.21637,75.22331,72.48263
"11602",168.22974,75.69451,72.80456
"11603",168.24304,76.61738,73.59288
"11604",168.25641,78.03342,74.90321
"11605",168.26971,79.86694,76.675285
"11606",168.28308,81.92508,78.72926
"11607",168.29639,83.94415,80.808495
"11608",168.30975,85.66781,82.6554
"11609",168.32306,86.925156,84.08987
"11610",168.33643,87.657585,85.038704
"11611",168.34973,87.88464,85.505066
"11612",168.3631,87.682,85.54881
"11613",168.3764,87.166855,85.27373
"11614",168.38977,86.47593,84.80676
"11615",168.40308,85.72152,84.25472
"11616",168.41644,84.99397,83.70597
"11617",168.42975,84.349434,83.21749
"11618",168.44312,83.79767,82.80164
"11619",168.45642,83.32159,82.44424
"11620",168.46979,82.899216,82.12566
"11621",168.4831,82.50614,81.82319
"11622",168.49646,82.13748,81.532845
"11623",168.50977,81.80545,81.26761
"11624",168.52313,81.532005,81.05058
"11625",168.53644,81.33181,80.89826
"11626",168.5498,81.20241,80.81048
"11627",168.56311,81.12184,80.76749
"11628",168.57648,81.07301,80.753716
"11629",168.58978,81.0193,80.733536
"11630",168.60315,80.936295,80.68238
"11631",168.61646,80.80202,80.57736
"11632",168.62982,80.60914,80.409546
"11633",168.64313,80.34791,80.16735
"11634",168.6565,80.03296,79.86327
"11635",168.6698,79.66918,79.50053
"11636",168.68317,79.27856,79.09956
"11637",168.69647,78.8806,78.67906
"11638",168.70984,78.487526,78.25101
"11639",168.72314,78.1091,77.82532
"11640",168.73651,77.75998,77.41711
"11641",168.74982,77.44259,77.02972
"11642",168.76318,77.15694,76.66415
"11643",168.77649,76.89815,76.31651
"11644",168.78986,76.66865,75.99008
"11645",168.80316,76.46357,75.6809
"11646",168.81653,76.28535,75.392166
"11647",168.82983,76.12909,75.11983
"11648",168.8432,76.00214,74.87191
"11649",168.8565,75.8996,74.64444
"11650",168.86987,75.81659,74.4333
"11651",168.88318,75.74334,74.22932
"11652",168.89655,75.68719,74.040146
"11653",168.90985,75.63836,73.856544
"11654",168.92322,75.59441,73.6763
"11655",168.93652,75.55535,73.499565
"11656",168.94989,75.52117,73.32649
"11657",168.9632,75.48455,73.14991
"11658",168.97656,75.440605,72.96486
"11659",168.98987,75.386894,72.76867
"11660",169.00323,75.318535,72.55615
"11661",169.01654,75.23796,72.329285
"11662",169.0299,75.1696,72.112114
"11663",169.04321,75.1989,71.99046
"11664",169.05658,75.46502,72.10655
"11665",169.06989,76.121765,72.62158
"11666",169.08325,77.2546,73.633224
"11667",169.09656,78.853745,75.146576
"11668",169.10992,80.780045,77.037056
"11669",169.12323,82.78691,79.0683
"11670",169.1366,84.596016,80.96449
"11671",169.1499,85.997406,82.50951
"11672",169.16327,86.869,83.56852
"11673",169.17657,87.19859,84.11276
"11674",169.18994,87.047226,84.18635
"11675",169.20325,86.522316,83.88166
"11676",169.21661,85.75571,83.31887
"11677",169.22992,84.88167,82.624695
"11678",169.24329,84.00763,81.903206
"11679",169.25659,83.19951,81.22032
"11680",169.26996,82.48905,80.60985
"11681",169.28326,81.881134,80.07971
"11682",169.29663,81.36843,79.62579
"11683",169.30994,80.94362,79.243744
"11684",169.3233,80.618904,78.94852
"11685",169.33661,80.40406,78.75301
"11686",169.34998,80.306404,78.667984
"11687",169.36328,80.31129,78.68244
"11688",169.37665,80.396736,78.77762
"11689",169.38995,80.52857,78.92185
"11690",169.40332,80.66285,79.07265
"11691",169.41663,80.762955,79.19347
"11692",169.43,80.799576,79.25393
"11693",169.4433,80.75319,79.23253
"11694",169.45667,80.60914,79.112015
"11695",169.46997,80.37965,78.90156
"11696",169.48334,80.079346,78.61312
"11697",169.49664,79.73266,78.26891
"11698",169.51001,79.364006,77.89191
"11699",169.52332,78.99046,77.49849
"11700",169.53668,78.626686,77.103165
"11701",169.54999,78.28245,76.71601
"11702",169.56335,77.9675,76.34739
"11703",169.57666,77.68673,76.003105
"11704",169.59003,77.44503,75.68912
"11705",169.60333,77.242386,75.40663
"11706",169.6167,77.07393,75.152
"11707",169.63,76.93477,74.9214
"11708",169.64337,76.824905,74.71575
"11709",169.65668,76.732124,74.52375
"11710",169.67004,76.65156,74.341064
"11711",169.68335,76.578316,74.163185
"11712",169.69672,76.50996,73.9879
"11713",169.71002,76.436714,73.805595
"11714",169.72339,76.351265,73.608795
"11715",169.7367,76.25361,73.39712
"11716",169.75006,76.1413,73.16773
"11717",169.76337,76.02655,72.9324
"11718",169.77673,75.96307,72.74476
"11719",169.79004,76.070496,72.72603
"11720",169.8034,76.49775,73.03049
"11721",169.81671,77.36935,73.79264
"11722",169.83008,78.712135,75.05322
"11723",169.84338,80.445564,76.74641
"11724",169.85675,82.36698,78.68175
"11725",169.87006,84.21515,80.60388
"11726",169.88342,85.74105,82.261505
"11727",169.89673,86.785995,83.485855
"11728",169.9101,87.2987,84.21062
"11729",169.9234,87.2987,84.438705
"11730",169.93677,86.87877,84.24686
"11731",169.95007,86.16098,83.744026
"11732",169.96344,85.27718,83.05276
"11733",169.97675,84.34455,82.285034
"11734",169.99011,83.4461,81.52235
"11735",170.00342,82.62577,80.80971
"11736",170.01678,81.89578,80.16177
"11737",170.03009,81.26589,79.591125
"11738",170.04346,80.743416,79.10821
"11739",170.05676,80.34547,78.73349
"11740",170.07013,80.09155,78.49037
"11741",170.08344,79.991455,78.393135
"11742",170.0968,80.04028,78.441696
"11743",170.1101,80.19409,78.59676
"11744",170.12347,80.411385,78.82012
"11745",170.13678,80.62867,79.05026
"11746",170.15015,80.799576,79.240814
"11747",170.16345,80.88747,79.35369
"11748",170.17682,80.87038,79.364334
"11749",170.19012,80.73853,79.25969
"11750",170.20349,80.50416,79.04839
"11751",170.2168,80.19409,78.75408
"11752",170.23016,79.82788,78.393936
"11753",170.24347,79.43969,78.00037
"11754",170.25684,79.0515,77.594666
"11755",170.27014,78.6804,77.193924
"11756",170.28351,78.331276,76.803566
"11757",170.29681,78.011444,76.43159
"11758",170.31018,77.72579,76.08379
"11759",170.32349,77.47677,75.7637
"11760",170.33685,77.264366,75.47245
"11761",170.35016,77.086136,75.20873
"11762",170.36353,76.93965,74.97119
"11763",170.37683,76.81514,74.751045
"11764",170.3902,76.70771,74.54409
"11765",170.4035,76.60761,74.34111
"11766",170.41687,76.50263,74.13012
"11767",170.43018,76.38056,73.89876
"11768",170.44354,76.25605,73.66114
"11769",170.45685,76.173035,73.46113
"11770",170.47021,76.24872,73.41722
"11771",170.48352,76.64423,73.69551
"11772",170.49689,77.50851,74.45492
"11773",170.5102,78.90013,75.768684
"11774",170.52356,80.75807,77.592255
"11775",170.53687,82.882126,79.74
"11776",170.55023,85.00618,81.95412
"11777",170.56354,86.85924,83.963615
"11778",170.5769,88.24353,85.562256
"11779",170.59021,89.076065,86.652405
"11780",170.60358,89.356834,87.2168
"11781",170.61688,89.163956,87.31632
"11782",170.63025,88.602425,87.04117
"11783",170.64355,87.80896,86.516525
"11784",170.65692,86.91051,85.86211
"11785",170.67023,86.00961,85.17716
"11786",170.6836,85.172195,84.52754
"11787",170.6969,84.422676,83.93965
"11788",170.71027,83.76349,83.41867
"11789",170.72357,83.18242,82.95521
"11790",170.73694,82.67216,82.544395
"11791",170.75024,82.24002,82.19576
"11792",170.76361,81.898224,81.923965
"11793",170.77692,81.65896,81.74402
"11794",170.79028,81.51736,81.65426
"11795",170.80359,81.45876,81.64308
"11796",170.81696,81.45388,81.683784
"11797",170.83026,81.45876,81.7341
"11798",170.84363,81.43679,81.75771
"11799",170.85693,81.358665,81.72449
"11800",170.8703,81.197525,81.605804
"11801",170.8836,80.94362,81.38932
"11802",170.89697,80.61158,81.08677
"11803",170.91028,80.216064,80.710365
"11804",170.92365,79.783936,80.28499
"11805",170.93695,79.327385,79.821686
"11806",170.95032,78.870834,79.34412
"11807",170.96362,78.42405,78.862045
"11808",170.97699,78.009,78.39775
"11809",170.9903,77.625694,77.952225
"11810",171.00366,77.2839,77.53623
"11811",171.01697,76.98848,77.15594
"11812",171.03033,76.734566,76.807915
"11813",171.04364,76.5124,76.4837
"11814",171.057,76.30976,76.17208
"11815",171.07031,76.121765,75.86877
"11816",171.08368,75.9411,75.56691
"11817",171.09698,75.755554,75.254524
"11818",171.11035,75.562675,74.92901
"11819",171.12366,75.39422,74.62189
"11820",171.13702,75.3283,74.41204
"11821",171.15033,75.508965,74.44672
"11822",171.1637,76.104675,74.902084
"11823",171.177,77.239944,75.91563
"11824",171.19037,78.92699,77.51642
"11825",171.20367,81.04616,79.60206
"11826",171.21704,83.35577,81.94436
"11827",171.23035,85.555504,84.24896
"11828",171.24371,87.38903,86.256096
"11829",171.25702,88.68299,87.78096
"11830",171.27039,89.38857,88.75789
"11831",171.28369,89.53506,89.19777
"11832",171.29706,89.22743,89.18812
"11833",171.31036,88.59998,88.84903
"11834",171.32373,87.799194,88.316986
"11835",171.33704,86.94713,87.70865
"11836",171.3504,86.14145,87.12006
"11837",171.36371,85.42855,86.59908
"11838",171.37708,84.81331,86.15348
"11839",171.39038,84.263985,85.75457
"11840",171.40375,83.74639,85.370224
"11841",171.41705,83.22392,84.96483
"11842",171.43042,82.686806,84.52846
"11843",171.44373,82.15457,84.080185
"11844",171.45709,81.654076,83.64702
"11845",171.4704,81.2195,83.26413
"11846",171.48376,80.86305,82.94579
"11847",171.49707,80.57496,82.68467
"11848",171.51044,80.33814,82.46582
"11849",171.52374,80.12573,82.26398
"11850",171.53711,79.90112,82.0433
"11851",171.55042,79.64721,81.78629
"11852",171.56378,79.34203,81.47009
"11853",171.57709,78.9807,81.088196
"11854",171.59045,78.57053,80.64618
"11855",171.60376,78.118866,80.14984
"11856",171.61713,77.642784,79.614975
"11857",171.63043,77.15694,79.055466
"11858",171.6438,76.680855,78.49054
"11859",171.6571,76.23407,77.94003
"11860",171.67047,75.81903,77.40731
"11861",171.68378,75.44305,76.90067
"11862",171.69714,75.10857,76.42379
"11863",171.71045,74.82048,75.98285
"11864",171.72382,74.57389,75.5744
"11865",171.73712,74.371254,75.2022
"11866",171.75049,74.20767,74.862724
"11867",171.7638,74.073395,74.54744
"11868",171.77716,73.94888,74.237724
"11869",171.79047,73.829254,73.929
"11870",171.80383,73.69985,73.606766
"11871",171.81714,73.56069,73.27073
"11872",171.8305,73.43862,72.94743
"11873",171.84381,73.39468,72.69845
"11874",171.85718,73.56313,72.66049
"11875",171.87048,74.11246,73.00867
"11876",171.88385,75.16716,73.87939
"11877",171.89716,76.754105,75.31531
"11878",171.91052,78.768295,77.228065
"11879",171.92383,80.98268,79.40396
"11880",171.9372,83.10918,81.561165
"11881",171.9505,84.87923,83.428375
"11882",171.96387,86.134125,84.83575
"11883",171.97717,86.83238,85.72569
"11884",171.99054,87.010605,86.117424
"11885",172.00385,86.783554,86.10945
"11886",172.01721,86.28306,85.82094
"11887",172.03052,85.65072,85.38494
"11888",172.04388,85.0013,84.9121
"11889",172.05719,84.40803,84.47512
"11890",172.07056,83.90509,84.10993
"11891",172.08386,83.48272,83.80959
"11892",172.09723,83.09697,83.53268
"11893",172.11053,82.703896,83.23638
"11894",172.1239,82.26444,82.881424
"11895",172.1372,81.77127,82.459015
"11896",172.15057,81.24147,81.984566
"11897",172.16388,80.71412,81.49601
"11898",172.17725,80.233154,81.03736
"11899",172.19055,79.83032,80.641815
"11900",172.20392,79.5227,80.32889
"11901",172.21722,79.29565,80.08692
"11902",172.23059,79.12474,79.894005
"11903",172.2439,78.98314,79.72505
"11904",172.25726,78.82933,79.53947
"11905",172.27057,78.63645,79.310005
"11906",172.28394,78.38987,79.02081
"11907",172.29724,78.09445,78.67508
"11908",172.31061,77.752655,78.273735
"11909",172.32391,77.38155,77.832405
"11910",172.33728,76.995804,77.36483
"11911",172.35059,76.61494,76.89008
"11912",172.36395,76.24628,76.41564
"11913",172.37726,75.90204,75.9541
"11914",172.39062,75.59441,75.51842
"11915",172.40393,75.31609,75.102425
"11916",172.4173,75.07439,74.71435
"11917",172.4306,74.86687,74.352905
"11918",172.44397,74.69352,74.01915
"11919",172.45728,74.54948,73.70928
"11920",172.47064,74.43229,73.42177
"11921",172.48395,74.34684,73.16233
"11922",172.49731,74.28336,72.922195
"11923",172.51062,74.23941,72.6996
"11924",172.52399,74.20767,72.48785
"11925",172.5373,74.18326,72.282425
"11926",172.55066,74.161285,72.07868
"11927",172.56396,74.13199,71.86693
"11928",172.57733,74.09537,71.646935
"11929",172.59064,74.05386,71.42091
"11930",172.604,74.03189,71.21313
"11931",172.61731,74.11978,71.11452
"11932",172.63068,74.461586,71.27257
"11933",172.64398,75.1989,71.83681
"11934",172.65735,76.419624,72.9075
"11935",172.67065,78.101776,74.47777
"11936",172.68402,80.08667,76.40334
"11937",172.69733,82.125275,78.44466
"11938",172.7107,83.94415,80.32995
"11939",172.724,85.32845,81.8375
"11940",172.73737,86.185394,82.860954
"11941",172.75067,86.519875,83.388725
"11942",172.76404,86.41978,83.49237
"11943",172.77734,86.012054,83.28526
"11944",172.79071,85.435875,82.89696
"11945",172.80402,84.81331,82.44426
"11946",172.81738,84.2298,82.01116
"11947",172.83069,83.734184,81.64773
"11948",172.84406,83.32891,81.359146
"11949",172.85736,82.98955,81.12381
"11950",172.87073,82.667274,80.89496
"11951",172.88403,82.32548,80.63651
"11952",172.8974,81.93973,80.32343
"11953",172.9107,81.5198,79.96412
"11954",172.92407,81.094986,79.5868
"11955",172.93738,80.70435,79.230385
"11956",172.95074,80.377205,78.92525
"11957",172.96405,80.130615,78.690445
"11958",172.97742,79.96216,78.52607
"11959",172.99072,79.84741,78.41014
"11960",173.00409,79.76196,78.31992
"11961",173.0174,79.674065,78.22459
"11962",173.03076,79.551994,78.09233
"11963",173.04407,79.378654,77.90499
"11964",173.05743,79.14671,77.65363
"11965",173.07074,78.86595,77.34621
"11966",173.0841,78.551,76.99582
"11967",173.09741,78.22385,76.62338
"11968",173.11078,77.8967,76.24073
"11969",173.12408,77.58175,75.860054
"11970",173.13745,77.28634,75.489075
"11971",173.15076,77.015335,75.13327
"11972",173.16412,76.78096,74.805626
"11973",173.17743,76.5832,74.50727
"11974",173.1908,76.40986,74.22716
"11975",173.2041,76.263374,73.96848
"11976",173.21747,76.138855,73.727196
"11977",173.23077,76.02899,73.49667
"11978",173.24414,75.928894,73.272484
"11979",173.25745,75.84833,73.0647
"11980",173.27081,75.78241,72.86904
"11981",173.28412,75.73113,72.68597
"11982",173.29749,75.68963,72.51106
"11983",173.31079,75.66033,72.34707
"11984",173.32416,75.64324,72.19437
"11985",173.33746,75.63592,72.050896
"11986",173.35083,75.63836,71.91696
"11987",173.36414,75.64568,71.78799
"11988",173.3775,75.65789,71.66412
"11989",173.39081,75.665215,71.53576
"11990",173.40417,75.66033,71.39542
"11991",173.41748,75.64324,71.242714
"11992",173.43085,75.61639,71.07971
"11993",173.44415,75.596855,70.923195
"11994",173.45752,75.64568,70.83443
"11995",173.47083,75.89227,70.94495
"11996",173.48419,76.4831,71.40741
"11997",173.4975,77.523155,72.33756
"11998",173.51086,79.02464,73.76165
"11999",173.52417,80.87526,75.58179
"12000",173.53754,82.83818,77.57206
"12001",173.55084,84.6424,79.46497
"12002",173.56421,86.056,81.02364
"12003",173.57751,86.94957,82.10646
"12004",173.59088,87.31335,82.68741
"12005",173.60419,87.218124,82.820724
"12006",173.61755,86.78844,82.6166
"12007",173.63086,86.1561,82.196396
"12008",173.64423,85.45052,81.6832
"12009",173.65753,84.77669,81.17969
"12010",173.6709,84.190735,80.743004
"12011",173.6842,83.71465,80.39788
"12012",173.69757,83.33135,80.13066
"12013",173.71088,83.004196,79.90761
"12014",173.72424,82.686806,79.6841
"12015",173.73755,82.35966,79.44091
"12016",173.75092,82.0325,79.18749
"12017",173.76422,81.722435,78.94094
"12018",173.77759,81.45876,78.731094
"12019",173.7909,81.26101,78.578926
"12020",173.80426,81.13649,78.49381
"12021",173.81757,81.06569,78.45853
"12022",173.83093,81.02907,78.45521
"12023",173.84424,80.99245,78.450745
"12024",173.8576,80.93385,78.423164
"12025",173.87091,80.82643,78.344925
"12026",173.88428,80.65797,78.202286
"12027",173.89758,80.430916,77.9958
"12028",173.91095,80.147705,77.72605
"12029",173.92426,79.835205,77.41817
"12030",173.93762,79.50805,77.08586
"12031",173.95093,79.18822,76.750656
"12032",173.9643,78.87816,76.41523
"12033",173.9776,78.590065,76.09208
"12034",173.99097,78.32395,75.781906
"12035",174.00427,78.08469,75.490265
"12036",174.01764,77.8674,75.21313
"12037",174.03094,77.68429,74.96337
"12038",174.04431,77.52804,74.73476
"12039",174.05762,77.401085,74.530556
"12040",174.07098,77.296104,74.34436
"12041",174.08429,77.208206,74.17197
"12042",174.09766,77.13008,74.0066
"12043",174.11096,77.06416,73.851
"12044",174.12433,77.01289,73.707985
"12045",174.13763,76.97139,73.573135
"12046",174.151,76.93965,73.446754
"12047",174.1643,76.91768,73.32915
"12048",174.17767,76.895706,73.21085
"12049",174.19098,76.86641,73.08455
"12050",174.20435,76.822464,72.94268
"12051",174.21765,76.76387,72.78479
"12052",174.23102,76.6833,72.60309
"12053",174.24432,76.595406,72.41155
"12054",174.25769,76.51972,72.22948
"12055",174.271,76.54658,72.147575
"12056",174.28436,76.79561,72.28869
"12057",174.29767,77.40841,72.80135
"12058",174.31104,78.45579,73.767746
"12059",174.32434,79.91333,75.17703
"12060",174.3377,81.6321,76.8931
"12061",174.35101,83.3753,78.687294
"12062",174.36438,84.88167,80.29914
"12063",174.37769,85.960785,81.53081
"12064",174.39105,86.522316,82.27861
"12065",174.40436,86.588234,82.54835
"12066",174.41772,86.25132,82.41731
"12067",174.43103,85.63607,81.99741
"12068",174.4444,84.8719,81.40937
"12069",174.4577,84.08087,80.770584
"12070",174.47107,83.34356,80.1608
"12071",174.48438,82.701454,79.62318
"12072",174.49774,82.161896,79.16804
"12073",174.51105,81.71023,78.78393
"12074",174.52441,81.324486,78.45163
"12075",174.53772,80.99977,78.168304
"12076",174.55109,80.73609,77.93587
"12077",174.56439,80.550545,77.77332
"12078",174.57776,80.45777,77.697754
"12079",174.59106,80.45777,77.71206
"12080",174.60443,80.53101,77.79961
"12081",174.61774,80.64088,77.92606
"12082",174.6311,80.7483,78.05351
"12083",174.64441,80.81178,78.14038
"12084",174.65778,80.8069,78.160866
"12085",174.67108,80.71168,78.09086
"12086",174.68445,80.52857,77.92999
"12087",174.69775,80.272224,77.69016
"12088",174.71112,79.96948,77.39593
"12089",174.72443,79.64721,77.0727
"12090",174.7378,79.32494,76.73941
"12091",174.7511,79.01976,76.41313
"12092",174.76447,78.73655,76.09929
"12093",174.77777,78.485085,75.80834
"12094",174.79114,78.260475,75.53639
"12095",174.80444,78.06027,75.28183
"12096",174.81781,77.88449,75.04543
"12097",174.83112,77.733116,74.82795
"12098",174.84448,77.59884,74.62283
"12099",174.85779,77.48165,74.43061
"12100",174.87115,77.383995,74.25426
"12101",174.88446,77.31075,74.099266
"12102",174.89783,77.25216,73.956635
"12103",174.91113,77.21065,73.829254
"12104",174.9245,77.17891,73.71035
"12105",174.9378,77.14717,73.590454
"12106",174.95117,77.10811,73.46224
"12107",174.96448,77.0544,73.31816
"12108",174.97784,76.981155,73.15287
"12109",174.99115,76.895706,72.97308
"12110",175.00452,76.81758,72.79795
"12111",175.01782,76.81026,72.69118
"12112",175.03119,76.998245,72.77949
"12113",175.0445,77.52071,73.20815
"12114",175.05786,78.46555,74.075516
"12115",175.07117,79.835205,75.39722
"12116",175.08453,81.50759,77.06445
"12117",175.09784,83.267876,78.87185
"12118",175.1112,84.86214,80.56823
"12119",175.12451,86.082855,81.94089
"12120",175.13788,86.82262,82.870735
"12121",175.15118,87.07408,83.3354
"12122",175.16455,86.905624,83.38801
"12123",175.17786,86.41978,83.11796
"12124",175.19122,85.73861,82.637405
"12125",175.20453,84.98421,82.06233
"12126",175.2179,84.25178,81.48566
"12127",175.2312,83.60723,80.973976
"12128",175.24457,83.06523,80.5447
"12129",175.25787,82.60868,80.18394
"12130",175.27124,82.22049,79.877266
"12131",175.28455,81.866486,79.59265
"12132",175.29791,81.549095,79.33359
"12133",175.31122,81.27566,79.10856
"12134",175.32458,81.07057,78.94334
"12135",175.33789,80.95094,78.85716
"12136",175.35126,80.907,78.84293
"12137",175.36456,80.91676,78.88104
"12138",175.37793,80.95094,78.94387
"12139",175.39124,80.97536,78.998
"12140",175.4046,80.953384,79.00651
"12141",175.41791,80.86549,78.94841
"12142",175.43127,80.706795,78.81676
"12143",175.44458,80.479744,78.61179
"12144",175.45795,80.19409,78.34113
"12145",175.47125,79.87427,78.027374
"12146",175.48462,79.53246,77.68164
"12147",175.49792,79.19066,77.325226
"12148",175.51129,78.86107,76.970345
"12149",175.5246,78.551,76.62469
"12150",175.53796,78.27268,76.30109
"12151",175.55127,78.02365,75.99808
"12152",175.56464,77.803925,75.71659
"12153",175.57794,77.611046,75.455086
"12154",175.59131,77.44503,75.21442
"12155",175.60461,77.298546,74.98809
"12156",175.61798,77.17647,74.78159
"12157",175.63129,77.07149,74.58838
"12158",175.64465,76.98604,74.411415
"12159",175.65796,76.91524,74.24643
"12160",175.67133,76.86153,74.09632
"12161",175.68463,76.82002,73.95674
"12162",175.698,76.788284,73.82563
"12163",175.7113,76.75899,73.69597
"12164",175.72467,76.72236,73.55806
"12165",175.73798,76.67353,73.40681
"12166",175.75134,76.60517,73.2345
"12167",175.76465,76.52216,73.0454
"12168",175.77802,76.45869,72.873245
"12169",175.79132,76.49287,72.79676
"12170",175.80469,76.76875,72.96305
"12171",175.818,77.43282,73.526146
"12172",175.83136,78.58274,74.59584
"12173",175.84467,80.19409,76.1629
"12174",175.85803,82.127716,78.10259
"12175",175.87134,84.139465,80.18083
"12176",175.8847,85.96323,82.13395
"12177",175.89801,87.38415,83.74122
"12178",175.91138,88.30213,84.88995
"12179",175.92468,88.707405,85.55467
"12180",175.93805,88.673225,85.7926
"12181",175.95135,88.30213,85.69255
"12182",175.96472,87.72106,85.370926
"12183",175.97803,87.04967,84.94081
"12184",175.9914,86.38804,84.49948
"12185",176.0047,85.79721,84.10828
"12186",176.01807,85.30648,83.798706
"12187",176.03137,84.9012,83.55925
"12188",176.04474,84.54475,83.35596
"12189",176.05804,84.19562,83.14885
"12190",176.07141,83.82208,82.906425
"12191",176.08472,83.424126,82.62791
"12192",176.09808,83.018845,82.32963
"12193",176.11139,82.64286,82.04798
"12194",176.12476,82.32304,81.810745
"12195",176.13806,82.074005,81.63431
"12196",176.15143,81.88846,81.51357
"12197",176.16473,81.74441,81.428535
"12198",176.1781,81.619896,81.358536
"12199",176.1914,81.48318,81.27244
"12200",176.20477,81.31228,81.14789
"12201",176.21808,81.092545,80.96916
"12202",176.23145,80.81178,80.72254
"12203",176.24475,80.4773,80.41343
"12204",176.25812,80.09888,80.04992
"12205",176.27142,79.693596,79.64773
"12206",176.28479,79.27856,79.223114
"12207",176.2981,78.873276,78.79529
"12208",176.31146,78.485085,78.37189
"12209",176.32477,78.12375,77.96321
"12210",176.33813,77.789276,77.57011
"12211",176.35144,77.486534,77.19828
"12212",176.3648,77.21065,76.84385
"12213",176.37811,76.964066,76.5101
"12214",176.39148,76.74433,76.195496
"12215",176.40479,76.54902,75.898445
"12216",176.41815,76.37568,75.61726
"12217",176.43146,76.226746,75.35507
"12218",176.44482,76.102234,75.11265
"12219",176.45813,75.99725,74.885864
"12220",176.4715,75.90936,74.67289
"12221",176.4848,75.83856,74.47426
"12222",176.49817,75.772644,74.2783
"12223",176.51147,75.70916,74.08271
"12224",176.52484,75.64324,73.882706
"12225",176.53815,75.57,73.67332
"12226",176.55151,75.48699,73.45187
"12227",176.56482,75.39666,73.22051
"12228",176.57819,75.3283,73.0083
"12229",176.59149,75.37469,72.9087
"12230",176.60486,75.682304,73.07178
"12231",176.61816,76.40986,73.664406
"12232",176.63153,77.642784,74.78514
"12233",176.64484,79.37377,76.44247
"12234",176.6582,81.44167,78.4908
"12235",176.67151,83.595024,80.6892
"12236",176.68488,85.55306,82.75958
"12237",176.69818,87.096054,84.476105
"12238",176.71155,88.10681,85.70861
"12239",176.72485,88.57801,86.43315
"12240",176.73822,88.57557,86.69878
"12241",176.75153,88.199585,86.590775
"12242",176.7649,87.586784,86.23421
"12243",176.7782,86.86656,85.75107
"12244",176.79156,86.14145,85.24053
"12245",176.80487,85.472496,84.7635
"12246",176.81824,84.89632,84.35833
"12247",176.83154,84.4007,84.015724
"12248",176.84491,83.946594,83.699135
"12249",176.85822,83.50225,83.37812
"12250",176.87158,83.05058,83.0359
"12251",176.88489,82.59647,82.67712
"12252",176.89825,82.161896,82.32368
"12253",176.91156,81.77615,82.00549
"12254",176.92493,81.46609,81.75093
"12255",176.93823,81.231705,81.56236
"12256",176.9516,81.06325,81.432396
"12257",176.9649,80.93141,81.333786
"12258",176.97827,80.8069,81.23838
"12259",176.99158,80.65797,81.11466
"12260",177.00494,80.462654,80.93991
"12261",177.01825,80.21118,80.702896
"12262",177.03162,79.90112,80.39944
"12263",177.04492,79.537346,80.03257
"12264",177.05829,79.13451,79.61527
"12265",177.0716,78.709694,79.163414
"12266",177.08496,78.28245,78.69585
"12267",177.09827,77.8674,78.22713
"12268",177.11163,77.471886,77.76497
"12269",177.12494,77.103226,77.31731
"12270",177.1383,76.76631,76.88987
"12271",177.15161,76.46357,76.48608
"12272",177.16498,76.190125,76.10212
"12273",177.17828,75.95087,75.743805
"12274",177.19165,75.74822,75.41463
"12275",177.20496,75.57244,75.10598
"12276",177.21832,75.41863,74.81381
"12277",177.23163,75.27703,74.529045
"12278",177.245,75.157394,74.26182
"12279",177.2583,75.052414,74.00551
"12280",177.27167,74.96208,73.76057
"12281",177.28497,74.89372,73.534775
"12282",177.29834,74.84001,73.321495
"12283",177.31165,74.79851,73.118744
"12284",177.32501,74.76433,72.92202
"12285",177.33832,74.73502,72.7291
"12286",177.35168,74.703285,72.53284
"12287",177.36499,74.666664,72.330696
"12288",177.37836,74.615395,72.11276
"12289",177.39166,74.56168,71.890785
"12290",177.40503,74.55436,71.71352
"12291",177.41833,74.703285,71.69227
"12292",177.4317,75.18669,72.010155
"12293",177.445,76.15839,72.831436
"12294",177.45837,77.68185,74.23485
"12295",177.47168,79.68383,76.16439
"12296",177.48505,81.96414,78.43482
"12297",177.49835,84.2298,80.761856
"12298",177.51172,86.20004,82.86428
"12299",177.52502,87.66735,84.52534
"12300",177.53839,88.551155,85.64874
"12301",177.5517,88.85878,86.22359
"12302",177.56506,88.68055,86.32219
"12303",177.57837,88.13855,86.05145
"12304",177.59174,87.37438,85.54161
"12305",177.60504,86.51743,84.915115
"12306",177.61841,85.67513,84.27648
"12307",177.63171,84.9012,83.67989
"12308",177.64508,84.22003,83.151886
"12309",177.65839,83.6292,82.69293
"12310",177.67175,83.106735,82.283875
"12311",177.68506,82.633095,81.90732
"12312",177.69843,82.20584,81.56235
"12313",177.71173,81.832306,81.257744
"12314",177.7251,81.52224,81.00494
"12315",177.7384,81.28542,80.81569
"12316",177.75177,81.129166,80.6996
"12317",177.76508,81.03395,80.63967
"12318",177.77844,80.97536,80.61339
"12319",177.79175,80.919205,80.587715
"12320",177.80511,80.82887,80.52611
"12321",177.81842,80.67994,80.403076
"12322",177.83179,80.465096,80.20948
"12323",177.8451,80.17456,79.93348
"12324",177.85846,79.823,79.58737
"12325",177.87177,79.43481,79.19365
"12326",177.88513,79.02464,78.76582
"12327",177.89844,78.60471,78.315414
"12328",177.9118,78.19455,77.86165
"12329",177.92511,77.803925,77.414604
"12330",177.93848,77.44015,76.9822
"12331",177.95178,77.103226,76.565285
"12332",177.96515,76.79317,76.1647
"12333",177.97845,76.51728,75.788605
"12334",177.99182,76.2707,75.43319
"12335",178.00513,76.050964,75.09692
"12336",178.0185,75.85565,74.7782
"12337",178.0318,75.68963,74.482666
"12338",178.04517,75.545586,74.203926
"12339",178.05847,75.42596,73.9451
"12340",178.07184,75.3283,73.704506
"12341",178.08514,75.24773,73.47794
"12342",178.09851,75.18425,73.26596
"12343",178.11182,75.13542,73.06664
"12344",178.12518,75.0988,72.878006
"12345",178.13849,75.071945,72.69799
"12346",178.15186,75.04753,72.51958
"12347",178.16516,75.020676,72.33796
"12348",178.17853,74.97917,72.140854
"12349",178.19183,74.9279,71.932686
"12350",178.2052,74.86931,71.71559
"12351",178.2185,74.85222,71.53817
"12352",178.23187,74.9987,71.52379
"12353",178.24518,75.48455,71.85335
"12354",178.25854,76.46845,72.696144
"12355",178.27185,78.013885,74.13122
"12356",178.28522,80.05493,76.1102
"12357",178.29852,82.38407,78.441055
"12358",178.31189,84.70588,80.837364
"12359",178.3252,86.72495,83.003494
"12360",178.33856,88.22888,84.717575
"12361",178.35187,89.13222,85.87807
"12362",178.36523,89.43496,86.46619
"12363",178.37854,89.21278,86.53886
"12364",178.3919,88.59022,86.20419
"12365",178.40521,87.711296,85.59372
"12366",178.41858,86.712746,84.83615
"12367",178.43188,85.711754,84.04493
"12368",178.44525,84.78157,83.293236
"12369",178.45856,83.95148,82.612564
"12370",178.47192,83.226364,82.01093
"12371",178.48523,82.59647,81.481865
"12372",178.4986,82.06424,81.03077
"12373",178.5119,81.636986,80.66802
"12374",178.52527,81.32937,80.41156
"12375",178.53857,81.15114,80.27487
"12376",178.55194,81.08766,80.24737
"12377",178.56525,81.112076,80.30577
"12378",178.57861,81.18288,80.41132
"12379",178.59192,81.25613,80.52154
"12380",178.60529,81.290306,80.59497
"12381",178.61859,81.253685,80.59867
"12382",178.63196,81.12428,80.508446
"12383",178.64526,80.89723,80.31653
"12384",178.65863,80.5774,80.024734
"12385",178.67194,80.18921,79.65459
"12386",178.6853,79.7522,79.22349
"12387",178.69861,79.30053,78.76408
"12388",178.71198,78.853745,78.29543
"12389",178.72528,78.42649,77.83236
"12390",178.73865,78.02609,77.38279
"12391",178.75195,77.65499,76.950005
"12392",178.76532,77.315636,76.53737
"12393",178.77863,77.00801,76.14586
"12394",178.79199,76.72968,75.77403
"12395",178.8053,76.4831,75.425255
"12396",178.81866,76.27314,75.10539
"12397",178.83197,76.102234,74.81802
"12398",178.84534,75.96307,74.55706
"12399",178.85864,75.85077,74.3186
"12400",178.87201,75.76288,74.10105
"12401",178.88531,75.68963,73.89539
"12402",178.89868,75.61883,73.689896
"12403",178.91199,75.55291,73.48707
"12404",178.92535,75.47723,73.272415
"12405",178.93866,75.38201,73.035866
"12406",178.95203,75.26971,72.77925
"12407",178.96533,75.15007,72.511795
"12408",178.9787,75.08659,72.29676
"12409",178.992,75.21843,72.275055
"12410",179.00537,75.72381,72.63101
"12411",179.01868,76.74433,73.51791
"12412",179.03204,78.314186,74.98602
"12413",179.04535,80.33082,76.949974
"12414",179.05872,82.56718,79.19667
"12415",179.07202,84.71809,81.4278
"12416",179.08539,86.505226,83.36238
"12417",179.0987,87.75281,84.81325
"12418",179.11206,88.394905,85.69762
"12419",179.12537,88.45838,86.02344
"12420",179.13873,88.03357,85.862946
"12421",179.15204,87.24498,85.32541
"12422",179.1654,86.236664,84.543495
"12423",179.17871,85.13313,83.63486
"12424",179.19208,84.04181,82.70394
"12425",179.20538,83.0164,81.80484
"12426",179.21875,82.091095,80.97379
"12427",179.23206,81.28542,80.23347
"12428",179.24542,80.618904,79.60712
"12429",179.25873,80.10864,79.116196
"12430",179.2721,79.77173,78.78268
"12431",179.2854,79.61791,78.62173
"12432",179.29877,79.63012,78.621994
"12433",179.31207,79.76929,78.7496
"12434",179.32544,79.98169,78.954796
"12435",179.33875,80.20874,79.181274
"12436",179.35211,80.396736,79.37579
"12437",179.36542,80.49195,79.483406
"12438",179.37878,80.465096,79.471924
"12439",179.39209,80.31373,79.33509
"12440",179.40546,80.04761,79.07877
"12441",179.41876,79.693596,78.72625
"12442",179.43213,79.28344,78.30652
"12443",179.44543,78.84642,77.84711
"12444",179.4588,78.40696,77.3716
"12445",179.4721,77.979706,76.89456
"12446",179.48547,77.58175,76.43347
"12447",179.49878,77.222855,75.99901
"12448",179.51215,76.90791,75.59728
"12449",179.52545,76.63447,75.22721
"12450",179.53882,76.40009,74.887665
"12451",179.55212,76.20233,74.57741
"12452",179.56549,76.03876,74.29516
"12453",179.5788,75.90204,74.03465
"12454",179.59216,75.7995,73.804054
"12455",179.60547,75.716484,73.589775
"12456",179.61884,75.63836,73.37779
"12457",179.63214,75.55535,73.158485
"12458",179.64551,75.45525,72.919495
"12459",179.65881,75.335625,72.657845
"12460",179.67218,75.23552,72.41198
"12461",179.68549,75.2575,72.28507
"12462",179.69885,75.57244,72.45181
"12463",179.71216,76.36347,73.104485
"12464",179.72552,77.74288,74.370255
"12465",179.73883,79.68383,76.24067
"12466",179.7522,82.01053,78.55749
"12467",179.7655,84.437325,81.04711
"12468",179.77887,86.641945,83.390396
"12469",179.79218,88.37049,85.3265
"12470",179.80554,89.481346,86.69893
"12471",179.81885,89.952545,87.46642
"12472",179.83221,89.84268,87.66758
"12473",179.84552,89.2665,87.39899
"12474",179.85889,88.37293,86.795
"12475",179.8722,87.30358,85.987305
"12476",179.88556,86.18295,85.09491
"12477",179.89886,85.101395,84.206566
"12478",179.91223,84.11017,83.374756
"12479",179.92554,83.22148,82.61451
"12480",179.9389,82.44999,81.94369
"12481",179.95221,81.80057,81.37083
"12482",179.96558,81.28542,80.91195
"12483",179.97888,80.91432,80.58102
"12484",179.99225,80.689705,80.38497
"12485",180.00555,80.601814,80.318634
"12486",180.01892,80.621346,80.35697
"12487",180.03223,80.70191,80.456955
"12488",180.0456,80.79469,80.57167
"12489",180.0589,80.85573,80.65754
"12490",180.07227,80.84108,80.66963
"12491",180.08557,80.723885,80.57872
"12492",180.09894,80.49683,80.37429
"12493",180.11224,80.16968,80.06266
"12494",180.12561,79.766846,79.66513
"12495",180.13892,79.31274,79.203735
"12496",180.15228,78.836655,78.70618
"12497",180.16559,78.36057,78.19374
"12498",180.17896,77.8967,77.678635
"12499",180.19226,77.46456,77.18077
"12500",180.20563,77.07393,76.71091
"12501",180.21893,76.732124,76.277664
"12502",180.2323,76.42939,75.87281
"12503",180.2456,76.175476,75.50732
"12504",180.25897,75.95819,75.17052
"12505",180.27228,75.772644,74.858665
"12506",180.28564,75.60906,74.56298
"12507",180.29895,75.47234,74.28905
"12508",180.31232,75.35027,74.02549
"12509",180.32562,75.228195,73.75811
"12510",180.33899,75.09392,73.47472
"12511",180.3523,74.949875,73.17736
"12512",180.36566,74.844894,72.914566
"12513",180.37897,74.898605,72.80718
"12514",180.39233,75.30877,73.05793
"12515",180.40564,76.27314,73.8757
"12516",180.419,77.8967,75.3828
"12517",180.43231,80.130615,77.55099
"12518",180.44568,82.77959,80.20404
"12519",180.45898,85.53109,83.042404
"12520",180.47235,88.04578,85.729935
"12521",180.48566,90.06485,88.00044
"12522",180.49902,91.44427,89.69439
"12523",180.51233,92.15228,90.76004
"12524",180.5257,92.245056,91.232574
"12525",180.539,91.83734,91.20752
"12526",180.55237,91.07561,90.815704
"12527",180.56567,90.11124,90.19745
"12528",180.57904,89.08583,89.48802
"12529",180.59235,88.09216,88.77829
"12530",180.60571,87.18883,88.12784
"12531",180.61902,86.3856,87.549255
"12532",180.63239,85.662926,87.02613
"12533",180.64569,84.998856,86.539024
"12534",180.65906,84.37385,86.07023
"12535",180.67236,83.79523,85.62829
"12536",180.68573,83.2752,85.22686
"12537",180.69904,82.84306,84.89707
"12538",180.7124,82.5037,84.64655
"12539",180.72571,82.24979,84.47088
"12540",180.73907,82.054474,84.34587
"12541",180.75238,81.88846,84.24406
"12542",180.76575,81.71023,84.12484
"12543",180.77905,81.49294,83.961
"12544",180.79242,81.20241,83.71712
"12545",180.80573,80.8362,83.38848
"12546",180.81909,80.394295,82.97271
"12547",180.8324,79.89136,82.48209
"12548",180.84576,79.34936,81.9367
"12549",180.85907,78.785385,81.352394
"12550",180.87244,78.22385,80.7529
"12551",180.88574,77.67696,80.15051
"12552",180.89911,77.16426,79.565216
"12553",180.91241,76.69062,79.00296
"12554",180.92578,76.26826,78.47718
"12555",180.93909,75.88983,77.98214
"12556",180.95245,75.562675,77.52654
"12557",180.96576,75.27459,77.09979
"12558",180.97913,75.020676,76.69821
"12559",180.99243,74.79118,76.31312
"12560",181.0058,74.581215,75.94038
"12561",181.0191,74.373695,75.56352
"12562",181.03247,74.16861,75.18262
"12563",181.04578,73.9733,74.80508
"12564",181.05914,73.848785,74.49223
"12565",181.07245,73.92935,74.38058
"12566",181.08582,74.41032,74.67184
"12567",181.09912,75.474785,75.56163
"12568",181.11249,77.208206,77.15364
"12569",181.1258,79.551994,79.41019
"12570",181.13916,82.29862,82.142815
"12571",181.15247,85.12825,85.04427
"12572",181.16583,87.70397,87.78025
"12573",181.17914,89.76944,90.08647
"12574",181.1925,91.17326,91.79559
"12575",181.20581,91.89349,92.86499
"12576",181.21918,91.983826,93.326996
"12577",181.23248,91.57366,93.29133
"12578",181.24585,90.82414,92.90349
"12579",181.25916,89.89639,92.313995
"12580",181.27252,88.9247,91.651566
"12581",181.28583,87.99695,91.002716
"12582",181.2992,87.14244,90.39812
"12583",181.3125,86.35386,89.83273
"12584",181.32587,85.60433,89.28176
"12585",181.33917,84.86214,88.7147
"12586",181.35254,84.122375,88.12688
"12587",181.36584,83.40215,87.53548
"12588",181.37921,82.738075,86.977715
"12589",181.39252,82.159454,86.48466
"12590",181.40588,81.68093,86.073616
"12591",181.41919,81.30007,85.745285
"12592",181.43256,80.99245,85.47829
"12593",181.44586,80.723885,85.24074
"12594",181.45923,80.462654,85.00213
"12595",181.47253,80.16724,84.72117
"12596",181.4859,79.818115,84.37727
"12597",181.4992,79.40063,83.9541
"12598",181.51257,78.91478,83.449524
"12599",181.52588,78.37034,82.87117
"12600",181.53925,77.79416,82.244064
"12601",181.55255,77.205765,81.58674
"12602",181.56592,76.6247,80.91836
"12603",181.57922,76.06561,80.25379
"12604",181.59259,75.53582,79.60105
"12605",181.6059,75.04753,78.97326
"12606",181.61926,74.60563,78.376595
"12607",181.63257,74.215,77.81739
"12608",181.64594,73.88052,77.30214
"12609",181.65924,73.599754,76.83014
"12610",181.6726,73.36294,76.39332
"12611",181.68591,73.16029,75.98327
"12612",181.69928,72.97963,75.58887
"12613",181.71259,72.80629,75.196144
"12614",181.72595,72.64027,74.80532
"12615",181.73926,72.47181,74.406876
"12616",181.75262,72.31068,74.01048
"12617",181.76593,72.20569,73.66521
"12618",181.7793,72.271614,73.487564
"12619",181.7926,72.7013,73.675735
"12620",181.80597,73.68276,74.42911
"12621",181.81927,75.32586,75.874794
"12622",181.83264,77.611046,78.013916
"12623",181.84595,80.35767,80.68589
"12624",181.85931,83.250786,83.59018
"12625",181.87262,85.94614,86.387115
"12626",181.88599,88.145874,88.77267
"12627",181.89929,89.67666,90.558014
"12628",181.91266,90.48722,91.670975
"12629",181.92596,90.62882,92.140305
"12630",181.93933,90.228424,92.07206
"12631",181.95264,89.45449,91.61777
"12632",181.966,88.482796,90.94153
"12633",181.97931,87.45983,90.183655
"12634",181.99268,86.47593,89.43288
"12635",182.00598,85.56527,88.72459
"12636",182.01935,84.72297,88.0562
"12637",182.03265,83.91974,87.40056
"12638",182.04602,83.12627,86.729576
"12639",182.05933,82.35233,86.05334
"12640",182.0727,81.6321,85.40662
"12641",182.086,81.007095,84.83261
"12642",182.09937,80.50416,84.361145
"12643",182.11267,80.13306,84.0058
"12644",182.12604,79.87427,83.75117
"12645",182.13934,79.69604,83.56901
"12646",182.15271,79.54223,83.4057
"12647",182.16602,79.37377,83.22294
"12648",182.17938,79.15648,82.98608
"12649",182.19269,78.86595,82.66919
"12650",182.20605,78.49485,82.26265
"12651",182.21936,78.05051,81.77127
"12652",182.23273,77.54757,81.20741
"12653",182.24603,77.00557,80.588776
"12654",182.2594,76.44648,79.93611
"12655",182.2727,75.897156,79.27574
"12656",182.28607,75.37469,78.62506
"12657",182.29938,74.89128,77.997116
"12658",182.31274,74.4567,77.40289
"12659",182.32605,74.07095,76.84392
"12660",182.33942,73.73403,76.32172
"12661",182.35272,73.445946,75.83782
"12662",182.36609,73.20912,75.39619
"12663",182.3794,73.023575,74.99843
"12664",182.39276,72.884415,74.64126
"12665",182.40607,72.781876,74.31636
"12666",182.41943,72.708626,74.01755
"12667",182.43274,72.65736,73.73842
"12668",182.4461,72.61341,73.46501
"12669",182.45941,72.57191,73.19267
"12670",182.47278,72.515755,72.90439
"12671",182.48608,72.44007,72.59482
"12672",182.49945,72.33997,72.25847
"12673",182.51276,72.254524,71.93364
"12674",182.52612,72.29359,71.73065
"12675",182.53943,72.64759,71.84383
"12676",182.5528,73.52407,72.49054
"12677",182.5661,75.05974,73.82384
"12678",182.57947,77.25948,75.8692
"12679",182.59277,79.954834,78.47891
"12680",182.60614,82.84062,81.36329
"12681",182.61945,85.555504,84.16694
"12682",182.63281,87.782104,86.56715
"12683",182.64612,89.31777,88.34601
"12684",182.65948,90.09903,89.41845
"12685",182.67279,90.16983,89.80485
"12686",182.68616,89.66201,89.61484
"12687",182.69946,88.76601,89.020775
"12688",182.71283,87.66247,88.19118
"12689",182.72614,86.50767,87.27583
"12690",182.7395,85.399254,86.37078
"12691",182.7528,84.38361,85.523865
"12692",182.76617,83.458305,84.73554
"12693",182.77948,82.616005,84.00131
"12694",182.79285,81.85428,83.321335
"12695",182.80615,81.19997,82.72497
"12696",182.81952,80.67506,82.23756
"12697",182.83282,80.308846,81.89244
"12698",182.84619,80.10132,81.694565
"12699",182.8595,80.028076,81.62449
"12700",182.87286,80.045166,81.642456
"12701",182.88617,80.08423,81.68293
"12702",182.89954,80.093994,81.69533
"12703",182.91284,80.028076,81.63235
"12704",182.92621,79.85474,81.459885
"12705",182.93951,79.5642,81.16481
"12706",182.95288,79.17113,80.75812
"12707",182.96619,78.70237,80.26346
"12708",182.97955,78.1799,79.70044
"12709",182.99286,77.64034,79.104004
"12710",183.00623,77.100784,78.49071
"12711",183.01953,76.5832,77.88252
"12712",183.0329,76.09979,77.29234
"12713",183.0462,75.65789,76.72856
"12714",183.05957,75.26238,76.197365
"12715",183.07288,74.92058,75.70751
"12716",183.08624,74.63004,75.25825
"12717",183.09955,74.39323,74.85362
"12718",183.11292,74.20279,74.487976
"12719",183.12622,74.056305,74.16033
"12720",183.13959,73.94156,73.85985
"12721",183.1529,73.846344,73.57531
"12722",183.16626,73.763336,73.3
"12723",183.17957,73.68032,73.022095
"12724",183.19293,73.585106,72.72939
"12725",183.20624,73.46792,72.41174
"12726",183.2196,73.338524,72.078224
"12727",183.23291,73.24574,71.777275
"12728",183.24628,73.29458,71.61504
"12729",183.25958,73.673,71.78392
"12730",183.27295,74.57633,72.48954
"12731",183.28625,76.12421,73.86793
"12732",183.29962,78.311745,75.93435
"12733",183.31293,80.97536,78.545204
"12734",183.3263,83.809875,81.4102
"12735",183.3396,86.45396,84.17334
"12736",183.35297,88.59754,86.51861
"12737",183.36627,90.04288,88.23262
"12738",183.37964,90.72648,89.230064
"12739",183.39294,90.702065,89.540855
"12740",183.40631,90.10635,89.27959
"12741",183.41962,89.12489,88.61395
"12742",183.43298,87.953,87.72722
"12743",183.44629,86.73716,86.7599
"12744",183.45966,85.575035,85.80831
"12745",183.47296,84.50324,84.910736
"12746",183.48633,83.53155,84.079765
"12747",183.49963,82.64774,83.30632
"12748",183.513,81.864044,82.60536
"12749",183.5263,81.197525,81.99709
"12750",183.53967,80.67994,81.51693
"12751",183.55298,80.33082,81.18906
"12752",183.56635,80.13794,81.006516
"12753",183.57965,80.07202,80.94491
"12754",183.59302,80.08179,80.956924
"12755",183.60632,80.10864,80.986336
"12756",183.61969,80.10132,80.98241
"12757",183.633,80.01587,80.90012
"12758",183.64636,79.823,80.70775
"12759",183.65967,79.51049,80.38971
"12760",183.67303,79.09544,79.959366
"12761",183.68634,78.607155,79.44281
"12762",183.6997,78.07492,78.86705
"12763",183.71301,77.52804,78.26001
"12764",183.72638,76.995804,77.65053
"12765",183.73969,76.48798,77.04883
"12766",183.75305,76.01434,76.46544
"12767",183.76636,75.58221,75.90875
"12768",183.77972,75.1989,75.38739
"12769",183.79303,74.8571,74.89556
"12770",183.8064,74.56168,74.43943
"12771",183.8197,74.31266,74.02046
"12772",183.83307,74.10513,73.63521
"12773",183.84637,73.93179,73.27766
"12774",183.85974,73.8024,72.95863
"12775",183.87305,73.70718,72.66974
"12776",183.88641,73.6437,72.409615
"12777",183.89972,73.602196,72.16948
"12778",183.91309,73.57534,71.942696
"12779",183.92639,73.54604,71.71263
"12780",183.93976,73.50942,71.47433
"12781",183.95306,73.45571,71.21779
"12782",183.96643,73.38247,70.94004
"12783",183.97974,73.31899,70.66977
"12784",183.9931,73.36782,70.50982
"12785",184.00641,73.704735,70.63948
"12786",184.01978,74.547035,71.28506
"12787",184.03308,76.068054,72.63567
"12788",184.04645,78.314186,74.758934
"12789",184.05975,81.16823,77.560295
"12790",184.07312,84.34699,80.775566
"12791",184.08643,87.4696,84.03401
"12792",184.0998,90.179596,86.97743
"12793",184.1131,92.21576,89.33171
"12794",184.12646,93.4609,90.958595
"12795",184.13977,93.91989,91.83824
"12796",184.15314,93.70504,92.05839
"12797",184.16644,92.997025,91.778656
"12798",184.17981,91.99603,91.18382
"12799",184.19312,90.880295,90.44296
"12800",184.20648,89.78165,89.684326
"12801",184.21979,88.77089,88.97925
"12802",184.23315,87.850464,88.33292
"12803",184.24646,86.98375,87.71153
"12804",184.25983,86.136566,87.08259
"12805",184.27313,85.28451,86.422295
"12806",184.2865,84.43488,85.73781
"12807",184.2998,83.6292,85.07072
"12808",184.31317,82.90898,84.463905
"12809",184.32648,82.30839,83.954216
"12810",184.33984,81.832306,83.55027
"12811",184.35315,81.47097,83.24619
"12812",184.36652,81.18776,83.00895
"12813",184.37982,80.938736,82.79704
"12814",184.39319,80.67994,82.56758
"12815",184.4065,80.36988,82.27877
"12816",184.41986,79.98413,81.90458
"12817",184.43317,79.51537,81.435326
"12818",184.44653,78.96605,80.87086
"12819",184.45984,78.36057,80.23307
"12820",184.4732,77.72335,79.54462
"12821",184.48651,77.07881,78.82893
"12822",184.49988,76.44892,78.10776
"12823",184.51318,75.85321,77.40108
"12824",184.52655,75.30877,76.72705
"12825",184.53986,74.82292,76.094604
"12826",184.55322,74.390785,75.50069
"12827",184.56653,74.0148,74.94942
"12828",184.5799,73.6852,74.432785
"12829",184.5932,73.39712,73.947365
"12830",184.60657,73.14809,73.492
"12831",184.61987,72.94789,73.07768
"12832",184.63324,72.79164,72.70106
"12833",184.64655,72.67689,72.361046
"12834",184.65991,72.59876,72.05408
"12835",184.67322,72.55482,71.77884
"12836",184.68658,72.532845,71.5242
"12837",184.69989,72.52308,71.28108
"12838",184.71326,72.515755,71.0401
"12839",184.72656,72.50599,70.79645
"12840",184.73993,72.47913,70.5354
"12841",184.75323,72.43275,70.25398
"12842",184.7666,72.38636,69.971115
"12843",184.7799,72.410774,69.7576
"12844",184.79327,72.66224,69.7719
"12845",184.80658,73.358055,70.2384
"12846",184.81995,74.6984,71.37119
"12847",184.83325,76.7834,73.29052
"12848",184.84662,79.54955,75.956154
"12849",184.85992,82.760056,79.15258
"12850",184.87329,86.048676,82.52745
"12851",184.8866,89.03456,85.702354
"12852",184.89996,91.41253,88.362656
"12853",184.91327,93.016556,90.323326
"12854",184.92664,93.81735,91.53089
"12855",184.93994,93.89548,92.04081
"12856",184.95331,93.40963,91.9892
"12857",184.96661,92.55268,91.5513
"12858",184.97998,91.51263,90.90352
"12859",184.99329,90.43839,90.18906
"12860",185.00665,89.42031,89.49718
"12861",185.01996,88.497444,88.8687
"12862",185.03333,87.640495,88.2773
"12863",185.04663,86.80797,87.68353
"12864",185.06,85.95346,87.04177
"12865",185.0733,85.05989,86.33424
"12866",185.08667,84.139465,85.57194
"12867",185.09998,83.245895,84.807724
"12868",185.11334,82.43534,84.0986
"12869",185.12665,81.74929,83.488655
"12870",185.14001,81.20485,82.99888
"12871",185.15332,80.78981,82.62149
"12872",185.16669,80.465096,82.32146
"12873",185.18,80.184326,82.05522
"12874",185.19336,79.8938,81.770454
"12875",185.20667,79.55688,81.430214
"12876",185.22003,79.14671,81.0062
"12877",185.23334,78.66331,80.49613
"12878",185.2467,78.1091,79.900154
"12879",185.26001,77.50851,79.24047
"12880",185.27338,76.88106,78.535164
"12881",185.28668,76.25605,77.81269
"12882",185.30005,75.650566,77.09021
"12883",185.31335,75.08171,76.38544
"12884",185.32672,74.5568,75.70683
"12885",185.34003,74.08316,75.063095
"12886",185.3534,73.653465,74.4485
"12887",185.3667,73.270164,73.866875
"12888",185.38007,72.9308,73.31721
"12889",185.39337,72.62562,72.791115
"12890",185.40674,72.35706,72.292114
"12891",185.42004,72.130005,71.82622
"12892",185.43341,71.9469,71.39717
"12893",185.44672,71.80774,71.00635
"12894",185.46008,71.710075,70.65268
"12895",185.47339,71.64904,70.33258
"12896",185.48676,71.61974,70.04231
"12897",185.50006,71.6173,69.777985
"12898",185.51343,71.639275,69.537994
"12899",185.52673,71.68322,69.32066
"12900",185.5401,71.74181,69.119354
"12901",185.5534,71.81018,68.92966
"12902",185.56677,71.87366,68.7372
"12903",185.58008,71.922485,68.532074
"12904",185.59344,71.9469,68.30406
"12905",185.60675,71.96155,68.06705
"12906",185.62012,72.02014,67.874435
"12907",185.63342,72.256966,67.86189
"12908",185.64679,72.886856,68.24982
"12909",185.6601,74.13199,69.27267
"12910",185.67346,76.12421,71.08151
"12911",185.68677,78.84154,73.67773
"12912",185.70013,82.08133,76.88132
"12913",185.71344,85.49691,80.36194
"12914",185.7268,88.6952,83.732
"12915",185.74011,91.334404,86.64293
"12916",185.75348,93.21187,88.874596
"12917",185.76678,94.25681,90.33241
"12918",185.78015,94.52293,91.04405
"12919",185.79346,94.151825,91.12679
"12920",185.80682,93.33639,90.7536
"12921",185.82013,92.27436,90.10834
"12922",185.8335,91.13664,89.354195
"12923",185.8468,90.040436,88.60601
"12924",185.86017,89.039444,87.918785
"12925",185.87347,88.12634,87.28816
"12926",185.88684,87.26208,86.67784
"12927",185.90015,86.40757,86.05028
"12928",185.91351,85.53597,85.378914
"12929",185.92682,84.65461,84.67055
"12930",185.94019,83.80011,83.9615
"12931",185.95349,83.02373,83.30387
"12932",185.96686,82.36942,82.74406
"12933",185.98016,81.85428,82.302956
"12934",185.99353,81.45876,81.965385
"12935",186.00684,81.15358,81.70579
"12936",186.0202,80.88991,81.478165
"12937",186.03351,80.618904,81.23497
"12938",186.04688,80.306404,80.94181
"12939",186.06018,79.923096,80.56808
"12940",186.07355,79.47143,80.114006
"12941",186.08685,78.9514,79.57746
"12942",186.10022,78.382545,78.97584
"12943",186.11353,77.77951,78.32226
"12944",186.12689,77.16914,77.6425
"12945",186.1402,76.56611,76.951004
"12946",186.15356,75.99237,76.26996
"12947",186.16687,75.46014,75.61249
"12948",186.18024,74.97673,74.98721
"12949",186.19354,74.547035,74.40054
"12950",186.20691,74.16617,73.84927
"12951",186.22021,73.83658,73.33738
"12952",186.23358,73.56069,72.86889
"12953",186.24689,73.33608,72.443054
"12954",186.26025,73.15297,72.0517
"12955",186.27356,73.01137,71.69613
"12956",186.28693,72.90639,71.37276
"12957",186.30023,72.82826,71.07296
"12958",186.3136,72.76967,70.79025
"12959",186.3269,72.73304,70.52768
"12960",186.34027,72.71351,70.28105
"12961",186.35358,72.708626,70.04846
"12962",186.36694,72.71839,69.83037
"12963",186.38025,72.740364,69.62479
"12964",186.39362,72.77699,69.434555
"12965",186.40692,72.82094,69.252785
"12966",186.42029,72.86977,69.07727
"12967",186.4336,72.921036,68.90572
"12968",186.44696,72.96742,68.730896
"12969",186.46027,72.99184,68.535545
"12970",186.47363,72.99184,68.31654
"12971",186.48694,72.96254,68.068245
"12972",186.5003,72.94057,67.826355
"12973",186.51361,73.040665,67.70585
"12974",186.52698,73.4728,67.92051
"12975",186.54028,74.476234,68.71997
"12976",186.55365,76.22919,70.30031
"12977",186.56696,78.75365,72.70693
"12978",186.58032,81.898224,75.81256
"12979",186.59363,85.333336,79.30699
"12980",186.607,88.64881,82.78913
"12981",186.6203,91.46868,85.87927
"12982",186.63367,93.54391,88.3129
"12983",186.64697,94.76463,89.95687
"12984",186.66034,95.14549,90.799126
"12985",186.67365,94.801254,90.928185
"12986",186.68701,93.91745,90.50692
"12987",186.70032,92.696724,89.721115
"12988",186.71368,91.34417,88.765335
"12989",186.72699,90.006256,87.78193
"12990",186.74036,88.77089,86.85926
"12991",186.75366,87.66491,86.027374
"12992",186.76703,86.678566,85.28056
"12993",186.78033,85.78012,84.59082
"12994",186.7937,84.95247,83.943794
"12995",186.807,84.207825,83.35391
"12996",186.82037,83.57061,82.84819
"12997",186.83368,83.06279,82.45195
"12998",186.84705,82.69901,82.18388
"12999",186.86035,82.46464,82.03385
"13000",186.87372,82.32792,81.97415
"13001",186.88702,82.23758,81.95656
"13002",186.90039,82.13992,81.928825
"13003",186.9137,81.991,81.84677
"13004",186.92706,81.75174,81.66973
"13005",186.94037,81.40505,81.377785
"13006",186.95374,80.95094,80.96758
"13007",186.96704,80.411385,80.45774
"13008",186.98041,79.80591,79.86512
"13009",186.99371,79.16136,79.21451
"13010",187.00708,78.502174,78.52911
"13011",187.02039,77.855194,77.83533
"13012",187.03375,77.239944,77.15305
"13013",187.04706,76.67109,76.49795
"13014",187.06042,76.1535,75.876335
"13015",187.07373,75.69695,75.29958
"13016",187.0871,75.29656,74.764725
"13017",187.1004,74.94499,74.266174
"13018",187.11377,74.63737,73.80058
"13019",187.12708,74.37858,73.374214
"13020",187.14044,74.16373,72.983696
"13021",187.15375,73.99039,72.627975
"13022",187.16711,73.85855,72.30834
"13023",187.18042,73.763336,72.02121
"13024",187.19379,73.69985,71.76283
"13025",187.20709,73.65835,71.52445
"13026",187.22046,73.62417,71.2921
"13027",187.23376,73.58999,71.05868
"13028",187.24713,73.5436,70.81198
"13029",187.26044,73.4728,70.53942
"13030",187.2738,73.36782,70.23047
"13031",187.28711,73.231094,69.88649
"13032",187.30048,73.0724,69.51627
"13033",187.31378,72.9601,69.187485
"13034",187.32715,73.043106,69.0505
"13035",187.34045,73.54604,69.33604
"13036",187.35382,74.686195,70.274506
"13037",187.36713,76.578316,72.00057
"13038",187.3805,79.17113,74.48646
"13039",187.3938,82.23514,77.52457
"13040",187.40717,85.39437,80.75365
"13041",187.42047,88.24841,83.77626
"13042",187.43384,90.4799,86.2655
"13043",187.44714,91.9057,88.01881
"13044",187.46051,92.48432,88.96948
"13045",187.47382,92.28901,89.16431
"13046",187.48718,91.46868,88.72801
"13047",187.50049,90.213776,87.831505
"13048",187.51385,88.724495,86.66141
"13049",187.52716,87.16197,85.37152
"13050",187.54053,85.643394,84.07675
"13051",187.55383,84.23468,82.84439
"13052",187.5672,82.96513,81.70718
"13053",187.5805,81.8616,80.696304
"13054",187.59387,80.953384,79.84626
"13055",187.60718,80.272224,79.19489
"13056",187.62054,79.84009,78.77126
"13057",187.63385,79.656975,78.58315
"13058",187.64722,79.68627,78.60173
"13059",187.66052,79.852295,78.75795
"13060",187.67389,80.07446,78.9755
"13061",187.6872,80.27711,79.18047
"13062",187.70056,80.396736,79.30876
"13063",187.71387,80.38941,79.313835
"13064",187.72723,80.235596,79.17219
"13065",187.74054,79.937744,78.8817
"13066",187.7539,79.51293,78.45494
"13067",187.76721,78.98802,77.91481
"13068",187.78058,78.399635,77.2948
"13069",187.79388,77.78439,76.62955
"13070",187.80725,77.1667,75.94262
"13071",187.82056,76.57343,75.26081
"13072",187.83392,76.03143,74.61173
"13073",187.84723,75.55291,74.00919
"13074",187.8606,75.13786,73.45518
"13075",187.8739,74.78386,72.949234
"13076",187.88727,74.486,72.48837
"13077",187.90057,74.2272,72.05727
"13078",187.91394,74.00748,71.65714
"13079",187.92725,73.82193,71.28433
"13080",187.94061,73.670555,70.939896
"13081",187.95392,73.55337,70.624916
"13082",187.96729,73.47036,70.340454
"13083",187.98059,73.41421,70.08025
"13084",187.99396,73.38247,69.84271
"13085",188.00726,73.36782,69.62127
"13086",188.02063,73.3605,69.40669
"13087",188.03394,73.35073,69.189445
"13088",188.0473,73.32632,68.957245
"13089",188.06061,73.28237,68.70475
"13090",188.07397,73.22621,68.43867
"13091",188.08728,73.231094,68.23187
"13092",188.10065,73.4728,68.262054
"13093",188.11395,74.20523,68.79051
"13094",188.12732,75.665215,70.06941
"13095",188.14062,77.96994,72.23868
"13096",188.15399,81.03883,75.24413
"13097",188.1673,84.60578,78.843544
"13098",188.18066,88.26063,82.64232
"13099",188.19397,91.578545,86.21838
"13100",188.20734,94.22995,89.23162
"13101",188.22064,96.03174,91.478096
"13102",188.23401,96.93019,92.87754
"13103",188.24731,96.99123,93.46764
"13104",188.26068,96.35157,93.35896
"13105",188.27399,95.20897,92.72735
"13106",188.28735,93.77341,91.76707
"13107",188.30066,92.24017,90.66425
"13108",188.31403,90.7509,89.55749
"13109",188.32733,89.391014,88.53357
"13110",188.3407,88.17761,87.61364
"13111",188.354,87.09361,86.78519
"13112",188.36737,86.099945,86.01319
"13113",188.38068,85.17952,85.28339
"13114",188.39404,84.33967,84.60539
"13115",188.40735,83.60235,84.003685
"13116",188.42072,82.99687,83.51078
"13117",188.43402,82.533,83.14056
"13118",188.44739,82.19119,82.87791
"13119",188.4607,81.934845,82.69003
"13120",188.47406,81.71999,82.535645
"13121",188.48737,81.50271,82.37211
"13122",188.50073,81.234146,82.150505
"13123",188.51404,80.88258,81.83751
"13124",188.5274,80.4358,81.418304
"13125",188.54071,79.89136,80.88748
"13126",188.55408,79.26391,80.25664
"13127",188.56738,78.57542,79.54514
"13128",188.58075,77.855194,78.7804
"13129",188.59406,77.13252,77.99071
"13130",188.60742,76.42695,77.195526
"13131",188.62073,75.757996,76.41492
"13132",188.6341,75.14519,75.66955
"13133",188.6474,74.59098,74.96363
"13134",188.66077,74.09781,74.30143
"13135",188.67407,73.66323,73.68241
"13136",188.68744,73.28481,73.10597
"13137",188.70074,72.9601,72.57141
"13138",188.71411,72.68665,72.07797
"13139",188.72742,72.46204,71.62482
"13140",188.74078,72.288704,71.21591
"13141",188.75409,72.15686,70.843094
"13142",188.76746,72.059204,70.500336
"13143",188.78076,71.9884,70.18138
"13144",188.79413,71.92981,69.87242
"13145",188.80743,71.8761,69.56651
"13146",188.8208,71.81018,69.24672
"13147",188.8341,71.727165,68.907776
"13148",188.84747,71.63439,68.55647
"13149",188.86078,71.57824,68.23889
"13150",188.87415,71.692986,68.090454
"13151",188.88745,72.21057,68.34845
"13152",188.90082,73.375145,69.26961
"13153",188.91412,75.32586,71.0133
"13154",188.92749,78.03342,73.57479
"13155",188.9408,81.2781,76.75802
"13156",188.95416,84.67902,80.19888
"13157",188.96747,87.818726,83.4848
"13158",188.98083,90.35294,86.26335
"13159",188.99414,92.09857,88.33251
"13160",189.0075,93.00923,89.621254
"13161",189.02081,93.153275,90.17184
"13162",189.03418,92.664986,90.09459
"13163",189.04749,91.72503,89.550415
"13164",189.06085,90.52384,88.71564
"13165",189.07416,89.22499,87.74566
"13166",189.08752,87.96277,86.77171
"13167",189.10083,86.80797,85.86575
"13168",189.1142,85.78256,85.05309
"13169",189.1275,84.86458,84.31581
"13170",189.14087,84.01984,83.623085
"13171",189.15417,83.211716,82.94058
"13172",189.16754,82.43778,82.26701
"13173",189.18085,81.71023,81.61564
"13174",189.19421,81.05592,81.01478
"13175",189.20752,80.5066,80.49845
"13176",189.22089,80.0647,80.07238
"13177",189.23419,79.71801,79.727715
"13178",189.24756,79.43969,79.44058
"13179",189.26086,79.19554,79.178925
"13180",189.27423,78.93919,78.89744
"13181",189.28754,78.63889,78.56399
"13182",189.3009,78.27024,78.1528
"13183",189.31421,77.83322,77.66173
"13184",189.32758,77.33517,77.09596
"13185",189.34088,76.79561,76.47313
"13186",189.35425,76.23651,75.813896
"13187",189.36755,75.67498,75.13476
"13188",189.38092,75.13054,74.45516
"13189",189.39423,74.60807,73.780525
"13190",189.4076,74.11978,73.12374
"13191",189.4209,73.67544,72.49564
"13192",189.43427,73.28237,71.90494
"13193",189.44757,72.938126,71.35077
"13194",189.46094,72.64515,70.83711
"13195",189.47424,72.396126,70.358246
"13196",189.48761,72.1886,69.9131
"13197",189.50092,72.02258,69.502975
"13198",189.51428,71.89319,69.12428
"13199",189.52759,71.80286,68.78061
"13200",189.54095,71.74914,68.47073
"13201",189.55426,71.727165,68.19092
"13202",189.56763,71.71984,67.925064
"13203",189.58093,71.724724,67.67119
"13204",189.5943,71.724724,67.41258
"13205",189.6076,71.71252,67.14177
"13206",189.62097,71.68078,66.85104
"13207",189.63428,71.6466,66.556885
"13208",189.64764,71.65392,66.30316
"13209",189.66095,71.834595,66.22302
"13210",189.67432,72.3888,66.522064
"13211",189.68762,73.51919,67.4146
"13212",189.70099,75.31121,69.0041
"13213",189.7143,77.68429,71.23065
"13214",189.72766,80.39185,73.86585
"13215",189.74097,83.07744,76.56368
"13216",189.75433,85.37972,78.962135
"13217",189.76764,87.05455,80.80508
"13218",189.781,88.01404,81.985016
"13219",189.79431,88.30213,82.523544
"13220",189.80768,88.026245,82.507095
"13221",189.82098,87.345085,82.07675
"13222",189.83435,86.42222,81.38342
"13223",189.84766,85.41146,80.57336
"13224",189.86102,84.43,79.761
"13225",189.87433,83.55596,79.0254
"13226",189.8877,82.81377,78.394325
"13227",189.901,82.196075,77.86456
"13228",189.91437,81.668724,77.40584
"13229",189.92767,81.20241,76.99167
"13230",189.94104,80.78493,76.61176
"13231",189.95435,80.41871,76.27007
"13232",189.96771,80.11841,75.98286
"13233",189.98102,79.90112,75.76927
"13234",189.99438,79.77417,75.63923
"13235",190.00769,79.71557,75.57357
"13236",190.02106,79.69848,75.54759
"13237",190.03436,79.693596,75.53329
"13238",190.04773,79.65942,75.48953
"13239",190.06104,79.5642,75.383675
"13240",190.0744,79.395744,75.2016
"13241",190.0877,79.151596,74.93857
"13242",190.10107,78.84154,74.602
"13243",190.11438,78.49241,74.21667
"13244",190.12775,78.12619,73.80334
"13245",190.14105,77.75998,73.37857
"13246",190.15442,77.40597,72.95456
"13247",190.16772,77.07393,72.54146
"13248",190.18109,76.771194,72.147285
"13249",190.1944,76.49775,71.77294
"13250",190.20776,76.26093,71.42668
"13251",190.22107,76.06073,71.109634
"13252",190.23444,75.894714,70.82052
"13253",190.24774,75.76044,70.55795
"13254",190.26111,75.650566,70.3156
"13255",190.27441,75.56512,70.09423
"13256",190.28778,75.4992,69.889725
"13257",190.30109,75.45281,69.70269
"13258",190.31445,75.43572,69.5435
"13259",190.32776,75.44305,69.408195
"13260",190.34113,75.46502,69.287766
"13261",190.35443,75.49676,69.17779
"13262",190.3678,75.53338,69.073685
"13263",190.3811,75.55779,68.95852
"13264",190.39447,75.57,68.83191
"13265",190.40778,75.562675,68.68615
"13266",190.42114,75.53826,68.52307
"13267",190.43445,75.53582,68.3812
"13268",190.44781,75.665215,68.37109
"13269",190.46112,76.09491,68.66533
"13270",190.47449,77.00069,69.44907
"13271",190.4878,78.46311,70.81777
"13272",190.50116,80.413826,72.72046
"13273",190.51447,82.63554,74.9551
"13274",190.52783,84.81575,77.217674
"13275",190.54114,86.641945,79.19436
"13276",190.5545,87.89685,80.65682
"13277",190.56781,88.514534,81.521286
"13278",190.58118,88.54871,81.82155
"13279",190.59448,88.11902,81.659
"13280",190.60785,87.37194,81.165634
"13281",190.62115,86.45884,80.48291
"13282",190.63452,85.50912,79.73502
"13283",190.64783,84.61555,79.01361
"13284",190.6612,83.83673,78.37903
"13285",190.6745,83.18486,77.84705
"13286",190.68787,82.65507,77.41679
"13287",190.70117,82.22049,77.06518
"13288",190.71454,81.85916,76.77324
"13289",190.72784,81.5613,76.53348
"13290",190.74121,81.33669,76.35766
"13291",190.75452,81.19508,76.25782
"13292",190.76788,81.143814,76.2439
"13293",190.78119,81.17067,76.306496
"13294",190.79456,81.248795,76.4212
"13295",190.80786,81.33669,76.54813
"13296",190.82123,81.392845,76.64605
"13297",190.83453,81.38796,76.68469
"13298",190.8479,81.30984,76.64994
"13299",190.8612,81.15114,76.53217
"13300",190.87457,80.91676,76.33377
"13301",190.88788,80.62623,76.071884
"13302",190.90125,80.30396,75.76919
"13303",190.91455,79.9646,75.43932
"13304",190.92792,79.63012,75.10374
"13305",190.94122,79.30785,74.76991
"13306",190.95459,79.009995,74.450424
"13307",190.9679,78.73899,74.14848
"13308",190.98126,78.502174,73.87226
"13309",190.99457,78.30198,73.62526
"13310",191.00793,78.135956,73.40617
"13311",191.02124,78.00168,73.213646
"13312",191.0346,77.891815,73.041336
"13313",191.04791,77.806366,72.89001
"13314",191.06128,77.74044,72.75553
"13315",191.07458,77.69405,72.638535
"13316",191.08795,77.6672,72.53962
"13317",191.10126,77.65499,72.45451
"13318",191.11462,77.645226,72.37147
"13319",191.12793,77.625694,72.27835
"13320",191.1413,77.58663,72.16509
"13321",191.1546,77.523155,72.0262
"13322",191.16797,77.43282,71.85847
"13323",191.18127,77.33517,71.68059
"13324",191.19464,77.29366,71.55581
"13325",191.20795,77.44259,71.62016
"13326",191.22131,77.9382,72.03586
"13327",191.23462,78.89281,72.92603
"13328",191.24799,80.29664,74.295265
"13329",191.26129,82.020294,76.02819
"13330",191.27466,83.81232,77.88335
"13331",191.28796,85.38705,79.57721
"13332",191.30133,86.51255,80.871056
"13333",191.31464,87.08385,81.64587
"13334",191.328,87.1107,81.89409
"13335",191.34131,86.693214,81.69881
"13336",191.35468,85.96567,81.18042
"13337",191.36798,85.05989,80.46107
"13338",191.38135,84.11261,79.671906
"13339",191.39465,83.21904,78.90685
"13340",191.40802,82.42802,78.21642
"13341",191.42133,81.75662,77.6209
"13342",191.4347,81.20241,77.12158
"13343",191.448,80.75563,76.71238
"13344",191.46136,80.413826,76.39419
"13345",191.47467,80.18677,76.18006
"13346",191.48804,80.08667,76.0858
"13347",191.50134,80.11597,76.117805
"13348",191.51471,80.257576,76.26304
"13349",191.52802,80.465096,76.47861
"13350",191.54138,80.69703,76.725075
"13351",191.55469,80.902115,76.95194
"13352",191.56805,81.03639,77.11441
"13353",191.58136,81.07057,77.18098
"13354",191.59473,80.99245,77.13631
"13355",191.60803,80.814224,76.9891
"13356",191.6214,80.56031,76.76063
"13357",191.6347,80.255135,76.47296
"13358",191.64807,79.92554,76.15134
"13359",191.66138,79.60082,75.824295
"13360",191.67474,79.293205,75.5042
"13361",191.68805,79.01732,75.20623
"13362",191.70142,78.768295,74.9265
"13363",191.71472,78.555885,74.6756
"13364",191.72809,78.380104,74.45469
"13365",191.7414,78.24094,74.2649
"13366",191.75476,78.12619,74.095184
"13367",191.76807,78.03342,73.943855
"13368",191.78143,77.96506,73.81404
"13369",191.79474,77.91135,73.69674
"13370",191.8081,77.86496,73.58508
"13371",191.82141,77.81857,73.47198
"13372",191.83478,77.7673,73.35254
"13373",191.84808,77.70138,73.21684
"13374",191.86145,77.62081,73.064445
"13375",191.87476,77.5378,72.90709
"13376",191.88812,77.51827,72.810616
"13377",191.90143,77.68673,72.90152
"13378",191.9148,78.18967,73.33217
"13379",191.9281,79.132065,74.217995
"13380",191.94147,80.5066,75.56541
"13381",191.95477,82.18387,77.25851
"13382",191.96814,83.91974,79.06262
"13383",191.98145,85.43832,80.70369
"13384",191.99481,86.51743,81.95275
"13385",192.00812,87.05943,82.69842
"13386",192.02148,87.07652,82.93611
"13387",192.03479,86.6688,82.74953
"13388",192.04816,85.96323,82.25235
"13389",192.06146,85.10628,81.58175
"13390",192.07483,84.21759,80.85263
"13391",192.08813,83.38506,80.1519
"13392",192.1015,82.66239,79.53501
"13393",192.1148,82.06424,79.02006
"13394",192.12817,81.58083,78.60116
"13395",192.14148,81.18288,78.2526
"13396",192.15485,80.85817,77.96486
"13397",192.16815,80.601814,77.73532
"13398",192.18152,80.42603,77.57835
"13399",192.19482,80.33814,77.50377
"13400",192.20819,80.35035,77.52654
"13401",192.2215,80.44068,77.62782
"13402",192.23486,80.57252,77.77343
"13403",192.24817,80.70435,77.92316
"13404",192.26154,80.797134,78.03795
"13405",192.27484,80.816666,78.08239
"13406",192.28821,80.75075,78.04199
"13407",192.30151,80.59205,77.90675
"13408",192.31488,80.365,77.698204
"13409",192.32819,80.08423,77.42884
"13410",192.34155,79.77905,77.1263
"13411",192.35486,79.46899,76.809326
"13412",192.36823,79.17113,76.49487
"13413",192.38153,78.887924,76.18577
"13414",192.3949,78.63157,75.89466
"13415",192.4082,78.40696,75.62729
"13416",192.42157,78.21652,75.38707
"13417",192.43488,78.05783,75.172646
"13418",192.44824,77.93332,74.98744
"13419",192.46155,77.83566,74.8252
"13420",192.47491,77.75998,74.681885
"13421",192.48822,77.696495,74.5484
"13422",192.50159,77.645226,74.42515
"13423",192.5149,77.60128,74.30762
"13424",192.52826,77.55489,74.18627
"13425",192.54156,77.49874,74.05371
"13426",192.55493,77.435265,73.91207
"13427",192.56824,77.36446,73.76112
"13428",192.5816,77.32052,73.63482
"13429",192.59491,77.39864,73.62921
"13430",192.60828,77.752655,73.90193
"13431",192.62158,78.519264,74.59831
"13432",192.63495,79.76196,75.79474
"13433",192.64825,81.41238,77.43771
"13434",192.66162,83.282524,79.352
"13435",192.67493,85.09163,81.26368
"13436",192.6883,86.56626,82.89742
"13437",192.7016,87.535515,84.07187
"13438",192.71497,87.96033,84.73216
"13439",192.72827,87.89441,84.91501
"13440",192.74164,87.46227,84.72957
"13441",192.75494,86.803085,84.30357
"13442",192.76831,86.048676,83.76176
"13443",192.78162,85.3016,83.2037
"13444",192.79498,84.63264,82.70041
"13445",192.80829,84.07843,82.29097
"13446",192.82166,83.63897,81.97896
"13447",192.83496,83.284966,81.73867
"13448",192.84833,82.97002,81.526375
"13449",192.86163,82.66239,81.31156
"13450",192.875,82.340126,81.072495
"13451",192.8883,82.01053,80.816025
"13452",192.90167,81.70046,80.56879
"13453",192.91498,81.44167,80.36314
"13454",192.92834,81.25613,80.22264
"13455",192.94165,81.14137,80.14714
"13456",192.95502,81.08034,80.12177
"13457",192.96832,81.04372,80.11891
"13458",192.98169,81.00221,80.11002
"13459",192.995,80.919205,80.058334
"13460",193.00836,80.78493,79.95278
"13461",193.02167,80.58961,79.78199
"13462",193.03503,80.343025,79.55383
"13463",193.04834,80.05249,79.27402
"13464",193.0617,79.742424,78.96559
"13465",193.07501,79.4226,78.63772
"13466",193.08838,79.11009,78.30717
"13467",193.10168,78.81224,77.98151
"13468",193.11505,78.53147,77.66362
"13469",193.12836,78.277565,77.36382
"13470",193.14172,78.048065,77.0805
"13471",193.15503,77.84787,76.819305
"13472",193.1684,77.67696,76.58115
"13473",193.1817,77.53292,76.36451
"13474",193.19507,77.41085,76.165344
"13475",193.20837,77.30343,75.97701
"13476",193.22174,77.21065,75.799965
"13477",193.23505,77.13985,75.642
"13478",193.24841,77.09102,75.50379
"13479",193.26172,77.049515,75.37138
"13480",193.27509,77.015335,75.245
"13481",193.28839,76.97627,75.11267
"13482",193.30176,76.92256,74.96447
"13483",193.31506,76.8542,74.79994
"13484",193.32843,76.771194,74.61863
"13485",193.34174,76.68818,74.434715
"13486",193.3551,76.66132,74.30437
"13487",193.36841,76.805374,74.344086
"13488",193.38177,77.27657,74.715454
"13489",193.39508,78.21164,75.565414
"13490",193.40845,79.63744,76.93533
"13491",193.42175,81.45388,78.74044
"13492",193.43512,83.43633,80.768326
"13493",193.44843,85.30892,82.7483
"13494",193.46179,86.81773,84.42301
"13495",193.4751,87.82361,85.64194
"13496",193.48846,88.309456,86.37227
"13497",193.50177,88.33875,86.66124
"13498",193.51514,88.026245,86.609314
"13499",193.52844,87.501335,86.33522
"13500",193.54181,86.89342,85.961716
"13501",193.55511,86.30015,85.58386
"13502",193.56848,85.785,85.265594
"13503",193.58179,85.37972,85.04109
"13504",193.59515,85.06233,84.891815
"13505",193.60846,84.79378,84.781456
"13506",193.62183,84.51789,84.65537
"13507",193.63513,84.19318,84.47184
"13508",193.6485,83.807434,84.21713
"13509",193.6618,83.37774,83.90642
"13510",193.67517,82.9456,83.579834
"13511",193.68848,82.55497,83.28125
"13512",193.70184,82.24002,83.04614
"13513",193.71515,82.01053,82.88665
"13514",193.72852,81.8616,82.80055
"13515",193.74182,81.75418,82.751305
"13516",193.75519,81.65896,82.7109
"13517",193.7685,81.54421,82.647995
"13518",193.78186,81.38064,82.53268
"13519",193.79517,81.15358,82.34876
"13520",193.80853,80.85817,82.0894
"13521",193.82184,80.50416,81.76221
"13522",193.8352,80.113525,81.38733
"13523",193.84851,79.70092,80.97827
"13524",193.86188,79.28832,80.55633
"13525",193.87518,78.890366,80.13613
"13526",193.88855,78.519264,79.730354
"13527",193.90186,78.17502,79.339836
"13528",193.91522,77.86008,78.967865
"13529",193.92853,77.56954,78.61046
"13530",193.9419,77.30343,78.268394
"13531",193.9552,77.06416,77.94486
"13532",193.96857,76.84932,77.638275
"13533",193.98187,76.663765,77.35426
"13534",193.99524,76.50019,77.08643
"13535",194.00854,76.35371,76.83058
"13536",194.02191,76.22186,76.58479
"13537",194.03522,76.102234,76.3471
"13538",194.04858,75.98993,76.11299
"13539",194.06189,75.88495,75.8827
"13540",194.07526,75.792175,75.66133
"13541",194.08856,75.70916,75.44682
"13542",194.10193,75.63348,75.23705
"13543",194.11523,75.57,75.037125
"13544",194.1286,75.51873,74.84742
"13545",194.1419,75.48211,74.67076
"13546",194.15527,75.44549,74.49296
"13547",194.16858,75.41131,74.31645
"13548",194.18195,75.36736,74.12911
"13549",194.19525,75.31609,73.933075
"13550",194.20862,75.245285,73.7159
"13551",194.22192,75.17204,73.49407
"13552",194.23529,75.157394,73.32855
"13553",194.2486,75.335625,73.35545
"13554",194.26196,75.87518,73.74925
"13555",194.27527,76.91768,74.66285
"13556",194.28864,78.48997,76.13882
"13557",194.30194,80.49683,78.098495
"13558",194.3153,82.70878,80.325966
"13559",194.32861,84.840164,82.542
"13560",194.34198,86.62241,84.4755
"13561",194.35529,87.90662,85.96665
"13562",194.36865,88.64393,86.95105
"13563",194.38196,88.868546,87.445786
"13564",194.39532,88.68543,87.53981
"13565",194.40863,88.224,87.34979
"13566",194.422,87.61852,87.00131
"13567",194.4353,86.98375,86.604614
"13568",194.44867,86.40269,86.24179
"13569",194.46198,85.92172,85.96091
"13570",194.47534,85.52865,85.752884
"13571",194.48865,85.1844,85.581406
"13572",194.50201,84.83284,85.39185
"13573",194.51532,84.44709,85.15713
"13574",194.52869,84.01251,84.86152
"13575",194.54199,83.546196,84.52059
"13576",194.55536,83.087204,84.17242
"13577",194.56866,82.67216,83.85384
"13578",194.58203,82.32548,83.59067
"13579",194.59534,82.054474,83.392334
"13580",194.6087,81.846954,83.249016
"13581",194.62201,81.67605,83.135826
"13582",194.63538,81.514915,83.02707
"13583",194.64868,81.32693,82.88642
"13584",194.66205,81.092545,82.693504
"13585",194.67535,80.799576,82.43468
"13586",194.68872,80.448006,82.10809
"13587",194.70203,80.04761,81.721695
"13588",194.7154,79.61303,81.288605
"13589",194.7287,79.15404,80.81752
"13590",194.74207,78.692604,80.32965
