"","Time..s.","PPG.trace","Preprocessed.PPG"
"4624",73.21376,80.94118,210.64682
"4625",73.2271,80.71168,210.44673
"4626",73.24043,80.59205,210.34935
"4627",73.25377,80.53834,210.31415
"4628",73.267105,80.50904,210.30168
"4629",73.28044,80.46021,210.26877
"4630",73.29378,80.365,210.18794
"4631",73.30711,80.19653,210.03088
"4632",73.32045,79.954834,209.79532
"4633",73.333755,79.63744,209.47652
"4634",73.34709,79.25414,209.08188
"4635",73.36043,78.82689,208.63132
"4636",73.373764,78.37278,208.14055
"4637",73.3871,77.90646,207.62338
"4638",73.40044,77.437706,207.0892
"4639",73.41377,76.981155,206.55258
"4640",73.42708,76.54902,206.02611
"4641",73.440414,76.14862,205.51787
"4642",73.45375,75.78729,205.03618
"4643",73.46709,75.47234,204.58958
"4644",73.48042,75.20378,204.17953
"4645",73.49376,74.98161,203.80748
"4646",73.507095,74.80339,203.47243
"4647",73.52043,74.67399,203.18063
"4648",73.53377,74.5861,202.9263
"4649",73.54707,74.53727,202.70828
"4650",73.56041,74.5153,202.5156
"4651",73.573746,74.5153,202.3442
"4652",73.58708,74.529945,202.18744
"4653",73.60042,74.55924,202.04579
"4654",73.613754,74.60319,201.91971
"4655",73.62709,74.65446,201.80232
"4656",73.640396,74.70573,201.68654
"4657",73.65373,74.757,201.57237
"4658",73.66707,74.80339,201.45491
"4659",73.680405,74.84001,201.32913
"4660",73.69374,74.8571,201.18497
"4661",73.70708,74.8571,201.02425
"4662",73.72041,74.83269,200.83911
"4663",73.73375,74.79118,200.63612
"4664",73.747086,74.759445,200.4416
"4665",73.76039,74.81804,200.33643
"4666",73.77373,75.10124,200.45769
"4667",73.78706,75.76044,200.96379
"4668",73.8004,76.91768,201.98854
"4669",73.813736,78.59983,203.57437
"4670",73.82707,80.719,205.64978
"4671",73.84041,83.08476,208.03801
"4672",73.853714,85.44808,210.49773
"4673",73.86705,87.57946,212.79936
"4674",73.88039,89.31045,214.76721
"4675",73.89372,90.54337,216.29109
"4676",73.90706,91.24162,217.31882
"4677",73.920395,91.42962,217.85811
"4678",73.93373,91.17815,217.9638
"4679",73.94707,90.58488,217.71985
"4680",73.9604,89.7499,217.21565
"4681",73.97371,88.7831,216.55353
"4682",73.987045,87.75525,215.80016
"4683",74.00038,86.710304,214.99756
"4684",74.01372,85.662926,214.15988
"4685",74.027054,84.63264,213.30656
"4686",74.04039,83.631645,212.45035
"4687",74.05373,82.69901,211.63121
"4688",74.06703,81.881134,210.89767
"4689",74.08037,81.22194,210.29727
"4690",74.093704,80.73853,209.85205
"4691",74.10704,80.42359,209.5602
"4692",74.12038,80.255135,209.40498
"4693",74.13371,80.18677,209.34459
"4694",74.14705,80.177,209.34067
"4695",74.160385,80.18677,209.35596
"4696",74.17372,80.177,209.35202
"4697",74.18703,80.12085,209.30139
"4698",74.20036,79.991455,209.17578
"4699",74.2137,79.783936,208.96799
"4700",74.227036,79.49584,208.67314
"4701",74.24037,79.14183,208.30338
"4702",74.25371,78.73167,207.8664
"4703",74.267044,78.28245,207.37753
"4704",74.28035,77.80881,206.85022
"4705",74.293686,77.330284,206.30322
"4706",74.30702,76.86153,205.75104
"4707",74.32036,76.41718,205.20862
"4708",74.333694,76.0119,204.69138
"4709",74.34703,75.650566,204.20541
"4710",74.36037,75.335625,203.75455
"4711",74.3737,75.06462,203.33778
"4712",74.38704,74.83757,202.9565
"4713",74.400345,74.652016,202.60962
"4714",74.41368,74.50797,202.29845
"4715",74.42702,74.40543,202.02428
"4716",74.44035,74.337074,201.78108
"4717",74.45369,74.302895,201.56993
"4718",74.467026,74.30045,201.38945
"4719",74.48036,74.322426,201.2333
"4720",74.49367,74.36393,201.09738
"4721",74.507,74.424965,200.98228
"4722",74.52034,74.50309,200.88618
"4723",74.533676,74.5861,200.79741
"4724",74.54701,74.67155,200.71367
"4725",74.56035,74.757,200.63261
"4726",74.573685,74.830246,200.542
"4727",74.58702,74.88884,200.43904
"4728",74.60036,74.9279,200.31837
"4729",74.61366,74.94255,200.17451
"4730",74.627,74.9279,200.00182
"4731",74.640335,74.89128,199.80669
"4732",74.65367,74.8571,199.61285
"4733",74.66701,74.896164,199.4912
"4734",74.68034,75.13298,199.56851
"4735",74.69368,75.72381,200.00725
"4736",74.706985,76.78096,200.93077
"4737",74.72032,78.34348,202.3927
"4738",74.73366,80.32838,204.32582
"4739",74.746994,82.564735,206.57245
"4740",74.76033,84.81819,208.90605
"4741",74.77367,86.869,211.10744
"4742",74.787,88.5536,213.00668
"4743",74.80034,89.78653,214.50691
"4744",74.813675,90.528725,215.55493
"4745",74.82698,90.80217,216.1574
"4746",74.84032,90.64835,216.34114
"4747",74.85365,90.15518,216.18073
"4748",74.86699,89.408104,215.75099
"4749",74.880325,88.49012,215.12701
"4750",74.89366,87.4696,214.37181
"4751",74.907,86.39048,213.52612
"4752",74.9203,85.28207,212.61742
"4753",74.93364,84.16388,211.66429
"4754",74.946976,83.08476,210.7153
"4755",74.96031,82.091095,209.81804
"4756",74.97365,81.24391,209.03621
"4757",74.986984,80.59449,208.42566
"4758",75.00032,80.16235,208.0121
"4759",75.01366,79.940186,207.79501
"4760",75.02699,79.888916,207.74188
"4761",75.0403,79.957275,207.80676
"4762",75.053635,80.09155,207.9397
"4763",75.06697,80.23071,208.08173
"4764",75.08031,80.33814,208.19637
"4765",75.09364,80.37965,208.24844
"4766",75.10698,80.32838,208.20905
"4767",75.120316,80.177,208.06793
"4768",75.13362,79.92798,207.82443
"4769",75.14696,79.59838,207.49258
"4770",75.16029,79.202866,207.08452
"4771",75.17363,78.765854,206.62259
"4772",75.186966,78.3093,206.12747
"4773",75.2003,77.84787,205.6132
"4774",75.21364,77.39376,205.09184
"4775",75.226974,76.95674,204.57338
"4776",75.24031,76.544136,204.06567
"4777",75.25362,76.16815,203.5817
"4778",75.26695,75.8288,203.12259
"4779",75.28029,75.53338,202.69682
"4780",75.293625,75.2868,202.31065
"4781",75.30696,75.09148,201.96805
"4782",75.3203,74.94499,201.66817
"4783",75.33363,74.85222,201.41742
"4784",75.34694,74.810715,201.21504
"4785",75.360275,74.82048,201.06264
"4786",75.37361,74.879074,200.95937
"4787",75.38695,74.97185,200.8921
"4788",75.40028,75.08415,200.84727
"4789",75.41362,75.19646,200.80595
"4790",75.426956,75.29656,200.75595
"4791",75.44029,75.36492,200.67732
"4792",75.45363,75.403984,200.57153
"4793",75.466934,75.421074,200.44499
"4794",75.48027,75.43084,200.31166
"4795",75.49361,75.4699,200.20793
"4796",75.50694,75.63592,200.23238
"4797",75.52028,76.053406,200.51349
"4798",75.533615,76.85176,201.1885
"4799",75.54695,78.09201,202.33037
"4800",75.56026,79.764404,203.94313
"4801",75.57362,81.75418,205.92554
"4802",75.58693,83.87091,208.09709
"4803",75.600296,85.89731,210.24446
"4804",75.6136,87.66979,212.20123
"4805",75.62697,89.06386,213.83498
"4806",75.640274,90.020905,215.07527
"4807",75.65364,90.52628,215.8938
"4808",75.66695,90.614174,216.31064
"4809",75.68031,90.33341,216.36157
"4810",75.69362,89.759674,216.11075
"4811",75.706985,88.971085,215.62715
"4812",75.72029,88.03601,214.97243
"4813",75.73366,86.9984,214.18594
"4814",75.74696,85.889984,213.29623
"4815",75.76033,84.749825,212.34013
"4816",75.773636,83.614555,211.3533
"4817",75.787,82.547646,210.39935
"4818",75.80031,81.60525,209.53658
"4819",75.813675,80.848404,208.8299
"4820",75.82698,80.306404,208.3144
"4821",75.84035,79.98901,208.00659
"4822",75.85365,79.86206,207.8793
"4823",75.86702,79.886475,207.89941
"4824",75.880325,80.00366,208.01306
"4825",75.89369,80.15991,208.16943
"4826",75.907,80.29664,208.31116
"4827",75.920364,80.377205,208.401
"4828",75.93367,80.36988,208.40547
"4829",75.94704,80.257576,208.30473
"4830",75.96034,80.045166,208.10037
"4831",75.97371,79.744865,207.80148
"4832",75.987015,79.37377,207.42241
"4833",76.00038,78.95384,206.98291
"4834",76.01369,78.502174,206.49855
"4835",76.027054,78.03586,205.98543
"4836",76.04036,77.56954,205.45773
"4837",76.05373,77.11543,204.92767
"4838",76.06703,76.68818,204.41028
"4839",76.0804,76.297554,203.91615
"4840",76.093704,75.95575,203.45865
"4841",76.10707,75.667656,203.04417
"4842",76.12038,75.43816,202.67929
"4843",76.13374,75.27459,202.37315
"4844",76.14705,75.176926,202.12782
"4845",76.160416,75.13786,201.93803
"4846",76.17372,75.15007,201.7983
"4847",76.18709,75.20378,201.70044
"4848",76.20039,75.28191,201.6287
"4849",76.21376,75.369804,201.56914
"4850",76.227066,75.44793,201.50256
"4851",76.24043,75.508965,201.42134
"4852",76.25374,75.54803,201.32005
"4853",76.267105,75.57488,201.20778
"4854",76.28041,75.63592,201.13052
"4855",76.29378,75.81659,201.17482
"4856",76.30708,76.23895,201.46645
"4857",76.32045,77.02022,202.13017
"4858",76.333755,78.22873,203.24556
"4859",76.34712,79.84497,204.80644
"4860",76.36043,81.761505,206.71814
"4861",76.373795,83.79523,208.80692
"4862",76.3871,85.75571,210.886
"4863",76.40047,87.47204,212.7822
"4864",76.41377,88.834366,214.37802
"4865",76.42714,89.78653,215.60626
"4866",76.440445,90.31388,216.43944
"4867",76.45381,90.443275,216.89114
"4868",76.46712,90.22598,217.0002
"4869",76.480484,89.740135,216.83391
"4870",76.49379,89.05165,216.4498
"4871",76.50716,88.21423,215.89525
"4872",76.52046,87.259636,215.19734
"4873",76.53383,86.20981,214.37437
"4874",76.547134,85.08186,213.44049
"4875",76.5605,83.92462,212.44206
"4876",76.57381,82.794235,211.43433
"4877",76.58717,81.76395,210.49136
"4878",76.60048,80.91188,209.69443
"4879",76.613846,80.291756,209.1028
"4880",76.62715,79.91821,208.73837
"4881",76.64052,79.77661,208.59421
"4882",76.653824,79.82056,208.63116
"4883",76.66719,79.97925,208.78424
"4884",76.6805,80.177,208.98135
"4885",76.69386,80.34791,209.15779
"4886",76.70717,80.44312,209.26389
"4887",76.720535,80.428474,209.26309
"4888",76.73384,80.29664,209.14465
"4889",76.74721,80.05249,208.90977
"4890",76.76051,79.708244,208.56717
"4891",76.77388,79.290764,208.14056
"4892",76.787186,78.82201,207.64964
"4893",76.80055,78.32639,207.11722
"4894",76.81386,77.821014,206.55954
"4895",76.827225,77.32296,205.9934
"4896",76.84053,76.85664,205.44342
"4897",76.8539,76.43183,204.92038
"4898",76.8672,76.06073,204.43777
"4899",76.88057,75.75067,204.00461
"4900",76.893875,75.50408,203.62523
"4901",76.90724,75.32342,203.30406
"4902",76.92055,75.20134,203.03584
"4903",76.933914,75.13542,202.81996
"4904",76.94722,75.11101,202.64352
"4905",76.96059,75.10368,202.48341
"4906",76.97389,75.10857,202.33528
"4907",76.98726,75.11345,202.1873
"4908",77.000565,75.1281,202.04924
"4909",77.01393,75.194016,201.9629
"4910",77.02724,75.41131,202.03001
"4911",77.0406,75.894714,202.37003
"4912",77.05391,76.74433,203.09135
"4913",77.067276,78.00656,204.25185
"4914",77.08058,79.64477,205.82776
"4915",77.09395,81.532005,207.70389
"4916",77.107254,83.475395,209.69516
"4917",77.12062,85.28207,211.61044
"4918",77.13393,86.78844,213.28188
"4919",77.14729,87.89441,214.59999
"4920",77.1606,88.56336,215.51564
"4921",77.173965,88.80507,216.02495
"4922",77.18727,88.66346,216.1585
"4923",77.20064,88.21912,215.98488
"4924",77.21394,87.55993,215.58253
"4925",77.22731,86.75914,215.01799
"4926",77.240616,85.87045,214.34053
"4927",77.25398,84.928055,213.58159
"4928",77.26729,83.94415,212.7517
"4929",77.280655,82.930954,211.86176
"4930",77.29396,81.92264,210.94504
"4931",77.30733,80.972916,210.0554
"4932",77.32063,80.130615,209.24352
"4933",77.334,79.44457,208.56155
"4934",77.347305,78.94896,208.04858
"4935",77.36067,78.63157,207.69835
"4936",77.37398,78.47532,207.49933
"4937",77.387344,78.433815,207.41017
"4938",77.40065,78.46311,207.39052
"4939",77.41402,78.51438,207.39375
"4940",77.42732,78.538795,207.37173
"4941",77.44069,78.502174,207.28944
"4942",77.453995,78.382545,207.123
"4943",77.46736,78.1799,206.86981
"4944",77.48067,77.908905,206.54193
"4945",77.49403,77.576866,206.14455
"4946",77.50734,77.21065,205.7026
"4947",77.520706,76.82735,205.23213
"4948",77.53401,76.439156,204.7448
"4949",77.54738,76.053406,204.24777
"4950",77.560684,75.68719,203.75822
"4951",77.57405,75.338066,203.27432
"4952",77.58736,75.020676,202.81125
"4953",77.60072,74.737465,202.37244
"4954",77.61403,74.49821,201.96872
"4955",77.627396,74.29557,201.59415
"4956",77.6407,74.13931,201.25963
"4957",77.65407,74.02457,200.96173
"4958",77.66737,73.953766,200.7042
"4959",77.68074,73.919586,200.48106
"4960",77.694046,73.917145,200.2886
"4961",77.70741,73.93912,200.12048
"4962",77.72072,73.98062,199.97258
"4963",77.734085,74.04166,199.8455
"4964",77.74739,74.11978,199.73743
"4965",77.76076,74.21011,199.644
"4966",77.77406,74.31022,199.56317
"4967",77.78743,74.41032,199.48546
"4968",77.800735,74.50065,199.40111
"4969",77.8141,74.57389,199.30249
"4970",77.82741,74.62272,199.18175
"4971",77.840775,74.649574,199.04056
"4972",77.85408,74.66422,198.888
"4973",77.86745,74.6984,198.75543
"4974",77.88075,74.844894,198.73625
"4975",77.89412,75.23796,198.96822
"4976",77.907425,76.016785,199.59822
"4977",77.92079,77.2546,200.71156
"4978",77.9341,78.93187,202.30304
"4979",77.947464,80.921646,204.25943
"4980",77.96077,83.02373,206.39032
"4981",77.97414,84.998856,208.45995
"4982",77.98744,86.6688,210.2861
"4983",78.00081,87.921265,211.74696
"4984",78.014114,88.71717,212.7904
"4985",78.02748,89.076065,213.4217
"4986",78.04079,89.05165,213.68092
"4987",78.05415,88.7367,213.64883
"4988",78.06746,88.224,213.40915
"4989",78.080826,87.60143,213.04358
"4990",78.09413,86.93248,212.61217
"4991",78.1075,86.26841,212.16473
"4992",78.120804,85.609215,211.70143
"4993",78.13417,84.95247,211.21997
"4994",78.14748,84.27619,210.69846
"4995",78.16084,83.58282,210.13872
"4996",78.17415,82.88945,209.55731
"4997",78.187515,82.21805,208.97621
"4998",78.20082,81.61013,208.4376
"4999",78.21419,81.10231,207.9801
"5000",78.22749,80.70191,207.61415
"5001",78.24086,80.4065,207.34068
"5002",78.254166,80.201416,207.1483
"5003",78.26753,80.06958,207.02277
"5004",78.28084,79.974365,206.92972
"5005",78.294205,79.88403,206.8386
"5006",78.30751,79.77417,206.7251
"5007",78.32088,79.61791,206.56178
"5008",78.33418,79.40551,206.33743
"5009",78.34755,79.13695,206.0503
"5010",78.360855,78.82201,205.70837
"5011",78.37422,78.47776,205.32732
"5012",78.38753,78.12131,204.9233
"5013",78.400894,77.75998,204.50325
"5014",78.4142,77.40597,204.07924
"5015",78.42757,77.069046,203.66125
"5016",78.44087,76.754105,203.25471
"5017",78.45424,76.46113,202.8603
"5018",78.467545,76.19745,202.48604
"5019",78.48091,75.97284,202.1426
"5020",78.49422,75.78729,201.83119
"5021",78.50758,75.63836,201.55061
"5022",78.52089,75.52117,201.29712
"5023",78.534256,75.43572,201.0717
"5024",78.54756,75.37957,200.87291
"5025",78.56093,75.34783,200.69678
"5026",78.574234,75.335625,200.53918
"5027",78.5876,75.34783,200.40562
"5028",78.60091,75.37469,200.2871
"5029",78.61427,75.406425,200.17429
"5030",78.62758,75.43816,200.06247
"5031",78.640945,75.47234,199.95409
"5032",78.65425,75.50408,199.84433
"5033",78.66762,75.526054,199.7258
"5034",78.68092,75.543144,199.60307
"5035",78.69429,75.55047,199.47112
"5036",78.707596,75.55291,199.3345
"5037",78.72096,75.55291,199.19553
"5038",78.73427,75.55047,199.05411
"5039",78.747635,75.55291,198.9175
"5040",78.76094,75.562675,198.78828
"5041",78.77431,75.58465,198.67159
"5042",78.78761,75.62127,198.57022
"5043",78.80098,75.67254,198.48465
"5044",78.814285,75.72869,198.40556
"5045",78.82765,75.78485,198.32825
"5046",78.84096,75.83612,198.24779
"5047",78.854324,75.87518,198.15672
"5048",78.86763,75.90692,198.05956
"5049",78.881,75.94354,197.96826
"5050",78.8943,76.036316,197.93427
"5051",78.90767,76.282906,198.05699
"5052",78.920975,76.82735,198.48528
"5053",78.93434,77.78195,199.34073
"5054",78.94765,79.183334,200.67279
"5055",78.96101,80.9485,202.41243
"5056",78.97432,82.9041,204.39767
"5057",78.987686,84.81087,206.3952
"5058",79.00099,86.44907,208.18375
"5059",79.01436,87.68932,209.62553
"5060",79.027664,88.47303,210.64954
"5061",79.04103,88.82216,211.26344
"5062",79.05434,88.78798,211.50496
"5063",79.0677,88.45838,211.44998
"5064",79.08101,87.93347,211.18939
"5065",79.094376,87.30358,210.80742
"5066",79.10768,86.65171,210.38379
"5067",79.12105,86.031586,209.97153
"5068",79.13435,85.46029,209.58871
"5069",79.14772,84.92561,209.22467
"5070",79.161026,84.41535,208.86833
"5071",79.17439,83.90753,208.49849
"5072",79.1877,83.389946,208.10301
"5073",79.201065,82.86992,207.68892
"5074",79.21437,82.374306,207.28299
"5075",79.22774,81.92752,206.9104
"5076",79.24104,81.55154,206.59465
"5077",79.25441,81.26345,206.35506
"5078",79.267715,81.06569,206.19678
"5079",79.28108,80.936295,206.1007
"5080",79.29439,80.86061,206.05428
"5081",79.307755,80.8069,206.02747
"5082",79.32106,80.7483,205.99408
"5083",79.33443,80.66041,205.92958
"5084",79.34773,80.52857,205.81839
"5085",79.3611,80.33814,205.64449
"5086",79.374405,80.10132,205.41823
"5087",79.38777,79.83032,205.15039
"5088",79.40108,79.534904,204.84967
"5089",79.414444,79.234604,204.53484
"5090",79.42775,78.941635,204.21794
"5091",79.44112,78.66331,203.90654
"5092",79.45442,78.397194,203.59865
"5093",79.46779,78.153046,203.30441
"5094",79.481094,77.92844,203.02208
"5095",79.49446,77.730675,202.75958
"5096",79.50777,77.55978,202.51776
"5097",79.52113,77.418175,202.2999
"5098",79.53444,77.30343,202.10446
"5099",79.547806,77.21309,201.92986
"5100",79.56111,77.14229,201.77196
"5101",79.57448,77.09346,201.63382
"5102",79.58778,77.05928,201.5088
"5103",79.60115,77.03731,201.39493
"5104",79.614456,77.02754,201.29257
"5105",79.62782,77.02754,201.19968
"5106",79.64113,77.03487,201.1141
"5107",79.654495,77.04463,201.0312
"5108",79.6678,77.051956,200.94617
"5109",79.68117,77.051956,200.85403
"5110",79.69447,77.049515,200.75946
"5111",79.70784,77.04463,200.66237
"5112",79.721146,77.03975,200.56512
"5113",79.73451,77.03731,200.47017
"5114",79.74782,77.03487,200.37514
"5115",79.761185,77.02754,200.27515
"5116",79.77449,77.015335,200.17004
"5117",79.78786,77.00313,200.06456
"5118",79.80116,76.99092,199.9587
"5119",79.81453,76.9836,199.85733
"5120",79.827835,76.99336,199.77283
"5121",79.8412,77.01289,199.6984
"5122",79.85451,77.03975,199.6319
"5123",79.867874,77.07149,199.57112
"5124",79.88118,77.10567,199.51378
"5125",79.89455,77.13985,199.4575
"5126",79.90785,77.17403,199.4023
"5127",79.92122,77.19844,199.3384
"5128",79.934525,77.22041,199.27281
"5129",79.94789,77.25948,199.22502
"5130",79.9612,77.3962,199.2761
"5131",79.97456,77.74044,199.53896
"5132",79.98787,78.42649,200.15439
"5133",80.001236,79.517815,201.19653
"5134",80.01454,80.972916,202.63657
"5135",80.02791,82.650185,204.34424
"5136",80.041214,84.332344,206.10922
"5137",80.05458,85.79721,207.70947
"5138",80.06789,86.888535,208.98196
"5139",80.08125,87.54284,209.85153
"5140",80.09456,87.77478,210.31918
"5141",80.107925,87.65026,210.43762
"5142",80.12123,87.25231,210.27875
"5143",80.1346,86.67124,209.92432
"5144",80.1479,85.997406,209.45895
"5145",80.16127,85.3016,208.95056
"5146",80.174576,84.63752,208.45216
"5147",80.18794,84.03204,207.99161
"5148",80.20125,83.49493,207.58049
"5149",80.214615,83.0164,207.21118
"5150",80.22792,82.57694,206.86598
"5151",80.24129,82.15701,206.52658
"5152",80.25459,81.75418,206.19116
"5153",80.26796,81.38064,205.87244
"5154",80.281265,81.05348,205.58842
"5155",80.29463,80.79469,205.36256
"5156",80.30794,80.61646,205.20917
"5157",80.321304,80.51881,205.13078
"5158",80.33461,80.48463,205.11282
"5159",80.34798,80.49439,205.13774
"5160",80.36128,80.51881,205.17761
"5161",80.37465,80.5359,205.21092
"5162",80.387955,80.51881,205.21059
"5163",80.40132,80.45533,205.16333
"5164",80.41463,80.3357,205.05794
"5165",80.42799,80.16968,204.9024
"5166",80.4413,79.9646,204.70264
"5167",80.454666,79.73266,204.46959
"5168",80.46797,79.4934,204.22197
"5169",80.48134,79.24925,203.96199
"5170",80.494644,79.012436,203.7017
"5171",80.50801,78.78294,203.44135
"5172",80.52132,78.57053,203.1909
"5173",80.53468,78.37522,202.95091
"5174",80.54799,78.20676,202.73167
"5175",80.561356,78.06271,202.53159
"5176",80.57466,77.945526,202.35385
"5177",80.58803,77.855194,202.19931
"5178",80.60133,77.789276,202.06636
"5179",80.6147,77.738,201.946
"5180",80.628006,77.70382,201.84113
"5181",80.64137,77.68429,201.74983
"5182",80.65468,77.679405,201.67258
"5183",80.668045,77.68917,201.60982
"5184",80.68135,77.70626,201.55469
"5185",80.69472,77.730675,201.50742
"5186",80.70802,77.75021,201.45604
"5187",80.72139,77.76486,201.40038
"5188",80.734695,77.77707,201.34273
"5189",80.74806,77.78439,201.28058
"5190",80.76137,77.79416,201.2211
"5191",80.774734,77.79904,201.15704
"5192",80.78804,77.79904,201.08826
"5193",80.80141,77.789276,201.0097
"5194",80.81471,77.77707,200.9284
"5195",80.82808,77.75754,200.8394
"5196",80.841385,77.738,200.74979
"5197",80.85475,77.713585,200.65468
"5198",80.86806,77.68917,200.5588
"5199",80.881424,77.66476,200.46217
"5200",80.89473,77.64034,200.36478
"5201",80.9081,77.628136,200.27882
"5202",80.9214,77.625694,200.20226
"5203",80.93477,77.63302,200.13538
"5204",80.948074,77.65011,200.07849
"5205",80.96144,77.66476,200.0197
"5206",80.97475,77.67696,199.95892
"5207",80.98811,77.67452,199.88388
"5208",81.00142,77.65743,199.79411
"5209",81.014786,77.63058,199.69405
"5210",81.02809,77.62081,199.61023
"5211",81.04146,77.696495,199.61156
"5212",81.05476,77.977264,199.82034
"5213",81.06813,78.59251,200.37238
"5214",81.081436,79.59838,201.33426
"5215",81.0948,80.955826,202.67915
"5216",81.10811,82.52567,204.27887
"5217",81.121475,84.1004,205.93253
"5218",81.13478,85.45785,207.4181
"5219",81.14815,86.44419,208.57501
"5220",81.16145,87.00328,209.33548
"5221",81.17482,87.15465,209.7057
"5222",81.188126,86.96178,209.73642
"5223",81.20149,86.50767,209.49986
"5224",81.2148,85.8851,209.08066
"5225",81.228165,85.17464,208.55411
"5226",81.24147,84.437325,207.9785
"5227",81.25484,83.72442,207.40427
"5228",81.26814,83.06767,206.8639
"5229",81.28151,82.48417,206.37627
"5230",81.294815,81.96658,205.93631
"5231",81.30818,81.50759,205.53877
"5232",81.32149,81.092545,205.17084
"5233",81.334854,80.723885,204.83632
"5234",81.34816,80.40894,204.544
"5235",81.36153,80.164795,204.31264
"5236",81.37483,80.01099,204.16397
"5237",81.3882,79.95239,204.10571
"5238",81.401505,79.971924,204.12375
"5239",81.41487,80.05005,204.20099
"5240",81.42818,80.15991,204.31241
"5241",81.44154,80.274666,204.43216
"5242",81.45485,80.365,204.53108
"5243",81.468216,80.40894,204.58644
"5244",81.48152,80.394295,204.58458
"5245",81.49489,80.31861,204.52122
"5246",81.508194,80.18921,204.40178
"5247",81.52156,80.01343,204.2319
"5248",81.53487,79.80591,204.02481
"5249",81.54823,79.58129,203.79413
"5250",81.56154,79.34936,203.5491
"5251",81.574905,79.11742,203.29683
"5252",81.58821,78.90013,203.05196
"5253",81.60158,78.69749,202.81494
"5254",81.61488,78.51438,202.59113
"5255",81.62825,78.35325,202.38356
"5256",81.641556,78.21164,202.19049
"5257",81.65492,78.08957,202.01253
"5258",81.66823,77.99191,201.85516
"5259",81.681595,77.91623,201.71672
"5260",81.6949,77.874725,201.61009
"5261",81.70827,77.86252,201.53146
"5262",81.72157,77.874725,201.47687
"5263",81.73494,77.90158,201.4373
"5264",81.748245,77.93576,201.4059
"5265",81.76161,77.96506,201.37068
"5266",81.77492,77.99191,201.33394
"5267",81.788284,78.02365,201.30292
"5268",81.80159,78.05295,201.27045
"5269",81.81496,78.082245,201.23889
"5270",81.82826,78.1091,201.20581
"5271",81.84163,78.12863,201.16624
"5272",81.854935,78.135956,201.11508
"5273",81.8683,78.1384,201.05927
"5274",81.88161,78.135956,200.99864
"5275",81.89497,78.12375,200.92818
"5276",81.90828,78.1091,200.85489
"5277",81.921646,78.09445,200.78114
"5278",81.93495,78.07492,200.70206
"5279",81.94832,78.05539,200.62236
"5280",81.961624,78.0383,200.5445
"5281",81.97499,78.02121,200.4661
"5282",81.9883,78.00412,200.38716
"5283",82.00166,77.98459,200.30525
"5284",82.01497,77.95773,200.21541
"5285",82.028336,77.925995,200.11984
"5286",82.04164,77.90646,200.03549
"5287",82.05501,77.9382,200.0018
"5288",82.06831,78.12131,200.12047
"5289",82.08168,78.57786,200.51831
"5290",82.094986,79.398186,201.29419
"5291",82.10835,80.584724,202.46191
"5292",82.12166,82.039825,203.93529
"5293",82.135025,83.57061,205.52982
"5294",82.14833,84.962234,207.03302
"5295",82.1617,86.03647,208.26233
"5296",82.175,86.70786,209.12236
"5297",82.18837,86.97154,209.59566
"5298",82.201675,86.88365,209.72563
"5299",82.21504,86.519875,209.57697
"5300",82.22835,85.95834,209.21918
"5301",82.241714,85.27718,208.72421
"5302",82.25502,84.53986,208.15181
"5303",82.26839,83.792786,207.5466
"5304",82.28169,83.07744,206.94978
"5305",82.29506,82.41581,206.38432
"5306",82.308365,81.8201,205.8641
"5307",82.32173,81.27566,205.37654
"5308",82.33504,80.78493,204.92567
"5309",82.348404,80.360115,204.52539
"5310",82.36171,80.01587,204.1924
"5311",82.37508,79.77417,203.9512
"5312",82.38838,79.65209,203.82207
"5313",82.40175,79.65453,203.81363
"5314",82.415054,79.75708,203.90538
"5315",82.42842,79.920654,204.06137
"5316",82.44173,80.111084,204.24933
"5317",82.45509,80.2942,204.43591
"5318",82.4684,80.43824,204.58916
"5319",82.481766,80.52613,204.69075
"5320",82.49507,80.5481,204.72917
"5321",82.50844,80.5066,204.7048
"5322",82.52174,80.4065,204.62054
"5323",82.53511,80.257576,204.48433
"5324",82.548416,80.06714,204.30194
"5325",82.56178,79.852295,204.0892
"5326",82.57509,79.61059,203.84288
"5327",82.588455,79.36645,203.58656
"5328",82.60176,79.12718,203.3275
"5329",82.61513,78.905014,203.07805
"5330",82.62843,78.69993,202.83875
"5331",82.6418,78.519264,202.61745
"5332",82.655106,78.363014,202.41492
"5333",82.66847,78.22873,202.22948
"5334",82.68178,78.12375,202.06914
"5335",82.695145,78.04318,201.92993
"5336",82.70845,77.98703,201.81262
"5337",82.72182,77.95529,201.71797
"5338",82.73512,77.94797,201.64674
"5339",82.74849,77.95041,201.58505
"5340",82.761795,77.96506,201.53564
"5341",82.77516,77.99191,201.4989
"5342",82.78847,78.03342,201.47765
"5343",82.801834,78.07736,201.46013
"5344",82.81514,78.12619,201.44887
"5345",82.82851,78.17258,201.43669
"5346",82.84181,78.2092,201.4162
"5347",82.85518,78.24094,201.39197
"5348",82.868484,78.27024,201.3663
"5349",82.88185,78.294655,201.33665
"5350",82.89516,78.314186,201.30289
"5351",82.90852,78.32639,201.2624
"5352",82.92183,78.331276,201.21498
"5353",82.935196,78.32151,201.15306
"5354",82.9485,78.30198,201.08107
"5355",82.96187,78.27512,201.00114
"5356",82.975174,78.24338,200.9155
"5357",82.98854,78.21652,200.83374
"5358",83.00185,78.22385,200.78532
"5359",83.01521,78.33372,200.83969
"5360",83.02852,78.66575,201.11964
"5361",83.041885,79.31274,201.72493
"5362",83.05519,80.308846,202.69955
"5363",83.06856,81.58572,203.98608
"5364",83.08186,82.99687,205.4468
"5365",83.09523,84.34455,206.88812
"5366",83.108536,85.44076,208.1201
"5367",83.1219,86.18051,209.02988
"5368",83.13521,86.539406,209.58191
"5369",83.148575,86.55161,209.79848
"5370",83.16188,86.28794,209.73955
"5371",83.17525,85.81674,209.46484
"5372",83.18855,85.20393,209.03381
"5373",83.20192,84.51545,208.50795
"5374",83.215225,83.807434,207.94104
"5375",83.22859,83.106735,207.35933
"5376",83.2419,82.44022,206.7899
"5377",83.255264,81.812775,206.23871
"5378",83.26857,81.22438,205.70697
"5379",83.28194,80.68482,205.20567
"5380",83.29524,80.22095,204.7632
"5381",83.30861,79.86206,204.41122
"5382",83.321915,79.63012,204.17497
"5383",83.33528,79.54223,204.07552
"5384",83.34859,79.5935,204.11247
"5385",83.36195,79.75708,204.26335
"5386",83.37526,79.98901,204.4877
"5387",83.388626,80.25025,204.7486
"5388",83.40193,80.49439,205.00056
"5389",83.4153,80.68482,205.20645
"5390",83.428604,80.797134,205.34016
"5391",83.44197,80.831314,205.39926
"5392",83.45528,80.78737,205.3813
"5393",83.46864,80.67994,205.29848
"5394",83.48195,80.52369,205.16348
"5395",83.495316,80.3357,204.99187
"5396",83.50862,80.11841,204.78506
"5397",83.52199,79.88403,204.55438
"5398",83.53529,79.64477,204.3115
"5399",83.54866,79.412834,204.06845
"5400",83.561966,79.19066,203.82793
"5401",83.57533,78.98802,203.59999
"5402",83.58864,78.80492,203.38525
"5403",83.602005,78.643776,203.18677
"5404",83.61531,78.504616,203.00522
"5405",83.62868,78.38987,202.84373
"5406",83.64198,78.29954,202.70308
"5407",83.65535,78.23361,202.58401
"5408",83.668655,78.18967,202.48486
"5409",83.68202,78.17258,202.4112
"5410",83.69533,78.17258,202.35408
"5411",83.708694,78.18967,202.31406
"5412",83.722,78.22873,202.29654
"5413",83.73537,78.28245,202.2949
"5414",83.74867,78.35325,202.31203
"5415",83.76204,78.433815,202.34113
"5416",83.775345,78.519264,202.37762
"5417",83.78871,78.59983,202.41191
"5418",83.80202,78.66331,202.43163
"5419",83.815384,78.70237,202.42891
"5420",83.82869,78.71458,202.40056
"5421",83.84206,78.69993,202.34573
"5422",83.85536,78.67307,202.27824
"5423",83.86873,78.65598,202.21968
"5424",83.882034,78.709694,202.23138
"5425",83.8954,78.93431,202.41568
"5426",83.90871,79.42016,202.86823
"5427",83.92207,80.21118,203.64113
"5428",83.93538,81.26101,204.69756
"5429",83.948746,82.45731,205.93327
"5430",83.96205,83.631645,207.1844
"5431",83.97542,84.627754,208.294
"5432",83.98872,85.34066,209.15154
"5433",84.00209,85.73617,209.71394
"5434",84.015396,85.841156,209.99818
"5435",84.02876,85.697105,210.03667
"5436",84.04207,85.365074,209.88268
"5437",84.055435,84.89876,209.58401
"5438",84.06874,84.34455,209.18289
"5439",84.08211,83.74151,208.71562
"5440",84.09541,83.12138,208.21242
"5441",84.10878,82.49882,207.6874
"5442",84.122086,81.88602,207.15268
"5443",84.13545,81.29519,206.62079
"5444",84.14876,80.75807,206.12415
"5445",84.162125,80.29908,205.68884
"5446",84.17543,79.95239,205.3515
"5447",84.1888,79.742424,205.14005
"5448",84.2021,79.68627,205.07584
"5449",84.21547,79.77173,205.15149
"5450",84.228775,79.96948,205.3421
"5451",84.24214,80.233154,205.60483
"5452",84.25545,80.51881,205.89777
"5453",84.268814,80.77516,206.17033
"5454",84.28212,80.96559,206.385
"5455",84.29549,81.075455,206.52504
"5456",84.30879,81.10231,206.58551
"5457",84.32216,81.04372,206.56137
"5458",84.335464,80.91432,206.4646
"5459",84.34883,80.73609,206.31494
"5460",84.36214,80.52125,206.12311
"5461",84.3755,80.27955,205.8977
"5462",84.38881,80.03052,205.65741
"5463",84.402176,79.77661,205.40445
"5464",84.41548,79.53246,205.15332
"5465",84.42885,79.30053,204.90677
"5466",84.442154,79.08568,204.67006
"5467",84.45552,78.890366,204.44617
"5468",84.46883,78.7219,204.24303
"5469",84.48219,78.5803,204.06148
"5470",84.4955,78.470436,203.90724
"5471",84.508865,78.38499,203.77399
"5472",84.52217,78.328835,203.66736
"5473",84.53554,78.2971,203.58339
"5474",84.54884,78.29221,203.52528
"5475",84.56221,78.30686,203.48656
"5476",84.575516,78.3386,203.46538
"5477",84.58888,78.38743,203.46228
"5478",84.60219,78.44358,203.46803
"5479",84.615555,78.49729,203.4731
"5480",84.62886,78.54368,203.47252
"5481",84.64223,78.57542,203.45874
"5482",84.65553,78.59251,203.4313
"5483",84.6689,78.61204,203.40685
"5484",84.682205,78.695045,203.44647
"5485",84.69557,78.94408,203.65472
"5486",84.70888,79.45678,204.13443
"5487",84.722244,80.27955,204.94022
"5488",84.73555,81.3904,206.05981
"5489",84.74892,82.67948,207.39235
"5490",84.76222,83.99298,208.78958
"5491",84.77559,85.16487,210.08626
"5492",84.788895,86.0853,211.16809
"5493",84.80226,86.70786,211.98082
"5494",84.81557,87.02281,212.50539
"5495",84.82893,87.05211,212.75415
"5496",84.84224,86.84215,212.76457
"5497",84.855606,86.44419,212.58043
"5498",84.86891,85.924164,212.26178
"5499",84.88228,85.33578,211.85852
"5500",84.895584,84.72785,211.41734
"5501",84.90895,84.1297,210.96693
"5502",84.92226,83.54864,210.51492
"5503",84.93562,82.98711,210.06429
"5504",84.94893,82.44755,209.61807
"5505",84.962296,81.94949,209.1965
"5506",84.9756,81.512474,208.8204
"5507",84.98897,81.16823,208.52342
"5508",85.00227,80.938736,208.33044
"5509",85.01564,80.831314,208.25237
"5510",85.028946,80.8362,208.28323
"5511",85.04231,80.92897,208.40215
"5512",85.05562,81.07301,208.57523
"5513",85.068985,81.2195,208.75525
"5514",85.08229,81.33669,208.91055
"5515",85.09566,81.40017,209.01581
"5516",85.10896,81.3904,209.0498
"5517",85.12233,81.30007,209.00293
"5518",85.135635,81.143814,208.8873
"5519",85.149,80.92897,208.7082
"5520",85.16231,80.66529,208.47356
"5521",85.175674,80.36988,208.19894
"5522",85.18898,80.05737,207.898
"5523",85.20235,79.742424,207.58484
"5524",85.21565,79.43725,207.2716
"5525",85.22902,79.15404,206.97081
"5526",85.242325,78.890366,206.6807
"5527",85.25569,78.65598,206.41164
"5528",85.269,78.44358,206.15723
"5529",85.282364,78.25559,205.9206
"5530",85.29567,78.08957,205.70006
"5531",85.30904,77.95041,205.50119
"5532",85.32234,77.83566,205.32239
"5533",85.33571,77.752655,205.17174
"5534",85.349014,77.696495,205.04535
"5535",85.36238,77.67452,204.95139
"5536",85.37569,77.67696,204.88115
"5537",85.38905,77.696495,204.82808
"5538",85.40236,77.72579,204.78539
"5539",85.415726,77.75021,204.73874
"5540",85.42903,77.76486,204.68307
"5541",85.4424,77.7673,204.61566
"5542",85.4557,77.7673,204.54588
"5543",85.46907,77.789276,204.49808
"5544",85.482376,77.91623,204.55594
"5545",85.49574,78.24826,204.82285
"5546",85.50905,78.88548,205.40532
"5547",85.522415,79.86694,206.35194
"5548",85.53572,81.160904,207.64175
"5549",85.54909,82.650185,209.16731
"5550",85.56239,84.17853,210.77847
"5551",85.57576,85.58724,212.31776
"5552",85.589066,86.75426,213.65938
"5553",85.60243,87.61608,214.73227
"5554",85.61574,88.148315,215.5025
"5555",85.629105,88.360725,215.96954
"5556",85.64241,88.28748,216.15758
"5557",85.65578,87.98474,216.11382
"5558",85.66908,87.52819,215.90678
"5559",85.68245,86.976425,215.59027
"5560",85.695755,86.39048,215.22234
"5561",85.70912,85.804535,214.83609
"5562",85.72243,85.23567,214.44862
"5563",85.735794,84.67658,214.05315
"5564",85.7491,84.122375,213.64508
"5565",85.76247,83.57549,213.22702
"5566",85.77577,83.053024,212.81628
"5567",85.78914,82.579384,212.43805
"5568",85.802444,82.178986,212.11826
"5569",85.81581,81.87137,211.87874
"5570",85.82912,81.65652,211.72237
"5571",85.84248,81.5198,211.63742
"5572",85.85579,81.43679,211.60191
"5573",85.869156,81.38308,211.59311
"5574",85.88246,81.33669,211.58995
"5575",85.89583,81.26589,211.56093
"5576",85.909134,81.1487,211.48329
"5577",85.9225,80.98268,211.35318
"5578",85.93581,80.75563,211.15685
"5579",85.94917,80.4773,210.90213
"5580",85.96248,80.15991,210.59966
"5581",85.975845,79.81079,210.25552
"5582",85.98915,79.43969,209.87851
"5583",86.00252,79.05882,209.48013
"5584",86.01582,78.68772,209.07962
"5585",86.02919,78.33372,208.6846
"5586",86.042496,78.00168,208.30049
"5587",86.05586,77.69894,207.9353
"5588",86.06917,77.42306,207.58751
"5589",86.082535,77.17403,207.25795
"5590",86.09584,76.9543,206.9499
"5591",86.10921,76.76875,206.66917
"5592",86.12251,76.61494,206.41438
"5593",86.13588,76.49287,206.18652
"5594",86.149185,76.40009,205.98415
"5595",86.16255,76.33662,205.80817
"5596",86.17586,76.297554,205.65462
"5597",86.189224,76.27802,205.51938
"5598",86.20253,76.280464,205.4055
"5599",86.2159,76.29023,205.29903
"5600",86.2292,76.30488,205.19774
"5601",86.24257,76.30732,205.0847
"5602",86.255875,76.297554,204.95953
"5603",86.26924,76.2707,204.81697
"5604",86.28255,76.226746,204.65648
"5605",86.29591,76.192566,204.50438
"5606",86.30922,76.226746,204.41957
"5607",86.322586,76.42451,204.49942
"5608",86.33589,76.90059,204.86377
"5609",86.34926,77.730675,205.597
"5610",86.362564,78.93431,206.72972
"5611",86.37593,80.44312,208.20523
"5612",86.38924,82.11551,209.89146
"5613",86.4026,83.773254,211.61533
"5614",86.41591,85.25277,213.21275
"5615",86.429276,86.434425,214.55856
"5616",86.44258,87.25231,215.57753
"5617",86.45595,87.69421,216.24606
"5618",86.46925,87.79431,216.58661
"5619",86.48262,87.6112,216.64706
"5620",86.495926,87.220566,216.49428
"5621",86.50929,86.6981,216.19745
"5622",86.5226,86.11459,215.82326
"5623",86.535965,85.506676,215.40642
"5624",86.54927,84.89632,214.96814
"5625",86.56264,84.283516,214.50835
"5626",86.57594,83.665825,214.02452
"5627",86.58931,83.04814,213.5214
"5628",86.602615,82.44511,213.01361
"5629",86.61598,81.883575,212.52849
"5630",86.62929,81.39773,212.1015
"5631",86.642654,81.00954,211.75699
"5632",86.65596,80.726326,211.50533
"5633",86.66933,80.53834,211.34004
"5634",86.68263,80.42603,211.24457
"5635",86.696,80.35767,211.18953
"5636",86.709305,80.30396,211.147
"5637",86.72267,80.233154,211.0857
"5638",86.73598,80.12573,210.98557
"5639",86.749344,79.96216,210.82593
"5640",86.76265,79.744865,210.60745
"5641",86.77602,79.47631,210.33092
"5642",86.78932,79.168686,210.00693
"5643",86.80269,78.82689,209.63914
"5644",86.815994,78.467995,209.24359
"5645",86.82936,78.099335,208.82706
"5646",86.84267,77.730675,208.399
"5647",86.85603,77.37423,207.97163
"5648",86.86934,77.03975,207.5551
"5649",86.882706,76.732124,207.15497
"5650",86.89601,76.45869,206.7794
"5651",86.90938,76.22186,206.43192
"5652",86.92268,76.016785,206.10876
"5653",86.93605,75.84589,205.81339
"5654",86.949356,75.7116,205.54929
"5655",86.96272,75.60906,205.31273
"5656",86.97603,75.5407,205.10715
"5657",86.989395,75.4992,204.92628
"5658",87.0027,75.47723,204.76366
"5659",87.01607,75.474785,204.61987
"5660",87.02937,75.47967,204.48334
"5661",87.04274,75.48699,204.3494
"5662",87.056046,75.494316,204.21568
"5663",87.06941,75.4992,204.07976
"5664",87.08272,75.4992,203.9391
"5665",87.096085,75.494316,203.79356
"5666",87.10939,75.48211,203.64055
"5667",87.12276,75.47234,203.4896
"5668",87.13606,75.457695,203.33345
"5669",87.14943,75.44305,203.17685
"5670",87.162735,75.43084,203.02223
"5671",87.1761,75.421074,202.86967
"5672",87.18941,75.41863,202.72414
"5673",87.202774,75.421074,202.5834
"5674",87.21608,75.43084,202.45007
"5675",87.22945,75.44549,202.32193
"5676",87.24275,75.46258,202.19669
"5677",87.25612,75.474785,202.0671
"5678",87.269424,75.48211,201.933
"5679",87.28279,75.48943,201.79913
"5680",87.2961,75.51629,201.68503
"5681",87.30946,75.63592,201.66454
"5682",87.32277,75.965515,201.85776
"5683",87.336136,76.65156,202.41772
"5684",87.34944,77.769745,203.43127
"5685",87.36281,79.32006,204.9119
"5686",87.376114,81.20973,206.78032
"5687",87.38948,83.25323,208.86162
"5688",87.40279,85.23079,210.94084
"5689",87.41615,86.96178,212.8353
"5690",87.42946,88.33143,214.4225
"5691",87.442825,89.27627,215.6277
"5692",87.45613,89.79141,216.43272
"5693",87.4695,89.90372,216.85101
"5694",87.4828,89.688866,216.94565
"5695",87.49617,89.22255,216.7821
"5696",87.509476,88.59998,216.44774
"5697",87.52284,87.904175,216.02068
"5698",87.53615,87.18883,215.55234
"5699",87.549515,86.47837,215.06653
"5700",87.56282,85.77768,214.56828
"5701",87.57619,85.08186,214.05302
"5702",87.58949,84.39826,213.52823
"5703",87.60286,83.74151,213.00893
"5704",87.616165,83.140915,212.52525
"5705",87.62953,82.62577,212.10826
"5706",87.64284,82.213165,211.77771
"5707",87.656204,81.91043,211.54414
"5708",87.66951,81.70046,211.39388
"5709",87.68288,81.5613,211.30786
"5710",87.69618,81.461205,211.25656
"5711",87.70955,81.36843,211.20946
"5712",87.722855,81.25613,211.13992
"5713",87.73622,81.10475,211.0278
"5714",87.74953,80.89723,210.85481
"5715",87.76289,80.63111,210.61673
"5716",87.7762,80.306404,210.31175
"5717",87.789566,79.92798,209.9429
"5718",87.80287,79.51293,209.5256
"5719",87.81624,79.078354,209.0758
"5720",87.829544,78.63889,208.60754
"5721",87.84291,78.20676,208.13287
"5722",87.85622,77.79416,207.66423
"5723",87.86958,77.40597,207.2071
"5724",87.88289,77.051956,206.77203
"5725",87.896255,76.73945,206.3674
"5726",87.90956,76.46845,205.9945
"5727",87.92293,76.241394,205.65709
"5728",87.93623,76.06073,205.35896
"5729",87.9496,75.91913,205.09425
"5730",87.962906,75.81171,204.8593
"5731",87.97627,75.736015,204.65273
"5732",87.98958,75.682304,204.46576
"5733",88.002945,75.64324,204.29176
"5734",88.01625,75.61883,204.1312
"5735",88.02962,75.60662,203.98207
"5736",88.04292,75.60662,203.84477
"5737",88.05629,75.61639,203.71724
"5738",88.069595,75.62615,203.59001
"5739",88.08296,75.631035,203.4582
"5740",88.09627,75.62371,203.31435
"5741",88.109634,75.60174,203.15561
"5742",88.12294,75.57,202.98642
"5743",88.13631,75.53338,202.81136
"5744",88.14961,75.494316,202.6327
"5745",88.16298,75.45525,202.45284
"5746",88.176285,75.421074,202.27663
"5747",88.18965,75.389336,202.10179
"5748",88.20296,75.36736,201.93573
"5749",88.216324,75.3576,201.78119
"5750",88.22963,75.36248,201.64099
"5751",88.243,75.37957,201.51315
"5752",88.2563,75.41131,201.4005
"5753",88.26967,75.44793,201.29372
"5754",88.282974,75.494316,201.19785
"5755",88.29634,75.53826,201.10098
"5756",88.30965,75.579765,201.00305
"5757",88.32301,75.61883,200.90398
"5758",88.33632,75.65301,200.80124
"5759",88.349686,75.69695,200.70934
"5760",88.36299,75.789734,200.66765
"5761",88.37636,76.033875,200.78021
"5762",88.38966,76.558784,201.18118
"5763",88.40303,77.48165,201.9965
"5764",88.416336,78.8513,203.28746
"5765",88.4297,80.618904,205.01917
"5766",88.44301,82.65507,207.07468
"5767",88.456375,84.754715,209.2573
"5768",88.46968,86.70786,211.35902
"5769",88.48305,88.34852,213.2093
"5770",88.49635,89.58144,214.70312
"5771",88.50972,90.36271,215.78381
"5772",88.523026,90.702065,216.447
"5773",88.53639,90.64347,216.72285
"5774",88.5497,90.26261,216.6746
"5775",88.563065,89.65713,216.38983
"5776",88.57637,88.91493,215.94942
"5777",88.58974,88.114136,215.42722
"5778",88.60304,87.308464,214.8751
"5779",88.61641,86.519875,214.31491
"5780",88.629715,85.74349,213.74228
"5781",88.64308,84.98421,213.16248
"5782",88.65639,84.24689,212.58092
"5783",88.669754,83.5584,212.02515
"5784",88.68306,82.95537,211.53331
"5785",88.69643,82.47196,211.14226
"5786",88.70973,82.11551,210.86305
"5787",88.7231,81.87625,210.68991
"5788",88.736404,81.73464,210.60693
"5789",88.74977,81.651634,210.57814
"5790",88.76308,81.59548,210.57361
"5791",88.77644,81.532005,210.56
"5792",88.78975,81.43191,210.50778
"5793",88.803116,81.27322,210.39384
"5794",88.81642,81.04372,210.20413
"5795",88.82979,80.73609,209.92912
"5796",88.843094,80.365,209.58104
"5797",88.85646,79.937744,209.16519
"5798",88.86977,79.48119,208.7067
"5799",88.88313,79.009995,208.21928
"5800",88.89644,78.538795,207.71715
"5801",88.909805,78.08713,207.21982
"5802",88.92311,77.659874,206.73279
"5803",88.93648,77.264366,206.26414
"5804",88.94978,76.90547,205.81976
"5805",88.96315,76.592964,205.41055
"5806",88.976456,76.32685,205.03796
"5807",88.98982,76.104675,204.701
"5808",89.00313,75.92157,204.39616
"5809",89.016495,75.77997,204.1271
"5810",89.0298,75.6701,203.88536
"5811",89.04317,75.59197,203.67192
"5812",89.05647,75.55047,203.49266
"5813",89.06984,75.53094,203.33408
"5814",89.083145,75.53338,203.19685
"5815",89.09651,75.53582,203.05971
"5816",89.10982,75.53826,202.92264
"5817",89.123184,75.5407,202.78564
"5818",89.13649,75.545586,202.65117
"5819",89.14986,75.55047,202.51685
"5820",89.16316,75.560234,202.38756
"5821",89.17653,75.57244,202.26102
"5822",89.189835,75.57488,202.12509
"5823",89.2032,75.56512,201.97704
"5824",89.21651,75.54803,201.82135
"5825",89.22987,75.526054,201.66025
"5826",89.24318,75.4992,201.49358
"5827",89.256546,75.47967,201.33339
"5828",89.26985,75.46746,201.17992
"5829",89.28322,75.46502,201.03583
"5830",89.296524,75.47234,200.90143
"5831",89.30989,75.48699,200.77458
"5832",89.3232,75.50652,200.65308
"5833",89.33656,75.52361,200.52974
"5834",89.34987,75.5407,200.40694
"5835",89.363235,75.55291,200.27979
"5836",89.37654,75.562675,200.15057
"5837",89.38991,75.58465,200.03387
"5838",89.40321,75.6701,199.98134
"5839",89.41658,75.92401,200.09995
"5840",89.429886,76.4831,200.53166
"5841",89.44325,77.452354,201.391
"5842",89.45656,78.86595,202.72499
"5843",89.469925,80.65797,204.48157
"5844",89.48323,82.67704,206.52121
"5845",89.4966,84.71076,208.6386
"5846",89.5099,86.556496,210.63155
"5847",89.52327,88.07263,212.35257
"5848",89.536575,89.17616,213.70837
"5849",89.54994,89.83292,214.65189
"5850",89.56325,90.055084,215.18134
"5851",89.576614,89.89395,215.33443
"5852",89.58992,89.42031,215.16997
"5853",89.60329,88.72694,214.77098
"5854",89.61659,87.89441,214.21117
"5855",89.62996,86.99596,213.55942
"5856",89.643265,86.07309,212.85518
"5857",89.65663,85.15022,212.1221
"5858",89.66994,84.242004,211.37483
"5859",89.683304,83.3753,210.64069
"5860",89.69661,82.579384,209.95026
"5861",89.70998,81.90555,209.35703
"5862",89.72328,81.3904,208.90143
"5863",89.73665,81.05592,208.6104
"5864",89.749954,80.89967,208.48715
"5865",89.76332,80.88747,208.50307
"5866",89.77663,80.9778,208.62114
"5867",89.78999,81.11452,208.78842
"5868",89.8033,81.253685,208.96242
"5869",89.816666,81.3489,209.09682
"5870",89.82997,81.375755,209.16583
"5871",89.84334,81.31228,209.14536
"5872",89.85664,81.15602,209.0301
"5873",89.87001,80.91188,208.8221
"5874",89.883316,80.59449,208.5332
"5875",89.89668,80.21362,208.17091
"5876",89.90999,79.798584,207.76254
"5877",89.923355,79.364006,207.32167
"5878",89.93666,78.91966,206.85745
"5879",89.95003,78.485085,206.38911
"5880",89.96333,78.07004,205.92673
"5881",89.9767,77.679405,205.47578
"5882",89.990005,77.32296,205.04681
"5883",90.00337,77.00313,204.64333
"5884",90.01668,76.72724,204.27379
"5885",90.030045,76.49287,203.93713
"5886",90.04335,76.30732,203.64198
"5887",90.05672,76.17059,203.38986
"5888",90.07002,76.09003,203.18962
"5889",90.08339,76.05585,203.03325
"5890",90.096695,76.06073,202.91487
"5891",90.11006,76.085144,202.81618
"5892",90.12337,76.121765,202.73045
"5893",90.136734,76.16327,202.65076
"5894",90.15004,76.20233,202.56992
"5895",90.16341,76.241394,202.4903
"5896",90.17671,76.27558,202.40703
"5897",90.19008,76.30488,202.31993
"5898",90.203384,76.31953,202.2191
"5899",90.21675,76.32685,202.1114
"5900",90.23006,76.32929,201.99905
"5901",90.24342,76.33173,201.88678
"5902",90.25673,76.33662,201.77702
"5903",90.270096,76.3415,201.66742
"5904",90.2834,76.3415,201.55309
"5905",90.29677,76.33173,201.42899
"5906",90.310074,76.317085,201.2997
"5907",90.32344,76.29267,201.16019
"5908",90.33675,76.25849,201.01015
"5909",90.35011,76.22186,200.8566
"5910",90.36342,76.20233,200.719
"5911",90.376785,76.25605,200.65404
"5912",90.39009,76.49287,200.77385
"5913",90.40346,77.04707,201.21846
"5914",90.41676,78.02121,202.10031
"5915",90.43013,79.447014,203.46428
"5916",90.443436,81.25124,205.25122
"5917",90.4568,83.28008,207.31917
"5918",90.47011,85.32357,209.46516
"5919",90.483475,87.1815,211.48946
"5920",90.49678,88.70496,213.23734
"5921",90.51015,89.813385,214.61778
"5922",90.52345,90.47501,215.58607
"5923",90.53682,90.69962,216.13803
"5924",90.550125,90.53605,216.30882
"5925",90.56349,90.06485,216.16687
"5926",90.5768,89.36904,215.78558
"5927",90.590164,88.52918,215.23851
"5928",90.60347,87.60876,214.58463
"5929",90.61684,86.64927,213.86292
"5930",90.63014,85.67025,213.09169
"5931",90.64351,84.69367,212.29231
"5932",90.656815,83.74883,211.49416
"5933",90.67018,82.879684,210.74216
"5934",90.68349,82.13504,210.08751
"5935",90.69685,81.55398,209.57317
"5936",90.71016,81.16579,209.23354
"5937",90.723526,80.96559,209.06978
"5938",90.73683,80.92409,209.05846
"5939",90.7502,80.99489,209.15814
"5940",90.763504,81.12428,209.31863
"5941",90.77687,81.26101,209.4905
"5942",90.79018,81.356224,209.62512
"5943",90.80354,81.373314,209.6846
"5944",90.81685,81.290306,209.64452
"5945",90.830215,81.10231,209.49684
"5946",90.84352,80.814224,209.24321
"5947",90.85689,80.4358,208.89023
"5948",90.87019,80.00122,208.46927
"5949",90.88356,79.52758,207.99567
"5950",90.896866,79.03685,207.49017
"5951",90.91023,78.54856,206.97179
"5952",90.92354,78.082245,206.46011
"5953",90.936905,77.64034,205.95828
"5954",90.95021,77.23506,205.47926
"5955",90.96358,76.876175,205.03397
"5956",90.97688,76.55634,204.61652
"5957",90.99025,76.280464,204.23302
"5958",91.003555,76.050964,203.88728
"5959",91.01692,75.8703,203.5832
"5960",91.03023,75.7409,203.32475
"5961",91.043594,75.65545,203.1062
"5962",91.0569,75.613945,202.92892
"5963",91.07027,75.60662,202.78453
"5964",91.08357,75.62371,202.66432
"5965",91.09694,75.65789,202.56174
"5966",91.110245,75.70428,202.47243
"5967",91.12361,75.74822,202.38213
"5968",91.13692,75.789734,202.29077
"5969",91.15028,75.8288,202.19826
"5970",91.16359,75.86542,202.10452
"5971",91.176956,75.8996,202.00949
"5972",91.19026,75.931335,201.91309
"5973",91.20363,75.95575,201.81035
"5974",91.216934,75.9704,201.69861
"5975",91.2303,75.96307,201.56535
"5976",91.24361,75.93378,201.4099
"5977",91.25697,75.88739,201.23643
"5978",91.27028,75.841,201.06152
"5979",91.283646,75.83856,200.92911
"5980",91.29695,75.99237,200.95287
"5981",91.31032,76.453804,201.28906
"5982",91.32362,77.349815,202.07425
"5983",91.33699,78.751205,203.39282
"5984",91.350296,80.62379,205.22638
"5985",91.36366,82.82597,207.44806
"5986",91.37697,85.1429,209.8533
"5987",91.390335,87.34753,212.21864
"5988",91.40364,89.254295,214.35503
"5989",91.41701,90.74113,216.13106
"5990",91.43031,91.74944,217.47504
"5991",91.44368,92.27192,218.36469
"5992",91.456985,92.332954,218.80922
"5993",91.47035,92.015564,218.87723
"5994",91.48366,91.41009,218.64723
"5995",91.497025,90.61906,218.21277
"5996",91.51033,89.72793,217.65349
"5997",91.5237,88.80751,217.03706
"5998",91.537,87.89197,216.39676
"5999",91.55037,86.98131,215.73273
"6000",91.563675,86.07797,215.04756
"6001",91.57704,85.186844,214.34637
"6002",91.59035,84.32746,213.64908
"6003",91.603714,83.53399,212.99084
"6004",91.61702,82.847946,212.41524
"6005",91.63039,82.30106,211.95735
"6006",91.64369,81.898224,211.62642
"6007",91.65706,81.62966,211.41718
"6008",91.670364,81.46609,211.30453
"6009",91.68373,81.36843,211.2527
"6010",91.69704,81.29275,211.21979
"6011",91.7104,81.20241,211.16985
"6012",91.72371,81.06813,211.07315
"6013",91.737076,80.86061,210.89902
"6014",91.75038,80.57252,210.63782
"6015",91.76375,80.20874,210.29193
"6016",91.777054,79.77905,209.86877
"6017",91.79042,79.29809,209.3809
"6018",91.80373,78.78783,208.84871
"6019",91.81709,78.2678,208.2908
"6020",91.8304,77.747765,207.71663
"6021",91.843765,77.24483,207.14331
"6022",91.85707,76.77608,206.58846
"6023",91.87044,76.34882,206.06046
"6024",91.88374,75.96307,205.56061
"6025",91.89711,75.62371,205.0951
"6026",91.910416,75.33318,204.6678
"6027",91.92378,75.09392,204.2827
"6028",91.93709,74.91081,203.94627
"6029",91.950455,74.78142,203.65784
"6030",91.96376,74.70084,203.41418
"6031",91.97713,74.6569,203.20464
"6032",91.99043,74.634926,203.01569
"6033",92.0038,74.6276,202.8407
"6034",92.017105,74.63004,202.67525
"6035",92.03047,74.63981,202.5172
"6036",92.04378,74.66178,202.37166
"6037",92.057144,74.69108,202.23413
"6038",92.07045,74.73014,202.10728
"6039",92.08382,74.77409,201.98656
"6040",92.09712,74.81804,201.86719
"6041",92.11049,74.85466,201.74187
"6042",92.123795,74.881516,201.60793
"6043",92.13716,74.89372,201.46017
"6044",92.15047,74.896164,201.30304
"6045",92.16383,74.879074,201.12645
"6046",92.17714,74.85466,200.942
"6047",92.190506,74.83269,200.75923
"6048",92.20381,74.86931,200.63437
"6049",92.21718,75.06706,200.67178
"6050",92.230484,75.58465,201.03522
"6051",92.24385,76.558784,201.87137
"6052",92.25716,78.05295,203.258
"6053",92.27052,80.0354,205.1796
"6054",92.28383,82.36454,207.50984
"6055",92.297195,84.82063,210.03983
"6056",92.3105,87.16441,212.53426
"6057",92.32387,89.20058,214.79431
"6058",92.33717,90.792404,216.67366
"6059",92.35054,91.87152,218.09004
"6060",92.363846,92.42817,219.01767
"6061",92.37721,92.50385,219.48174
"6062",92.39052,92.18646,219.55508
"6063",92.403885,91.58587,219.33531
"6064",92.41719,90.80705,218.91855
"6065",92.43056,89.9501,218.39932
"6066",92.44386,89.07851,217.83867
"6067",92.45723,88.22156,217.26543
"6068",92.470535,87.3695,216.67029
"6069",92.4839,86.51499,216.04608
"6070",92.49721,85.643394,215.37808
"6071",92.510574,84.76692,214.67796
"6072",92.52388,83.91974,213.97975
"6073",92.53725,83.15068,213.33319
"6074",92.55055,82.49882,212.77979
"6075",92.56392,81.98123,212.34029
"6076",92.577225,81.58572,212.00668
"6077",92.59059,81.29763,211.76816
"6078",92.6039,81.08278,211.59386
"6079",92.61726,80.90456,211.44948
"6080",92.63057,80.72877,211.30196
"6081",92.643936,80.52857,211.12454
"6082",92.65724,80.27711,210.8896
"6083",92.67061,79.96216,210.58331
"6084",92.683914,79.57641,210.19638
"6085",92.69728,79.13451,209.74124
"6086",92.71059,78.65598,209.23567
"6087",92.72395,78.15793,208.69562
"6088",92.73726,77.65011,208.13023
"6089",92.750626,77.152054,207.55875
"6090",92.76393,76.67841,206.99611
"6091",92.7773,76.22919,206.44308
"6092",92.7906,75.82147,205.91753
"6093",92.80397,75.45525,205.42073
"6094",92.817276,75.13542,204.95888
"6095",92.83064,74.861984,204.53342
"6096",92.84395,74.63737,204.14824
"6097",92.857315,74.4567,203.79999
"6098",92.87062,74.322426,203.49248
"6099",92.88399,74.23453,203.22716
"6100",92.89729,74.1857,202.99815
"6101",92.91066,74.16861,202.79936
"6102",92.923965,74.16861,202.61713
"6103",92.93733,74.18326,202.44954
"6104",92.95064,74.20035,202.28485
"6105",92.964005,74.22232,202.12558
"6106",92.97731,74.24185,201.96455
"6107",92.99068,74.26139,201.80415
"6108",93.00398,74.28092,201.64435
"6109",93.01735,74.29069,201.47539
"6110",93.030655,74.29557,201.30185
"6111",93.04402,74.29557,201.12358
"6112",93.05733,74.29069,200.94043
"6113",93.070694,74.28336,200.75468
"6114",93.084,74.28092,200.5736
"6115",93.09737,74.288246,200.40219
"6116",93.11067,74.30778,200.24323
"6117",93.12404,74.33219,200.08975
"6118",93.137344,74.36637,199.94681
"6119",93.15071,74.40543,199.80981
"6120",93.16402,74.44694,199.67648
"6121",93.17738,74.48356,199.53957
"6122",93.19069,74.512856,199.39647
"6123",93.204056,74.54948,199.26161
"6124",93.21736,74.6276,199.1694
"6125",93.23073,74.844894,199.21881
"6126",93.24403,75.34783,199.56065
"6127",93.2574,76.29023,200.35767
"6128",93.270706,77.752655,201.70416
"6129",93.28407,79.72045,203.60173
"6130",93.29738,82.06424,205.93678
"6131",93.310745,84.5716,208.50865
"6132",93.32405,86.99107,211.07098
"6133",93.33742,89.110245,213.40863
"6134",93.35072,90.78508,215.36816
"6135",93.36409,91.94476,216.86488
"6136",93.377396,92.57221,217.8656
"6137",93.39076,92.70405,218.39032
"6138",93.40407,92.41352,218.4968
"6139",93.417435,91.81293,218.28412
"6140",93.43074,91.01701,217.85736
"6141",93.44411,90.125885,217.31052
"6142",93.45741,89.21278,216.71385
"6143",93.47078,88.31922,216.10818
"6144",93.484085,87.450066,215.49901
"6145",93.49745,86.590675,214.87244
"6146",93.51076,85.74349,214.23122
"6147",93.524124,84.91585,213.58305
"6148",93.53743,84.137024,212.95786
"6149",93.5508,83.4461,212.39621
"6150",93.5641,82.86992,211.92772
"6151",93.57747,82.42069,211.56818
"6152",93.590775,82.09598,211.3191
"6153",93.60414,81.86893,211.15756
"6154",93.61745,81.70779,211.05482
"6155",93.63081,81.57595,210.97636
"6156",93.64412,81.43679,210.88646
"6157",93.657486,81.26101,210.75558
"6158",93.67079,81.024185,210.55817
"6159",93.68416,80.71656,210.28255
"6160",93.697464,80.343025,209.93141
"6161",93.71083,79.91089,209.51
"6162",93.72414,79.432365,209.02869
"6163",93.7375,78.92943,208.50801
"6164",93.75081,78.41917,207.9643
"6165",93.764175,77.91623,207.41196
"6166",93.77748,77.437706,206.86832
"6167",93.79085,76.99336,206.3439
"6168",93.80415,76.59052,205.8471
"6169",93.81752,76.23895,205.38899
"6170",93.830826,75.93378,204.96628
"6171",93.84419,75.67498,204.58041
"6172",93.8575,75.46258,204.23285
"6173",93.870865,75.29412,203.92259
"6174",93.88417,75.16472,203.64613
"6175",93.89754,75.0695,203.39981
"6176",93.91084,75.003586,203.17981
"6177",93.92421,74.966965,202.98705
"6178",93.937515,74.95232,202.81511
"6179",93.95088,74.95476,202.6598
"6180",93.96419,74.96452,202.5119
"6181",93.977554,74.984055,202.37407
"6182",93.99086,74.99382,202.22708
"6183",94.00423,74.99382,202.07063
"6184",94.01753,74.98894,201.9093
"6185",94.0309,74.97917,201.74294
"6186",94.044205,74.96208,201.56894
"6187",94.05757,74.94499,201.39441
"6188",94.07088,74.92546,201.2169
"6189",94.08424,74.90349,201.03635
"6190",94.09755,74.87663,200.85022
"6191",94.110916,74.844894,200.65837
"6192",94.12422,74.813156,200.46553
"6193",94.13759,74.78874,200.27902
"6194",94.150894,74.76921,200.09663
"6195",94.16426,74.76677,199.93073
"6196",94.17757,74.78386,199.78427
"6197",94.19093,74.82048,199.65788
"6198",94.20424,74.87419,199.54973
"6199",94.217606,74.94499,199.46034
"6200",94.23091,75.02556,199.38293
"6201",94.24428,75.11101,199.31293
"6202",94.25758,75.1989,199.24803
"6203",94.27095,75.27215,199.17125
"6204",94.284256,75.335625,199.08698
"6205",94.29762,75.39422,198.9998
"6206",94.31093,75.48699,198.94864
"6207",94.324295,75.70916,199.02977
"6208",94.3376,76.21454,199.40106
"6209",94.35097,77.14961,200.21783
"6210",94.36427,78.59983,201.57898
"6211",94.37764,80.550545,203.48593
"6212",94.390945,82.87724,205.82983
"6213",94.40431,85.367516,208.41002
"6214",94.41762,87.77722,210.98746
"6215",94.430984,89.89151,213.34479
"6216",94.44429,91.57122,215.3336
"6217",94.45766,92.74067,216.86465
"6218",94.47096,93.37789,217.90002
"6219",94.48433,93.51461,218.4548
"6220",94.497635,93.22652,218.58904
"6221",94.511,92.62592,218.40176
"6222",94.52431,91.81537,217.98576
"6223",94.537674,90.897385,217.43701
"6224",94.55098,89.94278,216.82295
"6225",94.56435,88.99794,216.18883
"6226",94.57765,88.07019,215.54227
"6227",94.59102,87.16441,214.88869
"6228",94.604324,86.278175,214.22633
"6229",94.61769,85.435875,213.58023
"6230",94.631,84.661934,212.97617
"6231",94.64436,83.99054,212.45045
"6232",94.65767,83.45098,212.0356
"6233",94.671036,83.05058,211.74304
"6234",94.68434,82.774704,211.5625
"6235",94.69771,82.59159,211.4661
"6236",94.71101,82.46708,211.42258
"6237",94.72438,82.35966,211.39226
"6238",94.737686,82.22781,211.33415
"6239",94.75105,82.05203,211.228
"6240",94.76436,81.80545,211.04555
"6241",94.777725,81.480736,210.77725
"6242",94.79103,81.08034,210.42313
"6243",94.8044,80.61158,209.98813
"6244",94.8177,80.08911,209.48477
"6245",94.83107,79.54223,208.94067
"6246",94.844376,78.992905,208.37704
"6247",94.85774,78.45579,207.80846
"6248",94.87105,77.943085,207.2475
"6249",94.884415,77.471886,206.71202
"6250",94.89772,77.03975,206.20088
"6251",94.91109,76.654,205.72263
"6252",94.92439,76.317085,205.28114
"6253",94.93776,76.03143,204.8804
"6254",94.951065,75.79462,204.51956
"6255",94.96443,75.5993,204.19283
"6256",94.97774,75.44549,203.90149
"6257",94.991104,75.33318,203.64685
"6258",95.00441,75.25994,203.42776
"6259",95.01778,75.21843,203.23813
"6260",95.03108,75.1989,203.06917
"6261",95.04445,75.194016,202.91425
"6262",95.057755,75.1989,202.76894
"6263",95.07112,75.20378,202.62378
"6264",95.08443,75.211105,202.48122
"6265",95.09779,75.21599,202.33644
"6266",95.1111,75.21355,202.1845
"6267",95.124466,75.1989,202.02026
"6268",95.13777,75.174484,201.84581
"6269",95.15114,75.13786,201.65839
"6270",95.164444,75.09392,201.4625
"6271",95.17781,75.04509,201.26035
"6272",95.19112,74.99626,201.05667
"6273",95.20448,74.95476,200.8588
"6274",95.21779,74.92058,200.66695
"6275",95.231155,74.89128,200.47891
"6276",95.24446,74.87175,200.29973
"6277",95.25783,74.86687,200.13458
"6278",95.27113,74.87419,199.98149
"6279",95.2845,74.90105,199.84816
"6280",95.297806,74.94011,199.72787
"6281",95.31117,74.99138,199.62102
"6282",95.32448,75.04509,199.5182
"6283",95.337845,75.0988,199.41707
"6284",95.35115,75.14519,199.31029
"6285",95.36452,75.191574,199.20496
"6286",95.37782,75.24773,199.11084
"6287",95.39119,75.34783,199.06244
"6288",95.404495,75.58465,199.15387
"6289",95.41786,76.10712,199.53836
"6290",95.43117,77.0544,200.36398
"6291",95.444534,78.504616,201.72215
"6292",95.45784,80.45777,203.62857
"6293",95.47121,82.78691,205.97202
"6294",95.48451,85.27474,208.54694
"6295",95.49788,87.674675,211.11171
"6296",95.511185,89.77432,213.45119
"6297",95.52455,91.43206,215.41437
"6298",95.53786,92.56489,216.90445
"6299",95.55122,93.15816,217.89037
"6300",95.56453,93.25094,218.39433
"6301",95.577896,92.9189,218.47638
"6302",95.5912,92.26948,218.23067
"6303",95.60457,91.407646,217.75226
"6304",95.617874,90.42863,217.12973
"6305",95.63124,89.408104,216.4351
"6306",95.64455,88.39246,215.71347
"6307",95.65791,87.39147,214.97475
"6308",95.67122,86.417336,214.2316
"6309",95.684586,85.47982,213.49463
"6310",95.69789,84.6009,212.78696
"6311",95.71126,83.82208,212.15192
"6312",95.72456,83.177536,211.62682
"6313",95.73793,82.686806,211.23538
"6314",95.751236,82.35233,210.98488
"6315",95.7646,82.15457,210.86063
"6316",95.77791,82.056915,210.8303
"6317",95.791275,82.01541,210.85309
"6318",95.80458,81.988556,210.88922
"6319",95.81795,81.92752,210.89034
"6320",95.83125,81.80545,210.8285
"6321",95.84462,81.59792,210.6774
"6322",95.857925,81.30251,210.43193
"6323",95.87129,80.919205,210.08932
"6324",95.8846,80.465096,209.66394
"6325",95.897964,79.95972,209.1731
"6326",95.91127,79.41772,208.62984
"6327",95.92464,78.86351,208.05743
"6328",95.93794,78.311745,207.47015
"6329",95.95131,77.786835,206.89249
"6330",95.964615,77.296104,206.3326
"6331",95.97798,76.84932,205.80132
"6332",95.99129,76.453804,205.30734
"6333",96.004654,76.11688,204.8596
"6334",96.01796,75.83856,204.45993
"6335",96.03133,75.60906,204.10039
"6336",96.04463,75.43084,203.78494
"6337",96.058,75.29412,203.50543
"6338",96.071304,75.1989,203.26315
"6339",96.08467,75.14519,203.0594
"6340",96.09798,75.12077,202.88327
"6341",96.11134,75.123215,202.73323
"6342",96.12465,75.14519,202.6028
"6343",96.138016,75.17204,202.47794
"6344",96.15132,75.19646,202.35147
"6345",96.16469,75.21599,202.22089
"6346",96.17799,75.23064,202.08603
"6347",96.19136,75.23796,201.9443
"6348",96.204666,75.23552,201.79305
"6349",96.21803,75.22331,201.63194
"6350",96.23134,75.20378,201.46313
"6351",96.244705,75.17937,201.28883
"6352",96.25801,75.14763,201.10645
"6353",96.27138,75.11101,200.91818
"6354",96.28468,75.07439,200.72878
"6355",96.29805,75.04509,200.54555
"6356",96.311356,75.02312,200.36873
"6357",96.32472,75.00847,200.19855
"6358",96.33803,75.01091,200.045
"6359",96.351395,75.03044,199.90862
"6360",96.3647,75.06462,199.78749
"6361",96.37807,75.10857,199.6772
"6362",96.39137,75.159836,199.5756
"6363",96.40474,75.20622,199.47073
"6364",96.418045,75.245285,199.35999
"6365",96.43141,75.27947,199.24559
"6366",96.44472,75.338066,199.15666
"6367",96.458084,75.50652,199.17943
"6368",96.47139,75.91669,199.44917
"6369",96.48476,76.732124,200.13701
"6370",96.49806,78.048065,201.35083
"6371",96.51143,79.888916,203.13068
"6372",96.524734,82.15457,205.39285
"6373",96.5381,84.647285,207.9529
"6374",96.55141,87.12535,210.57619
"6375",96.56477,89.36416,213.03766
"6376",96.57808,91.19768,215.1638
"6377",96.591446,92.52827,216.84431
"6378",96.60475,93.3193,218.02686
"6379",96.61812,93.58541,218.7092
"6380",96.631424,93.39498,218.94331
"6381",96.64479,92.83589,218.80281
"6382",96.6581,92.02045,218.38849
"6383",96.67146,91.05119,217.79488
"6384",96.68477,90.006256,217.09529
"6385",96.698135,88.93446,216.3362
"6386",96.71144,87.86755,215.5485
"6387",96.72481,86.820175,214.74698
"6388",96.73811,85.8143,213.95424
"6389",96.75148,84.88411,213.20575
"6390",96.764786,84.06134,212.53561
"6391",96.77815,83.39483,211.99602
"6392",96.79146,82.90166,211.60893
"6393",96.804825,82.579384,211.37733
"6394",96.81813,82.4036,211.28217
"6395",96.8315,82.33524,211.28893
"6396",96.8448,82.320595,211.34726
"6397",96.85817,82.31571,211.4149
"6398",96.871475,82.27909,211.45065
"6399",96.88484,82.16922,211.412
"6400",96.89815,81.971466,211.28204
"6401",96.911514,81.671165,211.04335
"6402",96.92482,81.28298,210.7074
"6403",96.93819,80.81911,210.28362
"6404",96.95149,80.29664,209.78674
"6405",96.96486,79.73754,209.23692
"6406",96.978165,79.168686,208.65987
"6407",96.99153,78.59983,208.06503
"6408",97.00484,78.05539,207.47684
"6409",97.0182,77.54513,206.9058
"6410",97.03151,77.07881,206.36278
"6411",97.044876,76.663765,205.85645
"6412",97.05818,76.30244,205.39085
"6413",97.07155,75.99237,204.96524
"6414",97.084854,75.73846,204.58609
"6415",97.09822,75.545586,204.26004
"6416",97.11153,75.403984,203.97923
"6417",97.12489,75.30633,203.73795
"6418",97.1382,75.24773,203.53267
"6419",97.151566,75.22331,203.35974
"6420",97.16487,75.21843,203.20558
"6421",97.17824,75.22575,203.06348
"6422",97.19154,75.2404,202.92892
"6423",97.20491,75.2575,202.79729
"6424",97.218216,75.26971,202.66129
"6425",97.23158,75.27703,202.52078
"6426",97.24489,75.284355,202.38051
"6427",97.258255,75.28191,202.2307
"6428",97.27156,75.267265,202.0686
"6429",97.28493,75.24773,201.90117
"6430",97.29823,75.21843,201.72336
"6431",97.3116,75.176926,201.53242
"6432",97.324905,75.13298,201.33775
"6433",97.33827,75.089035,201.14171
"6434",97.35158,75.052414,200.95161
"6435",97.364944,75.028,200.77258
"6436",97.37825,75.02312,200.61232
"6437",97.39162,75.03288,200.46655
"6438",97.40492,75.04997,200.32841
"6439",97.41829,75.07439,200.19814
"6440",97.431595,75.09636,200.06618
"6441",97.44496,75.106125,199.9227
"6442",97.45827,75.11589,199.77953
"6443",97.471634,75.13786,199.64886
"6444",97.48494,75.211105,199.57016
"6445",97.49831,75.43084,199.64024
"6446",97.51161,75.95087,200.01749
"6447",97.52498,76.92012,200.8602
"6448",97.538284,78.41917,202.263
"6449",97.55165,80.42603,204.22046
"6450",97.56496,82.80888,206.61662
"6451",97.57832,85.35531,209.25082
"6452",97.59163,87.81384,211.87671
"6453",97.604996,89.96719,214.27425
"6454",97.6183,91.66888,216.2874
"6455",97.63167,92.843216,217.82639
"6456",97.64497,93.46822,218.85274
"6457",97.65834,93.573204,219.3786
"6458",97.671646,93.23628,219.46584
"6459",97.68501,92.56245,219.20563
"6460",97.69832,91.663994,218.69975
"6461",97.711685,90.63859,218.03885
"6462",97.72499,89.56191,217.29463
"6463",97.73836,88.47059,216.50212
"6464",97.75166,87.39391,215.69016
"6465",97.76503,86.33921,214.86652
"6466",97.778336,85.330894,214.0563
"6467",97.7917,84.39826,213.29027
"6468",97.80501,83.58526,212.61472
"6469",97.818375,82.92851,212.07
"6470",97.83168,82.44755,211.68056
"6471",97.84505,82.13992,211.44942
"6472",97.85835,81.97391,211.35028
"6473",97.87172,81.90799,211.34605
"6474",97.885025,81.89578,211.39348
"6475",97.89839,81.88602,211.44296
"6476",97.9117,81.829865,211.44576
"6477",97.925064,81.70046,211.37354
"6478",97.93837,81.47341,211.19963
"6479",97.95174,81.146255,210.91852
"6480",97.96504,80.72877,210.53685
"6481",97.97841,80.22827,210.05913
"6482",97.991714,79.674065,209.51205
"6483",98.00508,79.09056,208.91837
"6484",98.01839,78.49973,208.29912
"6485",98.03175,77.92111,207.67361
"6486",98.04506,77.37179,207.05933
"6487",98.058426,76.86153,206.46693
"6488",98.07173,76.40009,205.90742
"6489",98.0851,75.98993,205.38477
"6490",98.098404,75.63592,204.90544
"6491",98.11177,75.34539,204.47853
"6492",98.12508,75.11345,204.10114
"6493",98.13844,74.93034,203.76532
"6494",98.15175,74.79851,203.47505
"6495",98.165115,74.71061,203.22461
"6496",98.17842,74.6569,203.0056
"6497",98.19179,74.63981,202.82153
"6498",98.20509,74.64713,202.66135
"6499",98.21846,74.669106,202.51604
"6500",98.231766,74.69596,202.3763
"6501",98.24513,74.72526,202.23984
"6502",98.25844,74.75456,202.10431
"6503",98.271805,74.77409,201.95992
"6504",98.28511,74.7863,201.8088
"6505",98.29848,74.7863,201.64587
"6506",98.31178,74.776535,201.47318
"6507",98.32515,74.75456,201.28796
"6508",98.338455,74.72526,201.09474
"6509",98.35182,74.6984,200.90305
"6510",98.36513,74.67155,200.71051
"6511",98.378494,74.65934,200.53178
"6512",98.3918,74.65446,200.36
"6513",98.40517,74.65934,200.19783
"6514",98.41847,74.67399,200.04558
"6515",98.43184,74.69108,199.89622
"6516",98.445145,74.70817,199.7474
"6517",98.45851,74.720375,199.59424
"6518",98.47182,74.72282,199.43169
"6519",98.48518,74.72526,199.26921
"6520",98.49849,74.73502,199.11414
"6521",98.511856,74.79607,199.01065
"6522",98.52516,75.00847,199.06042
"6523",98.53853,75.53094,199.42691
"6524",98.551834,76.507515,200.26382
"6525",98.5652,78.01633,201.6635
"6526",98.57851,80.03052,203.61569
"6527",98.59187,82.41337,205.9995
"6528",98.60518,84.93294,208.59448
"6529",98.618546,87.33776,211.15346
"6530",98.63185,89.42031,213.46532
"6531",98.64522,91.04387,215.38326
"6532",98.65852,92.140076,216.82458
"6533",98.67189,92.69428,217.75816
"6534",98.685196,92.73823,218.1988
"6535",98.69856,92.35737,218.21602
"6536",98.71187,91.649345,217.89417
"6537",98.725235,90.71671,217.32558
"6538",98.73854,89.6498,216.59357
"6539",98.75191,88.51942,215.76474
"6540",98.76521,87.36706,214.87862
"6541",98.77858,86.219574,213.96135
"6542",98.791885,85.101395,213.03754
"6543",98.80525,84.0589,212.15446
"6544",98.81856,83.13847,211.36089
"6545",98.831924,82.39384,210.71432
"6546",98.84523,81.849396,210.24469
"6547",98.8586,81.5198,209.97289
"6548",98.8719,81.38552,209.88611
"6549",98.88527,81.39773,209.94162
"6550",98.898575,81.50027,210.08784
"6551",98.91194,81.63943,210.2739
"6552",98.92525,81.75906,210.44476
"6553",98.938614,81.81033,210.55101
"6554",98.95192,81.75418,210.55144
"6555",98.96529,81.58083,210.4329
"6556",98.97859,81.287865,210.18935
"6557",98.99196,80.885025,209.82675
"6558",99.005264,80.39918,209.36856
"6559",99.01863,79.852295,208.83415
"6560",99.03194,79.27123,208.24847
"6561",99.0453,78.6804,207.63486
"6562",99.05861,78.101776,207.015
"6563",99.071976,77.55245,206.40636
"6564",99.08528,77.04707,205.8245
"6565",99.09865,76.58808,205.27322
"6566",99.11195,76.18768,204.7662
"6567",99.12532,75.84589,204.30527
"6568",99.138626,75.56512,203.89468
"6569",99.15199,75.35027,203.54124
"6570",99.1653,75.194016,203.23969
"6571",99.178665,75.09392,202.9894
"6572",99.19197,75.04753,202.78969
"6573",99.20534,75.04509,202.63248
"6574",99.21864,75.07683,202.50937
"6575",99.23201,75.13298,202.41167
"6576",99.245316,75.208664,202.33525
"6577",99.25868,75.2868,202.26366
"6578",99.27199,75.36004,202.1896
"6579",99.285355,75.423515,202.10808
"6580",99.29866,75.4699,202.01144
"6581",99.31203,75.50408,201.90405
"6582",99.32533,75.526054,201.78552
"6583",99.3387,75.53826,201.65791
"6584",99.352005,75.543144,201.52336
"6585",99.36537,75.543144,201.38408
"6586",99.37868,75.53582,201.23747
"6587",99.392044,75.51629,201.07843
"6588",99.40535,75.48455,200.90657
"6589",99.41872,75.43816,200.71907
"6590",99.43202,75.37957,200.51791
"6591",99.44539,75.31365,200.3076
"6592",99.458694,75.267265,200.11476
"6593",99.47206,75.30633,200.00592
"6594",99.48537,75.55779,200.1107
"6595",99.49873,76.18036,200.59445
"6596",99.51204,77.30343,201.59816
"6597",99.525406,78.95628,203.16675
"6598",99.53871,81.06325,205.24109
"6599",99.55208,83.45098,207.66205
"6600",99.565384,85.875336,210.19424
"6601",99.57875,88.10193,212.60445
"6602",99.59206,89.96719,214.7229
"6603",99.60542,91.353935,216.42111
"6604",99.61873,92.22064,217.64262
"6605",99.632095,92.56977,218.37364
"6606",99.6454,92.45258,218.64926
"6607",99.65877,91.947205,218.53302
"6608",99.67207,91.16106,218.12022
"6609",99.68544,90.18448,217.49243
"6610",99.698746,89.0956,216.72182
"6611",99.71211,87.938354,215.84882
"6612",99.72542,86.75426,214.9128
"6613",99.738785,85.56771,213.93732
"6614",99.75209,84.43,212.9736
"6615",99.76546,83.39483,212.07687
"6616",99.77876,82.533,211.32114
"6617",99.79213,81.8909,210.7582
"6618",99.805435,81.48562,210.412
"6619",99.8188,81.30984,210.28265
"6620",99.83211,81.31716,210.33092
"6621",99.845474,81.43923,210.49416
"6622",99.85878,81.61257,210.71248
"6623",99.87215,81.778595,210.9289
"6624",99.88545,81.87869,211.08458
"6625",99.89882,81.87381,211.13841
"6626",99.912125,81.74197,211.06512
"6627",99.92549,81.480736,210.85834
"6628",99.9388,81.10231,210.52618
"6629",99.95216,80.62867,210.08699
"6630",99.96547,80.08423,209.5622
"6631",99.978836,79.50561,208.9862
"6632",99.99214,78.91478,208.37993
"6633",100.00551,78.331276,207.76251
"6634",100.018814,77.769745,207.14883
"6635",100.03218,77.24727,206.55666
"6636",100.04549,76.76631,205.98967
"6637",100.05885,76.34394,205.46625
"6638",100.07216,75.982605,204.99066
"6639",100.085526,75.68719,204.5697
"6640",100.09883,75.46258,204.21031
"6641",100.1122,75.299,203.90494
"6642",100.1255,75.191574,203.6506
"6643",100.13887,75.13786,203.44662
"6644",100.152176,75.1281,203.28491
"6645",100.16554,75.15007,203.15463
"6646",100.17885,75.1989,203.0519
"6647",100.192215,75.264824,202.96779
"6648",100.20552,75.34051,202.8955
"6649",100.21889,75.41863,202.828
"6650",100.23219,75.48943,202.75563
"6651",100.24556,75.55535,202.68059
"6652",100.258865,75.60418,202.59052
"6653",100.27223,75.62615,202.47511
"6654",100.28554,75.62127,202.33354
"6655",100.298904,75.58465,202.16008
"6656",100.31221,75.51629,201.95374
"6657",100.32558,75.423515,201.72084
"6658",100.33888,75.33318,201.48749
"6659",100.35225,75.29168,201.30014
"6660",100.365555,75.41619,201.27751
"6661",100.37892,75.860535,201.57861
"6662",100.39223,76.7834,202.37212
"6663",100.405594,78.27268,203.76088
"6664",100.4189,80.306404,205.74062
"6665",100.43227,82.75517,208.19896
"6666",100.44557,85.38705,210.91693
"6667",100.45894,87.94568,213.6439
"6668",100.472244,90.1918,216.13834
"6669",100.48561,91.97162,218.23665
"6670",100.49892,93.19722,219.83636
"6671",100.51228,93.84665,220.89821
"6672",100.52559,93.95651,221.44078
"6673",100.538956,93.61959,221.54
"6674",100.55226,92.95308,221.29909
"6675",100.56563,92.07416,220.82495
"6676",100.57893,91.087814,220.21593
"6677",100.5923,90.06729,219.5419
"6678",100.605606,89.04677,218.83598
"6679",100.61897,88.026245,218.09818
"6680",100.63228,87.00328,217.32603
"6681",100.645645,85.98276,216.52437
"6682",100.65895,84.98909,215.71767
"6683",100.67232,84.068665,214.95316
"6684",100.68562,83.267876,214.27951
"6685",100.69899,82.62089,213.73465
"6686",100.712296,82.13992,213.33559
"6687",100.72566,81.79813,213.06067
"6688",100.73897,81.566185,212.88492
"6689",100.752335,81.40505,212.77274
"6690",100.76564,81.26589,212.67749
"6691",100.77901,81.10475,212.55591
"6692",100.79231,80.88747,212.37315
"6693",100.80568,80.58961,212.10303
"6694",100.818985,80.198975,211.73082
"6695",100.83235,79.71801,211.25607
"6696",100.84566,79.166245,210.6955
"6697",100.859024,78.56565,210.06885
"6698",100.87233,77.94064,209.39902
"6699",100.8857,77.31808,208.7121
"6700",100.899,76.71992,208.03012
"6701",100.91237,76.155945,207.36365
"6702",100.925674,75.63592,206.7235
"6703",100.93904,75.17204,206.12325
"6704",100.95235,74.76433,205.56465
"6705",100.96571,74.41764,205.05435
"6706",100.97902,74.13687,204.59914
"6707",100.992386,73.92203,204.20107
"6708",101.00569,73.763336,203.85243
"6709",101.01906,73.653465,203.54767
"6710",101.032364,73.58755,203.28342
"6711",101.04573,73.55825,203.05373
"6712",101.05904,73.55825,202.85242
"6713",101.0724,73.57534,202.6682
"6714",101.08571,73.60708,202.49916
"6715",101.099075,73.64858,202.34088
"6716",101.11238,73.687645,202.18146
"6717",101.12575,73.72671,202.02325
"6718",101.13905,73.763336,201.86385
"6719",101.15242,73.8024,201.70801
"6720",101.165726,73.83902,201.55095
"6721",101.17909,73.86832,201.38771
"6722",101.1924,73.89029,201.21806
"6723",101.205765,73.89273,201.02957
"6724",101.21907,73.8732,200.81918
"6725",101.23244,73.83658,200.5911
"6726",101.24574,73.79019,200.3521
"6727",101.25911,73.76578,200.13362
"6728",101.272415,73.85855,200.03157
"6729",101.28578,74.21744,200.19853
"6730",101.29909,75.018234,200.81862
"6731",101.312454,76.39033,202.03503
"6732",101.32576,78.37278,203.90468
"6733",101.33913,80.885025,206.36607
"6734",101.35243,83.719536,209.22824
"6735",101.3658,86.60044,212.22539
"6736",101.379105,89.2665,215.09772
"6737",101.39247,91.50286,217.62366
"6738",101.40578,93.18257,219.66283
"6739",101.41914,94.24948,221.1417
"6740",101.43245,94.728004,222.0655
"6741",101.445816,94.693825,222.49158
"6742",101.45912,94.26902,222.52596
"6743",101.47249,93.58541,222.28825
"6744",101.485794,92.755325,221.8827
"6745",101.49916,91.86908,221.39507
"6746",101.51247,90.97795,220.87485
"6747",101.52583,90.089264,220.32922
"6748",101.53914,89.17128,219.72653
"6749",101.552505,88.19714,219.039
"6750",101.56581,87.16197,218.26
"6751",101.57918,86.09018,217.41202
"6752",101.59248,85.02571,216.53787
"6753",101.60585,84.034485,215.7037
"6754",101.619156,83.16289,214.95819
"6755",101.63252,82.43778,214.33192
"6756",101.64583,81.85916,213.82948
"6757",101.659195,81.409935,213.43835
"6758",101.6725,81.05592,213.1284
"6759",101.68587,80.76051,212.866
"6760",101.69917,80.479744,212.609
"6761",101.71254,80.177,212.32124
"6762",101.725845,79.818115,211.9679
"6763",101.73921,79.38598,211.53008
"6764",101.75252,78.88548,211.01039
"6765",101.765884,78.32395,210.41403
"6766",101.77919,77.72823,209.76593
"6767",101.79256,77.11543,209.08214
"6768",101.80586,76.507515,208.38408
"6769",101.81923,75.914246,207.68167
"6770",101.832535,75.352715,206.99246
"6771",101.8459,74.830246,206.32477
"6772",101.85921,74.35905,205.69202
"6773",101.872574,73.94156,205.09825
"6774",101.88588,73.58999,204.55736
"6775",101.89925,73.306786,204.07384
"6776",101.91255,73.08705,203.64494
"6777",101.92592,72.92348,203.26534
"6778",101.939224,72.816055,202.93677
"6779",101.95259,72.75258,202.64879
"6780",101.9659,72.72083,202.39056
"6781",101.97926,72.71595,202.1582
"6782",101.99257,72.72816,201.94278
"6783",102.005936,72.75258,201.73996
"6784",102.01924,72.781876,201.54277
"6785",102.03261,72.813614,201.34894
"6786",102.04591,72.84535,201.1561
"6787",102.05928,72.87221,200.95937
"6788",102.072586,72.89174,200.75615
"6789",102.08595,72.903946,200.54622
"6790",102.09926,72.903946,200.32446
"6791",102.112625,72.89662,200.09538
"6792",102.12593,72.88197,199.85875
"6793",102.1393,72.867325,199.62166
"6794",102.1526,72.85512,199.38655
"6795",102.16597,72.850235,199.15839
"6796",102.179276,72.85512,198.93983
"6797",102.19264,72.86977,198.7312
"6798",102.20595,72.89418,198.53279
"6799",102.219315,72.92592,198.34247
"6800",102.23262,72.96498,198.16046
"6801",102.24599,73.01625,197.99188
"6802",102.25929,73.0724,197.82979
"6803",102.27266,73.13588,197.67677
"6804",102.285965,73.216446,197.54283
"6805",102.29933,73.31411,197.42851
"6806",102.31264,73.426414,197.33188
"6807",102.326004,73.56069,197.26073
"6808",102.33931,73.704735,197.20354
"6809",102.35268,73.86099,197.16307
"6810",102.36598,74.02457,197.1348
"6811",102.37935,74.19302,197.11652
"6812",102.392654,74.35905,197.10107
"6813",102.40602,74.51774,197.08348
"6814",102.41933,74.6569,197.05132
"6815",102.43269,74.77165,196.9991
"6816",102.446,74.86687,196.93092
"6817",102.459366,74.96208,196.86572
"6818",102.47267,75.13054,196.87674
"6819",102.48604,75.51629,197.11032
"6820",102.499344,76.31953,197.77344
"6821",102.51271,77.70626,199.04515
"6822",102.52602,79.7522,201.01941
"6823",102.53938,82.4036,203.66307
"6824",102.55269,85.470055,206.80464
"6825",102.566055,88.66346,210.16899
"6826",102.57936,91.68108,213.45735
"6827",102.59273,94.28123,216.42253
"6828",102.60603,96.31739,218.90498
"6829",102.6194,97.70901,220.80652
"6830",102.632706,98.45365,222.10457
"6831",102.64607,98.60746,222.83505
"6832",102.65938,98.285194,223.09427
"6833",102.672745,97.60891,222.9894
"6834",102.68605,96.71046,222.64122
"6835",102.69942,95.70214,222.1551
"6836",102.71272,94.66453,221.60818
"6837",102.72609,93.62936,221.03128
"6838",102.739395,92.60395,220.4318
"6839",102.75276,91.56634,219.78806
"6840",102.76607,90.50431,219.08748
"6841",102.779434,89.42519,218.33662
"6842",102.79274,88.35584,217.56181
"6843",102.80611,87.3402,216.8073
"6844",102.81941,86.42466,216.12114
"6845",102.83278,85.63607,215.53333
"6846",102.846085,84.981766,215.05515
"6847",102.85945,84.44221,214.67126
"6848",102.87276,83.99542,214.3633
"6849",102.88612,83.60235,214.09508
"6850",102.89943,83.22392,213.82922
"6851",102.912796,82.82597,213.53203
"6852",102.9261,82.388954,213.18332
"6853",102.93947,81.89578,212.7648
"6854",102.952774,81.341576,212.26984
"6855",102.96614,80.73365,211.70384
"6856",102.97945,80.076904,211.07002
"6857",102.99281,79.38842,210.38394
"6858",103.00612,78.68528,209.66168
"6859",103.019485,77.99191,208.92723
"6860",103.03279,77.32784,208.20041
"6861",103.04616,76.70771,207.49677
"6862",103.05946,76.1413,206.82747
"6863",103.07283,75.63348,206.19907
"6864",103.086136,75.18913,205.61827
"6865",103.0995,74.80583,205.08463
"6866",103.11281,74.48112,204.5976
"6867",103.126175,74.22476,204.16878
"6868",103.13948,74.02457,203.7881
"6869",103.15285,73.86832,203.44511
"6870",103.16615,73.75601,203.14119
"6871",103.17952,73.67544,202.8655
"6872",103.192825,73.616844,202.60925
"6873",103.20619,73.57778,202.37071
"6874",103.2195,73.56313,202.15536
"6875",103.232864,73.55337,201.94444
"6876",103.24617,73.548485,201.7381
"6877",103.25954,73.54116,201.52916
"6878",103.27284,73.52651,201.31267
"6879",103.28621,73.49966,201.08351
"6880",103.299515,73.46548,200.84619
"6881",103.31288,73.42153,200.59804
"6882",103.32619,73.37759,200.34851
"6883",103.339554,73.32632,200.09029
"6884",103.35286,73.28237,199.83778
"6885",103.36623,73.2433,199.58879
"6886",103.37953,73.20668,199.34102
"6887",103.3929,73.17738,199.09943
"6888",103.406204,73.15297,198.8618
"6889",103.41957,73.131,198.62585
"6890",103.43288,73.11879,198.39899
"6891",103.44624,73.12123,198.18639
"6892",103.45955,73.14076,197.99095
"6893",103.472916,73.18227,197.8181
"6894",103.48622,73.2433,197.66608
"6895",103.49959,73.321434,197.53307
"6896",103.51289,73.411766,197.41469
"6897",103.52626,73.51675,197.31378
"6898",103.539566,73.633934,197.22836
"6899",103.55293,73.760895,197.15639
"6900",103.56624,73.900055,197.10057
"6901",103.579605,74.04898,197.05887
"6902",103.59291,74.20035,197.02426
"6903",103.60628,74.34684,196.98952
"6904",103.61958,74.48112,196.94713
"6905",103.63295,74.59098,196.88452
"6906",103.646255,74.67887,196.80338
"6907",103.65962,74.757,196.71523
"6908",103.67293,74.87175,196.66612
"6909",103.686295,75.14519,196.7793
"6910",103.6996,75.775085,197.25748
"6911",103.71297,76.93721,198.28757
"6912",103.72627,78.73899,199.99364
"6913",103.73964,81.163345,202.37859
"6914",103.752945,84.051575,205.30318
"6915",103.76631,87.132675,208.5109
"6916",103.77962,90.108795,211.70992
"6917",103.792984,92.72846,214.64548
"6918",103.80629,94.83299,217.14777
"6919",103.81966,96.33448,219.1128
"6920",103.83296,97.213394,220.50217
"6921",103.84633,97.50393,221.33063
"6922",103.859634,97.289085,221.66278
"6923",103.873,96.67628,221.59026
"6924",103.88631,95.79004,221.22516
"6925",103.89967,94.74021,220.66876
"6926",103.91298,93.61715,220.00633
"6927",103.926346,92.48432,219.29904
"6928",103.93965,91.35882,218.56367
"6929",103.95302,90.24063,217.80045
"6930",103.966324,89.127335,217.00717
"6931",103.97969,88.03113,216.1962
"6932",103.993,86.98375,215.3998
"6933",104.00636,86.0267,214.661
"6934",104.01967,85.20393,214.02657
"6935",104.033035,84.542305,213.52756
"6936",104.04634,84.03937,213.16656
"6937",104.05971,83.66827,212.92169
"6938",104.07301,83.38506,212.75313
"6939",104.08638,83.14824,212.62209
"6940",104.099686,82.91875,212.49098
"6941",104.11305,82.65751,212.32095
"6942",104.12636,82.3328,212.0793
"6943",104.139725,81.92508,211.74448
"6944",104.15303,81.42947,211.30902
"6945",104.1664,80.85817,210.7824
"6946",104.1797,80.22583,210.17688
"6947",104.19307,79.551994,209.5101
"6948",104.206375,78.86107,208.80518
"6949",104.21974,78.17258,208.08109
"6950",104.23305,77.51095,207.36235
"6951",104.246414,76.8835,206.65712
"6952",104.25972,76.299995,205.97623
"6953",104.27309,75.772644,205.33325
"6954",104.28639,75.30389,204.73239
"6955",104.29976,74.896164,204.17792
"6956",104.313065,74.55192,203.67418
"6957",104.32643,74.2736,203.2256
"6958",104.33974,74.06119,202.83424
"6959",104.3531,73.90982,202.49728
"6960",104.36641,73.812164,202.2093
"6961",104.379776,73.75845,201.96222
"6962",104.39308,73.73647,201.7452
"6963",104.40645,73.741356,201.55434
"6964",104.419754,73.75601,201.37341
"6965",104.43312,73.777985,201.20026
"6966",104.44643,73.79996,201.02779
"6967",104.45979,73.81949,200.85356
"6968",104.4731,73.829254,200.67018
"6969",104.486465,73.83414,200.48222
"6970",104.49977,73.829254,200.28465
"6971",104.51314,73.812164,200.07472
"6972",104.52644,73.78287,199.85205
"6973",104.53981,73.7438,199.6187
"6974",104.553116,73.69985,199.37924
"6975",104.56648,73.63882,199.12132
"6976",104.57979,73.58022,198.86394
"6977",104.593155,73.52651,198.6096
"6978",104.60646,73.48501,198.3658
"6979",104.61983,73.45327,198.13046
"6980",104.63313,73.443504,197.9161
"6981",104.6465,73.45083,197.71854
"6982",104.659805,73.47524,197.53828
"6983",104.67317,73.514305,197.37344
"6984",104.68648,73.5729,197.22935
"6985",104.699844,73.651024,197.10663
"6986",104.71315,73.74868,197.00587
"6987",104.72652,73.85855,196.9204
"6988",104.73982,73.9733,196.84322
"6989",104.75319,74.092926,196.7745
"6990",104.766495,74.20523,196.70221
"6991",104.77986,74.302895,196.61879
"6992",104.79317,74.38346,196.52132
"6993",104.80653,74.47135,196.43369
"6994",104.81984,74.64225,196.43181
"6995",104.833206,75.054855,196.67699
"6996",104.84651,75.914246,197.38184
"6997",104.85988,77.38155,198.72147
"6998",104.873184,79.49828,200.75636
"6999",104.88655,82.161896,203.4043
"7000",104.89986,85.13313,206.4431
"7001",104.91322,88.11658,209.58696
"7002",104.92653,90.83635,212.56038
"7003",104.939896,93.09712,215.15979
"7004",104.9532,94.80614,217.27809
"7005",104.96657,95.9292,218.86385
"7006",104.97987,96.46876,219.90118
"7007",104.99324,96.47608,220.42316
"7008",105.006546,96.03662,220.49857
"7009",105.01991,95.25292,220.216
"7010",105.03322,94.23483,219.67456
"7011",105.046585,93.07759,218.96216
"7012",105.05989,91.8642,218.15744
"7013",105.07326,90.63859,217.30258
"7014",105.08656,89.42519,216.42165
"7015",105.09993,88.22644,215.51743
"7016",105.113235,87.061874,214.60994
"7017",105.1266,85.96323,213.73198
"7018",105.13991,84.97444,212.92955
"7019",105.153275,84.14679,212.25735
"7020",105.16658,83.509575,211.74973
"7021",105.17995,83.06767,211.4175
"7022",105.19325,82.78691,211.2326
"7023",105.20662,82.62333,211.15611
"7024",105.219925,82.52567,211.14044
"7025",105.23329,82.45487,211.14857
"7026",105.2466,82.36454,211.13496
"7027",105.259964,82.22537,211.06969
"7028",105.27327,82.005646,210.91951
"7029",105.28664,81.685814,210.66235
"7030",105.29994,81.25857,210.2878
"7031",105.31331,80.73609,209.80466
"7032",105.326614,80.1355,209.22707
"7033",105.33998,79.48119,208.577
"7034",105.35329,78.79759,207.87718
"7035",105.36665,78.11154,207.15355
"7036",105.37996,77.44259,206.42558
"7037",105.393326,76.81026,205.71333
"7038",105.40663,76.22919,205.03258
"7039",105.42,75.70916,204.39471
"7040",105.433304,75.25506,203.80652
"7041",105.44667,74.87175,203.27493
"7042",105.45998,74.5568,202.79973
"7043",105.47334,74.3151,202.38792
"7044",105.48665,74.14664,202.04181
"7045",105.500015,74.056305,201.76855
"7046",105.51332,74.04166,201.56816
"7047",105.52669,74.09781,201.43811
"7048",105.53999,74.21011,201.36597
"7049",105.55336,74.35905,201.33397
"7050",105.566666,74.51774,201.31638
"7051",105.58003,74.67399,201.3013
"7052",105.59334,74.8156,201.27647
"7053",105.606705,74.94499,201.24385
"7054",105.62001,75.054855,201.19574
"7055",105.63338,75.15495,201.1413
"7056",105.64668,75.23308,201.06801
"7057",105.66005,75.29168,200.97765
"7058",105.673355,75.32342,200.86224
"7059",105.68672,75.3283,200.72098
"7060",105.70003,75.30877,200.55545
"7061",105.713394,75.27459,200.37466
"7062",105.7267,75.228195,200.1806
"7063",105.74007,75.17937,199.98265
"7064",105.75337,75.13786,199.7905
"7065",105.76674,75.10857,199.60925
"7066",105.780045,75.10124,199.44907
"7067",105.79341,75.11833,199.31306
"7068",105.80672,75.16716,199.20934
"7069",105.82008,75.23308,199.12422
"7070",105.83339,75.30633,199.04851
"7071",105.846756,75.369804,198.9653
"7072",105.86006,75.41131,198.8621
"7073",105.87343,75.43572,198.74312
"7074",105.886734,75.494316,198.65907
"7075",105.9001,75.72381,198.74776
"7076",105.91341,76.32197,199.21228
"7077",105.92677,77.46456,200.23993
"7078",105.94008,79.22972,201.92586
"7079",105.953445,81.55154,204.2236
"7080",105.96675,84.22247,206.94302
"7081",105.98012,86.959335,209.81184
"7082",105.99342,89.48623,212.55621
"7083",106.00679,91.61028,214.97672
"7084",106.020096,93.23872,216.96797
"7085",106.03346,94.34959,218.49254
"7086",106.04677,94.94774,219.53911
"7087",106.060135,95.07225,220.13074
"7088",106.07344,94.784164,220.31366
"7089",106.08681,94.168915,220.16042
"7090",106.10011,93.32174,219.75601
"7091",106.11348,92.31342,219.164
"7092",106.126785,91.20256,218.43793
"7093",106.14015,90.020905,217.60635
"7094",106.15346,88.77821,216.67682
"7095",106.166824,87.49645,215.66937
"7096",106.18013,86.20981,214.61699
"7097",106.1935,84.979324,213.58057
"7098",106.2068,83.878235,212.63509
"7099",106.22017,82.97002,211.84807
"7100",106.233475,82.29374,211.2646
"7101",106.24684,81.846954,210.8895
"7102",106.26015,81.58816,210.68842
"7103",106.27351,81.461205,210.6111
"7104",106.28682,81.39529,210.59085
"7105",106.300186,81.32937,210.56854
"7106",106.31349,81.2195,210.50021
"7107",106.32686,81.03883,210.35767
"7108",106.340164,80.77028,210.12158
"7109",106.35353,80.42359,209.79897
"7110",106.36684,80.01099,209.3996
"7111",106.3802,79.54223,208.93118
"7112",106.39351,79.027084,208.40173
"7113",106.406876,78.4802,207.82445
"7114",106.42018,77.925995,207.22275
"7115",106.43355,77.38888,206.62082
"7116",106.44685,76.90791,206.05826
"7117",106.46022,76.50996,205.56367
"7118",106.473526,76.224304,205.16896
"7119",106.48689,76.04852,204.87518
"7120",106.5002,75.9704,204.67357
"7121",106.513565,75.95331,204.53055
"7122",106.52687,75.97284,204.42361
"7123",106.54024,76.00214,204.32706
"7124",106.55354,76.02899,204.22897
"7125",106.56691,76.053406,204.12929
"7126",106.580215,76.087585,204.04013
"7127",106.59358,76.14618,203.97646
"7128",106.60689,76.23651,203.94635
"7129",106.620255,76.36103,203.95326
"7130",106.63356,76.52949,204.008
"7131",106.64693,76.73701,204.10706
"7132",106.66023,76.961624,204.2297
"7133",106.6736,77.16426,204.33739
"7134",106.686905,77.30099,204.3855
"7135",106.70027,77.315636,204.3158
"7136",106.71358,77.18623,204.10251
"7137",106.726944,76.912796,203.74113
"7138",106.74025,76.53437,203.26624
"7139",106.75362,76.11688,202.74045
"7140",106.76692,75.7116,202.21382
"7141",106.78029,75.38445,201.75266
"7142",106.793594,75.18425,201.40822
"7143",106.80696,75.17204,201.24551
"7144",106.82027,75.440605,201.3632
"7145",106.83363,76.09735,201.87747
"7146",106.84694,77.19844,202.8566
"7147",106.860306,78.71702,204.28763
"7148",106.87361,80.57252,206.10303
"7149",106.88698,82.633095,208.1815
"7150",106.90028,84.701,210.3317
"7151",106.91365,86.598,212.37561
"7152",106.926956,88.19226,214.17606
"7153",106.94032,89.38857,215.62837
"7154",106.95363,90.11368,216.64687
"7155",106.966995,90.33585,217.18509
"7156",106.9803,90.06241,217.23463
"7157",106.99367,89.32021,216.80688
"7158",107.00697,88.17761,215.95554
"7159",107.02034,86.729836,214.7633
"7160",107.033646,85.101395,213.34517
"7161",107.04701,83.407036,211.81023
"7162",107.06032,81.739525,210.24919
"7163",107.073685,80.16968,208.7337
"7164",107.08699,78.73167,207.301
"7165",107.10036,77.44259,205.97227
"7166",107.11366,76.33173,204.7815
"7167",107.12703,75.44305,203.77817
"7168",107.140335,74.810715,203.00343
"7169",107.1537,74.43961,202.47017
"7170",107.16701,74.31266,202.16945
"7171",107.180374,74.37858,202.05763
"7172",107.19368,74.56657,202.06995
"7173",107.20705,74.80583,202.13942
"7174",107.22035,75.04753,202.2188
"7175",107.23372,75.26971,202.28621
"7176",107.247025,75.46746,202.33614
"7177",107.26039,75.64568,202.37271
"7178",107.2737,75.79462,202.38557
"7179",107.28706,75.90204,202.36157
"7180",107.30037,75.96796,202.29942
"7181",107.313736,76.00946,202.21492
"7182",107.32704,76.0412,202.12195
"7183",107.34041,76.085144,202.04218
"7184",107.353714,76.14862,201.9833
"7185",107.36708,76.224304,201.93863
"7186",107.38039,76.29511,201.89145
"7187",107.39375,76.33906,201.81961
"7188",107.40706,76.30976,201.6759
"7189",107.420425,76.16083,201.41165
"7190",107.43373,75.88983,201.02068
"7191",107.4471,75.53338,200.53578
"7192",107.4604,75.159836,200.02266
"7193",107.47377,74.85222,199.56378
"7194",107.487076,74.683754,199.23445
"7195",107.50044,74.686195,199.07076
"7196",107.51375,74.82048,199.03899
"7197",107.527115,75.003586,199.06023
"7198",107.54042,75.17204,199.07254
"7199",107.55379,75.31365,199.06328
"7200",107.56709,75.44305,199.04622
"7201",107.58046,75.58953,199.0503
"7202",107.593765,75.78729,199.11023
"7203",107.60713,76.050964,199.24225
"7204",107.62044,76.387886,199.45576
"7205",107.633804,76.78584,199.74084
"7206",107.64711,77.29122,200.14578
"7207",107.67378,79.00755,201.71486
"7208",107.68715,80.37965,203.05594
"7209",107.700455,82.11307,204.80122
"7210",107.71382,84.11749,206.87169
"7211",107.72713,86.2269,209.10977
"7212",107.74049,88.24353,211.321
"7213",107.7538,89.99161,213.32669
"7214",107.767166,91.351494,214.99881
"7215",107.78047,92.25971,216.26176
"7216",107.79384,92.75044,217.1356
"7217",107.807144,92.88716,217.67078
"7218",107.82051,92.755325,217.94167
"7219",107.83382,92.4477,218.03264
"7220",107.84718,92.04486,218.01878
"7221",107.86049,91.58587,217.93619
"7222",107.873856,91.08049,217.79286
"7223",107.88716,90.5214,217.58003
"7224",107.90053,89.88663,217.27405
"7225",107.91383,89.14931,216.84569
"7226",107.9272,88.30213,216.28442
"7227",107.940506,87.3695,215.61124
"7228",107.95387,86.400246,214.87228
"7229",107.96718,85.46517,214.13722
"7230",107.980545,84.61555,213.45839
"7231",107.99385,83.89044,212.87752
"7232",108.00722,83.31182,212.42047
"7233",108.02052,82.85771,212.06985
"7234",108.03389,82.48661,211.78806
"7235",108.047195,82.144806,211.52396
"7236",108.06056,81.81766,211.26384
"7237",108.07387,81.50027,211.00325
"7238",108.087234,81.1902,210.74007
"7239",108.10054,80.88747,210.47453
"7240",108.11391,80.59693,210.21173
"7241",108.12721,80.306404,209.93987
"7242",108.14058,79.98901,209.63205
"7243",108.153885,79.62035,209.26305
"7244",108.16725,79.183334,208.81416
"7245",108.18056,78.67307,208.27838
"7246",108.193924,78.11398,207.67783
"7247",108.20723,77.54757,207.05247
"7248",108.2206,77.015335,206.4436
"7249",108.2339,76.561226,205.89622
"7250",108.24727,76.21698,205.44452
"7251",108.260574,75.98016,205.08948
"7252",108.27394,75.82147,204.80516
"7253",108.28725,75.7116,204.56471
"7254",108.30061,75.64568,204.36478
"7255",108.31392,75.613945,204.19696
"7256",108.327286,75.59441,204.04036
"7257",108.34059,75.562675,203.87094
"7258",108.35396,75.48699,203.65659
"7259",108.36726,75.335625,203.36418
"7260",108.38063,75.08415,202.96695
"7261",108.393936,74.73258,202.46176
"7262",108.4073,74.30045,201.86502
"7263",108.42061,73.83658,201.22304
"7264",108.433975,73.40444,200.5983
"7265",108.44728,73.126114,200.11386
"7266",108.46065,73.17494,199.94788
"7267",108.47395,73.73159,200.29124
"7268",108.48732,74.89128,201.25505
"7269",108.500626,76.63935,202.84348
"7270",108.51399,78.84398,204.94308
"7271",108.5273,81.29763,207.36061
"7272",108.540665,83.75372,209.85725
"7273",108.55397,86.012054,212.2329
"7274",108.56734,87.94812,214.35684
"7275",108.58064,89.51797,216.17506
"7276",108.59401,90.70939,217.66393
"7277",108.607315,91.6054,218.8946
"7278",108.62068,92.32563,219.97751
"7279",108.63399,92.95796,220.99501
"7280",108.647354,93.487755,221.92973
"7281",108.66066,93.856415,222.71988
"7282",108.67403,93.99802,223.2945
"7283",108.68733,93.832,223.56592
"7284",108.7007,93.33639,223.50255
"7285",108.714005,92.59663,223.17955
"7286",108.72737,91.75433,222.7309
"7287",108.74068,90.94133,222.28522
"7288",108.75404,90.26505,221.95085
"7289",108.76735,89.78165,221.78822
"7290",108.780716,89.47158,221.78383
"7291",108.79402,89.22743,221.83566
"7292",108.80739,88.92714,221.82373
"7293",108.820694,88.47059,221.64615
"7294",108.83406,87.8114,221.25166
"7295",108.84737,86.94957,220.63394
"7296",108.86073,85.926605,219.82816
"7297",108.87404,84.78645,218.87321
"7298",108.887405,83.57061,217.80695
"7299",108.90071,82.30839,216.65631
"7300",108.91408,81.02907,215.44913
"7301",108.92738,79.744865,214.19708
"7302",108.94075,78.470436,212.91467
"7303",108.954056,77.21797,211.61441
"7304",108.96742,76.00214,210.31163
"7305",108.98073,74.864426,209.04898
"7306",108.994095,73.83414,207.8582
"7307",109.0074,72.92348,206.75485
"7308",109.02077,72.11536,205.72559
"7309",109.03407,71.363396,204.72723
"7310",109.04744,70.63828,203.73222
"7311",109.060745,69.944916,202.7463
"7312",109.07411,69.31991,201.80708
"7313",109.08742,68.81453,200.96796
"7314",109.100784,68.48493,200.28882
"7315",109.11409,68.353096,199.79713
"7316",109.12746,68.39216,199.47223
"7317",109.14076,68.55329,199.27061
"7318",109.15413,68.79988,199.1595
"7319",109.167435,69.12459,199.1342
"7320",109.1808,69.56161,199.23137
"7321",109.19411,70.098724,199.44229
"7322",109.20747,70.68711,199.72127
"7323",109.22078,71.25109,199.99422
"7324",109.234146,71.76868,200.2384
"7325",109.24745,72.26185,200.47435
"7326",109.26082,72.82338,200.79407
"7327",109.274124,73.585106,201.33153
"7328",109.28749,74.6569,202.20285
"7329",109.3008,76.02899,203.40797
"7330",109.31416,77.60128,204.85617
"7331",109.32747,79.256584,206.43651
"7332",109.340836,80.89479,208.05148
"7333",109.35414,82.4329,209.61755
"7334",109.36751,83.8172,211.07788
"7335",109.38081,84.998856,212.37883
"7336",109.39418,85.91684,213.45303
"7337",109.407486,86.52476,214.24585
"7338",109.42085,86.800644,214.72563
"7339",109.43416,86.78111,214.91862
"7340",109.447525,86.51255,214.86197
"7341",109.46083,86.046234,214.59917
"7342",109.4742,85.4139,214.15578
"7343",109.4875,84.63996,213.55103
"7344",109.50087,83.736626,212.7927
"7345",109.514175,82.738075,211.91092
"7346",109.52754,81.705345,210.96376
"7347",109.54085,80.706795,210.01851
"7348",109.554214,79.81079,209.14459
"7349",109.56752,79.06615,208.39404
"7350",109.58089,78.49485,207.79356
"7351",109.59419,78.09445,207.34613
"7352",109.60756,77.838104,207.03023
"7353",109.620865,77.69161,206.81618
"7354",109.63423,77.611046,206.66347
"7355",109.64754,77.56466,206.54242
"7356",109.660904,77.51583,206.41748
"7357",109.67421,77.44015,206.26416
"7358",109.68758,77.32784,206.07185
"7359",109.70088,77.171585,205.83209
"7360",109.71425,76.96895,205.54106
"7361",109.727554,76.72236,205.19975
"7362",109.74092,76.439156,204.81412
"7363",109.75423,76.12665,204.39034
"7364",109.76759,75.80438,203.94702
"7365",109.7809,75.474785,203.48631
"7366",109.794266,75.14763,203.01775
"7367",109.80757,74.83513,202.5536
"7368",109.82094,74.547035,202.10411
"7369",109.83424,74.29313,201.6798
"7370",109.84761,74.08316,201.29149
"7371",109.860916,73.92935,200.95277
"7372",109.87428,73.8439,200.67761
"7373",109.88759,73.82681,200.46814
"7374",109.900955,73.87076,200.31917
"7375",109.91426,73.968414,200.22528
"7376",109.92763,74.10513,200.17351
"7377",109.94093,74.26627,200.15044
"7378",109.9543,74.444496,200.14948
"7379",109.967606,74.62272,200.15408
"7380",109.98097,74.77898,200.1423
"7381",109.99428,74.90105,200.10121
"7382",110.007645,74.98161,200.02243
"7383",110.02095,75.04021,199.9242
"7384",110.03432,75.13298,199.86197
"7385",110.04762,75.37713,199.95403
"7386",110.06099,75.91913,200.35156
"7387",110.074295,76.86153,201.16643
"7388",110.08766,78.24094,202.44775
"7389",110.10097,79.99634,204.14818
"7390",110.114334,81.988556,206.14029
"7391",110.12764,84.01007,208.22395
"7392",110.14101,85.86801,210.20721
"7393",110.15431,87.411,211.93358
"7394",110.16768,88.56092,213.3151
"7395",110.180984,89.2958,214.3175
"7396",110.19435,89.635155,214.94736
"7397",110.20766,89.63027,215.24358
"7398",110.22102,89.35439,215.26865
"7399",110.23433,88.87831,215.08488
"7400",110.247696,88.26551,214.74953
"7401",110.261,87.55993,214.30225
"7402",110.27437,86.79332,213.77188
"7403",110.287674,85.97543,213.16629
"7404",110.30104,85.120926,212.49852
"7405",110.31435,84.24933,211.78696
"7406",110.32771,83.38262,211.05304
"7407",110.34102,82.564735,210.34087
"7408",110.354385,81.832306,209.68858
"7409",110.36769,81.22194,209.13548
"7410",110.38106,80.74586,208.69759
"7411",110.39436,80.4065,208.38155
"7412",110.40773,80.17944,208.16719
"7413",110.421036,80.045166,208.03851
"7414",110.4344,79.96216,207.95691
"7415",110.44771,79.906006,207.89957
"7416",110.461075,79.84253,207.83316
"7417",110.47438,79.75464,207.74036
"7418",110.48775,79.63256,207.61061
"7419",110.50105,79.48119,207.44775
"7420",110.51442,79.29565,207.24599
"7421",110.527725,79.07347,207.0018
"7422",110.54109,78.81224,206.71161
"7423",110.5544,78.51682,206.37907
"7424",110.567764,78.18234,205.99825
"7425",110.58107,77.823456,205.58255
"7426",110.59444,77.45968,205.15076
"7427",110.60774,77.10811,204.7198
"7428",110.62111,76.78584,204.30716
"7429",110.634415,76.50263,203.92351
"7430",110.64778,76.263374,203.57495
"7431",110.66109,76.070496,203.2653
"7432",110.67445,75.914246,202.98625
"7433",110.68776,75.79706,202.74138
"7434",110.701126,75.701836,202.51482
"7435",110.71443,75.63348,202.31213
"7436",110.7278,75.58221,202.1244
"7437",110.741104,75.545586,201.94972
"7438",110.75447,75.511406,201.77634
"7439",110.76778,75.48211,201.60677
"7440",110.78114,75.46258,201.44604
"7441",110.79445,75.48211,201.32378
"7442",110.807816,75.613945,201.31442
"7443",110.82112,75.965515,201.52893
"7444",110.83449,76.646675,202.08401
"7445",110.84779,77.72091,203.05345
"7446",110.86116,79.18089,204.44221
"7447",110.874466,80.93141,206.16713
"7448",110.88783,82.81377,208.0786
"7449",110.90114,84.6424,209.99516
"7450",110.914505,86.24887,211.7467
"7451",110.92781,87.51598,213.20909
"7452",110.94118,88.38758,214.31557
"7453",110.95448,88.849014,215.03911
"7454",110.96785,88.92714,215.39377
"7455",110.981155,88.68299,215.42859
"7456",110.99452,88.19714,215.21408
"7457",111.00783,87.55016,214.82326
"7458",111.021194,86.80553,214.31456
"7459",111.0345,86.00473,213.72644
"7460",111.04787,85.169754,213.07912
"7461",111.06117,84.315254,212.38617
"7462",111.07454,83.46075,211.66652
"7463",111.087845,82.64042,210.95435
"7464",111.10121,81.90555,210.30199
"7465",111.11452,81.290306,209.74629
"7466",111.127884,80.82887,209.32518
"7467",111.14119,80.52369,209.0459
"7468",111.15456,80.35279,208.89137
"7469",111.16786,80.289314,208.83893
"7470",111.18123,80.289314,208.84798
"7471",111.194534,80.31617,208.88388
"7472",111.2079,80.31617,208.89377
"7473",111.22121,80.26978,208.85727
"7474",111.23457,80.15747,208.75339
"7475",111.24788,79.96948,208.57031
"7476",111.261246,79.70336,208.30324
"7477",111.27455,79.381096,207.9717
"7478",111.28792,79.01488,207.58614
"7479",111.30122,78.61936,207.15984
"7480",111.31459,78.204315,206.70164
"7481",111.327896,77.78439,206.2256
"7482",111.34126,77.36935,205.74132
"7483",111.35457,76.96651,205.25627
"7484",111.367935,76.59052,204.78549
"7485",111.38124,76.25117,204.33958
"7486",111.39461,75.95819,203.92946
"7487",111.40791,75.70916,203.55412
"7488",111.42128,75.51385,203.22472
"7489",111.434586,75.372246,202.94292
"7490",111.44795,75.27703,202.70308
"7491",111.46126,75.22087,202.49933
"7492",111.474625,75.20134,202.33044
"7493",111.48793,75.19646,202.1756
"7494",111.5013,75.20622,202.03525
"7495",111.5146,75.21355,201.89276
"7496",111.52797,75.22331,201.75294
"7497",111.541275,75.2404,201.62076
"7498",111.55464,75.29656,201.52818
"7499",111.56795,75.457695,201.54233
"7500",111.581314,75.84589,201.78857
"7501",111.59462,76.57099,202.38387
"7502",111.60799,77.7087,203.41441
"7503",111.62129,79.23949,204.8736
"7504",111.63466,81.06325,206.67358
"7505",111.647964,83.00664,208.6502
"7506",111.66133,84.876785,210.61432
"7507",111.67464,86.49546,212.38539
"7508",111.688,87.75769,213.8506
"7509",111.70131,88.60975,214.94508
"7510",111.714676,89.039444,215.64383
"7511",111.72798,89.07851,215.96538
"7512",111.74135,88.800186,215.97076
"7513",111.754654,88.28504,215.73062
"7514",111.76802,87.61364,215.31813
"7515",111.78133,86.84703,214.78944
"7516",111.79469,86.01938,214.17577
"7517",111.808,85.155106,213.4996
"7518",111.821365,84.27131,212.7769
"7519",111.83467,83.389946,212.02902
"7520",111.84804,82.55253,211.29755
"7521",111.86134,81.80301,210.62779
"7522",111.87471,81.180435,210.06157
"7523",111.888016,80.71168,209.6297
"7524",111.90138,80.4065,209.34677
"7525",111.91469,80.25269,209.20567
"7526",111.928055,80.20874,209.16962
"7527",111.94136,80.235596,209.203
"7528",111.95473,80.27955,209.25432
"7529",111.96803,80.29664,209.28015
"7530",111.9814,80.257576,209.25037
"7531",111.994705,80.14526,209.1461
"7532",112.00807,79.95239,208.95776
"7533",112.02138,79.68383,208.68771
"7534",112.034744,79.34936,208.34335
"7535",112.04805,78.958725,207.93239
"7536",112.06142,78.53391,207.47504
"7537",112.07472,78.09445,206.98976
"7538",112.08809,77.65499,206.49075
"7539",112.101395,77.222855,205.98534
"7540",112.11476,76.807816,205.4835
"7541",112.12807,76.422066,204.998
"7542",112.14143,76.07294,204.53706
"7543",112.15474,75.76288,204.10428
"7544",112.168106,75.4992,203.70819
"7545",112.18141,75.2868,203.35513
"7546",112.19478,75.123215,203.04427
"7547",112.208084,75.01335,202.782
"7548",112.22145,74.94499,202.5578
"7549",112.23476,74.91814,202.37297
"7550",112.24812,74.92302,202.21904
"7551",112.26143,74.95232,202.08968
"7552",112.274796,74.99626,201.97588
"7553",112.2881,75.054855,201.8781
"7554",112.30147,75.123215,201.79192
"7555",112.31477,75.1989,201.7152
"7556",112.32814,75.267265,201.63353
"7557",112.341446,75.3283,201.54666
"7558",112.35481,75.372246,201.44461
"7559",112.36812,75.40154,201.32928
"7560",112.381485,75.403984,201.18802
"7561",112.39479,75.37957,201.01997
"7562",112.40816,75.34783,200.84384
"7563",112.42146,75.36492,200.71555
"7564",112.43483,75.54803,200.7538
"7565",112.448135,76.05829,201.12494
"7566",112.4615,77.032425,201.97589
"7567",112.47481,78.51682,203.36755
"7568",112.488174,80.44312,205.2475
"7569",112.50148,82.63554,207.45377
"7570",112.51485,84.859695,209.76028
"7571",112.52815,86.890976,211.94344
"7572",112.54152,88.56092,213.82872
"7573",112.554825,89.78897,215.3243
"7574",112.56819,90.55314,216.39436
"7575",112.5815,90.87053,217.04153
"7576",112.594864,90.78752,217.29823
"7577",112.60817,90.38224,217.23006
"7578",112.62154,89.74258,216.91484
"7579",112.63484,88.94911,216.42583
"7580",112.64821,88.05798,215.81436
"7581",112.661514,87.10582,215.11401
"7582",112.67488,86.1268,214.35706
"7583",112.68819,85.14046,213.56218
"7584",112.70155,84.17853,212.7609
"7585",112.71486,83.29717,212.01012
"7586",112.728226,82.545204,211.36119
"7587",112.74153,81.96658,210.8621
"7588",112.7549,81.58083,210.53781
"7589",112.7682,81.3782,210.38458
"7590",112.78157,81.322044,210.3715
"7591",112.794876,81.36355,210.45433
"7592",112.80824,81.44167,210.57507
"7593",112.82155,81.50271,210.68117
"7594",112.834915,81.50759,210.73302
"7595",112.84822,81.427025,210.69957
"7596",112.86159,81.24391,210.56105
"7597",112.87489,80.96559,210.32161
"7598",112.88826,80.601814,209.988
"7599",112.901566,80.16724,209.57224
"7600",112.91493,79.68627,209.0965
"7601",112.92824,79.183334,208.58376
"7602",112.941605,78.677956,208.05286
"7603",112.95491,78.1799,207.51349
"7604",112.96828,77.70382,206.98053
"7605",112.98158,77.25948,206.46443
"7606",112.99495,76.85176,205.97107
"7607",113.008255,76.4831,205.50403
"7608",113.02162,76.16327,205.0743
"7609",113.03493,75.897156,204.68828
"7610",113.048294,75.684746,204.34766
"7611",113.0616,75.52361,204.05167
"7612",113.07497,75.41863,203.8068
"7613",113.08827,75.355156,203.60014
"7614",113.10164,75.33074,203.43057
"7615",113.114944,75.338066,203.29198
"7616",113.12831,75.369804,203.17802
"7617",113.14162,75.42596,203.08948
"7618",113.15498,75.48943,203.01001
"7619",113.16829,75.55779,202.93741
"7620",113.181656,75.61639,202.85718
"7621",113.19496,75.65545,202.75925
"7622",113.20833,75.66277,202.6308
"7623",113.221634,75.63836,202.47084
"7624",113.235,75.58221,202.27838
"7625",113.24831,75.508965,202.06708
"7626",113.26167,75.474785,201.89255
"7627",113.27498,75.58709,201.86343
"7628",113.288345,75.99481,202.13326
"7629",113.30165,76.83223,202.8455
"7630",113.31502,78.16281,204.07709
"7631",113.32832,79.94507,205.80193
"7632",113.34169,82.03006,207.8852
"7633",113.354996,84.207825,210.1264
"7634",113.36836,86.25376,212.30383
"7635",113.38167,87.99451,214.24
"7636",113.395035,89.32754,215.82286
"7637",113.40834,90.20645,216.99326
"7638",113.42171,90.63126,217.73701
"7639",113.43501,90.64347,218.08145
"7640",113.44838,90.309,218.07959
"7641",113.461685,89.71328,217.80603
"7642",113.47505,88.936905,217.33319
"7643",113.48836,88.04089,216.71646
"7644",113.501724,87.05699,215.98384
"7645",113.51503,86.01938,215.16676
"7646",113.5284,84.95003,214.28552
"7647",113.5417,83.89288,213.38307
"7648",113.55507,82.90654,212.51839
"7649",113.568375,82.0618,211.76448
"7650",113.58174,81.40749,211.1746
"7651",113.59505,80.97536,210.78645
"7652",113.60841,80.75319,210.59477
"7653",113.62172,80.71656,210.58168
"7654",113.635086,80.799576,210.68709
"7655",113.64839,80.94118,210.85368
"7656",113.66176,81.077896,211.01982
"7657",113.675064,81.15114,211.12675
"7658",113.68843,81.12184,211.13344
"7659",113.70174,80.972916,211.01958
"7660",113.7151,80.709236,210.7863
"7661",113.72841,80.34058,210.43982
"7662",113.741776,79.888916,209.9988
"7663",113.75508,79.38842,209.49483
"7664",113.76845,78.853745,208.94104
"7665",113.78175,78.30686,208.35834
"7666",113.79512,77.769745,207.76831
"7667",113.808426,77.261925,207.1908
"7668",113.82179,76.78584,206.62915
"7669",113.8351,76.35371,206.09657
"7670",113.848465,75.9704,205.59932
"7671",113.86177,75.648125,205.15112
"7672",113.87514,75.38201,204.74901
"7673",113.88844,75.174484,204.39717
"7674",113.90181,75.02556,204.09744
"7675",113.915115,74.9279,203.84433
"7676",113.92848,74.88396,203.64188
"7677",113.94179,74.88396,203.482
"7678",113.955154,74.92302,203.36118
"7679",113.96846,74.99138,203.27087
"7680",113.98183,75.07439,203.19736
"7681",113.99513,75.15251,203.12155
"7682",114.0085,75.21599,203.03354
"7683",114.021805,75.25262,202.92067
"7684",114.03517,75.250175,202.76987
"7685",114.04848,75.21355,202.58481
"7686",114.061844,75.15007,202.37175
"7687",114.07515,75.09636,202.16647
"7688",114.08852,75.14519,202.06206
"7689",114.10182,75.440605,202.20576
"7690",114.11519,76.14374,202.76642
"7691",114.128494,77.35714,203.85931
"7692",114.14186,79.09056,205.51015
"7693",114.15517,81.23659,207.62775
"7694",114.16853,83.59258,210.02238
"7695",114.18184,85.924164,212.46623
"7696",114.195206,88.0116,214.7388
"7697",114.20851,89.7084,216.68596
"7698",114.22188,90.934006,218.21495
"7699",114.23518,91.663994,219.28662
"7700",114.24855,91.913025,219.90015
"7701",114.261856,91.747,220.1064
"7702",114.27522,91.26116,219.98766
"7703",114.28853,90.548256,219.62666
"7704",114.301895,89.69131,219.09935
"7705",114.3152,88.74891,218.45981
"7706",114.32857,87.74792,217.73222
"7707",114.34187,86.6981,216.92453
"7708",114.35524,85.61654,216.05229
"7709",114.368546,84.53498,215.14626
"7710",114.38191,83.50713,214.26013
"7711",114.39522,82.59159,213.4542
"7712",114.408585,81.84207,212.78566
"7713",114.42189,81.28298,212.28413
"7714",114.43526,80.91432,211.95557
"7715",114.44856,80.69947,211.76929
"7716",114.46193,80.59449,211.68617
"7717",114.475235,80.5481,211.65837
"7718",114.4886,80.49683,211.62424
"7719",114.50191,80.396736,211.53967
"7720",114.515274,80.22339,211.37872
"7721",114.52858,79.954834,211.11716
"7722",114.54195,79.5935,210.75441
"7723",114.55525,79.149155,210.29736
"7724",114.56862,78.641335,209.76295
"7725",114.581924,78.08713,209.16629
"7726",114.59529,77.51339,208.53278
"7727",114.6086,76.93965,207.88133
"7728",114.62196,76.38056,207.22661
"7729",114.63527,75.85321,206.58615
"7730",114.648636,75.36736,205.97072
"7731",114.66194,74.9279,205.38649
"7732",114.67531,74.53239,204.83247
"7733",114.688614,74.19791,204.32713
"7734",114.70198,73.92447,203.87238
"7735",114.71529,73.704735,203.46278
"7736",114.72865,73.548485,203.1098
"7737",114.74196,73.44106,202.80077
"7738",114.755325,73.375145,202.52988
"7739",114.76863,73.340965,202.28867
"7740",114.782,73.338524,202.07812
"7741",114.7953,73.35317,201.8846
"7742",114.80867,73.38003,201.70374
"7743",114.821976,73.411766,201.5286
"7744",114.83534,73.44106,201.352
"7745",114.84865,73.47036,201.17633
"7746",114.862015,73.48745,200.98936
"7747",114.87532,73.49233,200.79073
"7748",114.88869,73.48501,200.58003
"7749",114.90199,73.47036,200.36179
"7750",114.91536,73.443504,200.13087
"7751",114.928665,73.42397,199.90645
"7752",114.94203,73.409325,199.6863
"7753",114.95534,73.40444,199.47545
"7754",114.968704,73.402,199.26689
"7755",114.98201,73.40688,199.06558
"7756",114.99538,73.41909,198.87175
"7757",115.00868,73.43862,198.68562
"7758",115.02205,73.463036,198.50499
"7759",115.035355,73.494774,198.33244
"7760",115.04872,73.52407,198.15845
"7761",115.06203,73.56313,197.99513
"7762",115.07539,73.65835,197.88919
"7763",115.0887,73.953766,197.98643
"7764",115.102066,74.64469,198.48842
"7765",115.11537,75.914246,199.59062
"7766",115.12874,77.855194,201.40388
"7767",115.142044,80.42115,203.90282
"7768",115.15541,83.42901,206.92384
"7769",115.16872,86.590675,210.19267
"7770",115.18208,89.60342,213.41138
"7771",115.19539,92.23773,216.3458
"7772",115.208755,94.34226,218.83275
"7773",115.22206,95.84619,220.78487
"7774",115.23543,96.73731,222.17117
"7775",115.24873,97.04738,223.00427
"7776",115.2621,96.869156,223.35878
"7777",115.275406,96.31251,223.32928
"7778",115.28877,95.49706,223.0236
"7779",115.30208,94.53269,222.54352
"7780",115.315445,93.49996,221.96494
"7781",115.32875,92.44038,221.32722
"7782",115.34212,91.35638,220.63199
"7783",115.35542,90.23819,219.86868
"7784",115.36879,89.08583,219.03627
"7785",115.382095,87.9115,218.14587
"7786",115.39546,86.75914,217.24075
"7787",115.40877,85.67513,216.36797
"7788",115.422134,84.70588,215.57607
"7789",115.43544,83.87579,214.89304
"7790",115.44881,83.19707,214.33543
"7791",115.46211,82.65995,213.89822
"7792",115.47548,82.24002,213.56142
"7793",115.488785,81.898224,213.28963
"7794",115.50215,81.59548,213.0462
"7795",115.51546,81.28298,212.78357
"7796",115.528824,80.92653,212.46721
"7797",115.54213,80.5066,212.07623
"7798",115.5555,80.02075,211.60622
"7799",115.5688,79.4641,211.05022
"7800",115.58217,78.84886,210.41823
"7801",115.595474,78.18967,209.72305
"7802",115.60884,77.506065,208.98288
"7803",115.62215,76.824905,208.22379
"7804",115.63551,76.16571,207.46536
"7805",115.64882,75.5407,206.72054
"7806",115.662186,74.969406,206.00989
"7807",115.67549,74.45426,205.33754
"7808",115.68886,73.99771,204.70769
"7809",115.70216,73.60464,204.12704
"7810",115.71553,73.27505,203.5976
"7811",115.728836,73.006485,203.11888
"7812",115.7422,72.798965,202.69281
"7813",115.75551,72.64515,202.31396
"7814",115.768875,72.54017,201.97914
"7815",115.78218,72.47669,201.68254
"7816",115.79555,72.444954,201.4157
"7817",115.80885,72.43275,201.16739
"7818",115.82222,72.43763,200.93579
"7819",115.835526,72.44984,200.71167
"7820",115.84889,72.464485,200.49037
"7821",115.8622,72.47425,200.26465
"7822",115.875565,72.47913,200.03435
"7823",115.88887,72.47913,199.79932
"7824",115.90224,72.47181,199.55696
"7825",115.91554,72.45228,199.30217
"7826",115.92891,72.430305,199.04433
"7827",115.942215,72.40345,198.78091
"7828",115.95558,72.37415,198.51422
"7829",115.96889,72.34486,198.24661
"7830",115.982254,72.318,197.98053
"7831",115.99556,72.29359,197.71605
"7832",116.00893,72.27894,197.46057
"7833",116.02223,72.271614,197.21196
"7834",116.0356,72.2765,196.97533
"7835",116.048904,72.29603,196.7535
"7836",116.06227,72.32777,196.54448
"7837",116.07558,72.36927,196.34622
"7838",116.08894,72.42542,196.16391
"7839",116.10225,72.50111,196.00288
"7840",116.115616,72.59632,195.86375
"7841",116.12892,72.71107,195.74713
"7842",116.14229,72.84779,195.65608
"7843",116.155594,72.99428,195.57906
"7844",116.16896,73.14809,195.51393
"7845",116.18227,73.3019,195.45363
"7846",116.19563,73.44106,195.38347
"7847",116.20894,73.56313,195.30057
"7848",116.222305,73.69009,195.22636
"7849",116.23561,73.90494,195.24403
"7850",116.24898,74.39811,195.54674
"7851",116.26228,75.406425,196.37999
"7852",116.27565,77.11055,197.94057
"7853",116.288956,79.551994,200.29172
"7854",116.30232,82.60868,203.3344
"7855",116.31563,86.00961,206.81685
"7856",116.328995,89.42519,210.42023
"7857",116.3423,92.55268,213.84225
"7858",116.35567,95.187,216.86884
"7859",116.36897,97.22316,219.3796
"7860",116.38234,98.617226,221.31189
"7861",116.395645,99.369194,222.64565
"7862",116.40901,99.523,223.40474
"7863",116.42232,99.16899,223.66083
"7864",116.435684,98.426796,223.51767
"7865",116.44899,97.4136,223.0803
"7866",116.46236,96.24902,222.4599
"7867",116.47566,95.01854,221.7372
"7868",116.48903,93.768524,220.95651
"7869",116.502335,92.51118,220.12943
"7870",116.5157,91.244064,219.25328
"7871",116.52901,89.97452,218.33511
"7872",116.54237,88.71961,217.3919
"7873",116.55568,87.5111,216.45589
"7874",116.569046,86.400246,215.57976
"7875",116.58235,85.43099,214.81052
"7876",116.59572,84.62531,214.17456
"7877",116.609024,83.980774,213.67456
"7878",116.62239,83.48272,213.3009
"7879",116.6357,83.09941,213.02643
"7880",116.64906,82.78203,212.80591
"7881",116.66237,82.48661,212.59743
"7882",116.675735,82.16922,212.35774
"7883",116.68904,81.80545,212.06177
"7884",116.70241,81.373314,211.68605
"7885",116.71571,80.86305,211.2187
"7886",116.72908,80.28687,210.6695
"7887",116.742386,79.65453,210.04613
"7888",116.75575,78.97093,209.35173
"7889",116.76906,78.260475,208.60912
"7890",116.782425,77.54269,207.83696
"7891",116.79573,76.83711,207.0546
"7892",116.8091,76.1535,206.27214
"7893",116.8224,75.51629,205.51472
"7894",116.83577,74.93523,204.79355
"7895",116.849075,74.42741,204.12746
"7896",116.86244,73.99527,203.52118
"7897",116.87575,73.63882,202.97708
"7898",116.889114,73.35073,202.4902
"7899",116.90242,73.128555,202.06024
"7900",116.91579,72.96254,201.67949
"7901",116.92909,72.84535,201.34238
"7902",116.94246,72.77455,201.04799
"7903",116.955765,72.740364,200.78801
"7904",116.96913,72.72816,200.54893
"7905",116.98244,72.73792,200.33145
"7906",116.995804,72.75258,200.11917
"7907",117.00911,72.77455,199.91466
"7908",117.02248,72.798965,199.71327
