"","Time..s.","PPG.trace","Preprocessed.PPG"
"32126",428.59747,84.08331,64.86661
"32127",428.6108,84.23468,65.14558
"32128",428.62415,84.11017,65.1534
"32129",428.63748,83.78302,64.95469
"32130",428.65082,83.319145,64.60903
"32131",428.66415,82.78691,64.18052
"32132",428.6775,82.21805,63.698746
"32133",428.69083,81.636986,63.186996
"32134",428.70416,81.058365,62.65953
"32135",428.7175,80.49683,62.131073
"32136",428.73083,79.96948,61.619247
"32137",428.74417,79.49096,61.13977
"32138",428.7575,79.09056,60.723465
"32139",428.77084,78.77318,60.377663
"32140",428.78418,78.553444,60.11959
"32141",428.79752,78.41917,59.94011
"32142",428.81085,78.37034,59.84188
"32143",428.8242,78.37766,59.79828
"32144",428.83752,78.42161,59.791527
"32145",428.85086,78.485085,59.80568
"32146",428.8642,78.54612,59.819374
"32147",428.87753,78.590065,59.817886
"32148",428.89087,78.61204,59.7958
"32149",428.9042,78.607155,59.747543
"32150",428.91754,78.5803,59.677162
"32151",428.93088,78.52659,59.579086
"32152",428.9442,78.45579,59.462242
"32153",428.95755,78.3679,59.326096
"32154",428.9709,78.27024,59.177437
"32155",428.98422,78.16281,59.015953
"32156",428.99756,78.05295,58.84868
"32157",429.0109,77.9382,58.673088
"32158",429.02423,77.83322,58.503677
"32159",429.03757,77.73556,58.338303
"32160",429.0509,77.64767,58.17965
"32161",429.06424,77.56954,58.028015
"32162",429.07758,77.49874,57.881264
"32163",429.0909,77.44015,57.744507
"32164",429.10425,77.39376,57.618126
"32165",429.11758,77.35958,57.502502
"32166",429.13092,77.366905,57.427315
"32167",429.14426,77.48409,57.46222
"32168",429.1576,77.81369,57.713196
"32169",429.17093,78.42649,58.257675
"32170",429.18427,79.33227,59.11428
"32171",429.1976,80.45533,60.216476
"32172",429.21094,81.651634,61.42701
"32173",429.22427,82.72587,62.552856
"32174",429.2376,83.526665,63.438835
"32175",429.25095,83.98566,64.00803
"32176",429.26428,84.11261,64.25954
"32177",429.27762,83.96857,64.24401
"32178",429.29095,83.61944,64.0189
"32179",429.3043,83.14336,63.655922
"32180",429.31763,82.58671,63.197502
"32181",429.33096,81.991,62.682625
"32182",429.3443,81.38064,62.134483
"32183",429.35764,80.77272,61.56971
"32184",429.37097,80.184326,61.005463
"32185",429.3843,79.64233,60.469223
"32186",429.39764,79.17357,59.98929
"32187",429.41098,78.802475,59.59237
"32188",429.42432,78.53391,59.286385
"32189",429.43765,78.37522,59.08188
"32190",429.451,78.31907,58.974953
"32191",429.46432,78.3386,58.941956
"32192",429.47766,78.4094,58.96084
"32193",429.491,78.502174,59.003906
"32194",429.50433,78.59739,59.052315
"32195",429.51767,78.6804,59.09149
"32196",429.531,78.746315,59.116173
"32197",429.54434,78.79027,59.12095
"32198",429.55768,78.8098,59.102676
"32199",429.571,78.8098,59.065483
"32200",429.58435,78.78783,59.006317
"32201",429.5977,78.746315,58.926926
"32202",429.61102,78.69016,58.831596
"32203",429.62436,78.61936,58.719864
"32204",429.6377,78.538795,58.596153
"32205",429.65103,78.450905,58.4626
"32206",429.66437,78.35569,58.318977
"32207",429.6777,78.26292,58.17482
"32208",429.69104,78.1799,58.03752
"32209",429.70438,78.10422,57.90496
"32210",429.7177,78.03342,57.774918
"32211",429.73105,77.9675,57.647545
"32212",429.7444,77.90646,57.522995
"32213",429.75772,77.85275,57.403862
"32214",429.77106,77.806366,57.290375
"32215",429.7844,77.79416,57.209618
"32216",429.79773,77.88205,57.228577
"32217",429.81107,78.16525,57.445595
"32218",429.8244,78.71946,57.942467
"32219",429.83774,79.56176,58.74475
"32220",429.85107,80.62379,59.793083
"32221",429.8644,81.75906,60.947853
"32222",429.87775,82.791794,62.035553
"32223",429.89108,83.57305,62.904053
"32224",429.90442,84.02716,63.46982
"32225",429.91776,84.15411,63.72262
"32226",429.9311,84.00763,63.705948
"32227",429.94443,83.6585,63.482056
"32228",429.95776,83.175095,63.112976
"32229",429.9711,82.61356,62.650665
"32230",429.98444,82.01297,62.131744
"32231",429.99777,81.39773,61.579407
"32232",430.0111,80.78737,61.012726
"32233",430.02444,80.201416,60.451378
"32234",430.03778,79.65942,59.915672
"32235",430.05112,79.1931,59.438713
"32236",430.06445,78.82445,59.044846
"32237",430.0778,78.57053,58.754196
"32238",430.09113,78.42893,58.567924
"32239",430.10446,78.38987,58.479767
"32240",430.1178,78.42161,58.46119
"32241",430.13113,78.50706,58.497314
"32242",430.14447,78.61692,58.560524
"32243",430.1578,78.72678,58.627167
"32244",430.17114,78.82201,58.682602
"32245",430.18448,78.90013,58.723915
"32246",430.1978,78.958725,58.74814
"32247",430.21115,78.99046,58.747337
"32248",430.2245,79.00267,58.727997
"32249",430.23782,78.992905,58.687065
"32250",430.25116,78.95628,58.618973
"32251",430.2645,78.89525,58.525322
"32252",430.27783,78.81224,58.40779
"32253",430.29117,78.71946,58.277893
"32254",430.3045,78.624245,58.142662
"32255",430.31784,78.52659,58.002014
"32256",430.33118,78.43626,57.86564
"32257",430.3445,78.348366,57.72888
"32258",430.35785,78.26536,57.59426
"32259",430.3712,78.184784,57.45948
"32260",430.38452,78.11398,57.331955
"32261",430.39786,78.04562,57.20466
"32262",430.4112,77.99191,57.089874
"32263",430.42453,77.977264,57.012474
"32264",430.43787,78.07736,57.049362
"32265",430.4512,78.37034,57.282257
"32266",430.46454,78.924545,57.785538
"32267",430.47787,79.74731,58.57469
"32268",430.4912,80.765396,59.584885
"32269",430.50455,81.83719,60.680595
"32270",430.51788,82.79912,61.699936
"32271",430.53122,83.5169,62.505188
"32272",430.54456,83.91974,63.01793
"32273",430.5579,84.01251,63.233192
"32274",430.57123,83.85382,63.19989
"32275",430.58456,83.50713,62.973633
"32276",430.5979,83.04082,62.616913
"32277",430.61124,82.49882,62.169937
"32278",430.62457,81.91531,61.66452
"32279",430.6379,81.307396,61.116455
"32280",430.65125,80.70435,60.554268
"32281",430.66458,80.12329,59.995216
"32282",430.67792,79.60082,59.4766
"32283",430.69125,79.1638,59.027107
"32284",430.7046,78.84154,58.67871
"32285",430.71793,78.641335,58.442307
"32286",430.73126,78.551,58.309517
"32287",430.7446,78.551,58.264236
"32288",430.75793,78.61448,58.282433
"32289",430.77127,78.71946,58.344116
"32290",430.7846,78.836655,58.421295
"32291",430.79794,78.9514,58.499687
"32292",430.81128,79.05882,58.57434
"32293",430.82462,79.149155,58.63526
"32294",430.83795,79.21507,58.67459
"32295",430.8513,79.25414,58.689133
"32296",430.86462,79.27123,58.682915
"32297",430.87796,79.26635,58.65526
"32298",430.8913,79.23949,58.60547
"32299",430.90463,79.200424,58.54264
"32300",430.91797,79.151596,58.468826
"32301",430.9313,79.097885,58.388603
"32302",430.94464,79.03685,58.299377
"32303",430.95798,78.97093,58.20336
"32304",430.9713,78.89769,58.09796
"32305",430.98465,78.819565,57.98539
"32306",430.998,78.74387,57.87281
"32307",431.01132,78.70481,57.794495
"32308",431.02466,78.765854,57.815063
"32309",431.038,79.00267,58.013313
"32310",431.05133,79.47387,58.453346
"32311",431.06467,80.184326,59.14736
"32312",431.078,81.06813,60.036926
"32313",431.09134,82.003204,61.00538
"32314",431.10468,82.845505,61.91028
"32315",431.118,83.475395,62.62909
"32316",431.13135,83.83429,63.09659
"32317",431.14468,83.92462,63.30674
"32318",431.15802,83.78302,63.28778
"32319",431.17136,83.46807,63.09105
"32320",431.1847,83.03105,62.762405
"32321",431.19803,82.52079,62.346863
"32322",431.21136,81.96414,61.868988
"32323",431.2247,81.38552,61.351746
"32324",431.23804,80.80446,60.81398
"32325",431.25137,80.25269,60.287354
"32326",431.2647,79.76196,59.80452
"32327",431.27805,79.361565,59.396683
"32328",431.29138,79.06859,59.083755
"32329",431.30472,78.890366,58.876427
"32330",431.31805,78.81468,58.766068
"32331",431.3314,78.81712,58.73147
"32332",431.34473,78.87816,58.75554
"32333",431.35806,78.9807,58.82302
"32334",431.3714,79.10277,58.91324
"32335",431.38474,79.22728,59.009712
"32336",431.39807,79.34203,59.10032
"32337",431.4114,79.43969,59.177414
"32338",431.42474,79.51293,59.233147
"32339",431.43808,79.55932,59.264313
"32340",431.45142,79.57885,59.270073
"32341",431.46475,79.571526,59.249588
"32342",431.4781,79.54711,59.211784
"32343",431.49142,79.50561,59.156128
"32344",431.50476,79.45434,59.08941
"32345",431.5181,79.39086,59.00888
"32346",431.53143,79.31762,58.916603
"32347",431.54477,79.24193,58.819588
"32348",431.5581,79.183334,58.737305
"32349",431.57144,79.19798,58.726433
"32350",431.58478,79.378654,58.882042
"32351",431.5981,79.79614,59.280113
"32352",431.61145,80.47486,59.95246
"32353",431.6248,81.37087,60.86331
"32354",431.63812,82.36698,61.90226
"32355",431.65146,83.302055,62.9113
"32356",431.6648,84.03937,63.7518
"32357",431.67813,84.49348,64.33214
"32358",431.69147,84.65217,64.63125
"32359",431.7048,84.55451,64.67897
"32360",431.71814,84.26887,64.53565
"32361",431.73148,83.85626,64.25645
"32362",431.7448,83.36553,63.886223
"32363",431.75815,82.83574,63.4616
"32364",431.77148,82.28886,63.003334
"32365",431.78482,81.7322,62.518204
"32366",431.79816,81.18288,62.02301
"32367",431.8115,80.66285,61.539948
"32368",431.82483,80.19409,61.091904
"32369",431.83817,79.798584,60.70246
"32370",431.8515,79.49584,60.393425
"32371",431.86484,79.29809,60.179916
"32372",431.87817,79.200424,60.060318
"32373",431.8915,79.17601,60.010918
"32374",431.90485,79.20775,60.016907
"32375",431.91818,79.26879,60.053192
"32376",431.93152,79.34203,60.103584
"32377",431.94485,79.40795,60.14894
"32378",431.9582,79.45434,60.176826
"32379",431.97153,79.483635,60.18907
"32380",431.98486,79.48852,60.17782
"32381",431.9982,79.466545,60.139862
"32382",432.01154,79.429924,60.08657
"32383",432.02487,79.38598,60.02481
"32384",432.0382,79.33227,59.951912
"32385",432.05154,79.27123,59.87001
"32386",432.06488,79.19798,59.773987
"32387",432.07822,79.114975,59.665916
"32388",432.09155,79.03197,59.555252
"32389",432.1049,79.00023,59.493263
"32390",432.11823,79.11009,59.571884
"32391",432.13156,79.447014,59.880997
"32392",432.1449,80.05493,60.471634
"32393",432.15823,80.90944,61.327858
"32394",432.17157,81.91287,62.35971
"32395",432.1849,82.916306,63.42292
"32396",432.19824,83.758606,64.35635
"32397",432.21158,84.34455,65.05975
"32398",432.2249,84.63996,65.49093
"32399",432.23825,84.66926,65.66522
"32400",432.2516,84.48127,65.623146
"32401",432.26492,84.14191,65.42382
"32402",432.27826,83.70489,65.116234
"32403",432.2916,83.21416,64.74128
"32404",432.30493,82.68925,64.31681
"32405",432.31827,82.14969,63.86129
"32406",432.3316,81.60769,63.386467
"32407",432.34494,81.08278,62.911797
"32408",432.35828,80.584724,62.44758
"32409",432.3716,80.14038,62.021507
"32410",432.38495,79.76929,61.6548
"32411",432.3983,79.48119,61.359497
"32412",432.41162,79.276115,61.138206
"32413",432.42496,79.15648,60.99595
"32414",432.4383,79.10033,60.913437
"32415",432.45163,79.097885,60.88288
"32416",432.46497,79.11986,60.876663
"32417",432.4783,79.151596,60.880898
"32418",432.49164,79.17113,60.873917
"32419",432.50497,79.17601,60.852898
"32420",432.5183,79.15648,60.807617
"32421",432.53165,79.114975,60.739754
"32422",432.54498,79.06859,60.66571
"32423",432.55832,79.01488,60.582893
"32424",432.57166,78.9514,60.488632
"32425",432.585,78.8806,60.385063
"32426",432.59833,78.79271,60.26219
"32427",432.61166,78.692604,60.12436
"32428",432.625,78.61204,60.002937
"32429",432.63834,78.61448,59.962006
"32430",432.65167,78.78783,60.092056
"32431",432.665,79.20775,60.4741
"32432",432.67834,79.903564,61.145157
"32433",432.69168,80.82399,62.06257
"32434",432.70502,81.846954,63.111282
"32435",432.71835,82.82597,64.14802
"32436",432.7317,83.62188,65.032234
"32437",432.74503,84.15167,65.67521
"32438",432.75836,84.39826,66.05154
"32439",432.7717,84.39338,66.1841
"32440",432.78503,84.19318,66.121185
"32441",432.79837,83.85626,65.915306
"32442",432.8117,83.43389,65.61344
"32443",432.82504,82.96269,65.24955
"32444",432.83838,82.46464,64.84408
"32445",432.8517,81.95682,64.41328
"32446",432.86505,81.444115,63.961723
"32447",432.8784,80.94118,63.503914
"32448",432.89172,80.46998,63.062126
"32449",432.90506,80.05005,62.656883
"32450",432.9184,79.69604,62.304436
"32451",432.93173,79.4226,62.0215
"32452",432.94507,79.22484,61.805695
"32453",432.9584,79.09056,61.647194
"32454",432.97174,79.009995,61.538208
"32455",432.98508,78.975815,61.47309
"32456",432.9984,78.96849,61.43376
"32457",433.01175,78.97826,61.411293
"32458",433.0251,78.99046,61.39157
"32459",433.03842,78.99046,61.360023
"32460",433.05176,78.97337,61.311386
"32461",433.0651,78.93431,61.240242
"32462",433.07843,78.870834,61.143463
"32463",433.09177,78.78783,61.02517
"32464",433.1051,78.695045,60.89451
"32465",433.11844,78.59495,60.75363
"32466",433.13177,78.487526,60.602303
"32467",433.1451,78.38987,60.457382
"32468",433.15845,78.34104,60.35824
"32469",433.17178,78.41428,60.37964
"32470",433.18512,78.695045,60.610847
"32471",433.19846,79.24437,61.119392
"32472",433.2118,80.05005,61.90146
"32473",433.22513,81.03395,62.886925
"32474",433.23846,82.05936,63.94464
"32475",433.2518,82.967575,64.91721
"32476",433.26514,83.64629,65.68867
"32477",433.27847,84.04425,66.20057
"32478",433.2918,84.173645,66.456345
"32479",433.30515,84.07355,66.48667
"32480",433.31848,83.807434,66.347855
"32481",433.33182,83.42657,66.08597
"32482",433.34515,82.97734,65.74382
"32483",433.3585,82.48173,65.34125
"32484",433.37183,81.95926,64.89633
"32485",433.38516,81.42214,64.42044
"32486",433.3985,80.88747,63.930206
"32487",433.41183,80.38209,63.45256
"32488",433.42517,79.92798,63.01039
"32489",433.4385,79.54223,62.62239
"32490",433.45184,79.24193,62.307785
"32491",433.46518,79.0222,62.06437
"32492",433.47852,78.873276,61.884888
"32493",433.49185,78.785385,61.761787
"32494",433.5052,78.74387,61.68232
"32495",433.51852,78.73167,61.63086
"32496",433.53186,78.73167,61.591225
"32497",433.5452,78.73167,61.55159
"32498",433.55853,78.71702,61.497307
"32499",433.57187,78.68284,61.423035
"32500",433.5852,78.63889,61.33793
"32501",433.59854,78.58518,61.241684
"32502",433.61188,78.52415,61.136436
"32503",433.6252,78.45579,61.021957
"32504",433.63855,78.37766,60.895576
"32505",433.6519,78.28733,60.754547
"32506",433.66522,78.187225,60.60092
"32507",433.67856,78.082245,60.439293
"32508",433.6919,77.994354,60.291473
"32509",433.70523,77.977264,60.211708
"32510",433.71857,78.133514,60.30475
"32511",433.7319,78.54612,60.659027
"32512",433.74524,79.24681,61.314285
"32513",433.75858,80.18677,62.230705
"32514",433.7719,81.25613,63.3059
"32515",433.78525,82.286415,64.37544
"32516",433.79858,83.12627,65.28674
"32517",433.81192,83.685356,65.94353
"32518",433.82526,83.95392,66.327255
"32519",433.8386,83.966125,66.46302
"32520",433.85193,83.775696,66.39653
"32521",433.86526,83.43633,66.175156
"32522",433.8786,82.99931,65.84552
"32523",433.89194,82.50126,65.44119
"32524",433.90527,81.96658,64.98468
"32525",433.9186,81.41238,64.49193
"32526",433.93195,80.86061,63.9843
"32527",433.94528,80.3357,63.486282
"32528",433.95862,79.86206,63.023132
"32529",433.97195,79.45922,62.615982
"32530",433.9853,79.13939,62.27925
"32531",433.99863,78.91234,62.025307
"32532",434.01196,78.765854,61.844833
"32533",434.0253,78.68284,61.72325
"32534",434.03864,78.64622,61.64547
"32535",434.05197,78.641335,61.59828
"32536",434.0653,78.6511,61.56559
"32537",434.07864,78.65598,61.52832
"32538",434.09198,78.6511,61.481438
"32539",434.10532,78.63889,61.42708
"32540",434.11865,78.60471,61.350365
"32541",434.132,78.553444,61.255493
"32542",434.14532,78.487526,61.14437
"32543",434.15866,78.4094,61.018982
"32544",434.172,78.31663,60.876503
"32545",434.18533,78.221405,60.728676
"32546",434.19867,78.116425,60.568115
"32547",434.212,78.009,60.401833
"32548",434.22534,77.89914,60.22975
"32549",434.23868,77.803925,60.068886
"32550",434.252,77.76242,59.958755
"32551",434.26535,77.86008,59.98649
"32552",434.2787,78.1799,60.23944
"32553",434.29202,78.77318,60.77584
"32554",434.30536,79.62768,61.592003
"32555",434.3187,80.65308,62.605774
"32556",434.33203,81.7029,63.676003
"32557",434.34537,82.62333,64.64964
"32558",434.3587,83.29473,65.40302
"32559",434.37204,83.67315,65.8844
"32560",434.38538,83.773254,66.09929
"32561",434.3987,83.63897,66.08292
"32562",434.41205,83.32891,65.88657
"32563",434.42538,82.899216,65.560905
"32564",434.43872,82.39628,65.14857
"32565",434.45206,81.846954,64.674126
"32566",434.4654,81.27322,64.158104
"32567",434.47873,80.69947,63.624146
"32568",434.49207,80.147705,63.09424
"32569",434.5054,79.64721,62.59836
"32570",434.51874,79.2224,62.16252
"32571",434.53207,78.887924,61.80375
"32572",434.5454,78.6511,61.532173
"32573",434.55875,78.502174,61.341095
"32574",434.57208,78.42649,61.218605
"32575",434.58542,78.40208,61.14502
"32576",434.59875,78.41428,61.107292
"32577",434.6121,78.4387,61.082153
"32578",434.62543,78.46311,61.057777
"32579",434.63876,78.47776,61.0244
"32580",434.6521,78.47532,60.97439
"32581",434.66544,78.45579,60.90721
"32582",434.67877,78.41184,60.81501
"32583",434.6921,78.35569,60.70923
"32584",434.70544,78.28001,60.58216
"32585",434.71878,78.19211,60.440514
"32586",434.73212,78.09689,60.288803
"32587",434.74545,78.00168,60.134117
"32588",434.7588,77.90646,59.976456
"32589",434.77213,77.806366,59.810936
"32590",434.78546,77.7087,59.644722
"32591",434.7988,77.63058,59.494995
"32592",434.81213,77.63302,59.423393
"32593",434.82547,77.80881,59.525215
"32594",434.8388,78.24094,59.88887
"32595",434.85214,78.95628,60.549248
"32596",434.86548,79.91821,61.47856
"32597",434.8788,81.00221,62.560005
"32598",434.89215,82.04715,63.63626
"32599",434.9055,82.9041,64.55718
"32600",434.91882,83.475395,65.21923
"32601",434.93216,83.74883,65.60127
"32602",434.9455,83.75372,65.72331
"32603",434.95883,83.54864,65.63553
"32604",434.97217,83.18974,65.38753
"32605",434.9855,82.735634,65.0331
"32606",434.99884,82.213165,64.596115
"32607",435.01218,81.64675,64.09886
"32608",435.0255,81.06325,63.56682
"32609",435.03885,80.49195,63.028748
"32610",435.0522,79.95239,62.504562
"32611",435.06552,79.47387,62.02455
"32612",435.07886,79.07103,61.60527
"32613",435.0922,78.75853,61.26374
"32614",435.10553,78.536354,61.00277
"32615",435.11887,78.40208,60.822754
"32616",435.1322,78.34348,60.714226
"32617",435.14554,78.34104,60.66002
"32618",435.15887,78.37278,60.639915
"32619",435.1722,78.41917,60.635452
"32620",435.18555,78.46067,60.627556
"32621",435.19888,78.485085,60.603867
"32622",435.21222,78.4802,60.551643
"32623",435.22556,78.44846,60.472412
"32624",435.2389,78.38987,60.365334
"32625",435.25223,78.3093,60.23445
"32626",435.26556,78.21896,60.091278
"32627",435.2789,78.13107,59.94773
"32628",435.29224,78.04318,59.801437
"32629",435.30557,77.95285,59.649956
"32630",435.3189,77.86008,59.49321
"32631",435.33224,77.76486,59.331123
"32632",435.34558,77.66476,59.16117
"32633",435.35892,77.58419,59.00763
"32634",435.37225,77.574425,58.92237
"32635",435.3856,77.72823,59.00038
"32636",435.39893,78.135956,59.337112
"32637",435.41226,78.84154,59.984444
"32638",435.4256,79.80591,60.912613
"32639",435.43893,80.921646,62.022285
"32640",435.45227,82.01785,63.147293
"32641",435.4656,82.93828,64.130775
"32642",435.47894,83.58282,64.867134
"32643",435.49228,83.912415,65.30869
"32644",435.5056,83.95636,65.4749
"32645",435.51895,83.773254,65.41543
"32646",435.5323,83.42657,65.18665
"32647",435.54562,82.967575,64.83474
"32648",435.55896,82.43534,64.39524
"32649",435.5723,81.8616,63.897606
"32650",435.58563,81.26345,63.357628
"32651",435.59897,80.66773,62.80139
"32652",435.6123,80.09888,62.253403
"32653",435.62564,79.59594,61.753555
"32654",435.63898,79.18089,61.325882
"32655",435.6523,78.873276,60.99267
"32656",435.66565,78.66819,60.752373
"32657",435.679,78.55833,60.60089
"32658",435.69232,78.52659,60.5241
"32659",435.70566,78.54368,60.495148
"32660",435.719,78.59495,60.500908
"32661",435.73233,78.65598,60.518036
"32662",435.74567,78.709694,60.529747
"32663",435.759,78.746315,60.526047
"32664",435.77234,78.765854,60.50641
"32665",435.78568,78.76341,60.4654
"32666",435.799,78.73655,60.399895
"32667",435.81235,78.692604,60.316467
"32668",435.82568,78.62913,60.212135
"32669",435.83902,78.553444,60.093613
"32670",435.85236,78.46555,59.960518
"32671",435.8657,78.3679,59.81491
"32672",435.87903,78.26536,59.66137
"32673",435.89236,78.16037,59.502174
"32674",435.9057,78.0676,59.351913
"32675",435.91904,78.011444,59.235374
"32676",435.93237,78.07736,59.23915
"32677",435.9457,78.345924,59.44763
"32678",435.95905,78.89281,59.942825
"32679",435.97238,79.708244,60.723663
"32680",435.98572,80.72877,61.73507
"32681",435.99905,81.812775,62.84185
"32682",436.0124,82.79912,63.884842
"32683",436.02573,83.546196,64.71939
"32684",436.03906,83.99542,65.279434
"32685",436.0524,84.14679,65.55566
"32686",436.06573,84.04669,65.585144
"32687",436.07907,83.76105,65.42596
"32688",436.0924,83.35088,65.13332
"32689",436.10574,82.86015,64.74731
"32690",436.11908,82.31815,64.294685
"32691",436.13242,81.74929,63.798264
"32692",436.14575,81.17311,63.27675
"32693",436.1591,80.60914,62.749435
"32694",436.17242,80.08667,62.246002
"32695",436.18576,79.63744,61.799484
"32696",436.1991,79.273674,61.424385
"32697",436.21243,79.009995,61.13801
"32698",436.22577,78.84886,60.94594
"32699",436.2391,78.765854,60.826958
"32700",436.25244,78.74143,60.76397
"32701",436.26578,78.76341,60.74662
"32702",436.2791,78.8098,60.754364
"32703",436.29245,78.86107,60.76844
"32704",436.3058,78.90013,60.77191
"32705",436.31912,78.924545,60.761955
"32706",436.33246,78.92699,60.73079
"32707",436.3458,78.90257,60.672844
"32708",436.35913,78.853745,60.58972
"32709",436.37247,78.79271,60.492867
"32710",436.3858,78.7219,60.38433
"32711",436.39914,78.63889,60.261383
"32712",436.41248,78.54856,60.128517
"32713",436.4258,78.44602,59.98062
"32714",436.43915,78.348366,59.834404
"32715",436.45248,78.28977,59.724197
"32716",436.46582,78.34104,59.722023
"32717",436.47916,78.59739,59.92653
"32718",436.4925,79.132065,60.417374
"32719",436.50583,79.94995,61.208138
"32720",436.51917,80.98512,62.241745
"32721",436.5325,82.10086,63.388268
"32722",436.54584,83.12871,64.481766
"32723",436.55917,83.92462,65.37545
"32724",436.5725,84.41779,65.991264
"32725",436.58585,84.60822,66.31975
"32726",436.59918,84.53498,66.39051
"32727",436.61252,84.263985,66.26123
"32728",436.62585,83.85626,65.986755
"32729",436.6392,83.372856,65.623856
"32730",436.65253,82.845505,65.201904
"32731",436.66586,82.29862,64.74394
"32732",436.6792,81.73708,64.254234
"32733",436.69254,81.17555,63.746986
"32734",436.70587,80.635994,63.244164
"32735",436.7192,80.14038,62.768425
"32736",436.73254,79.71313,62.34556
"32737",436.74588,79.38354,62.007004
"32738",436.75922,79.15404,61.75824
"32739",436.77255,79.01976,61.597527
"32740",436.7859,78.96117,61.5083
"32741",436.79922,78.96361,61.47828
"32742",436.81256,78.995346,61.47763
"32743",436.8259,79.03929,61.49018
"32744",436.83923,79.07347,61.49434
"32745",436.85257,79.08568,61.477592
"32746",436.8659,79.06859,61.43193
"32747",436.87924,79.01732,61.351555
"32748",436.89258,78.93919,61.24272
"32749",436.9059,78.84398,61.114357
"32750",436.91925,78.73167,60.96592
"32751",436.9326,78.6096,60.804214
"32752",436.94592,78.47532,60.626488
"32753",436.95926,78.34104,60.444565
"32754",436.9726,78.19943,60.251114
"32755",436.98593,78.07004,60.065453
"32756",436.99927,78.011444,59.94655
"32757",437.0126,78.12375,59.99671
"32758",437.02594,78.49973,60.314064
"32759",437.03928,79.19554,60.96299
"32760",437.0526,80.184326,61.926636
"32761",437.06595,81.36111,63.109177
"32762",437.07928,82.54276,64.33337
"32763",437.09262,83.560844,65.43091
"32764",437.10596,84.29084,66.27218
"32765",437.1193,84.69611,66.81154
"32766",437.13263,84.8011,67.06328
"32767",437.14597,84.664375,67.076584
"32768",437.1593,84.351875,66.90984
"32769",437.17264,83.92462,66.61858
"32770",437.18597,83.42901,66.24561
"32771",437.1993,82.89189,65.81565
"32772",437.21265,82.3328,65.34693
"32773",437.22598,81.76395,64.850975
"32774",437.23932,81.20241,64.34456
"32775",437.25266,80.66041,63.840134
"32776",437.266,80.15991,63.360275
"32777",437.27933,79.71801,62.92337
"32778",437.29266,79.34692,62.543465
"32779",437.306,79.061264,62.237404
"32780",437.31934,78.856186,62.00299
"32781",437.33267,78.7219,61.832962
"32782",437.346,78.64622,61.71734
"32783",437.35934,78.60471,61.63353
"32784",437.37268,78.5803,61.565514
"32785",437.38602,78.551,61.49185
"32786",437.39935,78.5095,61.405067
"32787",437.4127,78.44846,61.297455
"32788",437.42603,78.37034,61.170845
"32789",437.43936,78.27268,61.022263
"32790",437.4527,78.16525,60.860855
"32791",437.46603,78.05051,60.688774
"32792",437.47937,77.92355,60.5009
"32793",437.4927,77.789276,60.301735
"32794",437.50604,77.65743,60.100807
"32795",437.51938,77.51827,59.888443
"32796",437.5327,77.37911,59.67173
"32797",437.54605,77.261925,59.47264
"32798",437.5594,77.22774,59.35289
"32799",437.57272,77.37179,59.41031
"32800",437.58606,77.79172,59.748108
"32801",437.5994,78.54368,60.43106
"32802",437.61273,79.59106,61.43293
"32803",437.62607,80.814224,62.64332
"32804",437.6394,82.039825,63.894363
"32805",437.65274,83.089645,65.00793
"32806",437.66608,83.844055,65.85889
"32807",437.6794,84.263985,66.39894
"32808",437.69275,84.37873,66.646935
"32809",437.7061,84.244446,66.64948
"32810",437.71942,83.931946,66.46962
"32811",437.73276,83.50469,66.16524
"32812",437.7461,83.01396,65.78403
"32813",437.75943,82.48661,65.35086
"32814",437.77277,81.93729,64.87924
"32815",437.7861,81.375755,64.37825
"32816",437.79944,80.81178,63.85727
"32817",437.81277,80.26246,63.333313
"32818",437.8261,79.74731,62.826363
"32819",437.83945,79.29809,62.369247
"32820",437.85278,78.922104,61.97133
"32821",437.86612,78.624245,61.639786
"32822",437.87946,78.4094,61.38195
"32823",437.8928,78.2678,61.190643
"32824",437.90613,78.18967,61.05838
"32825",437.91946,78.15549,60.96763
"32826",437.9328,78.150604,60.905106
"32827",437.94614,78.15549,60.852196
"32828",437.95947,78.150604,60.789673
"32829",437.9728,78.12375,60.705025
"32830",437.98615,78.07492,60.597565
"32831",437.99948,78.00168,60.464165
"32832",438.01282,77.90158,60.30162
"32833",438.02615,77.786835,60.1213
"32834",438.0395,77.66476,59.93006
"32835",438.05283,77.53292,59.72525
"32836",438.06616,77.39376,59.508995
"32837",438.0795,77.25948,59.293274
"32838",438.09283,77.13252,59.080673
"32839",438.10617,77.00801,58.866554
"32840",438.1195,76.89815,58.663193
"32841",438.13284,76.81514,58.483253
"32842",438.14618,76.822464,58.391052
"32843",438.15952,77.01289,58.482185
"32844",438.17285,77.48409,58.86004
"32845",438.1862,78.28977,59.587097
"32846",438.19952,79.398186,60.642067
"32847",438.21286,80.68238,61.907455
"32848",438.2262,81.95682,63.203217
"32849",438.23953,83.035934,64.34348
"32850",438.25287,83.792786,65.195206
"32851",438.2662,84.19562,65.71656
"32852",438.27954,84.27375,65.925804
"32853",438.29288,84.1004,65.88601
"32854",438.3062,83.75372,65.667465
"32855",438.31955,83.299614,65.33066
"32856",438.3329,82.77959,64.91374
"32857",438.34622,82.22781,64.44883
"32858",438.35956,81.654076,63.94471
"32859",438.3729,81.075455,63.417778
"32860",438.38623,80.50416,62.88009
"32861",438.39957,79.96216,62.353844
"32862",438.4129,79.46899,61.85949
"32863",438.42624,79.046616,61.420525
"32864",438.43958,78.70725,61.05137
"32865",438.4529,78.46067,60.76439
"32866",438.46625,78.30442,60.560036
"32867",438.47958,78.22385,60.426476
"32868",438.49292,78.20187,60.349
"32869",438.50626,78.21164,60.302574
"32870",438.5196,78.23361,60.26866
"32871",438.53293,78.25071,60.23056
"32872",438.54626,78.24582,60.171005
"32873",438.5596,78.221405,60.091774
"32874",438.57294,78.1799,59.99469
"32875",438.58627,78.118866,59.876778
"32876",438.5996,78.04074,59.73987
"32877",438.61295,77.95041,59.58831
"32878",438.62628,77.840546,59.4144
"32879",438.63962,77.713585,59.219955
"32880",438.65295,77.58419,59.01911
"32881",438.6663,77.452354,58.811783
"32882",438.67963,77.32784,58.60766
"32883",438.69296,77.21553,58.411842
"32884",438.7063,77.117874,58.227173
"32885",438.71964,77.0251,58.044334
"32886",438.73297,76.93965,57.86592
"32887",438.7463,76.88106,57.711693
"32888",438.75964,76.92012,57.65329
"32889",438.77298,77.16426,57.801186
"32890",438.78632,77.70626,58.25457
"32891",438.79965,78.58762,59.064255
"32892",438.813,79.75708,60.189575
"32893",438.82632,81.07057,61.495476
"32894",438.83966,82.3328,62.79116
"32895",438.853,83.36065,63.891907
"32896",438.86633,84.04669,64.68297
"32897",438.87967,84.368965,65.1317
"32898",438.893,84.37629,65.27555
"32899",438.90634,84.139465,65.17548
"32900",438.91968,83.736626,64.902
"32901",438.933,83.228806,64.51095
"32902",438.94635,82.66239,64.04543
"32903",438.9597,82.0618,63.528038
"32904",438.97302,81.449,62.979668
"32905",438.98636,80.84352,62.41947
"32906",438.9997,80.26246,61.86477
"32907",439.01303,79.73754,61.348053
"32908",439.02637,79.28588,60.88819
"32909",439.0397,78.924545,60.50454
"32910",439.05304,78.660866,60.207253
"32911",439.06638,78.48997,59.994507
"32912",439.0797,78.397194,59.854546
"32913",439.09305,78.37034,59.777603
"32914",439.10638,78.38499,59.741325
"32915",439.11972,78.42405,59.72992
"32916",439.13306,78.47776,59.734383
"32917",439.1464,78.521706,59.73076
"32918",439.15973,78.54612,59.708977
"32919",439.17307,78.54612,59.663544
"32920",439.1864,78.51194,59.58393
"32921",439.19974,78.450905,59.476395
"32922",439.21307,78.3679,59.34498
"32923",439.2264,78.27268,59.19876
"32924",439.23975,78.167694,59.039795
"32925",439.25308,78.06027,58.875114
"32926",439.26642,77.945526,58.699753
"32927",439.27975,77.83566,58.52569
"32928",439.2931,77.72579,58.348183
"32929",439.30643,77.625694,58.177017
"32930",439.31976,77.53292,58.010048
"32931",439.3331,77.44259,57.84262
"32932",439.34644,77.35714,57.677254
"32933",439.35977,77.29122,57.528748
"32934",439.3731,77.30831,57.46119
"32935",439.38644,77.506065,57.57483
"32936",439.39978,77.99191,57.982742
"32937",439.41312,78.81468,58.74276
"32938",439.42645,79.93286,59.8239
"32939",439.4398,81.214615,61.103554
"32940",439.45312,82.4744,62.4013
"32941",439.46646,83.5169,63.52112
"32942",439.4798,84.21759,64.33171
"32943",439.49313,84.54963,64.79555
"32944",439.50647,84.55695,64.945045
"32945",439.5198,84.31281,64.84331
"32946",439.53314,83.895325,64.56059
"32947",439.54648,83.36797,64.15497
"32948",439.5598,82.774704,63.666946
"32949",439.57315,82.13992,63.118874
"32950",439.5865,81.48562,62.53144
"32951",439.59982,80.83864,61.930885
"32952",439.61316,80.22339,61.341843
"32953",439.6265,79.66918,60.794617
"32954",439.63983,79.202866,60.317963
"32955",439.65317,78.84154,59.931725
"32956",439.6665,78.59251,59.646492
"32957",439.67984,78.44846,59.458466
"32958",439.69318,78.39475,59.35627
"32959",439.7065,78.41184,59.323196
"32960",439.71985,78.470436,59.33216
"32961",439.7332,78.54856,59.362488
"32962",439.74652,78.624245,59.392815
"32963",439.75986,78.68284,59.408417
"32964",439.7732,78.712135,59.396553
"32965",439.78653,78.70481,59.348984
"32966",439.79987,78.66819,59.27189
"32967",439.8132,78.60471,59.166794
"32968",439.82654,78.521706,59.040184
"32969",439.83987,78.42405,58.89633
"32970",439.8532,78.31663,58.739662
"32971",439.86655,78.204315,58.574745
"32972",439.87988,78.08957,58.403885
"32973",439.89322,77.979706,58.23432
"32974",439.90656,77.87961,58.07109
"32975",439.9199,77.789276,57.914497
"32976",439.93323,77.7087,57.76484
"32977",439.94656,77.63302,57.617554
"32978",439.9599,77.56466,57.475227
"32979",439.97324,77.53536,57.369827
"32980",439.98657,77.62081,57.378258
"32981",439.9999,77.91867,57.60177
"32982",440.01324,78.51194,58.129997
"32983",440.02658,79.41039,58.98195
"32984",440.03992,80.5359,60.089027
"32985",440.05325,81.739525,61.309402
"32986",440.0666,82.8333,62.457535
"32987",440.07993,83.66338,63.37616
"32988",440.09326,84.14679,63.974045
"32989",440.1066,84.2884,64.24524
"32990",440.11993,84.14435,64.2352
"32991",440.13327,83.792786,64.013145
"32992",440.1466,83.302055,63.640938
"32993",440.15994,82.73075,63.17282
"32994",440.17328,82.11795,62.645355
"32995",440.1866,81.48562,62.07921
"32996",440.19995,80.850845,61.49086
"32997",440.2133,80.24292,60.909523
"32998",440.22662,79.691154,60.36535
"32999",440.23996,79.22972,59.894264
"33000",440.2533,78.87816,59.51863
"33001",440.26663,78.643776,59.24919
"33002",440.27997,78.51682,59.079857
"33003",440.2933,78.485085,59.00177
"33004",440.30664,78.52415,58.993492
"33005",440.31998,78.6096,59.03282
"33006",440.3333,78.71702,59.096794
"33007",440.34665,78.82689,59.166573
"33008",440.36,78.91722,59.220245
"33009",440.37332,78.97337,59.24256
"33010",440.38666,78.99046,59.22757
"33011",440.4,78.97337,59.178932
"33012",440.41333,78.93187,59.105347
"33013",440.42667,78.88548,59.02558
"33014",440.44,78.836655,58.941925
"33015",440.45334,78.78783,58.856743
"33016",440.46667,78.73411,58.765144
"33017",440.48,78.67307,58.66455
"33018",440.49335,78.58762,58.537636
"33019",440.50668,78.4802,58.386078
"33020",440.52002,78.363014,58.221397
"33021",440.53336,78.27024,58.07747
"33022",440.5467,78.27024,58.023415
"33023",440.56003,78.46555,58.164673
"33024",440.57336,78.93919,58.590363
"33025",440.5867,79.71313,59.331146
"33026",440.60004,80.723885,60.33294
"33027",440.61337,81.849396,61.48107
"33028",440.6267,82.90654,62.59601
"33029",440.64005,83.74395,63.524246
"33030",440.65338,84.27131,64.1686
"33031",440.66672,84.48371,64.51448
"33032",440.68005,84.41535,64.586235
"33033",440.6934,84.14191,64.45077
"33034",440.70673,83.72442,64.16271
"33035",440.72006,83.21416,63.768837
"33036",440.7334,82.650185,63.305305
"33037",440.74673,82.054474,62.79241
"33038",440.76007,81.446556,62.248695
"33039",440.7734,80.84352,61.690865
"33040",440.78674,80.28199,61.155693
"33041",440.80008,79.79126,60.673775
"33042",440.81342,79.39086,60.266853
"33043",440.82675,79.097885,59.95484
"33044",440.8401,78.9099,59.738663
"33045",440.85342,78.81224,59.60694
"33046",440.86676,78.79027,59.54785
"33047",440.8801,78.819565,59.539345
"33048",440.89343,78.88304,59.565933
"33049",440.90677,78.96361,59.611595
"33050",440.9201,79.04173,59.657333
"33051",440.93344,79.10277,59.688423
"33052",440.94678,79.14183,59.699448
"33053",440.9601,79.15404,59.684837
"33054",440.97345,79.149155,59.65352
"33055",440.9868,79.12718,59.604958
"33056",441.00012,79.097885,59.548386
"33057",441.01346,79.0515,59.47381
"33058",441.0268,78.992905,59.385574
"33059",441.04013,78.91966,59.28086
"33060",441.05347,78.82933,59.15677
"33061",441.0668,78.73655,59.027405
"33062",441.08014,78.6804,58.93177
"33063",441.09348,78.73899,58.949127
"33064",441.1068,79.009995,59.180725
"33065",441.12015,79.571526,59.71132
"33066",441.13348,80.42359,60.549995
"33067",441.14682,81.4905,61.630142
"33068",441.16016,82.61845,62.804665
"33069",441.1735,83.631645,63.89969
"33070",441.18683,84.39094,64.77247
"33071",441.20016,84.8304,65.349144
"33072",441.2135,84.964676,65.63437
"33073",441.22684,84.84505,65.66988
"33074",441.24017,84.542305,65.51855
"33075",441.2535,84.119934,65.23812
"33076",441.26685,83.62188,64.86881
"33077",441.28018,83.08476,64.44488
"33078",441.29352,82.51835,63.97486
"33079",441.30685,81.93973,63.474937
"33080",441.3202,81.358665,62.95449
"33081",441.33353,80.8069,62.445183
"33082",441.34686,80.30396,61.96746
"33083",441.3602,79.87427,61.547264
"33084",441.37354,79.534904,61.20397
"33085",441.38687,79.29809,60.95262
"33086",441.4002,79.149155,60.781754
"33087",441.41354,79.07103,60.67704
"33088",441.42688,79.04906,60.626038
"33089",441.44022,79.061264,60.60853
"33090",441.45355,79.09056,60.60849
"33091",441.4669,79.11986,60.609367
"33092",441.48022,79.13695,60.598953
"33093",441.49356,79.13451,60.569542
"33094",441.5069,79.11253,60.520523
"33095",441.52023,79.07103,60.451286
"33096",441.53357,79.00755,60.35878
"33097",441.5469,78.924545,60.24476
"33098",441.56024,78.83421,60.12082
"33099",441.57358,78.73167,59.981842
"33100",441.5869,78.61692,59.82746
"33101",441.60025,78.49973,59.667053
"33102",441.6136,78.399635,59.520073
"33103",441.62692,78.380104,59.45053
"33104",441.64026,78.53391,59.55372
"33105",441.6536,78.96117,59.935158
"33106",441.66693,79.69604,60.637566
"33107",441.68027,80.69703,61.62906
"33108",441.6936,81.83475,62.78856
"33109",441.70694,82.93828,63.949425
"33110",441.72028,83.84161,64.94458
"33111",441.7336,84.44221,65.66522
"33112",441.74695,84.72053,66.08236
"33113",441.76028,84.715645,66.22499
"33114",441.77362,84.48615,66.14286
"33115",441.78696,84.1004,65.8973
"33116",441.8003,83.60967,65.534706
"33117",441.81363,83.06035,65.09818
"33118",441.82697,82.48417,64.61764
"33119",441.85364,81.33181,63.60238
"33120",441.86697,80.78737,63.099556
"33121",441.8803,80.28443,62.621223
"33122",441.89365,79.835205,62.180885
"33123",441.90698,79.45434,61.79487
"33124",441.92032,79.15404,61.477516
"33125",441.93365,78.941635,61.238678
"33126",441.947,78.8098,61.07377
"33127",441.96033,78.746315,60.97309
"33128",441.97366,78.73167,60.919266
"33129",441.987,78.74387,60.891838
"33130",442.00034,78.76097,60.869682
"33131",442.01367,78.77318,60.84317
"33132",442.027,78.768295,60.79995
"33133",442.04034,78.73899,60.732155
"33134",442.05368,78.68772,60.64148
"33135",442.06702,78.61448,60.52723
"33136",442.08035,78.52659,60.39604
"33137",442.0937,78.42893,60.252342
"33138",442.10703,78.32151,60.095825
"33139",442.12036,78.21408,59.935944
"33140",442.1337,78.09445,59.760506
"33141",442.14703,77.97238,59.578888
"33142",442.16037,77.855194,59.39834
"33143",442.1737,77.7966,59.27272
"33144",442.18704,77.89426,59.30152
"33145",442.20038,78.26292,59.604378
"33146",442.2137,78.97093,60.25811
"33147",442.22705,79.98901,61.244034
"33148",442.2404,81.19997,62.454643
"33149",442.25372,82.4329,63.725075
"33150",442.26706,83.492485,64.86069
"33151",442.2804,84.25178,65.72912
"33152",442.29373,84.661934,66.27214
"33153",442.30707,84.76448,66.52037
"33154",442.3204,84.613106,66.51788
"33155",442.33374,84.281075,66.33001
"33156",442.34708,83.826965,66.00968
"33157",442.3604,83.30694,65.609245
"33158",442.37375,82.75029,65.15594
"33159",442.3871,82.16922,64.66081
"33160",442.40042,81.583275,64.142654
"33161",442.41376,81.004654,63.61351
"33162",442.4271,80.45045,63.0907
"33163",442.44043,79.94751,62.601837
"33164",442.45377,79.51049,62.163177
"33165",442.4671,79.16136,61.79875
"33166",442.48044,78.89281,61.50399
"33167",442.49377,78.709694,61.286278
"33168",442.5071,78.60227,61.138535
"33169",442.52045,78.555885,61.04847
"33170",442.53378,78.54612,60.993576
"33171",442.54712,78.555885,60.95791
"33172",442.56046,78.56321,60.920105
"33173",442.5738,78.56077,60.872765
"33174",442.58713,78.538795,60.805817
"33175",442.60046,78.502174,60.723534
"33176",442.6138,78.44846,60.623016
"33177",442.62714,78.37522,60.50129
"33178",442.64047,78.28489,60.360184
"33179",442.6538,78.17502,60.196716
"33180",442.66714,78.05295,60.017616
"33181",442.68048,77.925995,59.82982
"33182",442.69382,77.79904,59.638054
"33183",442.70715,77.6672,59.43743
"33184",442.7205,77.540245,59.23758
"33185",442.73383,77.44259,59.063057
"33186",442.74716,77.44747,58.98802
"33187",442.7605,77.662315,59.1231
"33188",442.77383,78.18967,59.5774
"33189",442.78717,79.05882,60.389984
"33190",442.8005,80.20386,61.505608
"33191",442.81384,81.48806,62.79618
"33192",442.82718,82.718544,64.073166
"33193",442.8405,83.71465,65.15423
"33194",442.85385,84.37629,65.931946
"33195",442.8672,84.68391,66.37632
"33196",442.88052,84.67658,66.515366
"33197",442.89386,84.42756,66.41248
"33198",442.9072,84.01007,66.133354
"33199",442.92053,83.49004,65.73864
"33200",442.93387,82.913864,65.27152
"33201",442.9472,82.31327,64.761986
"33202",442.96054,81.70046,64.221466
"33203",442.97388,81.094986,63.66913
"33204",442.9872,80.516365,63.124725
"33205",443.00055,79.98413,62.608627
"33206",443.0139,79.517815,62.141815
"33207",443.02722,79.13451,61.74344
"33208",443.04056,78.84398,61.425865
"33209",443.0539,78.64622,61.19198
"33210",443.06723,78.52903,61.032486
"33211",443.08057,78.48264,60.940132
"33212",443.0939,78.485085,60.895157
"33213",443.10724,78.5095,60.87223
"33214",443.12057,78.53391,60.850067
"33215",443.1339,78.54612,60.81646
"33216",443.14725,78.53391,60.75882
"33217",443.16058,78.502174,60.681267
"33218",443.17392,78.44602,60.57831
"33219",443.18726,78.37278,60.456505
"33220",443.2006,78.28001,60.31288
"33221",443.21393,78.170135,60.14926
"33222",443.22726,78.04562,59.967567
"33223",443.2406,77.91623,59.7771
"33224",443.25394,77.78439,59.580147
"33225",443.26727,77.65499,59.381508
"33226",443.2806,77.52804,59.181274
"33227",443.29395,77.40353,58.979515
"33228",443.30728,77.281456,58.776306
"33229",443.32062,77.16914,58.57904
"33230",443.33395,77.0959,58.417336
"33231",443.3473,77.134964,58.365646
"33232",443.36063,77.3962,58.537354
"33233",443.37396,77.98215,59.04193
"33234",443.3873,78.91234,59.909065
"33235",443.40063,80.12329,61.08603
"33236",443.41397,81.46609,62.43268
"33237",443.4273,82.73075,63.743156
"33238",443.44064,83.734184,64.831924
"33239",443.45398,84.37385,65.58828
"33240",443.46732,84.644844,65.99596
"33241",443.48065,84.596016,66.09228
"33242",443.494,84.298164,65.93805
"33243",443.50732,83.83673,65.61093
"33244",443.52066,83.2752,65.1693
"33245",443.534,82.65751,64.65395
"33246",443.54733,82.01297,64.09246
"33247",443.56067,81.36355,63.505943
"33248",443.574,80.73365,62.918655
"33249",443.58734,80.14526,62.353195
"33250",443.60068,79.622795,61.835266
"33251",443.614,79.18822,61.3889
"33252",443.62735,78.84886,61.024178
"33253",443.6407,78.60471,60.744057
"33254",443.65402,78.45335,60.549088
"33255",443.66736,78.38499,60.432396
"33256",443.6807,78.37766,60.374603
"33257",443.69403,78.41428,60.360527
"33258",443.70737,78.47288,60.369568
"33259",443.7207,78.52903,60.378
"33260",443.73404,78.56565,60.368652
"33261",443.74738,78.572975,60.331154
"33262",443.7607,78.551,60.264587
"33263",443.77405,78.49973,60.168037
"33264",443.78738,78.42405,60.04547
"33265",443.80072,78.331276,59.90345
"33266",443.81406,78.21896,59.73899
"33267",443.8274,78.099335,59.563705
"33268",443.84073,77.97482,59.3798
"33269",443.85406,77.855194,59.196884
"33270",443.8674,77.738,59.012665
"33271",443.88074,77.628136,58.832115
"33272",443.89407,77.523155,58.653015
"33273",443.9074,77.420616,58.473076
"33274",443.92075,77.3254,58.297256
"33275",443.93408,77.2375,58.12578
"33276",443.94742,77.16426,57.96621
"33277",443.96075,77.16914,57.882477
"33278",443.9741,77.35958,57.98445
"33279",443.98743,77.838104,58.380463
"33280",444.00076,78.66331,59.138107
"33281",444.0141,79.801025,60.234055
"33282",444.02744,81.1194,61.54621
"33283",444.04077,82.41825,62.880043
"33284",444.0541,83.50225,64.03961
"33285",444.06744,84.242004,64.88881
"33286",444.08078,84.593575,65.37294
"33287",444.09412,84.6009,65.52381
"33288",444.10745,84.33967,65.40636
"33289",444.1208,83.88068,65.08298
"33290",444.13412,83.30694,64.63051
"33291",444.14746,82.6746,64.10151
"33292",444.1608,82.01541,63.5259
"33293",444.17413,81.3489,62.92237
"33294",444.18747,80.69947,62.315094
"33295",444.2008,80.08667,61.72415
"33296",444.21414,79.537346,61.177536
"33297",444.22748,79.078354,60.704086
"33298",444.2408,78.71946,60.31639
"33299",444.25415,78.47532,60.032234
"33300",444.2675,78.33372,59.842987
"33301",444.28082,78.28489,59.74209
"33302",444.29416,78.30442,59.708023
"33303",444.3075,78.37034,59.720955
"33304",444.32083,78.45823,59.75792
"33305",444.33417,78.54368,59.79519
"33306",444.3475,78.60471,59.810715
"33307",444.36084,78.63401,59.79641
"33308",444.37418,78.624245,59.743958
"33309",444.3875,78.57786,59.65458
"33310",444.40085,78.50706,59.539337
"33311",444.41418,78.41917,59.404793
"33312",444.42752,78.31907,59.255295
"33313",444.44086,78.21408,59.09778
"33314",444.4542,78.10422,58.932106
"33315",444.46753,77.99191,58.76056
"33316",444.48087,77.872284,58.57818
"33317",444.4942,77.7551,58.3945
"33318",444.50754,77.6379,58.207153
"33319",444.52087,77.53048,58.025917
"33320",444.5342,77.435265,57.85353
"33321",444.54755,77.347374,57.685493
"33322",444.56088,77.27169,57.526917
"33323",444.57422,77.222855,57.392822
"33324",444.58755,77.24971,57.332893
"33325",444.6009,77.452354,57.449593
"33326",444.61423,77.92844,57.84606
"33327",444.62756,78.73899,58.59188
"33328",444.6409,79.84497,59.658455
"33329",444.65424,81.126724,60.935364
"33330",444.66757,82.391396,62.235245
"33331",444.6809,83.44854,63.36712
"33332",444.69424,84.16144,64.18778
"33333",444.70758,84.49348,64.649864
"33334",444.72092,84.488594,64.7854
"33335",444.73425,84.21271,64.64978
"33336",444.7476,83.75128,64.32
"33337",444.76093,83.17265,63.858597
"33338",444.77426,82.530556,63.315643
"33339",444.7876,81.85672,62.720886
"33340",444.80093,81.18288,62.105064
"33341",444.81427,80.52857,61.487724
"33342",444.8276,79.92554,60.901207
"33343",444.84094,79.3933,60.366646
"33344",444.85428,78.95628,59.910667
"33345",444.8676,78.643776,59.565544
"33346",444.88095,78.44846,59.32785
"33347",444.8943,78.365456,59.196358
"33348",444.90762,78.37766,59.157486
"33349",444.92096,78.46067,59.189796
"33350",444.9343,78.5803,59.261322
"33351",444.94763,78.712135,59.348793
"33352",444.96097,78.82689,59.4233
"33353",444.9743,78.9099,59.46965
"33354",444.98764,78.95384,59.47953
"33355",445.00098,78.95628,59.44928
"33356",445.0143,78.93187,59.39225
"33357",445.02765,78.87816,59.30516
"33358",445.041,78.81224,59.204185
"33359",445.05432,78.72678,59.08161
"33360",445.06766,78.62913,58.944168
"33361",445.081,78.52903,58.80123
"33362",445.09433,78.42893,58.655167
"33363",445.10767,78.328835,58.505974
"33364",445.121,78.23605,58.36097
"33365",445.13434,78.14816,58.217957
"33366",445.14767,78.05783,58.069756
"33367",445.161,77.97238,57.923615
"33368",445.17435,77.91623,57.8041
"33369",445.18768,77.94797,57.77072
"33370",445.20102,78.167694,57.926323
"33371",445.21436,78.66819,58.36956
"33372",445.2277,79.48852,59.14827
"33373",445.24103,80.57252,60.216286
"33374",445.25436,81.78592,61.44758
"33375",445.2677,82.94072,62.658188
"33376",445.28104,83.86847,63.677834
"33377",445.29437,84.46662,64.39687
"33378",445.3077,84.715645,64.78548
"33379",445.32104,84.65949,64.876686
"33380",445.33438,84.37385,64.73665
"33381",445.34772,83.92462,64.4241
"33382",445.36105,83.370415,63.99254
"33383",445.3744,82.7625,63.489944
"33384",445.38773,82.127716,62.94149
"33385",445.40106,81.48318,62.36344
"33386",445.4144,80.85329,61.7799
"33387",445.42773,80.272224,61.225502
"33388",445.44107,79.75952,60.721306
"33389",445.4544,79.344475,60.298744
"33390",445.46774,79.046616,59.9804
"33391",445.48108,78.86595,59.769943
"33392",445.49442,78.79027,59.65882
"33393",445.50775,78.79515,59.6259
"33394",445.5211,78.85863,59.651726
"33395",445.53442,78.96361,59.72104
"33396",445.54776,79.078354,59.8034
"33397",445.5611,79.18089,59.877136
"33398",445.57443,79.26147,59.932114
"33399",445.58777,79.30541,59.95298
"33400",445.6011,79.31518,59.94104
"33401",445.61444,79.290764,59.895226
"33402",445.62778,79.234604,59.816902
"33403",445.6411,79.15404,59.712418
"33404",445.65445,79.05638,59.588326
"33405",445.6678,78.94896,59.451416
"33406",445.68112,78.836655,59.306267
"33407",445.69446,78.72434,59.1576
"33408",445.7078,78.6096,59.00299
"33409",445.72113,78.49973,58.849678
"33410",445.73447,78.38987,58.692932
"33411",445.7478,78.29954,58.552284
"33412",445.76114,78.277565,58.477173
"33413",445.77448,78.42893,58.574715
"33414",445.7878,78.8513,58.94799
"33415",445.80115,79.603264,59.664055
"33416",445.81448,80.66285,60.711243
"33417",445.82782,81.90799,61.977097
"33418",445.84116,83.15556,63.284294
"33419",445.8545,84.21759,64.44493
"33420",445.86783,84.962234,65.32137
"33421",445.88116,85.34554,65.85975
"33422",445.8945,85.399254,66.080505
"33423",445.90784,85.19417,66.04414
"33424",445.92117,84.808426,65.82072
"33425",445.9345,84.30549,65.46804
"33426",445.94785,83.74151,65.038605
"33427",445.96118,83.1458,64.559814
"33428",445.97452,82.53788,64.0502
"33429",445.98785,81.92752,63.51915
"33430",446.0012,81.33425,62.986115
"33431",446.01453,80.77272,62.466278
"33432",446.02786,80.26978,61.987488
"33433",446.0412,79.84741,61.573547
"33434",446.05453,79.517815,61.23918
"33435",446.06787,79.28344,60.98974
"33436",446.0812,79.13939,60.823296
"33437",446.09454,79.07103,60.728043
"33438",446.10788,79.05638,60.684364
"33439",446.12122,79.078354,60.67685
"33440",446.13455,79.114975,60.68467
"33441",446.1479,79.14671,60.68875
"33442",446.16122,79.149155,60.664528
"33443",446.17456,79.12474,60.613525
"33444",446.1879,79.07347,60.534904
"33445",446.20123,78.995346,60.427826
"33446",446.21457,78.90013,60.301216
"33447",446.2279,78.79515,60.161865
"33448",446.24124,78.68528,60.014343
"33449",446.25458,78.56809,59.85607
"33450",446.2679,78.44358,59.686813
"33451",446.28125,78.31663,59.511223
"33452",446.2946,78.187225,59.329216
"33453",446.30792,78.06271,59.148056
"33454",446.32126,77.9382,58.963005
"33455",446.3346,77.83322,58.793594
"33456",446.34793,77.789276,58.68194
"33457",446.36127,77.91135,58.734924
"33458",446.3746,78.30686,59.06517
"33459",446.38794,79.05638,59.76178
"33460",446.40128,80.14526,60.821175
"33461",446.4146,81.463646,62.144096
"33462",446.42795,82.82353,63.54972
"33463",446.44128,84.01495,64.82938
"33464",446.45462,84.88899,65.82888
"33465",446.46796,85.38705,66.47971
"33466",446.4813,85.538414,66.79942
"33467",446.49463,85.40414,66.83822
"33468",446.50797,85.05989,66.66285
"33469",446.5213,84.58625,66.34733
"33470",446.53464,84.034485,65.93888
"33471",446.54797,83.4461,65.47657
"33472",446.5613,82.84062,64.97878
"33473",446.57465,82.230255,64.457184
"33474",446.58798,81.62478,63.921402
"33475",446.60132,81.03883,63.38623
"33476",446.61465,80.48707,62.86693
"33477",446.628,79.99878,62.39386
"33478",446.64133,79.588615,61.983658
"33479",446.65466,79.26391,61.646095
"33480",446.668,79.03197,61.39115
"33481",446.68134,78.87816,61.207092
"33482",446.69467,78.78783,61.081703
"33483",446.708,78.751205,61.007202
"33484",446.72134,78.74387,60.960846
"33485",446.73468,78.746315,60.924034
"33486",446.74802,78.74387,60.882416
"33487",446.76135,78.73167,60.830956
"33488",446.7747,78.70237,60.762024
"33489",446.78802,78.65354,60.672646
"33490",446.80136,78.5803,60.557327
"33491",446.8147,78.485085,60.417747
"33492",446.82803,78.37278,60.258102
"33493",446.84137,78.24094,60.07541
"33494",446.8547,78.099335,59.878838
"33495",446.86804,77.95285,59.67296
"33496",446.88138,77.81613,59.472267
"33497",446.8947,77.68673,59.27462
"33498",446.90805,77.5671,59.082703
"33499",446.9214,77.454796,58.89437
"33500",446.93472,77.35714,58.71718
"33501",446.94806,77.30343,58.58088
"33502",446.9614,77.38155,58.574738
"33503",446.97473,77.713585,58.824944
"33504",446.98807,78.38987,59.42978
"33505",447.0014,79.4226,60.412193
"33506",447.01474,80.71656,61.68811
"33507",447.02808,82.10086,63.094803
"33508",447.0414,83.36553,64.425125
"33509",447.05475,84.33723,65.50199
"33510",447.06808,84.93538,66.23568
"33511",447.08142,85.172195,66.626724
"33512",447.09476,85.09895,66.71511
"33513",447.1081,84.79378,66.569275
"33514",447.12143,84.332344,66.257645
"33515",447.13477,83.78058,65.84126
"33516",447.1481,83.177536,65.35636
"33517",447.16144,82.55497,64.83309
"33518",447.17477,81.92508,64.28304
"33519",447.1881,81.30007,63.718193
"33520",447.20145,80.69703,63.155777
"33521",447.21478,80.1355,62.616028
"33522",447.22812,79.63744,62.122208
"33523",447.24146,79.22484,61.698273
"33524",447.2548,78.9099,61.359108
"33525",447.26813,78.69993,61.115074
"33526",447.28146,78.5803,60.95482
"33527",447.2948,78.53391,60.864067
"33528",447.30814,78.53147,60.81581
"33529",447.32147,78.555885,60.794334
"33530",447.3348,78.58518,60.778503
"33531",447.34814,78.59739,60.7465
"33532",447.36148,78.58762,60.6929
"33533",447.37482,78.555885,60.617027
"33534",447.38815,78.502174,60.51819
"33535",447.4015,78.42405,60.393257
"33536",447.41483,78.328835,60.248795
"33537",447.42816,78.21652,60.08426
"33538",447.4415,78.09201,59.904015
"33539",447.45483,77.95529,59.707672
"33540",447.46817,77.81369,59.502174
"33541",447.4815,77.67208,59.292244
"33542",447.49484,77.5378,59.08522
"33543",447.50818,77.418175,58.88865
"33544",447.5215,77.30587,58.695663
"33545",447.53485,77.19844,58.504044
"33546",447.5482,77.09834,58.3164
"33547",447.56152,77.01778,58.145157
"33548",447.57486,77.00801,58.0422
"33549",447.5882,77.18379,58.12448
"33550",447.60153,77.65499,58.507675
"33551",447.61487,78.487526,59.26693
"33552",447.6282,79.64233,60.374466
"33553",447.64154,80.99733,61.718292
"33554",447.65488,82.35233,63.10446
"33555",447.6682,83.50469,64.33033
"33556",447.68155,84.31037,65.24553
"33557",447.6949,84.735176,65.80503
"33558",447.70822,84.81331,66.031136
"33559",447.72156,84.61555,65.98379
"33560",447.7349,84.21515,65.72762
"33561",447.74823,83.69512,65.33932
"33562",447.76157,83.104294,64.86396
"33563",447.7749,82.47196,64.328636
"33564",447.78824,81.8201,63.75402
"33565",447.80157,81.16579,63.156586
"33566",447.8149,80.533455,62.560684
"33567",447.82825,79.94263,61.986526
"33568",447.84158,79.4226,61.464706
"33569",447.85492,79.009995,61.034058
"33570",447.86826,78.712135,60.70526
"33571",447.8816,78.52659,60.47947
"33572",447.89493,78.4387,60.345535
"33573",447.90826,78.42649,60.28454
"33574",447.9216,78.46067,60.269547
"33575",447.93494,78.519264,60.280037
"33576",447.94827,78.5803,60.2948
"33577",447.9616,78.62913,60.299263
"33578",447.97495,78.6511,60.278397
"33579",447.98828,78.643776,60.22892
"33580",448.00162,78.60227,60.145035
"33581",448.01495,78.538795,60.03788
"33582",448.0283,78.46311,59.916534
"33583",448.04163,78.37034,59.775734
"33584",448.05496,78.26536,59.619827
"33585",448.0683,78.14816,59.448425
"33586",448.08163,78.02121,59.263603
"33587",448.09497,77.88449,59.06505
"33588",448.1083,77.74532,58.85977
"33589",448.12164,77.611046,58.655037
"33590",448.13498,77.488976,58.458313
"33591",448.14832,77.37911,58.26998
"33592",448.16165,77.2839,58.092865
"33593",448.175,77.20088,57.924973
"33594",448.18832,77.13985,57.776466
"33595",448.20166,77.12764,57.67488
"33596",448.215,77.239944,57.697426
"33597",448.22833,77.58907,57.960304
"33598",448.24167,78.260475,58.556366
"33599",448.255,79.273674,59.515205
"33600",448.26834,80.54566,60.764496
"33601",448.28168,81.90799,62.143875
"33602",448.295,83.158005,63.453514
"33603",448.30835,84.119934,64.51413
"33604",448.3217,84.71076,65.2337
"33605",448.33502,84.9305,65.60065
"33606",448.34836,84.842606,65.66683
"33607",448.3617,84.51545,65.491005
"33608",448.37503,84.02472,65.14138
"33609",448.38837,83.43633,64.678764
"33610",448.4017,82.794235,64.14405
"33611",448.41504,82.12283,63.559967
"33612",448.42838,81.449,62.95247
"33613",448.4417,80.79469,62.343445
"33614",448.45505,80.18677,61.760353
"33615",448.46838,79.64721,61.22663
"33616",448.48172,79.19554,60.76394
"33617",448.49506,78.853745,60.397003
"33618",448.5084,78.624245,60.131683
"33619",448.52173,78.5095,59.973946
"33620",448.53506,78.485085,59.902954
"33621",448.5484,78.52659,59.897118
"33622",448.56174,78.6096,59.934082
"33623",448.57507,78.70237,59.983406
"33624",448.5884,78.7805,60.02099
"33625",448.60175,78.82445,60.026825
"33626",448.61508,78.839096,60.004738
"33627",448.62842,78.82445,59.95381
"33628",448.64175,78.7805,59.87313
"33629",448.6551,78.712135,59.766655
"33630",448.66843,78.6218,59.636078
"33631",448.68176,78.51438,59.485588
"33632",448.6951,78.39231,59.317093
"33633",448.70844,78.260475,59.135017
"33634",448.72177,78.12863,58.948814
"33635",448.7351,77.996796,58.7585
"33636",448.74844,77.86984,58.568947
"33637",448.76178,77.7551,58.387634
"33638",448.77512,77.645226,58.20761
"33639",448.78845,77.54269,58.031487
"33640",448.8018,77.44503,57.85704
"33641",448.81512,77.3547,57.686867
"33642",448.82846,77.296104,57.54561
"33643",448.8418,77.347374,57.512383
"33644",448.85513,77.611046,57.69316
"33645",448.86847,78.18967,58.19713
"33646",448.8818,79.114975,59.065865
"33647",448.89514,80.32838,60.25161
"33648",448.90848,81.67849,61.611984
"33649",448.9218,82.95781,62.943756
"33650",448.93515,83.99054,64.06892
"33651",448.9485,84.65705,64.86013
"33652",448.96182,84.95247,65.30108
"33653",448.97516,84.91585,65.41922
"33654",448.9885,84.63508,65.29207
"33655",449.00183,84.17609,64.97792
"33656",449.01517,83.614555,64.54689
"33657",449.0285,82.98222,64.02751
"33658",449.04184,82.31571,63.454193
"33659",449.05518,81.636986,62.84783
"33660",449.0685,80.96559,62.227592
"33661",449.08185,80.33082,61.622993
"33662",449.09518,79.76929,61.0718
"33663",449.10852,79.30541,60.600716
"33664",449.12186,78.95384,60.22744
"33665",449.1352,78.71702,59.957924
"33666",449.14853,78.58762,59.788437
"33667",449.16187,78.54368,59.700356
"33668",449.1752,78.56077,59.671936
"33669",449.18854,78.6218,59.687996
"33670",449.20187,78.69993,59.723053
"33671",449.2152,78.77318,59.755676
"33672",449.22855,78.82689,59.77105
"33673",449.24188,78.84886,59.756363
"33674",449.25522,78.83421,59.70574
"33675",449.26855,78.79027,59.625366
"33676",449.2819,78.71946,59.516754
"33677",449.29523,78.626686,59.383965
"33678",449.30856,78.521706,59.23607
"33679",449.3219,78.40696,59.075127
"33680",449.33524,78.277565,58.89595
"33681",449.34857,78.1384,58.702957
"33682",449.3619,77.99924,58.505623
"33683",449.37524,77.86252,58.30638
"33684",449.38858,77.733116,58.110184
"33685",449.40192,77.61349,57.919716
"33686",449.41525,77.506065,57.737717
"33687",449.4286,77.40353,57.557243
"33688",449.44193,77.313194,57.385773
"33689",449.45526,77.25704,57.24566
"33690",449.4686,77.30587,57.20877
"33691",449.48193,77.56466,57.38337
"33692",449.49527,78.12863,57.87124
"33693",449.5086,79.03197,58.716095
"33694",449.52194,80.216064,59.86994
"33695",449.53528,81.54177,61.2024
"33696",449.5486,82.804,62.51281
"33697",449.56195,83.824524,63.620956
"33698",449.5753,84.49592,64.411865
"33699",449.58862,84.79866,64.8551
"33700",449.60196,84.78157,64.98797
"33701",449.6153,84.51301,64.86883
"33702",449.62863,84.06622,64.56307
"33703",449.64197,83.50469,64.12861
"33704",449.6553,82.87236,63.605797
"33705",449.66864,82.20584,63.029037
"33706",449.68198,81.53689,62.429016
"33707",449.6953,80.88258,61.82274
"33708",449.70865,80.26734,61.235077
"33709",449.722,79.71801,60.6941
"33710",449.73532,79.2517,60.21898
"33711",449.74866,78.890366,59.83426
"33712",449.762,78.63645,59.54567
"33713",449.77533,78.49485,59.361458
"33714",449.78867,78.44602,59.265594
"33715",449.802,78.470436,59.241447
"33716",449.81534,78.536354,59.259567
"33717",449.82867,78.624245,59.30172
"33718",449.842,78.712135,59.34662
"33719",449.85535,78.78294,59.377182
"33720",449.86868,78.82933,59.385536
"33721",449.88202,78.84154,59.36116
"33722",449.89536,78.82201,59.305428
"33723",449.9087,78.77074,59.217346
"33724",449.92203,78.69016,59.09836
"33725",449.93536,78.590065,58.95733
"33726",449.9487,78.4802,58.803406
"33727",449.96204,78.37034,58.64605
"33728",449.97537,78.26292,58.4877
"33729",449.9887,78.16281,58.333313
"33730",450.00204,78.065155,58.178246
"33731",450.01538,77.96994,58.022568
"33732",450.02872,77.87717,57.866356
"33733",450.04205,77.78195,57.704803
"33734",450.0554,77.69894,57.552475
"33735",450.06873,77.659874,57.441505
"33736",450.08206,77.752655,57.46116
"33737",450.0954,78.07736,57.715637
"33738",450.10873,78.712135,58.29033
"33739",450.12207,79.6643,59.202248
"33740",450.1354,80.84108,60.368538
"33741",450.14874,82.07889,61.63263
"33742",450.16208,83.194626,62.81333
"33743",450.1754,84.034485,63.75302
"33744",450.18875,84.5301,64.37471
"33745",450.2021,84.69123,64.67741
"33746",450.21542,84.576485,64.70926
"33747",450.22876,84.2591,64.53489
"33748",450.2421,83.792786,64.20167
"33749",450.25543,83.23613,63.763535
"33750",450.26877,82.62821,63.256744
"33751",450.2821,81.991,62.70166
"33752",450.29544,81.34646,62.11934
"33753",450.30878,80.719,61.53396
"33754",450.3221,80.13306,60.97048
"33755",450.33545,79.62524,60.46682
"33756",450.3488,79.21263,60.042503
"33757",450.36212,78.91234,59.717606
"33758",450.37546,78.72434,59.49562
"33759",450.3888,78.63401,59.365425
"33760",450.40213,78.624245,59.312973
"33761",450.41547,78.677956,59.323692
"33762",450.4288,78.76097,59.365395
"33763",450.44214,78.853745,59.41945
"33764",450.45547,78.93675,59.466637
"33765",450.4688,79.00267,59.49933
"33766",450.48215,79.03685,59.502342
"33767",450.49548,79.03685,59.472244
"33768",450.50882,79.00755,59.41285
"33769",450.52216,78.95628,59.330566
"33770",450.5355,78.8806,59.222267
"33771",450.54883,78.79515,59.101837
"33772",450.56216,78.69993,58.968964
"33773",450.5755,78.60471,58.833122
"33774",450.58884,78.504616,58.689423
"33775",450.60217,78.40452,58.542595
"33776",450.6155,78.30198,58.390198
"33777",450.62885,78.20187,58.23703
"33778",450.64218,78.12863,58.107597
"33779",450.65552,78.15793,58.078415
"33780",450.66885,78.397194,58.260117
"33781",450.6822,78.92943,58.742264
"33782",450.69553,79.78638,59.565758
"33783",450.70886,80.902115,60.67482
"33784",450.7222,82.13504,61.935936
"33785",450.73553,83.299614,63.16723
"33786",450.74887,84.224915,64.19564
"33787",450.7622,84.82796,64.93071
"33788",450.77554,85.09895,65.35258
"33789",450.78888,85.08186,65.49483
"33790",450.80222,84.84749,65.41926
"33791",450.81555,84.46662,65.18987
"33792",450.8289,83.9881,64.85093
"33793",450.84222,83.45098,64.43844
"33794",450.85556,82.86992,63.965218
"33795",450.8689,82.262,63.446983
"33796",450.88223,81.64431,62.89998
"33797",450.89557,81.04372,62.35077
"33798",450.9089,80.48707,61.826736
"33799",450.92224,79.99878,61.35367
"33800",450.93558,79.603264,60.958115
"33801",450.9489,79.31274,60.65519
"33802",450.96225,79.11986,60.440834
"33803",450.9756,79.02464,60.318115
"33804",450.98892,79.00511,60.268105
"33805",451.00226,79.046616,60.27852
"33806",451.0156,79.11742,60.319527
"33807",451.02893,79.1931,60.36763
"33808",451.04227,79.25414,60.403458
"33809",451.0556,79.28344,60.409447
"33810",451.06894,79.27856,60.38217
"33811",451.08228,79.24681,60.32788
"33812",451.0956,79.19066,60.24819
"33813",451.10895,79.11986,60.1521
"33814",451.12228,79.03197,60.036705
"33815",451.13562,78.93431,59.9088
"33816",451.14896,78.82689,59.768074
"33817",451.1623,78.70481,59.609337
"33818",451.17563,78.57053,59.434586
"33819",451.18896,78.43626,59.25564
"33820",451.2023,78.31907,59.089584
"33821",451.21564,78.277565,58.995552
"33822",451.22897,78.416725,59.080887
"33823",451.2423,78.84154,59.456223
"33824",451.25565,79.59838,60.176865
"33825",451.26898,80.66285,61.228783
"33826",451.28232,81.91287,62.49952
"33827",451.29565,83.17021,63.816635
"33828",451.309,84.24933,64.99482
"33829",451.32233,85.030594,65.908875
"33830",451.33566,85.46761,66.5031
"33831",451.349,85.592125,66.79847
"33832",451.36234,85.472496,66.85359
"33833",451.37567,85.17464,66.726746
"33834",451.389,84.75716,66.47097
"33835",451.40234,84.27131,66.13378
"33836",451.41568,83.74395,65.7399
"33837",451.42902,83.1873,65.30025
"33838",451.44235,82.61112,64.82367
"33839",451.4557,82.03006,64.3242
"33840",451.46902,81.463646,63.821228
"33841",451.48236,80.93385,63.337173
"33842",451.4957,80.462654,62.895157
"33843",451.50903,80.07202,62.518982
"33844",451.52237,79.77417,62.22338
"33845",451.5357,79.56664,62.008797
"33846",451.54904,79.44213,61.870743
"33847",451.56238,79.38354,61.794716
"33848",451.5757,79.37377,61.765686
"33849",451.58905,79.38598,61.758324
"33850",451.6024,79.398186,61.751343
"33851",451.61572,79.3933,61.727654
"33852",451.62906,79.36889,61.68428
"33853",451.6424,79.31762,61.61329
"33854",451.65573,79.24193,61.516273
"33855",451.66907,79.14427,61.394928
"33856",451.6824,79.027084,61.251
"33857",451.69574,78.89769,61.0912
"33858",451.70908,78.751205,60.91027
"33859",451.7224,78.59739,60.71743
"33860",451.73575,78.43626,60.512466
"33861",451.74908,78.27512,60.302467
"33862",451.76242,78.12863,60.102074
"33863",451.77576,78.04318,59.958145
"33864",451.7891,78.1091,59.962914
"33865",451.80243,78.43626,60.23098
"33866",451.81577,79.10033,60.846184
"33867",451.8291,80.093994,61.811737
"33868",451.84244,81.324486,63.045166
"33869",451.85577,82.62821,64.39028
"33870",451.8691,83.81964,65.66384
"33871",451.88245,84.74738,66.710945
"33872",451.89578,85.347984,67.4599
"33873",451.90912,85.63119,67.910225
"33874",451.92245,85.63851,68.09352
"33875",451.9358,85.43343,68.064644
"33876",451.94913,85.07698,67.87798
"33877",451.96246,84.62287,67.58253
"33878",451.9758,84.10773,67.211845
"33879",451.98914,83.55352,66.786
"33880",452.00247,82.97734,66.32087
"33881",452.0158,82.38407,65.82064
"33882",452.02914,81.7908,65.30187
"33883",452.04248,81.2195,64.78653
"33884",452.05582,80.69703,64.30217
"33885",452.06915,80.23804,63.86496
"33886",452.0825,79.85962,63.49398
"33887",452.09583,79.56664,63.196617
"33888",452.10916,79.35424,62.970673
"33889",452.1225,79.21507,62.811325
"33890",452.13583,79.13451,62.70623
"33891",452.14917,79.08812,62.632797
"33892",452.1625,79.05638,62.572563
"33893",452.17584,79.01488,62.50157
"33894",452.18918,78.94896,62.40487
"33895",452.2025,78.8513,62.27437
"33896",452.21585,78.73411,62.121277
"33897",452.2292,78.59739,61.945
"33898",452.24252,78.450905,61.754684
"33899",452.25586,78.2971,61.552467
"33900",452.2692,78.1384,61.340553
"33901",452.28253,77.97238,61.116364
"33902",452.29587,77.79904,60.87966
"33903",452.3092,77.62325,60.635094
"33904",452.32254,77.44747,60.38504
"33905",452.33588,77.28878,60.146584
"33906",452.3492,77.205765,59.978844
"33907",452.36255,77.30831,59.994072
"33908",452.3759,77.70138,60.303024
"33909",452.38922,78.45335,60.983162
"33910",452.40256,79.554436,62.03592
"33911",452.4159,80.89235,63.35991
"33912",452.42923,82.27909,64.774536
"33913",452.44257,83.52422,66.09089
"33914",452.4559,84.48127,67.158066
"33915",452.46924,85.09163,67.90846
"33916",452.48257,85.36019,68.336136
"33917",452.4959,85.34554,68.48899
"33918",452.50925,85.10872,68.41921
"33919",452.52258,84.71809,68.188225
"33920",452.53592,84.224915,67.84249
"33921",452.54926,83.66827,67.41787
"33922",452.5626,83.08232,66.946556
"33923",452.57593,82.46952,66.43008
"33924",452.58926,81.85184,65.889565
"33925",452.6026,81.25124,65.34684
"33926",452.61594,80.67506,64.80975
"33927",452.62927,80.14526,64.301056
"33928",452.6426,79.68383,63.844162
"33929",452.65594,79.30297,63.453423
"33930",452.66928,79.009995,63.138664
"33931",452.68262,78.80736,62.90509
"33932",452.69595,78.677956,62.73842
"33933",452.7093,78.60471,62.623863
"33934",452.72263,78.56321,62.538757
"33935",452.73596,78.52415,62.454796
"33936",452.7493,78.47288,62.357407
"33937",452.76263,78.40208,62.238884
"33938",452.77597,78.30442,62.091293
"33939",452.7893,78.1799,61.913788
"33940",452.80264,78.030975,61.707985
"33941",452.81598,77.86252,61.477997
"33942",452.8293,77.68673,61.235413
"33943",452.84265,77.506065,60.98246
"33944",452.856,77.32784,60.726303
"33945",452.86932,77.14961,60.46457
"33946",452.88266,76.978714,60.204597
"33947",452.896,76.805374,59.936844
"33948",452.90933,76.63203,59.663666
"33949",452.92267,76.50507,59.431465
"33950",452.936,76.49531,59.312485
"33951",452.94934,76.72236,59.430016
"33952",452.96268,77.28634,59.89157
"33953",452.976,78.221405,60.741837
"33954",452.98935,79.4641,61.928955
"33955",453.0027,80.86549,63.3136
"33956",453.01602,82.2327,64.70785
"33957",453.02936,83.38018,65.9251
"33958",453.0427,84.19806,66.84861
"33959",453.05603,84.65705,67.43879
"33960",453.06937,84.78645,67.71372
"33961",453.0827,84.64973,67.72657
"33962",453.09604,84.317696,67.53984
"33963",453.10938,83.85626,67.21333
"33964",453.1227,83.30938,66.78696
"33965",453.13605,82.71122,66.29221
"33966",453.14938,82.08621,65.75193
"33967",453.16272,81.446556,65.17747
"33968",453.17606,80.814224,64.59034
"33969",453.1894,80.216064,64.017624
"33970",453.20273,79.67162,63.479935
"33971",453.21606,79.200424,62.998474
"33972",453.2294,78.819565,62.59263
"33973",453.24274,78.52659,62.262764
"33974",453.25607,78.32395,62.014084
"33975",453.2694,78.19943,61.83719
"33976",453.28275,78.135956,61.717445
"33977",453.29608,78.11154,61.63478
"33978",453.30942,78.101776,61.566
"33979",453.32275,78.08713,61.492035
"33980",453.3361,78.05295,61.39808
"33981",453.34943,77.994354,61.27864
"33982",453.36276,77.90402,61.125633
"33983",453.3761,77.78195,60.938065
"33984",453.38943,77.64034,60.727142
"33985",453.40277,77.48165,60.494713
"33986",453.4161,77.313194,60.24756
"33987",453.42944,77.14473,59.995132
"33988",453.44278,76.97627,59.73745
"33989",453.45612,76.8127,59.479385
"33990",453.46945,76.65156,59.218643
"33991",453.4828,76.49287,58.955315
"33992",453.49612,76.34394,58.696793
"33993",453.50946,76.20477,58.443375
"33994",453.5228,76.09735,58.217354
"33995",453.53613,76.07782,58.075867
"33996",453.54947,76.25117,58.126648
"33997",453.5628,76.732124,58.490456
"33998",453.57614,77.58663,59.242844
"33999",453.58948,78.78783,60.36862
"34000",453.6028,80.2063,61.749214
"34001",453.61615,81.636986,63.186348
"34002",453.6295,82.879684,64.4802
"34003",453.64282,83.78302,65.473526
"34004",453.65616,84.298164,66.10689
"34005",453.6695,84.454414,66.39745
"34006",453.68283,84.32014,66.402374
"34007",453.69617,83.97101,66.18825
"34008",453.7095,83.48028,65.82161
"34009",453.72284,82.90654,65.35663
"34010",453.73618,82.28153,64.82245
"34011",453.7495,81.634544,64.24676
"34012",453.76285,80.98512,63.648415
"34013",453.77618,80.35767,63.05175
"34014",453.78952,79.766846,62.4721
"34015",453.80286,79.24193,61.939896
"34016",453.8162,78.8098,61.484077
"34017",453.82953,78.47776,61.114845
"34018",453.84286,78.24826,60.837776
"34019",453.8562,78.116425,60.6512
"34020",453.86954,78.06271,60.538628
"34021",453.88287,78.07004,60.485413
"34022",453.8962,78.10666,60.461723
"34023",453.90955,78.14816,60.44406
"34024",453.92288,78.167694,60.405724
"34025",453.93622,78.16281,60.343582
"34026",453.94955,78.12375,60.24711
"34027",453.9629,78.06027,60.125
"34028",453.97623,77.97238,59.976494
"34029",453.98956,77.86496,59.80571
"34030",454.0029,77.74044,59.61447
"34031",454.01624,77.60372,59.407143
"34032",454.02957,77.45724,59.185776
"34033",454.0429,77.30099,58.950066
"34034",454.05624,77.14229,58.707024
"34035",454.06958,76.99092,58.466354
"34036",454.08292,76.84932,58.23072
"34037",454.09625,76.72236,58.005302
"34038",454.1096,76.60761,57.78813
"34039",454.12292,76.5124,57.586906
"34040",454.13626,76.44404,57.40956
"34041",454.1496,76.453804,57.308205
"34042",454.16293,76.646675,57.39026
"34043",454.17627,77.137405,57.7762
"34044",454.1896,77.979706,58.529045
"34045",454.20294,79.14427,59.630478
"34046",454.21628,80.50904,60.968506
"34047",454.2296,81.88602,62.36139
"34048",454.24295,83.072556,63.606865
"34049",454.2563,83.931946,64.56227
"34050",454.26962,84.41535,65.16855
"34051",454.28296,84.54719,65.43836
"34052",454.2963,84.386055,65.41933
"34053",454.30963,84.01495,65.18529
"34054",454.32297,83.50469,64.80049
"34055",454.3363,82.913864,64.31918
"34056",454.34964,82.27909,63.775467
"34057",454.36298,81.619896,63.187492
"34058",454.3763,80.955826,62.574043
"34059",454.38965,80.31373,61.961815
"34060",454.40298,79.727776,61.385666
"34061",454.41632,79.22728,60.876663
"34062",454.42966,78.836655,60.46189
"34063",454.443,78.56321,60.152092
"34064",454.45633,78.40696,59.950943
"34065",454.46967,78.34348,59.837685
"34066",454.483,78.35081,59.793243
"34067",454.49634,78.40452,59.795418
"34068",454.50967,78.48264,59.823685
"34069",454.523,78.555885,59.84951
"34070",454.53635,78.607155,59.85565
"34071",454.54968,78.624245,59.829216
"34072",454.56302,78.6096,59.771576
"34073",454.57635,78.56077,59.6793
"34074",454.5897,78.47532,59.548874
"34075",454.60303,78.365456,59.391365
"34076",454.61636,78.23361,59.208443
"34077",454.6297,78.082245,59.001877
"34078",454.64304,77.925995,58.785698
"34079",454.65637,77.769745,58.564636
"34080",454.6697,77.62325,58.34845
"34081",454.68304,77.486534,58.13746
"34082",454.69638,77.36935,57.941727
"34083",454.70972,77.264366,57.75454
"34084",454.72305,77.16182,57.566505
"34085",454.7364,77.06172,57.377716
"34086",454.74973,76.98604,57.210213
"34087",454.76306,76.99336,57.123352
"34088",454.7764,77.188675,57.22471
"34089",454.78973,77.68429,57.63247
"34090",454.80307,78.53147,58.407288
"34091",454.8164,79.691154,59.52108
"34092",454.82974,81.03151,60.851784
"34093",454.84308,82.36454,62.21705
"34094",454.8564,83.49004,63.416443
"34095",454.86975,84.281075,64.316536
"34096",454.8831,84.701,64.87024
"34097",454.89642,84.771805,65.08795
"34098",454.90976,84.56672,65.03198
"34099",454.9231,84.16144,64.76941
"34100",454.93643,83.617,64.35501
"34101",454.94977,82.984665,63.83571
"34102",454.9631,82.30839,63.2527
"34103",454.97644,81.61257,62.62902
"34104",454.98978,80.92897,61.99581
"34105",455.0031,80.28443,61.380302
"34106",455.01645,79.708244,60.813004
"34107",455.0298,79.22728,60.32292
"34108",455.04312,78.856186,59.92768
"34109",455.05646,78.59983,59.635582
"34110",455.0698,78.45335,59.445343
"34111",455.08313,78.40696,59.350624
"34112",455.09647,78.433815,59.327698
"34113",455.1098,78.502174,59.347115
"34114",455.12314,78.590065,59.3882
"34115",455.13647,78.67063,59.424706
"34116",455.1498,78.72678,59.439316
"34117",455.16315,78.74876,59.4215
"34118",455.17648,78.73655,59.370193
"34119",455.18982,78.68772,59.281883
"34120",455.20316,78.60471,59.157867
"34121",455.2165,78.49485,59.004402
"34122",455.22983,78.365456,58.827972
"34123",455.24316,78.22385,58.635284
"34124",455.2565,78.0798,58.435738
"34125",455.26984,77.9382,58.23413
"34126",455.28317,77.79904,58.03054
"34127",455.2965,77.66964,57.83236
"34128",455.30984,77.55245,57.64235
"34129",455.32318,77.44503,57.458443
"34130",455.33652,77.34493,57.278503
"34131",455.34985,77.25948,57.110085
"34132",455.3632,77.23262,56.99758
"34133",455.37653,77.3547,57.03318
"34134",455.38986,77.738,57.333817
"34135",455.4032,78.45579,57.98092
"34136",455.41653,79.4934,58.970276
"34137",455.42987,80.73853,60.199577
"34138",455.4432,82.022736,61.50686
"34139",455.45654,83.14336,62.69069
"34140",455.46988,83.95636,63.60192
"34141",455.48322,84.40803,64.17722
"34142",455.49655,84.525215,64.43216
"34143",455.5099,84.36408,64.41244
"34144",455.52322,84.00275,64.18748
"34145",455.53656,83.50713,63.816948
"34146",455.5499,82.92607,63.34548
"34147",455.56323,82.2913,62.802147
"34148",455.57657,81.6321,62.214554
"34149",455.5899,80.970474,61.603928
"34150",455.60324,80.34058,61.004364
"34151",455.61658,79.766846,60.44127
"34152",455.6299,79.28344,59.950577
"34153",455.64325,78.9099,59.55464
"34154",455.6566,78.65354,59.26422
"34155",455.66992,78.51194,59.080544
"34156",455.68326,78.47288,58.99498
"34157",455.6966,78.51194,58.98632
"34158",455.70993,78.60471,59.032593
"34159",455.72327,78.71946,59.103737
"34160",455.7366,78.83421,59.178474
"34161",455.74994,78.92943,59.23726
"34162",455.76328,78.99046,59.26484
"34163",455.7766,79.01488,59.257706
"34164",455.78995,78.99779,59.20983
"34165",455.80328,78.94408,59.1248
"34166",455.81662,78.856186,59.003914
"34167",455.82996,78.751205,58.86319
"34168",455.8433,78.63645,58.70941
"34169",455.85663,78.521706,58.552055
"34170",455.86996,78.4094,58.393555
"34171",455.8833,78.2971,58.231544
"34172",455.89664,78.18234,58.063576
"34173",455.90997,78.0676,57.89203
"34174",455.9233,77.9675,57.731544
"34175",455.93665,77.9382,57.638733
"34176",455.94998,78.07248,57.70858
"34177",455.96332,78.46555,58.04142
"34178",455.97665,79.17601,58.703926
"34179",455.99,80.16968,59.671844
"34180",456.00333,81.339134,60.846603
"34181",456.01666,82.51591,62.065224
"34182",456.03,83.526665,63.154602
"34183",456.04333,84.244446,63.98259
"34184",456.05667,84.627754,64.498535
"34185",456.07,84.70588,64.721275
"34186",456.08334,84.5301,64.69255
"34187",456.09668,84.16632,64.47034
"34188",456.11002,83.68047,64.114685
"34189",456.12335,83.11894,63.668167
"34190",456.1367,82.51835,63.16504
"34191",456.15002,81.898224,62.62361
"34192",456.16336,81.28298,62.067688
"34193",456.1767,80.69215,61.516945
"34194",456.19003,80.15259,60.999016
"34195",456.20337,79.691154,60.54235
"34196",456.2167,79.33227,60.173813
"34197",456.23004,79.08568,59.906357
"34198",456.24338,78.95628,59.74839
"34199",456.2567,78.922104,59.681595
"34200",456.27005,78.96361,59.689415
"34201",456.2834,79.05394,59.74736
"34202",456.29672,79.17113,59.834984
"34203",456.31006,79.273674,59.91163
"34204",456.3234,79.344475,59.959732
"34205",456.33673,79.37377,59.968544
"34206",456.35007,79.35912,59.934326
"34207",456.3634,79.30785,59.86303
"34208",456.37674,79.23949,59.773033
"34209",456.39008,79.16136,59.671143
"34210",456.4034,79.07591,59.559486
"34211",456.41675,78.98802,59.44272
"34212",456.43008,78.890366,59.31344
"34213",456.44342,78.77806,59.16646
"34214",456.45676,78.65354,59.003754
"34215",456.4701,78.53147,58.839607
"34216",456.48343,78.45823,58.720474
"34217",456.49677,78.53391,58.74798
"34218",456.5101,78.86351,59.03176
"34219",456.52344,79.51293,59.645668
"34220",456.53677,80.462654,60.58017
"34221",456.5501,81.617455,61.749428
"34222",456.56345,82.80888,62.9914
"34223",456.57678,83.85626,64.12656
"34224",456.59012,84.630196,65.020996
"34225",456.60345,85.084305,65.6198
"34226",456.6168,85.23079,65.92516
"34227",456.63013,85.12337,65.9812
"34228",456.64346,84.82796,65.845894
"34229",456.6568,84.40803,65.576836
"34230",456.67014,83.912415,65.21897
"34231",456.68347,83.3753,64.804115
"34232",456.6968,82.811325,64.34562
"34233",456.71014,82.230255,63.8524
"34234",456.72348,81.64919,63.341034
"34235",456.73682,81.092545,62.835922
"34236",456.75015,80.58961,62.367126
"34237",456.7635,80.164795,61.96074
"34238",456.77682,79.83032,61.631416
"34239",456.79016,79.5935,61.38929
"34240",456.8035,79.449455,61.232544
"34241",456.81683,79.38598,61.151863
"34242",456.83017,79.38354,61.130234
"34243",456.8435,79.41772,61.14515
"34244",456.85684,79.46166,61.1709
"34245",456.87018,79.49584,61.188255
"34246",456.8835,79.500725,61.177383
"34247",456.89685,79.466545,61.1276
"34248",456.9102,79.40551,61.049896
"34249",456.92352,79.31762,60.943428
"34250",456.93686,79.21263,60.817116
"34251",456.9502,79.093,60.672882
"34252",456.96353,78.96361,60.515144
"34253",456.97687,78.81712,60.336273
"34254",456.9902,78.660866,60.14305
"34255",457.00354,78.502174,59.942513
"34256",457.01688,78.37034,59.76387
"34257",457.0302,78.32151,59.664116
"34258",457.04355,78.46067,59.750824
"34259",457.0569,78.873276,60.115326
"34260",457.07022,79.59838,60.80522
"34261",457.08356,80.59693,61.79122
"34262",457.0969,81.74929,62.962234
"34263",457.11023,82.88945,64.15706
"34264",457.12357,83.85382,65.21172
"34265",457.1369,84.53986,66.018196
"34266",457.15024,84.91341,66.53361
"34267",457.16357,84.998856,66.7726
"34268",457.1769,84.85237,66.782326
"34269",457.19025,84.53498,66.61657
"34270",457.20358,84.1004,66.32371
"34271",457.21692,83.595024,65.946465
"34272",457.23026,83.055466,65.51925
"34273",457.2436,82.49882,65.05808
"34274",457.25693,81.934845,64.5722
"34275",457.27026,81.375755,64.07357
"34276",457.2836,80.84108,63.581886
"34277",457.29694,80.35523,63.122322
"34278",457.31027,79.94263,62.720818
"34279",457.3236,79.62035,62.39675
"34280",457.33694,79.39086,62.155396
"34281",457.35028,79.24681,61.99231
"34282",457.36362,79.1638,61.885765
"34283",457.37695,79.12718,61.823013
"34284",457.3903,79.114975,61.78353
"34285",457.40363,79.11009,61.75099
"34286",457.41696,79.097885,61.710976
"34287",457.4303,79.06859,61.65349
"34288",457.44363,79.009995,61.56579
"34289",457.45697,78.924545,61.4494
"34290",457.4703,78.81712,61.308372
"34291",457.48364,78.68772,61.142006
"34292",457.49698,78.54368,60.956955
"34293",457.5103,78.38987,60.757637
"34294",457.52365,78.23605,60.553505
"34295",457.537,78.07736,60.33969
"34296",457.55032,77.91379,60.116035
"34297",457.56366,77.76242,59.899475
"34298",457.577,77.65499,59.722122
"34299",457.59033,77.67452,59.668373
"34300",457.60367,77.925995,59.847176
"34301",457.617,78.49729,60.35366
"34302",457.63034,79.395744,61.205154
"34303",457.64368,80.54078,62.331306
"34304",457.657,81.78104,63.588463
"34305",457.67035,82.94072,64.8038
"34306",457.6837,83.86603,65.82101
"34307",457.69702,84.473946,66.549736
"34308",457.71036,84.76448,66.98008
"34309",457.7237,84.77425,67.13873
"34310",457.73703,84.56184,67.075516
"34311",457.75037,84.19318,66.84941
"34312",457.7637,83.7293,66.51657
"34313",457.77704,83.211716,66.115524
"34314",457.79037,82.669716,65.67389
"34315",457.8037,82.11551,65.20311
"34316",457.81705,81.5613,64.71501
"34317",457.83038,81.0193,64.2218
"34318",457.84372,80.51148,63.745834
"34319",457.85706,80.05005,63.300385
"34320",457.8704,79.656975,62.908875
"34321",457.88373,79.344475,62.585655
"34322",457.89706,79.114975,62.33567
"34323",457.9104,78.96361,62.156647
"34324",457.92374,78.88304,62.043694
"34325",457.93707,78.84642,61.972168
"34326",457.9504,78.83177,61.92147
"34327",457.96375,78.81712,61.870316
"34328",457.97708,78.78783,61.804054
"34329",457.99042,78.73167,61.710014
"34330",458.00375,78.64866,61.58737
"34331",458.0171,78.53391,61.430397
"34332",458.03043,78.39475,61.245422
"34333",458.04376,78.23605,61.03656
"34334",458.0571,78.07492,60.820305
"34335",458.07043,77.91623,60.601456
"34336",458.08377,77.769745,60.389854
"34337",458.0971,77.63058,60.180992
"34338",458.11044,77.49142,59.96779
"34339",458.12378,77.35226,59.750237
"34340",458.13712,77.21553,59.53077
"34341",458.15045,77.11055,59.338776
"34342",458.1638,77.100784,59.238716
"34343",458.17712,77.28878,59.336113
"34344",458.19046,77.769745,59.732353
"34345",458.2038,78.58762,60.480537
"34346",458.21713,79.69604,61.544815
"34347",458.23047,80.970474,62.809753
"34348",458.2438,82.2327,64.1023
"34349",458.25714,83.302055,65.24143
"34350",458.27048,84.068665,66.11123
"34351",458.2838,84.49348,66.663185
"34352",458.29715,84.60334,66.91347
"34353",458.3105,84.4593,66.91328
"34354",458.32382,84.13458,66.72791
"34355",458.33716,83.69268,66.415215
"34356",458.3505,83.18486,66.02279
"34357",458.36383,82.64042,65.57787
"34358",458.37717,82.07889,65.098854
"34359",458.3905,81.512474,64.597404
"34360",458.40384,80.9485,64.080696
"34361",458.41718,80.413826,63.57566
"34362",458.4305,79.93042,63.105186
"34363",458.44385,79.51537,62.687965
"34364",458.45718,79.18089,62.33834
"34365",458.47052,78.93431,62.066162
"34366",458.48386,78.765854,61.864403
"34367",458.4972,78.660866,61.720848
"34368",458.51053,78.60471,61.62285
"34369",458.52386,78.58274,61.557274
"34370",458.5372,78.572975,61.50322
"34371",458.55054,78.55833,61.443977
"34372",458.56387,78.52415,61.364746
"34373",458.5772,78.46067,61.25515
"34374",458.59055,78.3679,61.114273
"34375",458.60388,78.25071,60.946083
"34376",458.61722,78.11154,60.75225
"34377",458.63055,77.95773,60.53943
"34378",458.6439,77.7966,60.314476
"34379",458.65723,77.63058,60.079597
"34380",458.67056,77.46456,59.83954
"34381",458.6839,77.31075,59.6065
"34382",458.69724,77.16426,59.37597
"34383",458.71057,77.02998,59.153076
"34384",458.7239,76.89815,58.92843
"34385",458.73724,76.773636,58.706985
"34386",458.75058,76.66865,58.501175
"34387",458.76392,76.612495,58.34092
"34388",458.77725,76.6955,58.31807
"34389",458.7906,77.02266,58.54196
"34390",458.80392,77.67696,59.103226
"34391",458.81726,78.66575,60.019417
"34392",458.8306,79.906006,61.21798
"34393",458.84393,81.23903,62.548065
"34394",458.85727,82.47196,63.819717
"34395",458.8706,83.441216,64.86622
"34396",458.88394,84.05646,65.589
"34397",458.89728,84.317696,65.977
"34398",458.9106,84.27619,66.07042
"34399",458.92395,84.01251,65.94037
"34400",458.9373,83.59258,65.64583
"34401",458.95062,83.09209,65.2576
"34402",458.96396,82.55009,64.812225
"34403",458.9773,81.986115,64.32794
"34404",458.99063,81.4197,63.823593
"34405",459.00397,80.85817,63.306427
"34406",459.0173,80.31861,62.793686
"34407",459.03064,79.823,62.30803
"34408",459.04398,79.3933,61.872803
"34409",459.0573,79.03929,61.499832
"34410",459.07065,78.77806,61.20858
"34411",459.08398,78.60227,60.994606
"34412",459.09732,78.5095,60.858154
"34413",459.11066,78.47532,60.777397
"34414",459.124,78.47776,60.732193
"34415",459.13733,78.49729,60.704155
"34416",459.15067,78.519264,60.67917
"34417",459.164,78.519264,60.632896
"34418",459.17734,78.49241,60.55977
"34419",459.19067,78.43626,60.456505
"34420",459.204,78.345924,60.317307
"34421",459.21735,78.22385,60.14354
"34422",459.23068,78.08469,59.948875
"34423",459.24402,77.93088,59.735214
"34424",459.25735,77.77219,59.511864
"34425",459.2707,77.611046,59.281105
"34426",459.28403,77.454796,59.0502
"34427",459.29736,77.30587,58.82174
"34428",459.3107,77.171585,58.603264
"34429",459.32404,77.049515,58.392807
"34430",459.33737,76.93965,58.190742
"34431",459.3507,76.84444,57.999893
"34432",459.36404,76.76143,57.818275
"34433",459.37738,76.69062,57.646263
"34434",459.39072,76.63691,57.489136
"34435",459.40405,76.64423,57.391365
"34436",459.4174,76.79561,57.437874
"34437",459.43073,77.196,57.73813
"34438",459.44406,77.91623,58.370735
"34439",459.4574,78.95628,59.345673
"34440",459.47073,80.218506,60.57528
"34441",459.48407,81.53445,61.89805
"34442",459.4974,82.71122,63.122772
"34443",459.51074,83.595024,64.0913
"34444",459.52408,84.122375,64.730995
"34445",459.5374,84.300606,65.03805
"34446",459.55075,84.190735,65.06257
"34447",459.5641,83.86603,64.86882
"34448",459.57742,83.404594,64.5282
"34449",459.59076,82.86015,64.09015
"34450",459.6041,82.28153,63.600906
"34451",459.61743,81.688255,63.078926
"34452",459.63077,81.09987,62.543297
"34453",459.6441,80.5359,62.013695
"34454",459.65744,80.008545,61.50309
"34455",459.67078,79.53979,61.0346
"34456",459.6841,79.15404,60.634468
"34457",459.69745,78.86107,60.315063
"34458",459.7108,78.66575,60.084152
"34459",459.72412,78.57053,59.947243
"34460",459.73746,78.55833,59.890366
"34461",459.7508,78.59739,59.884377
"34462",459.76413,78.67063,59.913788
"34463",459.77747,78.746315,59.94793
"34464",459.7908,78.802475,59.964912
"34465",459.80414,78.82201,59.94702
"34466",459.81747,78.80492,59.89312
"34467",459.8308,78.75365,59.804504
"34468",459.84415,78.66819,59.6801
"34469",459.85748,78.555885,59.526176
"34470",459.87082,78.42893,59.354095
"34471",459.88416,78.294655,59.170723
"34472",459.8975,78.153046,58.975822
"34473",459.91083,78.009,58.774063
"34474",459.92416,77.8674,58.570244
"34475",459.9375,77.73556,58.371758
"34476",459.95084,77.611046,58.176483
"34477",459.96417,77.4963,57.987083
"34478",459.9775,77.39376,57.806305
"34479",459.99084,77.30099,57.632088
"34480",460.00418,77.21797,57.46473
"34481",460.01752,77.14961,57.309433
"34482",460.03085,77.0959,57.16665
"34483",460.0442,77.06172,57.041718
"34484",460.05753,77.05684,56.945015
"34485",460.07086,77.12276,56.91896
"34486",460.0842,77.349815,57.056107
"34487",460.09753,77.84299,57.46646
"34488",460.11087,78.658424,58.214493
"34489",460.1242,79.766846,59.28099
"34490",460.13754,81.05348,60.56034
"34491",460.15088,82.337685,61.877464
"34492",460.1642,83.42657,63.0394
"34493",460.17755,84.190735,63.910645
"34494",460.1909,84.58625,64.43712
"34495",460.20422,84.64973,64.64391
"34496",460.21756,84.439766,64.579254
"34497",460.2309,84.03693,64.315155
"34498",460.24423,83.51446,63.91884
"34499",460.25757,82.93828,63.452484
"34500",460.2709,82.34257,62.948593
"34501",460.28424,81.74197,62.421196
"34502",460.29758,81.15114,61.884804
"34503",460.3109,80.57984,61.34948
"34504",460.32425,80.04761,60.835365
"34505",460.3376,79.57885,60.368095
"34506",460.35092,79.19066,59.966743
"34507",460.36426,78.907455,59.65825
"34508",460.3776,78.73167,59.44832
"34509",460.39093,78.65354,59.33056
"34510",460.40427,78.660866,59.295807
"34511",460.4176,78.73167,59.32476
"34512",460.43094,78.836655,59.390114
"34513",460.44427,78.94652,59.463623
"34514",460.4576,79.03441,59.518593
"34515",460.47095,79.07591,59.529922
"34516",460.48428,79.07103,59.496162
"34517",460.49762,79.01976,59.415863
"34518",460.51096,78.924545,59.290016
"34519",460.5243,78.79759,59.129456
"34520",460.53763,78.65598,58.95027
"34521",460.55096,78.5095,58.761787
"34522",460.5643,78.365456,58.571167
"34523",460.57764,78.22629,58.38092
"34524",460.59097,78.09445,58.193657
"34525",460.6043,77.97238,58.01204
"34526",460.61765,77.85031,57.826607
"34527",460.63098,77.733116,57.642235
"34528",460.64432,77.63546,57.47374
"34529",460.65765,77.557335,57.321724
"34530",460.671,77.49142,57.179474
"34531",460.68433,77.437706,57.04737
"34532",460.69766,77.3962,56.925797
"34533",460.711,77.36202,56.81025
"34534",460.72433,77.33761,56.7034
"34535",460.73767,77.35226,56.63485
"34536",460.751,77.486534,56.686386
"34537",460.76434,77.838104,56.95941
"34538",460.77768,78.485085,57.538834
"34539",460.79102,79.44213,58.44854
"34540",460.80435,80.635994,59.62497
"34541",460.8177,81.91287,60.921722
"34542",460.83102,83.08232,62.150948
"34543",460.84436,83.97833,63.14328
"34544",460.8577,84.52277,63.812042
"34545",460.87103,84.715645,64.14625
"34546",460.88437,84.613106,64.19107
"34547",460.8977,84.2884,64.01052
"34548",460.91104,83.8172,63.673332
"34549",460.92438,83.26055,63.23597
"34550",460.9377,82.65995,62.73726
"34551",460.95105,82.04227,62.202698
"34552",460.9644,81.4197,61.64395
"34553",460.97772,80.816666,61.08528
"34554",460.99106,80.26002,60.554153
"34555",461.0044,79.77173,60.07399
"34556",461.01773,79.378654,59.673782
"34557",461.03107,79.097885,59.373596
"34558",461.0444,78.93187,59.17939
"34559",461.05774,78.86595,59.080093
"34560",461.07108,78.890366,59.06907
"34561",461.0844,78.975815,59.119843
"34562",461.09775,79.10033,59.21235
"34563",461.11108,79.23216,59.31607
"34564",461.12442,79.34203,59.401947
"34565",461.13776,79.415276,59.454628
"34566",461.1511,79.43969,59.46077
"34567",461.16443,79.42016,59.42373
"34568",461.17776,79.35912,59.344574
"34569",461.1911,79.273674,59.239098
"34570",461.20444,79.17113,59.113853
"34571",461.21777,79.05882,58.975647
"34572",461.2311,78.93431,58.821724
"34573",461.24445,78.80736,58.66147
"34574",461.25778,78.675514,58.492355
"34575",461.27112,78.551,58.326454
"34576",461.28445,78.43137,58.161545
"34577",461.2978,78.32395,58.005104
"34578",461.31113,78.22385,57.852623
"34579",461.32446,78.1384,57.71167
"34580",461.3378,78.06271,57.577812
"34581",461.35114,77.99191,57.446472
"34582",461.36447,77.945526,57.337334
"34583",461.3778,77.95041,57.278015
"34584",461.39114,78.08469,57.348244
"34585",461.40448,78.43626,57.63996
"34586",461.41782,79.08324,58.238075
"34587",461.43115,80.025635,59.151825
"34588",461.4445,81.180435,60.307426
"34589",461.45782,82.38651,61.550392
"34590",461.47116,83.47051,62.70897
"34591",461.4845,84.27863,63.62554
"34592",461.49783,84.749825,64.23044
"34593",461.51117,84.88899,64.518036
"34594",461.5245,84.75716,64.53898
"34595",461.53784,84.42512,64.3556
"34596",461.55118,83.96124,64.03001
"34597",461.5645,83.4168,63.609352
"34598",461.57785,82.82597,63.125298
"34599",461.5912,82.213165,62.6008
"34600",461.60452,81.59548,62.052277
"34601",461.61786,80.99245,61.4991
"34602",461.6312,80.428474,60.96614
"34603",461.64453,79.92554,60.476593
"34604",461.65787,79.51537,60.064102
"34605",461.6712,79.219955,59.75354
"34606",461.68454,79.044174,59.553383
"34607",461.69788,78.98558,59.46492
"34608",461.7112,79.0222,59.46984
"34609",461.72455,79.12474,59.541824
"34610",461.73788,79.26391,59.65364
"34611",461.75122,79.412834,59.779564
"34612",461.76456,79.534904,59.883286
"34613",461.7779,79.61791,59.95176
"34614",461.79123,79.65453,59.97644
"34615",461.80457,79.64233,59.953438
"34616",461.8179,79.59106,59.89099
"34617",461.83124,79.51049,59.797646
"34618",461.84457,79.41039,59.68225
"34619",461.8579,79.30053,59.553963
"34620",461.87125,79.18089,59.412468
"34621",461.88458,79.05394,59.25992
"34622",461.89792,78.92699,59.1034
"34623",461.91125,78.79759,58.940475
"34624",461.9246,78.677956,58.783264
"34625",461.93793,78.56077,58.624763
"34626",461.95126,78.450905,58.469925
"34627",461.9646,78.35081,58.32142
"34628",461.97794,78.28001,58.19908
"34629",461.99127,78.29954,58.164864
"34630",462.0046,78.5095,58.321686
"34631",462.01794,79.00023,58.76584
"34632",462.03128,79.80835,59.542717
"34633",462.04462,80.885025,60.613403
"34634",462.05795,82.09842,61.854454
"34635",462.0713,83.27276,63.094368
"34636",462.08463,84.23712,64.161
"34637",462.09796,84.89143,64.94772
"34638",462.1113,85.206375,65.41552
"34639",462.12463,85.22591,65.59775
"34640",462.13797,85.00374,65.53889
"34641",462.1513,84.61555,65.30706
"34642",462.16464,84.12482,64.96056
"34643",462.17798,83.580376,64.54502
"34644",462.1913,83.00908,64.08561
"34645",462.20465,82.42802,63.59858
"34646",462.218,81.849396,63.095833
"34647",462.23132,81.28542,62.589653
"34648",462.24466,80.74586,62.090256
"34649",462.258,80.26002,61.627724
"34650",462.27133,79.84741,61.223244
"34651",462.28467,79.53002,60.901085
"34652",462.298,79.310295,60.66667
"34653",462.31134,79.18822,60.52304
"34654",462.32468,79.151596,60.461052
"34655",462.338,79.17601,60.458954
"34656",462.35135,79.234604,60.4918
"34657",462.3647,79.30297,60.536247
"34658",462.37802,79.35424,60.565735
"34659",462.39136,79.37377,60.565086
"34660",462.4047,79.35912,60.53087
"34661",462.41803,79.30785,60.45957
"34662",462.43137,79.22484,60.354927
"34663",462.4447,79.12474,60.230606
"34664",462.45804,79.00755,60.086067
"34665",462.47137,78.88304,59.930542
"34666",462.4847,78.75365,59.766243
"34667",462.49805,78.624245,59.597893
"34668",462.51138,78.48997,59.420624
"34669",462.52472,78.35325,59.236717
"34670",462.53806,78.21652,59.04853
"34671",462.5514,78.08469,58.860962
"34672",462.56473,77.96994,58.686363
"34673",462.57806,77.91867,58.571655
"34674",462.5914,78.01633,58.60427
"34675",462.60474,78.363014,58.88897
"34676",462.61807,79.0222,59.497
"34677",462.6314,79.98657,60.430817
"34678",462.64474,81.160904,61.60473
"34679",462.65808,82.38407,62.864174
"34680",462.67142,83.47295,64.02756
"34681",462.68475,84.283516,64.94665
"34682",462.6981,84.76204,65.55903
"34683",462.71143,84.91829,65.86409
"34684",462.72476,84.805984,65.90548
"34685",462.7381,84.49836,65.74804
"34686",462.75143,84.06378,65.45403
"34687",462.76477,83.5584,65.075645
"34688",462.7781,83.02373,64.65217
"34689",462.79144,82.48173,64.20466
"34690",462.80478,81.93729,63.73777
"34691",462.8181,81.392845,63.25387
"34692",462.83145,80.86061,62.76516
"34693",462.8448,80.35523,62.286674
"34694",462.85812,79.90112,61.843666
"34695",462.87146,79.52514,61.464592
"34696",462.8848,79.23949,61.1641
"34697",462.89813,79.046616,60.947464
"34698",462.91147,78.93919,60.81025
"34699",462.9248,78.89525,60.733154
"34700",462.93814,78.89525,60.69863
"34701",462.95148,78.924545,60.693405
"34702",462.9648,78.96361,60.69886
"34703",462.97815,78.98802,60.690887
"34704",462.9915,78.99046,60.661705
"34705",463.00482,78.958725,60.59842
"34706",463.01816,78.89281,60.49996
"34707",463.0315,78.802475,60.37503
"34708",463.04483,78.692604,60.227737
"34709",463.05817,78.572975,60.067253
"34710",463.0715,78.44602,59.895706
"34711",463.08484,78.31663,59.71775
"34712",463.09818,78.187225,59.535744
"34713",463.1115,78.06027,59.352142
"34714",463.12485,77.93088,59.162132
"34715",463.13818,77.80881,58.975403
"34716",463.15152,77.69161,58.789734
"34717",463.16486,77.58419,58.610176
"34718",463.1782,77.51827,58.468765
"34719",463.19153,77.55978,58.432716
"34720",463.20486,77.81369,58.610374
"34721",463.2182,78.37034,59.0987
"34722",463.23154,79.26391,59.941345
"34723",463.24487,80.4358,61.090233
"34724",463.2582,81.739525,62.407578
"34725",463.27155,82.98711,63.70952
"34726",463.28488,84.00275,64.818504
"34727",463.29822,84.681465,65.62231
"34728",463.31155,85.0013,66.08843
"34729",463.3249,85.013504,66.25693
"34730",463.33823,84.79378,66.19387
"34731",463.35156,84.41535,65.96525
"34732",463.3649,83.93683,65.6247
"34733",463.37823,83.41192,65.22282
"34734",463.39157,82.86015,64.77767
"34735",463.4049,82.29862,64.30552
"34736",463.41824,81.72976,63.808487
"34737",463.43158,81.17311,63.305893
"34738",463.44492,80.638435,62.807877
"34739",463.45825,80.147705,62.337097
"34740",463.4716,79.72045,61.91446
"34741",463.48492,79.37377,61.559044
"34742",463.49826,79.11986,61.28556
"34743",463.5116,78.958725,61.096924
"34744",463.52493,78.873276,60.978935
"34745",463.53827,78.84398,60.91443
"34746",463.5516,78.856186,60.89051
"34747",463.56494,78.88548,60.884064
"34748",463.57828,78.9099,60.87365
"34749",463.5916,78.91234,60.842026
"34750",463.60495,78.890366,60.786064
"34751",463.6183,78.839096,60.70012
"34752",463.63162,78.76097,60.585716
"34753",463.64496,78.658424,60.44445
"34754",463.6583,78.538795,60.282898
"34755",463.67163,78.40696,60.1054
"34756",463.68497,78.26536,59.914017
"34757",463.6983,78.12131,59.71576
"34758",463.71164,77.979706,59.51545
"34759",463.72498,77.84299,59.315598
"34760",463.7383,77.713585,59.11879
"34761",463.75165,77.58663,58.920387
"34762",463.76498,77.467,58.72534
"34763",463.77832,77.35226,58.53144
"34764",463.79166,77.25216,58.348602
"34765",463.805,77.19356,58.204132
"34766",463.81833,77.25704,58.179916
"34767",463.83167,77.55245,58.38961
"34768",463.845,78.17502,58.93569
"34769",463.85834,79.13695,59.84059
"34770",463.87167,80.37232,61.048996
"34771",463.885,81.722435,62.410744
"34772",463.89835,82.98711,63.72924
"34773",463.91168,83.99054,64.82602
"34774",463.92502,84.6424,65.602585
"34775",463.93835,84.93538,66.040634
"34776",463.9517,84.91341,66.17289
"34777",463.96503,84.664375,66.0774
"34778",463.97836,84.26154,65.82033
"34779",463.9917,83.773254,65.46521
"34780",464.00504,83.245895,65.05576
"34781",464.01837,82.69901,64.61031
"34782",464.0317,82.142365,64.13801
"34783",464.04504,81.57839,63.640984
"34784",464.05838,81.02663,63.138542
"34785",464.07172,80.499275,62.643272
"34786",464.08505,80.02075,62.18035
"34787",464.0984,79.61303,61.773277
"34788",464.11172,79.293205,61.44136
"34789",464.12506,79.05882,61.18489
"34790",464.1384,78.9099,61.006554
"34791",464.15173,78.839096,60.901688
"34792",464.16507,78.82445,60.85076
"34793",464.1784,78.84398,60.833557
"34794",464.19174,78.87572,60.82917
"34795",464.20508,78.90013,60.81845
"34796",464.2184,78.905014,60.788963
"34797",464.23175,78.87816,60.72789
"34798",464.2451,78.819565,60.63424
"34799",464.25842,78.73411,60.511894
"34800",464.27176,78.626686,60.364914
"34801",464.2851,78.49729,60.192604
"34802",464.29843,78.35081,59.99916
"34803",464.31177,78.19699,59.793808
"34804",464.3251,78.0383,59.578773
"34805",464.33844,77.87961,59.35878
"34806",464.35178,77.72823,59.141144
"34807",464.3651,77.58907,58.930992
"34808",464.37845,77.46456,58.73114
"34809",464.39178,77.35226,58.539604
"34810",464.40512,77.24971,58.354317
"34811",464.41846,77.15938,58.17804
"34812",464.4318,77.083694,58.013588
"34813",464.44513,77.03975,57.87851
"34814",464.45847,77.086136,57.83239
"34815",464.4718,77.332726,57.987923
"34816",464.48514,77.872284,58.44413
"34817",464.49847,78.746315,59.25167
"34818",464.5118,79.906006,60.372185
"34819",464.52515,81.21706,61.680298
"34820",464.53848,82.49149,62.992767
"34821",464.55182,83.54131,64.120445
"34822",464.56516,84.25422,64.944016
"34823",464.5785,84.60822,65.43096
"34824",464.59183,84.644844,65.61159
"34825",464.60516,84.43244,65.544334
"34826",464.6185,84.04425,65.294655
"34827",464.63184,83.55108,64.927864
"34828",464.64517,83.001755,64.48951
"34829",464.6585,82.425575,64.00713
"34830",464.67184,81.84207,63.499428
"34831",464.68518,81.26345,62.97837
"34832",464.69852,80.70191,62.456314
"34833",464.71185,80.184326,61.960663
"34834",464.7252,79.725334,61.50743
"34835",464.73853,79.34936,61.12287
"34836",464.75186,79.06859,60.82177
"34837",464.7652,78.88548,60.60956
"34838",464.77853,78.78783,60.477074
"34839",464.79187,78.765854,60.41722
"34840",464.8052,78.79027,60.40307
"34841",464.81854,78.84154,60.416534
"34842",464.83188,78.89281,60.431602
"34843",464.8452,78.92943,60.433624
"34844",464.85855,78.93919,60.409935
"34845",464.8719,78.91234,60.34993
"34846",464.88522,78.856186,60.25979
"34847",464.89856,78.77074,60.138596
"34848",464.9119,78.66331,59.992752
"34849",464.92523,78.54124,59.82891
"34850",464.93857,78.40696,59.649048
"34851",464.9519,78.26536,59.457664
"34852",464.96524,78.118866,59.256966
"34853",464.97858,77.97238,59.051697
"34854",464.9919,77.8259,58.84185
"34855",465.00525,77.68673,58.634743
"34856",465.0186,77.557335,58.43306
"34857",465.03192,77.44991,58.249306
"34858",465.04526,77.35226,58.07196
"34859",465.0586,77.27169,57.908653
"34860",465.07193,77.20332,57.755028
"34861",465.08527,77.154495,57.618805
"34862",465.0986,77.14229,57.517677
"34863",465.11194,77.239944,57.52603
"34864",465.12527,77.55001,57.749847
"34865",465.1386,78.16281,58.286087
"34866",465.15195,79.08812,59.153984
"34867",465.16528,80.26002,60.297386
"34868",465.17862,81.52712,61.572617
"34869",465.19196,82.701454,62.79467
"34870",465.2053,83.614555,63.79219
"34871",465.21863,84.18341,64.474
"34872",465.23196,84.403145,64.82446
"34873",465.2453,84.332344,64.89126
"34874",465.25864,84.03937,64.733665
"34875",465.27197,83.595024,64.41555
"34876",465.2853,83.06279,63.99566
"34877",465.29865,82.48905,63.51763
"34878",465.31198,81.89334,62.999702
"34879",465.32532,81.29763,62.463158
"34880",465.33865,80.71656,61.922638
"34881",465.352,80.16968,61.398148
"34882",465.36533,79.676506,60.91028
"34883",465.37866,79.26391,60.48757
"34884",465.392,78.95384,60.154503
"34885",465.40533,78.75365,59.921616
"34886",465.41867,78.6511,59.78012
"34887",465.432,78.63157,59.718437
"34888",465.44534,78.67063,59.714737
"34889",465.45868,78.74387,59.746437
"34890",465.47202,78.82689,59.7902
"34891",465.48535,78.90013,59.826782
"34892",465.4987,78.94896,59.84124
"34893",465.51202,78.958725,59.81816
"34894",465.52536,78.92943,59.756325
"34895",465.5387,78.86595,59.659393
"34896",465.55203,78.77806,59.536064
"34897",465.56537,78.66819,59.38801
"34898",465.5787,78.54856,59.22676
"34899",465.59204,78.42405,59.056892
"34900",465.60538,78.294655,58.87825
"34901",465.6187,78.16037,58.690674
"34902",465.63205,78.02609,58.49891
"34903",465.6454,77.89914,58.310272
"34904",465.65872,77.77463,58.12011
"34905",465.67206,77.66476,57.940697
"34906",465.6854,77.57198,57.77495
"34907",465.69873,77.4963,57.62339
"34908",465.71207,77.435265,57.484116
"34909",465.7254,77.39132,57.360023
"34910",465.73874,77.35958,57.246765
"34911",465.75208,77.36446,57.169136
"34912",465.7654,77.471886,57.1942
"34913",465.77875,77.77707,57.42038
"34914",465.79208,78.365456,57.9393
"34915",465.80542,79.256584,58.77935
"34916",465.81876,80.394295,59.89383
"34917",465.8321,81.6321,61.14396
"34918",465.84543,82.78447,62.34733
"34919",465.85876,83.682915,63.332787
"34920",465.8721,84.242004,64.006966
"34921",465.88544,84.4593,64.35682
"34922",465.89877,84.38361,64.42049
"34923",465.9121,84.085754,64.25961
"34924",465.92545,83.63897,63.940506
"34925",465.93878,83.10918,63.52443
"34926",465.95212,82.53544,63.04785
"34927",465.96545,81.94461,62.536255
"34928",465.9788,81.35134,62.003754
"34929",465.99213,80.77272,61.46736
"34930",466.00546,80.235596,60.954384
"34931",466.0188,79.75464,60.48079
"34932",466.03214,79.35668,60.075165
"34933",466.04547,79.06615,59.764526
"34934",466.0588,78.890366,59.559563
"34935",466.07214,78.82201,59.456528
"34936",466.08548,78.84398,59.44169
"34937",466.09882,78.93187,59.493454
"34938",466.11215,79.05394,59.582146
"34939",466.1255,79.183334,59.681976
"34940",466.13882,79.29565,59.76877
"34941",466.15216,79.37377,59.824883
"34942",466.1655,79.40307,59.83461
"34943",466.17883,79.38842,59.801308
"34944",466.19217,79.33471,59.728485
"34945",466.2055,79.24925,59.62224
"34946",466.21884,79.14427,59.493797
"34947",466.23218,79.027084,59.34987
"34948",466.2455,78.90013,59.192513
"34949",466.25885,78.77074,59.028748
"34950",466.2722,78.641335,58.86093
"34951",466.28552,78.51438,58.69152
"34952",466.29886,78.39475,58.525467
"34953",466.3122,78.28733,58.36788
"34954",466.32553,78.19211,58.21914
"34955",466.33887,78.11154,58.082077
"34956",466.3522,78.04074,57.952263
"34957",466.36554,77.98947,57.839767
"34958",466.37888,77.99191,57.77938
"34959",466.3922,78.12619,57.850906
"34960",466.40555,78.487526,58.153687
"34961",466.41888,79.14183,58.760727
"34962",466.43222,80.076904,59.668983
"34963",466.44556,81.20241,60.79689
"34964",466.4589,82.3621,61.994156
"34965",466.47223,83.372856,63.078728
"34966",466.48557,84.11017,63.92144
"34967",466.4989,84.52766,64.46737
"34968",466.51224,84.63996,64.72116
"34969",466.52557,84.5008,64.727
"34970",466.5389,84.18097,64.54781
"34971",466.55225,83.74151,64.239006
"34972",466.56558,83.23369,63.848106
"34973",466.57892,82.68925,63.404716
"34974",466.59225,82.12283,62.92234
"34975",466.6056,81.55154,62.41738
"34976",466.61893,80.987564,61.901894
"34977",466.63226,80.45777,61.40296
"34978",466.6456,79.98657,60.946068
"34979",466.65894,79.60082,60.5599
"34980",466.67227,79.32006,60.266663
"34981",466.6856,79.15404,60.07939
"34982",466.69894,79.09544,59.99436
"34983",466.71228,79.11986,59.99051
"34984",466.72562,79.202866,60.046013
"34985",466.73895,79.31518,60.133415
"34986",466.7523,79.43481,60.231644
"34987",466.76562,79.53002,60.309196
"34988",466.77896,79.588615,60.353104
"34989",466.7923,79.60815,60.35978
"34990",466.80563,79.58373,60.32312
"34991",466.81897,79.517815,60.244194
"34992",466.8323,79.42504,60.136353
"34993",466.84564,79.310295,60.00364
"34994",466.85898,79.183334,59.855125
"34995",466.8723,79.05638,59.702652
"34996",466.88565,78.93431,59.551094
"34997",466.899,78.81712,59.400604
"34998",466.91232,78.69993,59.246445
"34999",466.92566,78.58762,59.093513
"35000",466.939,78.47532,58.937073
"35001",466.95233,78.3679,58.782005
"35002",466.96567,78.30198,58.665085
"35003",466.979,78.348366,58.65841
"35004",466.99234,78.607155,58.865585
"35005",467.00568,79.15648,59.371384
"35006",467.019,80.01099,60.19953
"35007",467.03235,81.09987,61.288757
"35008",467.0457,82.28153,62.50479
"35009",467.05902,83.38506,63.67962
"35010",467.07236,84.263985,64.66432
"35011",467.0857,84.83772,65.37131
"35012",467.09903,85.10628,65.79104
"35013",467.11237,85.11604,65.96037
"35014",467.1257,84.92317,65.927376
"35015",467.13904,84.58381,65.74186
"35016",467.15237,84.14679,65.44808
"35017",467.1657,83.65606,65.08694
"35018",467.17905,83.13603,64.68116
"35019",467.19238,82.6038,64.246925
"35020",467.20572,82.06668,63.791176
"35021",467.21906,81.53689,63.325966
"35022",467.2324,81.03639,62.873497
"35023",467.24573,80.59205,62.46154
"35024",467.25906,80.22827,62.116264
"35025",467.2724,79.96216,61.857285
"35026",467.28574,79.798584,61.692528
"35027",467.29907,79.727776,61.615425
"35028",467.3124,79.72045,61.599594
"35029",467.32574,79.75708,61.627487
"35030",467.33908,79.801025,61.66384
"35031",467.35242,79.83032,61.68692
"35032",467.36575,79.83765,61.688942
"35033",467.3791,79.81323,61.659454
"35034",467.39243,79.7522,61.592583
"35035",467.40576,79.66186,61.4945
"35036",467.4191,79.554436,61.37651
"35037",467.43243,79.429924,61.238075
"35038",467.44577,79.29565,61.085983
"35039",467.4591,79.151596,60.91992
"35040",467.47244,79.00511,60.746925
"35041",467.48578,78.86107,60.571793
"35042",467.4991,78.71458,60.38971
"35043",467.51245,78.56321,60.198174
"35044",467.5258,78.41917,60.00923
"35045",467.53912,78.29954,59.840202
"35046",467.55246,78.26292,59.750443
"35047",467.5658,78.40208,59.83532
"35048",467.57913,78.81224,60.19555
"35049",467.59247,79.53246,60.878654
"35050",467.6058,80.52613,61.85771
"35051",467.61914,81.68337,63.031395
"35052",467.63248,82.83574,64.23637
"35053",467.6458,83.824524,65.31377
"35054",467.65915,84.542305,66.15106
"35055",467.6725,84.95735,66.70805
"35056",467.68582,85.08675,66.99236
"35057",467.69916,84.98665,67.05122
"35058",467.7125,84.71809,66.93849
"35059",467.72583,84.33967,66.70751
"35060",467.73917,83.89044,66.3939
"35061",467.7525,83.40948,66.03451
"35062",467.76584,82.90898,65.64056
"35063",467.77917,82.39872,65.2212
"35064",467.7925,81.883575,64.78101
"35065",467.80585,81.38308,64.33938
"35066",467.81918,80.91432,63.91384
"35067",467.83252,80.50172,63.529808
"35068",467.84586,80.16235,63.206123
"35069",467.8592,79.90845,62.95729
"35070",467.87253,79.7351,62.781082
"35071",467.88586,79.635,62.672707
"35072",467.8992,79.58373,62.61003
"35073",467.91254,79.5642,62.57749
"35074",467.92587,79.55688,62.55655
"35075",467.9392,79.54711,62.532936
"35076",467.95255,79.51537,62.487045
"35077",467.96588,79.4519,62.408424
"35078",467.97922,79.35668,62.29608
"35079",467.99255,79.22972,62.149017
"35080",468.0059,79.080795,61.97602
"35081",468.01923,78.91966,61.786163
"35082",468.03256,78.75365,61.586388
"35083",468.0459,78.58518,61.378975
"35084",468.05923,78.41428,61.163864
"35085",468.07257,78.24582,60.945847
"35086",468.0859,78.0798,60.725014
"35087",468.09924,77.91867,60.503876
"35088",468.11258,77.76486,60.285027
"35089",468.12592,77.6379,60.08822
"35090",468.13925,77.5964,59.9729
"35091",468.1526,77.74044,60.041832
"35092",468.16592,78.16037,60.39115
"35093",468.17926,78.89769,61.070984
"35094",468.1926,79.920654,62.0595
"35095",468.20593,81.12184,63.25821
"35096",468.21927,82.32792,64.499344
"35097",468.2326,83.372856,65.61703
"35098",468.24594,84.14191,66.49148
"35099",468.25928,84.59846,67.07746
"35100",468.2726,84.76448,67.387184
"35101",468.28595,84.68391,67.4555
"35102",468.2993,84.43244,67.3504
"35103",468.31262,84.06622,67.122696
"35104",468.32596,83.64141,66.82495
"35105",468.3393,83.17998,66.47731
"35106",468.35263,82.703896,66.1006
"35107",468.36597,82.20584,65.68704
"35108",468.3793,81.7029,65.25304
"35109",468.39264,81.19997,64.803314
"35110",468.40598,80.719,64.35985
"35111",468.4193,80.272224,63.93554
"35112",468.43265,79.89136,63.56318
"35113",468.44598,79.58129,63.249718
"35114",468.45932,79.35424,63.009583
"35115",468.47266,79.19798,62.833145
"35116",468.486,79.10277,62.712868
"35117",468.49933,79.0515,62.63356
"35118",468.51266,79.0222,62.574623
"35119",468.526,78.99046,62.51233
"35120",468.53934,78.94408,62.434395
"35121",468.55267,78.873276,62.330597
"35122",468.566,78.768295,62.190407
"35123",468.57935,78.63645,62.020073
"35124",468.59268,78.4802,61.821213
"35125",468.60602,78.30686,61.60038
"35126",468.61935,78.12131,61.361916
"35127",468.6327,77.9382,61.120102
"35128",468.64603,77.75021,60.867683
"35129",468.65936,77.56954,60.616707
"35130",468.6727,77.40353,60.37474
"35131",468.68604,77.2546,60.144676
"35132",468.69937,77.120316,59.9246
"35133",468.7127,77.00069,59.71498
"35134",468.72604,76.88838,59.50895
"35135",468.73938,76.7834,59.306732
"35136",468.75272,76.71015,59.132965
"35137",468.76605,76.74189,59.061897
"35138",468.7794,76.97383,59.192024
"35139",468.79272,77.50851,59.632133
"35140",468.80606,78.382545,60.428314
"35141",468.8194,79.551994,61.54722
"35142",468.83273,80.885025,62.86625
"35143",468.84607,82.20096,64.20984
"35144",468.8594,83.32159,65.39925
"35145",468.87274,84.13458,66.31604
"35146",468.88608,84.610664,66.921326
"35147",468.8994,84.771805,67.22655
"35148",468.91275,84.68391,67.287766
"35149",468.9261,84.41047,67.1607
"35150",468.93942,84.01984,66.90789
"35151",468.95276,83.55352,66.56719
"35152",468.9661,83.055466,66.18018
"35153",468.97943,82.53544,65.75564
"35154",468.99277,82.005646,65.30508
"35155",469.0061,81.47585,64.83796
"35156",469.01944,80.953384,64.36161
"35157",469.03278,80.45777,63.89579
"35158",469.0461,80.008545,63.46087
"35159",469.05945,79.622795,63.075386
"35160",469.07278,79.31274,62.75354
"35161",469.08612,79.08812,62.507446
"35162",469.09946,78.93675,62.327583
"35163",469.1128,78.84398,62.201584
"35164",469.12613,78.79759,62.119072
"35165",469.13947,78.77318,62.057083
"35166",469.1528,78.74143,61.987
"35167",469.16614,78.695045,61.901283
"35168",469.17947,78.624245,61.789703
"35169",469.1928,78.52659,61.649055
"35170",469.20615,78.399635,61.47606
"35171",469.21948,78.24826,61.274673
"35172",469.23282,78.082245,61.053917
"35173",469.24615,77.90158,60.813324
"35174",469.2595,77.71847,60.564636
"35175",469.27283,77.5378,60.312675
"35176",469.28616,77.366905,60.064835
"35177",469.2995,77.20088,59.81653
"35178",469.31284,77.04463,59.572807
"35179",469.32617,76.90059,59.33641
"35180",469.3395,76.76875,59.10772
"35181",469.35284,76.64423,58.882225
"35182",469.36618,76.53193,58.665054
"35183",469.37952,76.43183,58.45658
"35184",469.39285,76.34882,58.26207
"35185",469.4062,76.30488,58.104027
"35186",469.41953,76.36591,58.04959
"35187",469.43286,76.63935,58.209465
"35188",469.4462,77.21797,58.683067
"35189",469.45953,78.1384,59.516556
"35190",469.47287,79.35424,60.674225
"35191",469.4862,80.726326,62.02613
"35192",469.49954,82.06668,63.389183
"35193",469.51288,83.1873,64.57439
"35194",469.5262,83.97345,65.46014
"35195",469.53955,84.403145,66.014
"35196",469.5529,84.52033,66.26878
"35197",469.56622,84.386055,66.275764
"35198",469.57956,84.07843,66.1052
"35199",469.5929,83.65606,65.81028
"35200",469.60623,83.17265,65.441124
"35201",469.61957,82.650185,65.0178
"35202",469.6329,82.108185,64.55862
"35203",469.64624,81.5613,64.077614
"35204",469.65958,81.02174,63.586845
"35205",469.6729,80.50416,63.10119
"35206",469.68625,80.02319,62.63598
"35207",469.6996,79.59594,62.20945
"35208",469.71292,79.24437,61.845253
"35209",469.72626,78.975815,61.553085
"35210",469.7396,78.79027,61.335533
"35211",469.75293,78.68528,61.19274
"35212",469.76627,78.63889,61.10527
"35213",469.7796,78.63401,61.057854
"35214",469.79294,78.63645,61.01761
"35215",469.80627,78.63645,60.975
"35216",469.8196,78.61204,60.907974
"35217",469.83295,78.55833,60.81089
"35218",469.84628,78.467995,60.675507
"35219",469.85962,78.35569,60.515327
"35220",469.87296,78.221405,60.32966
"35221",469.8863,78.065155,60.11783
"35222",469.89963,77.891815,59.884026
"35223",469.91296,77.713585,59.639915
"35224",469.9263,77.540245,59.395126
"35225",469.93964,77.36935,59.14736
"35226",469.95297,77.208206,58.904015
"35227",469.9663,77.06172,58.670288
"35228",469.97964,76.927444,58.44419
"35229",469.99298,76.807816,58.228546
"35230",470.00632,76.697945,58.01892
"35231",470.01965,76.60517,57.82296
"35232",470.033,76.53193,57.64363
"35233",470.04633,76.47578,57.479103
"35234",470.05966,76.42695,57.320145
"35235",470.073,76.39521,57.17675
"35236",470.08633,76.404976,57.073868
"35237",470.09967,76.52705,57.083595
"35238",470.113,76.86885,57.31687
"35239",470.12634,77.52071,57.870888
"35240",470.13968,78.504616,58.777313
"35241",470.153,79.75708,59.983047
"35242",470.16635,81.13161,61.349983
"35243",470.1797,82.43534,62.68908
"35244",470.19302,83.4876,63.817444
"35245",470.20636,84.19318,64.632
"35246",470.2197,84.53742,65.107285
"35247",470.23303,84.56672,65.27837
"35248",470.24637,84.34699,65.201355
"35249",470.2597,83.95148,64.94168
"35250",470.27304,83.44854,64.562225
"35251",470.28638,82.89433,64.11578
"35252",470.2997,82.320595,63.632492
"35253",470.31305,81.74929,63.133705
"35254",470.3264,81.18532,62.624397
"35255",470.33972,80.64332,62.11944
"35256",470.35306,80.1355,61.63172
"35257",470.3664,79.67895,61.179405
"35258",470.37973,79.29565,60.78607
"35259",470.39307,79.009995,60.47841
"35260",470.4064,78.82689,60.264366
"35261",470.41974,78.73411,60.134926
"35262",470.43307,78.71458,60.075836
"35263",470.4464,78.74387,60.064964
"35264",470.45975,78.79759,60.07943
"35265",470.47308,78.84642,60.090683
"35266",470.48642,78.87572,60.08393
"35267",470.49976,78.870834,60.043915
"35268",470.5131,78.83177,59.969566
"35269",470.52643,78.76097,59.86226
"35270",470.53976,78.658424,59.720993
"35271",470.5531,78.54124,59.561882
"35272",470.56644,78.40208,59.377136
"35273",470.57977,78.25315,59.178276
"35274",470.5931,78.09445,58.96499
"35275",470.60645,77.9382,58.74919
"35276",470.61978,77.786835,58.533394
"35277",470.63312,77.6379,58.3153
"35278",470.64645,77.49874,58.102325
"35279",470.6598,77.37179,57.89721
"35280",470.67313,77.25948,57.702774
"35281",470.68646,77.16182,57.51947
"35282",470.6998,77.083694,57.352654
"35283",470.71313,77.0251,57.202927
"35284",470.72647,76.97627,57.061134
"35285",470.7398,76.93721,56.92758
"35286",470.75314,76.910355,56.805016
"35287",470.76648,76.93477,56.73288
"35288",470.77982,77.09834,56.800667
"35289",470.79315,77.506065,57.117714
"35290",470.8065,78.23117,57.764885
"35291",470.81982,79.27123,58.749672
"35292",470.83316,80.54078,59.996445
"35293",470.8465,81.86893,61.34149
"35294",470.85983,83.06523,62.5962
"35295",470.87317,83.97589,63.602646
"35296",470.8865,84.53254,64.28354
"35297",470.89984,84.74006,64.6327
"35298",470.91318,84.65217,64.69293
"35299",470.9265,84.33967,64.52581
"35300",470.93985,83.88556,64.20731
"35301",470.9532,83.34356,63.786736
"35302",470.96652,82.760056,63.307716
"35303",470.97986,82.16434,62.79825
"35304",470.9932,81.56863,62.270172
"35305",471.00653,80.987564,61.73813
"35306",471.01987,80.44068,61.222107
"35307",471.0332,79.94263,60.737823
"35308",471.04654,79.520256,60.31366
"35309",471.05988,79.185776,59.964188
"35310",471.0732,78.9514,59.70437
"35311",471.08655,78.819565,59.539764
"35312",471.09988,78.77318,59.45649
"35313",471.11322,78.79271,59.437683
"35314",471.12656,78.85863,59.465874
"35315",471.1399,78.93919,59.510773
"35316",471.15323,79.00511,59.54354
"35317",471.16656,79.046616,59.553955
"35318",471.1799,79.0515,59.529045
"35319",471.19324,79.01732,59.465225
"35320",471.20657,78.94896,59.366158
"35321",471.2199,78.84886,59.233215
"35322",471.23325,78.729225,59.077606
"35323",471.24658,78.59495,58.903618
"35324",471.25992,78.45335,58.71811
"35325",471.27325,78.3093,58.525734
"35326",471.2866,78.16525,58.32885
"35327",471.29993,78.02121,58.127472
"35328",471.31326,77.87961,57.924034
"35329",471.3266,77.747765,57.72593
"35330",471.33994,77.61837,57.526154
"35331",471.35327,77.50118,57.33454
"35332",471.3666,77.401085,57.156357
"35333",471.37994,77.31808,56.992134
"35334",471.39328,77.24971,56.83996
"35335",471.40662,77.20088,56.705185
"35336",471.41995,77.19356,56.61039
"35337",471.4333,77.296104,56.625237
"35338",471.44662,77.60128,56.845917
"35339",471.45996,78.19455,57.364227
