"","Time..s.","PPG.trace","Preprocessed.PPG"
"72253",975.1509,70.05966,113.0346
"72254",975.1642,69.698326,112.362625
"72255",975.1775,69.24666,111.58903
"72256",975.1908,68.75105,110.75738
"72257",975.2041,68.37263,110.02742
"72258",975.2174,68.49714,109.788574
"72259",975.2307,69.73739,110.66936
"72260",975.244,72.69886,113.31012
"72261",975.2573,77.58175,117.96484
"72262",975.2706,84.00275,124.31027
"72263",975.28394,91.073166,131.50578
"72264",975.29724,97.689476,138.46812
"72265",975.31055,102.889755,144.22119
"72266",975.32385,106.17105,148.21779
"72267",975.33716,107.579765,150.44435
"72268",975.35046,107.48455,151.211
"72269",975.3638,106.28336,150.8687
"72270",975.3771,104.271614,149.6783
"72271",975.3904,101.65682,147.82199
"72272",975.4037,98.62943,145.47137
"72273",975.417,95.37255,142.79666
"72274",975.4303,92.05951,139.96402
"72275",975.4436,88.8246,137.10597
"72276",975.4569,85.77524,134.33238
"72277",975.4702,82.98222,131.71985
"72278",975.4835,80.49439,129.32521
"72279",975.4968,78.37522,127.22149
"72280",975.51013,76.732124,125.52762
"72281",975.52344,75.71404,124.40742
"72282",975.53674,75.45525,124.014694
"72283",975.55005,75.99725,124.41467
"72284",975.56335,77.261925,125.55426
"72285",975.57666,79.03441,127.24118
"72286",975.58997,81.01442,129.19101
"72287",975.6033,82.896774,131.10507
"72288",975.6166,84.43244,132.73126
"72289",975.6299,85.45785,133.89519
"72290",975.6432,85.91684,134.52473
"72291",975.6565,85.841156,134.63396
"72292",975.6698,85.30648,134.28181
"72293",975.6831,84.39582,133.53699
"72294",975.6964,83.19951,132.47804
"72295",975.7097,81.80301,131.18153
"72296",975.723,80.274666,129.70953
"72297",975.7363,78.66819,128.11165
"72298",975.74963,77.04707,126.44891
"72299",975.76294,75.46502,124.77458
"72300",975.77625,73.968414,123.13626
"72301",975.78955,72.59632,121.57568
"72302",975.80286,71.378044,120.12604
"72303",975.81616,70.33799,118.81654
"72304",975.82947,69.505455,117.68207
"72305",975.8428,68.892654,116.74131
"72306",975.8561,68.509346,116.010895
"72307",975.8694,68.353096,115.49556
"72308",975.8827,68.4239,115.20239
"72309",975.896,68.70466,115.1214
"72310",975.9093,69.16609,115.22985
"72311",975.9226,69.77402,115.499214
"72312",975.9359,70.47959,115.88522
"72313",975.9492,71.22667,116.334785
"72314",975.9625,71.96399,116.79794
"72315",975.9758,72.65003,117.232864
"72316",975.98914,73.2604,117.61354
"72317",976.00244,73.777985,117.92052
"72318",976.01575,74.20035,118.148445
"72319",976.02905,74.52506,118.29192
"72320",976.04236,74.74723,118.343
"72321",976.05566,74.85466,118.286285
"72322",976.069,74.84001,118.11085
"72323",976.0823,74.69108,117.80067
"72324",976.0956,74.40055,117.34424
"72325",976.1089,73.9733,116.742004
"72326",976.1222,73.4313,116.01167
"72327",976.1355,72.8185,115.1936
"72328",976.1488,72.24963,114.40032
"72329",976.1621,72.00549,113.91399
"72330",976.1754,72.59144,114.25011
"72331",976.1887,74.55192,115.979065
"72332",976.202,78.19699,119.45389
"72333",976.21533,83.33379,124.53435
"72334",976.22864,89.29824,130.60298
"72335",976.24194,95.13573,136.73103
"72336",976.25525,99.92828,141.99658
"72337",976.26855,103.09483,145.78589
"72338",976.28186,104.54017,147.95294
"72339",976.29517,104.532845,148.7125
"72340",976.3085,103.4342,148.3805
"72341",976.3218,101.53475,147.21336
"72342",976.3351,99.054245,145.40582
"72343",976.3484,96.18555,143.13257
"72344",976.3617,93.0898,140.54262
"72345",976.375,89.915924,137.7778
"72346",976.3883,86.77623,134.94798
"72347",976.4016,83.74883,132.13234
"72348",976.4149,80.89235,129.393
"72349",976.4282,78.27268,126.80122
"72350",976.4415,76.00702,124.48158
"72351",976.45483,74.26627,122.61606
"72352",976.46814,73.255516,121.426125
"72353",976.48145,73.15297,121.112816
"72354",976.49475,74.0148,121.76068
"72355",976.50806,75.733574,123.29242
"72356",976.52136,78.04562,125.471146
"72357",976.53467,80.587166,127.951614
"72358",976.548,82.99443,130.37723
"72359",976.5613,84.97444,132.45082
"72360",976.5746,86.35142,133.98325
"72361",976.5879,87.0692,134.8995
"72362",976.6012,87.15465,135.20587
"72363",976.6145,86.695656,134.97046
"72364",976.6278,85.79721,134.28125
"72365",976.6411,84.576485,133.24168
"72366",976.6544,83.13847,131.94669
"72367",976.6677,81.57595,130.48224
"72368",976.681,79.957275,128.91281
"72369",976.69434,78.33616,127.29036
"72370",976.70764,76.771194,125.6734
"72371",976.72095,75.299,124.10031
"72372",976.73425,73.968414,122.62282
"72373",976.74756,72.80873,121.27465
"72374",976.76086,71.84436,120.085556
"72375",976.7742,71.08995,119.07628
"72376",976.7875,70.555275,118.26317
"72377",976.8008,70.24277,117.65551
"72378",976.8141,70.149994,117.25782
"72379",976.8274,70.26231,117.06232
"72380",976.8407,70.5626,117.058304
"72381",976.854,71.026474,117.22726
"72382",976.8673,71.622185,117.54254
"72383",976.8806,72.30579,117.96434
"72384",976.8939,73.043106,118.46121
"72385",976.9072,73.78775,118.98846
"72386",976.92053,74.50065,119.507225
"72387",976.93384,75.13786,119.97259
"72388",976.94714,75.65789,120.340675
"72389",976.96045,76.02411,120.571205
"72390",976.97375,76.209656,120.63251
"72391",976.98706,76.19745,120.501854
"72392",977.00037,75.98749,120.173065
"72393",977.0137,75.596855,119.65704
"72394",977.027,75.06706,118.989655
"72395",977.0403,74.486,118.25444
"72396",977.0536,74.06119,117.65732
"72397",977.0669,74.19302,117.60357
"72398",977.0802,75.41131,118.64039
"72399",977.0935,78.12619,121.211876
"72400",977.1068,82.35233,125.37946
"72401",977.1201,87.63561,130.73625
"72402",977.1334,93.187454,136.5267
"72403",977.1467,98.11429,141.86565
"72404",977.16003,101.72518,146.0426
"72405",977.17334,103.73937,148.7357
"72406",977.18665,104.2765,150.01468
"72407",977.19995,103.624626,150.12144
"72408",977.21326,102.081635,149.31673
"72409",977.22656,99.88678,147.81192
"72410",977.23987,97.23781,145.78441
"72411",977.2532,94.31541,143.4007
"72412",977.2665,91.27337,140.80602
"72413",977.2798,88.24841,138.13335
"72414",977.2931,85.32845,135.47115
"72415",977.3064,82.562294,132.8715
"72416",977.3197,79.9939,130.38318
"72417",977.333,77.69405,128.08315
"72418",977.3463,75.79462,126.11165
"72419",977.3596,74.476234,124.66185
"72420",977.3729,73.93912,123.95212
"72421",977.3862,74.31022,124.13382
"72422",977.39954,75.579765,125.22556
"72423",977.41284,77.55489,127.06256
"72424",977.42615,79.90845,129.3397
"72425",977.43945,82.25956,131.68796
"72426",977.45276,84.27131,133.77032
"72427",977.46606,85.71664,135.34914
"72428",977.4794,86.505226,136.31638
"72429",977.4927,86.64683,136.66127
"72430",977.506,86.22934,136.45149
"72431",977.5193,85.36263,135.77945
"72432",977.5326,84.156555,134.74095
"72433",977.5459,82.70634,133.42062
"72434",977.5592,81.09743,131.89629
"72435",977.5725,79.40551,130.23866
"72436",977.5858,77.70138,128.51595
"72437",977.5991,76.04852,126.79126
"72438",977.6124,74.495766,125.11502
"72439",977.62573,73.094376,123.541626
"72440",977.63904,71.871216,122.10267
"72441",977.65234,70.84825,120.82568
"72442",977.66565,70.03769,119.729126
"72443",977.67896,69.454185,118.8343
"72444",977.69226,69.09773,118.148285
"72445",977.70557,68.96101,117.67087
"72446",977.7189,69.0367,117.40158
"72447",977.7322,69.30282,117.325096
"72448",977.7455,69.73983,117.42782
"72449",977.7588,70.31602,117.68337
"72450",977.7721,70.99962,118.06435
"72451",977.7854,71.75159,118.53505
"72452",977.7987,72.53773,119.06343
"72453",977.812,73.306786,119.59929
"72454",977.8253,74.0148,120.098145
"72455",977.8386,74.61051,120.50682
"72456",977.8519,75.04753,120.77542
"72457",977.86523,75.28924,120.862366
"72458",977.87854,75.318535,120.74445
"72459",977.89185,75.140305,120.41993
"72460",977.90515,74.78142,119.90918
"72461",977.91846,74.29557,119.260254
"72462",977.93176,73.8024,118.58882
"72463",977.94507,73.585106,118.17786
"72464",977.9584,74.11978,118.51207
"72465",977.9717,75.93622,120.14475
"72466",977.985,79.33227,123.41381
"72467",977.9983,84.15167,128.21234
"72468",978.0116,89.776764,133.96718
"72469",978.0249,95.33593,139.83186
"72470",978.0382,99.95514,144.93033
"72471",978.0515,103.07042,148.6692
"72472",978.0648,104.567024,150.88676
"72473",978.0781,104.6598,151.74725
"72474",978.09143,103.658806,151.51688
"72475",978.10474,101.84726,150.44467
"72476",978.11804,99.44488,148.72502
"72477",978.13135,96.6421,146.52989
"72478",978.14465,93.62203,144.02989
"72479",978.15796,90.55558,141.38913
"72480",978.17126,87.5819,138.74532
"72481",978.1846,84.78645,136.1868
"72482",978.1979,82.20584,133.75577
"72483",978.2112,79.8645,131.48337
"72484",978.2245,77.80881,129.42343
"72485",978.2378,76.1535,127.69965
"72486",978.2511,75.06706,126.49301
"72487",978.2644,74.72526,125.997055
"72488",978.2777,75.22575,126.33272
"72489",978.291,76.52216,127.479935
"72490",978.3043,78.4094,129.25848
"72491",978.3176,80.56275,131.36212
"72492",978.33093,82.64042,133.45738
"72493",978.34424,84.351875,135.25136
"72494",978.35754,85.51888,136.55437
"72495",978.37085,86.063324,137.27127
"72496",978.38416,86.00961,137.40704
"72497",978.39746,85.43343,137.01866
"72498",978.41077,84.437325,136.19235
"72499",978.4241,83.12138,135.01508
"72500",978.4374,81.58572,133.57695
"72501",978.4507,79.920654,131.96144
"72502",978.464,78.20187,130.24017
"72503",978.4773,76.49775,128.47986
"72504",978.4906,74.864426,126.73709
"72505",978.5039,73.34829,125.06047
"72506",978.5172,71.993286,123.497604
"72507",978.5305,70.81163,122.065735
"72508",978.5438,69.83261,120.799576
"72509",978.5571,69.068436,119.71767
"72510",978.57043,68.53376,118.84138
"72511",978.58374,68.2359,118.185196
"72512",978.59705,68.18707,117.76874
"72513",978.61035,68.367744,117.58025
"72514",978.62366,68.755936,117.604935
"72515",978.63696,69.31014,117.80776
"72516",978.65027,69.98154,118.145096
"72517",978.6636,70.71885,118.56933
"72518",978.6769,71.47326,119.0337
"72519",978.6902,72.19592,119.4899
"72520",978.7035,72.86244,119.91254
"72521",978.7168,73.45083,120.27788
"72522",978.7301,73.94644,120.56883
"72523",978.7434,74.337074,120.770294
"72524",978.7567,74.61051,120.86677
"72525",978.77,74.75456,120.8424
"72526",978.7833,74.75456,120.67848
"72527",978.79663,74.60807,120.36807
"72528",978.80994,74.319984,119.91149
"72529",978.82324,73.89761,119.31162
"72530",978.83655,73.3605,118.58381
"72531",978.84985,72.76723,117.78306
"72532",978.86316,72.26429,117.0541
"72533",978.87646,72.20569,116.75375
"72534",978.8898,73.15541,117.4599
"72535",978.9031,75.65545,119.74605
"72536",978.9164,79.871826,123.82666
"72537",978.9297,85.45785,129.40868
"72538",978.943,91.62737,135.74876
"72539",978.9563,97.38918,141.87393
"72540",978.9696,101.86923,146.8974
"72541",978.9829,104.62562,150.3372
"72542",978.9962,105.687645,152.16878
"72543",979.0095,105.36538,152.64925
"72544",979.0228,104.007935,152.08447
"72545",979.03613,101.89609,150.72287
"72546",979.04944,99.25445,148.76549
"72547",979.06274,96.28809,146.40083
"72548",979.07605,93.19722,143.81897
"72549",979.08936,90.14786,141.18202
"72550",979.10266,87.2694,138.62068
"72551",979.11597,84.630196,136.20865
"72552",979.1293,82.2449,133.96805
"72553",979.1426,80.113525,131.90683
"72554",979.1559,78.2678,130.06465
"72555",979.1692,76.80049,128.54321
"72556",979.1825,75.86786,127.5106
"72557",979.1958,75.631035,127.144646
"72558",979.2091,76.16571,127.54279
"72559",979.2224,77.418175,128.67543
"72560",979.2357,79.183334,130.35991
"72561",979.249,81.160904,132.31195
"72562",979.2623,83.035934,134.22327
"72563",979.27563,84.54963,135.83183
"72564",979.28894,85.53597,136.96036
"72565",979.30225,85.93881,137.5362
"72566",979.31555,85.78256,137.56554
"72567",979.32886,85.135574,137.09926
"72568",979.34216,84.09308,136.21725
"72569",979.35547,82.75029,135.00238
"72570",979.3688,81.20973,133.54778
"72571",979.3821,79.55688,131.93272
"72572",979.3954,77.86984,130.23184
"72573",979.4087,76.21454,128.50996
"72574",979.422,74.64713,126.824265
"72575",979.4353,73.20424,125.214096
"72576",979.4486,71.922485,123.71998
"72577",979.4619,70.8336,122.37868
"72578",979.4752,69.9498,121.20842
"72579",979.4885,69.295494,120.24004
"72580",979.50183,68.875565,119.485596
"72581",979.51514,68.68757,118.94996
"72582",979.52844,68.72419,118.633064
"72583",979.54175,68.95613,118.512634
"72584",979.55505,69.35897,118.57035
"72585",979.56836,69.88632,118.76517
"72586",979.58167,70.49668,119.05947
"72587",979.595,71.14122,119.40703
"72588",979.6083,71.77356,119.76253
"72589",979.6216,72.359505,120.0914
"72590",979.6349,72.86977,120.3629
"72591",979.6482,73.29458,120.564896
"72592",979.6615,73.62661,120.687386
"72593",979.6748,73.8732,120.73481
"72594",979.6881,74.02945,120.6996
"72595",979.7014,74.09537,120.57894
"72596",979.7147,74.05875,120.3578
"72597",979.728,73.91226,120.02566
"72598",979.74133,73.653465,119.57662
"72599",979.75464,73.28237,119.0072
"72600",979.76794,72.80629,118.3212
"72601",979.78125,72.26673,117.55684
"72602",979.79456,71.77112,116.819565
"72603",979.80786,71.58312,116.37442
"72604",979.82117,72.198364,116.72664
"72605",979.8345,74.178375,118.462845
"72606",979.8478,77.83078,121.93333
"72607",979.8611,82.97734,127.0121
"72608",979.8744,88.96376,133.09157
"72609",979.8877,94.85008,139.25801
"72610",979.901,99.71343,144.58542
"72611",979.9143,102.960556,148.4486
"72612",979.9276,104.48646,150.69202
"72613",979.9409,104.54261,151.51337
"72614",979.9542,103.48058,151.21829
"72615",979.9675,101.607994,150.07947
"72616",979.98083,99.16167,148.3084
"72617",979.99414,96.35645,146.10199
"72618",980.00745,93.37789,143.63457
"72619",980.02075,90.409096,141.08383
"72620",980.03406,87.5819,138.58192
"72621",980.04736,84.98421,136.22116
"72622",980.06067,82.64774,134.04045
"72623",980.074,80.57252,132.04797
"72624",980.0873,78.76097,130.25432
"72625",980.1006,77.261925,128.71655
"72626",980.1139,76.18524,127.554306
"72627",980.1272,75.667656,126.91751
"72628",980.1405,75.81659,126.93106
"72629",980.1538,76.64423,127.627975
"72630",980.1671,78.02609,128.90497
"72631",980.1804,79.727776,130.54497
"72632",980.1937,81.46609,132.27477
"72633",980.20703,82.97734,133.83183
"72634",980.22034,84.0589,135.00644
"72635",980.23364,84.60822,135.6826
"72636",980.24695,84.60334,135.82173
"72637",980.26025,84.09308,135.45532
"72638",980.27356,83.16289,134.65305
"72639",980.28687,81.91531,133.50432
"72640",980.3002,80.45289,132.10175
"72641",980.3135,78.86595,130.52896
"72642",980.3268,77.23506,128.86263
"72643",980.3401,75.62127,127.16243
"72644",980.3534,74.0856,125.48993
"72645",980.3667,72.672005,123.89151
"72646",980.38,71.414665,122.40517
"72647",980.3933,70.33555,121.057755
"72648",980.4066,69.4493,119.86949
"72649",980.4199,68.773026,118.8635
"72650",980.4332,68.30915,118.04878
"72651",980.44653,68.06256,117.43685
"72652",980.45984,68.033264,117.03451
"72653",980.47314,68.21393,116.84121
"72654",980.48645,68.577705,116.83667
"72655",980.49976,69.09285,116.994865
"72656",980.51306,69.715416,117.27658
"72657",980.52637,70.399025,117.638794
"72658",980.5397,71.08263,118.02236
"72659",980.553,71.72228,118.38335
"72660",980.5663,72.28626,118.688644
"72661",980.5796,72.74769,118.90901
"72662",980.5929,73.09926,119.03395
"72663",980.6062,73.34829,119.06734
"72664",980.6195,73.51186,119.02305
"72665",980.6328,73.59731,118.90575
"72666",980.6461,73.61196,118.720314
"72667",980.6594,73.55581,118.46454
"72668",980.6727,73.428856,118.13621
"72669",980.68604,73.22377,117.72578
"72670",980.69934,72.938126,117.22838
"72671",980.71265,72.57435,116.64392
"72672",980.72595,72.14221,115.97974
"72673",980.73926,71.68078,115.27275
"72674",980.75256,71.326775,114.65877
"72675",980.76587,71.40734,114.46829
"72676",980.7792,72.47181,115.26424
"72677",980.7925,75.04997,117.60715
"72678",980.8058,79.3225,121.72499
"72679",980.8191,84.95491,127.33623
"72680",980.8324,91.16838,133.70454
"72681",980.8457,96.971695,139.85687
"72682",980.859,101.48592,144.90146
"72683",980.8723,104.256966,148.34393
"72684",980.8856,105.31899,150.16399
"72685",980.8989,104.99184,150.62805
"72686",980.91223,103.639275,150.05649
"72687",980.92554,101.559166,148.7151
"72688",980.93884,98.99321,146.82288
"72689",980.95215,96.146484,144.56969
"72690",980.96545,93.2021,142.12988
"72691",980.97876,90.31388,139.65422
"72692",980.99207,87.6112,137.27385
"72693",981.0054,85.16487,135.06537
"72694",981.0187,82.99687,133.05878
"72695",981.032,81.09987,131.25543
"72696",981.0453,79.46899,129.65892
"72697",981.0586,78.1384,128.31174
"72698",981.0719,77.205765,127.32093
"72699",981.0852,76.79561,126.823456
"72700",981.0985,76.995804,126.923515
"72701",981.1118,77.803925,127.63776
"72702",981.1251,79.097885,128.86308
"72703",981.1384,80.655525,130.39253
"72704",981.15173,82.22293,131.98042
"72705",981.16504,83.560844,133.3878
"72706",981.17834,84.50324,134.44148
"72707",981.19165,84.95003,135.02899
"72708",981.20496,84.88655,135.12021
"72709",981.21826,84.34455,134.73091
"72710",981.23157,83.407036,133.92917
"72711",981.2449,82.16678,132.79538
"72712",981.2582,80.73121,131.42752
"72713",981.2715,79.19554,129.9147
"72714",981.2848,77.628136,128.32216
"72715",981.2981,76.09491,126.71481
"72716",981.3114,74.64225,125.14012
"72717",981.3247,73.304344,123.63479
"72718",981.338,72.112915,122.23412
"72719",981.3513,71.08507,120.95981
"72720",981.3646,70.233,119.82915
"72721",981.3779,69.56649,118.857414
"72722",981.39124,69.09773,118.06261
"72723",981.40454,68.83894,117.46312
"72724",981.41785,68.795,117.07039
"72725",981.43115,68.95125,116.87648
"72726",981.44446,69.29061,116.87057
"72727",981.45776,69.771576,117.01686
"72728",981.47107,70.347755,117.2734
"72729",981.4844,70.96544,117.58945
"72730",981.4977,71.58556,117.927246
"72731",981.511,72.16174,118.24048
"72732",981.5243,72.6598,118.49359
"72733",981.5376,73.060196,118.66461
"72734",981.5509,73.35561,118.743164
"72735",981.5642,73.5436,118.72352
"72736",981.5775,73.633934,118.61209
"72737",981.5908,73.653465,118.432686
"72738",981.6041,73.62661,118.207504
"72739",981.61743,73.5729,117.95463
"72740",981.63074,73.494774,117.67566
"72741",981.64404,73.39468,117.37228
"72742",981.65735,73.25796,117.029144
"72743",981.67065,73.06996,116.63046
"72744",981.68396,72.82094,116.16488
"72745",981.69727,72.50599,115.62559
"72746",981.7106,72.13245,115.01785
"72747",981.7239,71.71984,114.35939
"72748",981.7372,71.35607,113.73686
"72749",981.7505,71.312126,113.42279
"72750",981.7638,72.10315,113.94232
"72751",981.7771,74.29801,115.89041
"72752",981.7904,78.18234,119.59656
"72753",981.8037,83.529106,124.88652
"72754",981.817,89.652245,131.11995
"72755",981.8303,95.59228,137.36162
"72756",981.8436,100.42634,142.68294
"72757",981.85693,103.59777,146.49269
"72758",981.87024,105.040665,148.67302
"72759",981.88354,105.0309,149.44577
"72760",981.89685,103.92493,149.12201
"72761",981.91016,102.00839,147.95312
"72762",981.92346,99.53033,146.16283
"72763",981.93677,96.7129,143.95572
"72764",981.9501,93.75876,141.52386
"72765",981.9634,90.84367,139.03874
"72766",981.9767,88.11658,136.65051
"72767",981.99,85.67513,134.4627
"72768",982.0033,83.546196,132.51112
"72769",982.0166,81.71999,130.79575
"72770",982.0299,80.16968,129.29918
"72771",982.0432,78.90257,128.03738
"72772",982.0565,77.98215,127.082664
"72773",982.0698,77.52071,126.558174
"72774",982.0831,77.608604,126.56859
"72775",982.09644,78.27268,127.157936
"72776",982.10974,79.42504,128.25632
"72777",982.12305,80.88991,129.70322
"72778",982.13635,82.423134,131.26425
"72779",982.14966,83.7879,132.70474
"72780",982.16296,84.80354,133.83876
"72781",982.1763,85.35775,134.54308
"72782",982.1896,85.41634,134.7691
"72783",982.2029,84.99397,134.51599
"72784",982.2162,84.1712,133.84929
"72785",982.2295,83.04326,132.8517
"72786",982.2428,81.705345,131.60889
"72787",982.2561,80.25025,130.20709
"72788",982.2694,78.75853,128.72319
"72789",982.2827,77.29122,127.21709
"72790",982.296,75.88739,125.72861
"72791",982.3093,74.5861,124.2988
"72792",982.32263,73.40688,122.9504
"72793",982.33594,72.37171,121.7092
"72794",982.34924,71.49035,120.58945
"72795",982.36255,70.77989,119.61307
"72796",982.37585,70.2501,118.79515
"72797",982.38916,69.91318,118.15354
"72798",982.40247,69.771576,117.696724
"72799",982.4158,69.82529,117.43079
"72800",982.4291,70.05722,117.344765
"72801",982.4424,70.44541,117.42224
"72802",982.4557,70.94591,117.62415
"72803",982.469,71.52209,117.91739
"72804",982.4823,72.1178,118.24817
"72805",982.4956,72.689095,118.57315
"72806",982.5089,73.199356,118.85495
"72807",982.5222,73.619286,119.06236
"72808",982.5355,73.936676,119.18036
"72809",982.5488,74.13931,119.19352
"72810",982.56213,74.24185,119.112915
"72811",982.57544,74.25407,118.94519
"72812",982.58875,74.18326,118.694824
"72813",982.60205,74.04654,118.376335
"72814",982.61536,73.85123,117.99498
"72815",982.62866,73.60952,117.56113
"72816",982.64197,73.32876,117.080666
"72817",982.6553,73.02602,116.56945
"72818",982.6686,72.71839,116.04389
"72819",982.6819,72.430305,115.52826
"72820",982.6952,72.17883,115.04024
"72821",982.7085,71.97131,114.5883
"72822",982.7218,71.81262,114.17871
"72823",982.7351,71.692986,113.80322
"72824",982.7484,71.60021,113.45085
"72825",982.7617,71.52941,113.11755
"72826",982.775,71.465935,112.78937
"72827",982.7883,71.397575,112.454315
"72828",982.80164,71.31457,112.10248
"72829",982.81494,71.23888,111.75537
"72830",982.82825,71.29748,111.54019
"72831",982.84155,71.86145,111.832214
"72832",982.85486,73.51919,113.23563
"72833",982.86816,76.807816,116.32173
"72834",982.8815,81.85428,121.26844
"72835",982.8948,88.224,127.696106
"72836",982.9081,95.04784,134.77695
"72837",982.9214,101.27596,141.47531
"72838",982.9347,106.022125,146.88635
"72839",982.948,108.87862,150.55603
"72840",982.9613,109.9382,152.51807
"72841",982.9746,109.55489,153.07033
"72842",982.9879,108.09003,152.52905
"72843",983.0012,105.831696,151.14853
"72844",983.0145,103.028915,149.15298
"72845",983.02783,99.894104,146.73782
"72846",983.04114,96.62501,144.09042
"72847",983.05444,93.402306,141.38725
"72848",983.06775,90.37003,138.7738
"72849",983.08105,87.62585,136.35368
"72850",983.09436,85.2137,134.17984
"72851",983.10767,83.12871,132.25778
"72852",983.121,81.358665,130.58551
"72853",983.1343,79.91333,129.18263
"72854",983.1476,78.873276,128.13986
"72855",983.1609,78.345924,127.5773
"72856",983.1742,78.433815,127.6135
"72857",983.1875,79.15648,128.28722
"72858",983.2008,80.42115,129.52553
"72859",983.2141,82.0325,131.15004
"72860",983.2274,83.72442,132.90547
"72861",983.2407,85.240555,134.538
"72862",983.254,86.37583,135.83704
"72863",983.26733,87.00816,136.66861
"72864",983.28064,87.096054,136.97551
"72865",983.29395,86.659035,136.76024
"72866",983.30725,85.770355,136.07965
"72867",983.32056,84.53742,135.02704
"72868",983.33386,83.072556,133.70396
"72869",983.34717,81.46853,132.19595
"72870",983.3605,79.81079,130.5841
"72871",983.3738,78.167694,128.93509
"72872",983.3871,76.58808,127.29822
"72873",983.4004,75.11101,125.71452
"72874",983.4137,73.763336,124.21407
"72875",983.427,72.56214,122.817986
"72876",983.4403,71.534294,121.55771
"72877",983.4536,70.68223,120.441086
"72878",983.4669,70.02792,119.4956
"72879",983.4802,69.58114,118.73718
"72880",983.4935,69.34432,118.174774
"72881",983.50684,69.31991,117.81737
"72882",983.52014,69.49081,117.65451
"72883",983.53345,69.83261,117.6679
"72884",983.54675,70.30625,117.82381
"72885",983.56006,70.872665,118.08729
"72886",983.57336,71.483025,118.412415
"72887",983.5867,72.09094,118.75418
"72888",983.6,72.654915,119.071
"72889",983.6133,73.14809,119.33464
"72890",983.6266,73.55337,119.5258
"72891",983.6399,73.85611,119.62709
"72892",983.6532,74.05386,119.63285
"72893",983.6665,74.144196,119.53737
"72894",983.6798,74.13687,119.34705
"72895",983.6931,74.039215,119.06618
"72896",983.7064,73.86099,118.70168
"72897",983.7197,73.63149,118.28034
"72898",983.73303,73.37759,117.82742
"72899",983.74634,73.12123,117.36412
"72900",983.75964,72.86977,116.8977
"72901",983.77295,72.6305,116.435616
"72902",983.78625,72.39124,115.966064
"72903",983.79956,72.14221,115.47926
"72904",983.81287,71.8761,114.96759
"72905",983.8262,71.58556,114.42319
"72906",983.8395,71.275505,113.850174
"72907",983.8528,70.97032,113.272354
"72908",983.8661,70.7921,112.81195
"72909",983.8794,71.07286,112.80496
"72910",983.8927,72.396126,113.84926
"72911",983.906,75.35027,116.56578
"72912",983.9193,80.16235,121.23256
"72913",983.9326,86.49546,127.57074
"72914",983.9459,93.52682,134.80508
"72915",983.9592,100.16998,141.87096
"72916",983.97253,105.45327,147.78456
"72917",983.98584,108.82979,151.9565
"72918",983.99915,110.30198,154.32962
"72919",984.01245,110.19699,155.17157
"72920",984.02576,108.895706,154.81393
"72921",984.03906,106.71305,153.53427
"72922",984.05237,103.905396,151.5614
"72923",984.0657,100.697334,149.10039
"72924",984.079,97.30129,146.35114
"72925",984.0923,93.9028,143.49332
"72926",984.1056,90.65568,140.68065
"72927",984.1189,87.66247,138.02043
"72928",984.1322,84.97444,135.57185
"72929",984.1455,82.58915,133.34201
"72930",984.1588,80.499275,131.33305
"72931",984.1721,78.73167,129.58105
"72932",984.1854,77.38644,128.19618
"72933",984.1987,76.595406,127.32348
"72934",984.21204,76.48066,127.10234
"72935",984.22534,77.100784,127.61249
"72936",984.23865,78.38987,128.81097
"72937",984.25195,80.14038,130.51117
"72938",984.26526,82.07645,132.45163
"72939",984.27856,83.90021,134.34029
"72940",984.2919,85.36019,135.92215
"72941",984.3052,86.295265,137.02473
"72942",984.3185,86.6395,137.5657
"72943",984.3318,86.400246,137.53394
"72944",984.3451,85.65316,136.98686
"72945",984.3584,84.49836,136.00873
"72946",984.3717,83.055466,134.7064
"72947",984.385,81.427025,133.17345
"72948",984.3983,79.710686,131.50171
"72949",984.4116,77.98215,129.76413
"72950",984.4249,76.29511,128.01404
"72951",984.43823,74.69108,126.29423
"72952",984.45154,73.21156,124.64881
"72953",984.46484,71.88342,123.108536
"72954",984.47815,70.73106,121.70253
"72955",984.49146,69.77646,120.458275
"72956",984.50476,69.03914,119.40147
"72957",984.51807,68.53132,118.55112
"72958",984.5314,68.265205,117.926605
"72959",984.5447,68.2359,117.53059
"72960",984.558,68.42878,117.355835
"72961",984.5713,68.81941,117.384865
"72962",984.5846,69.35653,117.572586
"72963",984.5979,69.98154,117.86498
"72964",984.6112,70.64805,118.218414
"72965",984.6245,71.30236,118.580475
"72966",984.6378,71.905396,118.91171
"72967",984.6511,72.43763,119.190994
"72968",984.6644,72.8893,119.40634
"72969",984.67773,73.25063,119.54547
"72970",984.69104,73.52895,119.61288
"72971",984.70435,73.724266,119.60597
"72972",984.71765,73.83902,119.52461
"72973",984.73096,73.88541,119.37847
"72974",984.74426,73.88052,119.18251
"72975",984.75757,73.84146,118.95222
"72976",984.7709,73.77066,118.688965
"72977",984.7842,73.673,118.39664
"72978",984.7975,73.53628,118.0622
"72979",984.8108,73.340965,117.6649
"72980",984.8241,73.06752,117.183365
"72981",984.8374,72.71107,116.610275
"72982",984.8507,72.28138,115.952805
"72983",984.864,71.81995,115.25017
"72984",984.8773,71.48058,114.65518
"72985",984.8906,71.63683,114.5452
"72986",984.90393,72.89662,115.54364
"72987",984.91724,75.83856,118.2636
"72988",984.93054,80.66041,122.95541
"72989",984.94385,86.99107,129.3067
"72990",984.95715,93.98337,136.51747
"72991",984.97046,100.54597,143.51704
"72992",984.98376,105.71938,149.33252
"72993",984.9971,108.99092,153.40779
"72994",985.0104,110.37766,155.7005
"72995",985.0237,110.19943,156.47157
"72996",985.037,108.824905,156.04077
"72997",985.0503,106.56168,154.67833
"72998",985.0636,103.67101,152.6177
"72999",985.0769,100.37507,150.06148
"73000",985.0902,96.89113,147.21426
"73001",985.1035,93.399864,144.25085
"73002",985.1168,90.057526,141.32726
"73003",985.1301,86.94713,138.53116
"73004",985.14343,84.119934,135.92107
"73005",985.15674,81.58816,133.51804
"73006",985.17004,79.36889,131.3484
"73007",985.18335,77.51827,129.47806
"73008",985.19666,76.16083,128.04306
"73009",985.20996,75.44549,127.20775
"73010",985.22327,75.494316,127.11425
"73011",985.2366,76.33173,127.81087
"73012",985.2499,77.84787,129.21237
"73013",985.2632,79.80591,131.10315
"73014",985.2765,81.89578,133.18695
"73015",985.2898,83.81232,135.16273
"73016",985.3031,85.31136,136.78091
"73017",985.3164,86.24155,137.87708
"73018",985.3297,86.55161,138.38219
"73019",985.343,86.26597,138.30128
"73020",985.3563,85.470055,137.70119
"73021",985.3696,84.27131,136.67339
"73022",985.38293,82.78691,135.32246
"73023",985.39624,81.126724,133.74937
"73024",985.40955,79.37621,132.03407
"73025",985.42285,77.61349,130.25185
"73026",985.43616,75.90204,128.46582
"73027",985.44946,74.28336,126.719086
"73028",985.46277,72.796524,125.053604
"73029",985.4761,71.47082,123.50279
"73030",985.4894,70.3209,122.086334
"73031",985.5027,69.36385,120.82681
"73032",985.516,68.611885,119.74246
"73033",985.5293,68.07477,118.849464
"73034",985.5426,67.757385,118.15942
"73035",985.5559,67.66216,117.68161
"73036",985.5692,67.774475,117.40836
"73037",985.5825,68.07477,117.32661
"73038",985.5958,68.541084,117.42026
"73039",985.60913,69.13191,117.65299
"73040",985.62244,69.803314,117.984764
"73041",985.63574,70.51133,118.37413
"73042",985.64905,71.21202,118.7783
"73043",985.66235,71.85901,119.150665
"73044",985.67566,72.42542,119.46268
"73045",985.68896,72.89174,119.69229
"73046",985.7023,73.248184,119.82661
"73047",985.7156,73.497215,119.86465
"73048",985.7289,73.6437,119.80792
"73049",985.7422,73.70718,119.67277
"73050",985.7555,73.704735,119.47368
"73051",985.7688,73.64858,119.2208
"73052",985.7821,73.56069,118.93443
"73053",985.7954,73.44106,118.61358
"73054",985.8087,73.287254,118.25481
"73055",985.822,73.08949,117.847275
"73056",985.8353,72.8307,117.372536
"73057",985.84863,72.50111,116.8189
"73058",985.86194,72.09827,116.18172
"73059",985.87524,71.66857,115.5051
"73060",985.88855,71.380486,114.95665
"73061",985.90186,71.639275,114.946075
"73062",985.91516,73.06508,116.11061
"73063",985.92847,76.21698,119.0458
"73064",985.9418,81.23659,123.94719
"73065",985.9551,87.71374,130.46298
"73066",985.9684,94.76219,137.75249
"73067",985.9817,101.3077,144.75931
"73068",985.995,106.43717,150.55464
"73069",986.0083,109.69894,154.64256
"73070",986.0216,111.132065,157.00378
"73071",986.0349,111.046616,157.8912
"73072",986.0482,109.789276,157.60406
"73073",986.0615,107.631035,156.37674
"73074",986.0748,104.81117,154.42035
"73075",986.08813,101.54696,151.93149
"73076",986.10144,98.055695,149.11357
"73077",986.11475,94.52781,146.14993
"73078",986.12805,91.11467,143.19078
"73079",986.14136,87.923706,140.34715
"73080",986.15466,85.01106,137.68213
"73081",986.16797,82.391396,135.21906
"73082",986.1813,80.08667,132.98906
"73083",986.1946,78.16281,131.0679
"73084",986.2079,76.74433,129.59201
"73085",986.2212,75.97772,128.72366
"73086",986.2345,75.97772,128.59796
"73087",986.2478,76.76387,129.2584
"73088",986.2611,78.21896,130.61237
"73089",986.2744,80.10132,132.43906
"73090",986.2877,82.1033,134.44421
"73091",986.301,83.929504,136.33615
"73092",986.31433,85.35287,137.88231
"73093",986.32764,86.222015,138.91873
"73094",986.34094,86.48814,139.37929
"73095",986.35425,86.17563,139.26953
"73096",986.36755,85.36263,138.64952
"73097",986.38086,84.15167,137.60614
"73098",986.39417,82.65751,136.24171
"73099",986.4075,80.98268,134.64993
"73100",986.4208,79.219955,132.91792
"73101",986.4341,77.44015,131.11374
"73102",986.4474,75.70672,129.30031
"73103",986.4607,74.06851,127.52794
"73104",986.474,72.56458,125.83865
"73105",986.4873,71.22179,124.263504
"73106",986.5006,70.0621,122.8295
"73107",986.5139,69.100174,121.55701
"73108",986.5272,68.33845,120.45466
"73109",986.5405,67.77936,119.53114
"73110",986.55383,67.43023,118.80012
"73111",986.56714,67.29107,118.26815
"73112",986.58044,67.36431,117.94424
"73113",986.59375,67.64263,117.82769
"73114",986.60706,68.09918,117.89807
"73115",986.62036,68.69489,118.12188
"73116",986.63367,69.37606,118.44976
"73117",986.647,70.0914,118.8331
"73118",986.6603,70.78966,119.22171
"73119",986.6736,71.4342,119.57843
"73120",986.6869,71.99573,119.872284
"73121",986.7002,72.464485,120.09091
"73122",986.7135,72.8185,120.20944
"73123",986.7268,73.057755,120.22428
"73124",986.7401,73.18227,120.13185
"73125",986.7534,73.20424,119.94077
"73126",986.7667,73.13832,119.66249
"73127",986.78,73.006485,119.31623
"73128",986.79333,72.8307,118.921906
"73129",986.80664,72.63294,118.50011
"73130",986.81995,72.43763,118.07457
"73131",986.83325,72.234985,117.635605
"73132",986.84656,71.99817,117.15613
"73133",986.85986,71.67834,116.58624
"73134",986.87317,71.255974,115.903824
"73135",986.8865,70.728615,115.10321
"73136",986.8998,70.1207,114.20556
"73137",986.9131,69.49569,113.27182
"73138",986.9264,68.96834,112.41621
"73139",986.9397,68.80965,111.91277
"73140",986.953,69.53719,112.29062
"73141",986.9663,71.81018,114.23664
"73142",986.9796,76.070496,118.24103
"73143",986.9929,82.23758,124.28532
"73144",987.0062,89.635155,131.75282
"73145",987.01953,97.20119,139.61995
"73146",987.03284,103.79797,146.75427
"73147",987.04614,108.61494,152.31493
"73148",987.05945,111.40307,155.99727
"73149",987.07275,112.36256,157.93811
"73150",987.08606,111.87671,158.4636
"73151",987.09937,110.28977,157.8728
"73152",987.1127,107.87274,156.40233
"73153",987.126,104.85512,154.25572
"73154",987.1393,101.45663,151.63396
"73155",987.1526,97.87991,148.72777
"73156",987.1659,94.30076,145.70737
"73157",987.1792,90.863205,142.7167
"73158",987.1925,87.66003,139.853
"73159",987.2058,84.7425,137.17485
"73160",987.2191,82.1326,134.71315
"73161",987.2324,79.86206,132.50926
"73162",987.2457,78.011444,130.65433
"73163",987.25903,76.700386,129.28113
"73164",987.27234,76.068054,128.54568
"73165",987.28564,76.190125,128.54488
"73166",987.29895,77.051956,129.28764
"73167",987.31226,78.519264,130.66283
"73168",987.32556,80.35279,132.45007
"73169",987.33887,82.269325,134.37764
"73170",987.3522,83.99054,136.16977
"73171",987.3655,85.29916,137.60309
"73172",987.3788,86.05844,138.52797
"73173",987.3921,86.219574,138.87843
"73174",987.4054,85.81186,138.66508
"73175",987.4187,84.90852,137.94337
"73176",987.432,83.62432,136.81256
"73177",987.4453,82.06424,135.36574
"73178",987.4586,80.343025,133.70903
"73179",987.4719,78.54856,131.9253
"73180",987.4852,76.75899,130.09036
"73181",987.49854,75.03044,128.26053
"73182",987.51184,73.41909,126.49388
"73183",987.52515,71.95911,124.82825
"73184",987.53845,70.67246,123.29033
"73185",987.55176,69.5787,121.905075
"73186",987.56506,68.68757,120.68828
"73187",987.57837,68.00397,119.65116
"73188",987.5917,67.51812,118.790436
"73189",987.605,67.23491,118.117165
"73190",987.6183,67.1519,117.63525
"73191",987.6316,67.26421,117.346054
"73192",987.6449,67.55474,117.23859
"73193",987.6582,68.001526,117.296455
"73194",987.6715,68.577705,117.49768
"73195",987.6848,69.239334,117.80236
"73196",987.6981,69.93759,118.164345
"73197",987.7114,70.608986,118.521286
"73198",987.72473,71.202255,118.82108
"73199",987.73804,71.68322,119.027115
"73200",987.75134,72.047,119.131
"73201",987.76465,72.29847,119.13394
"73202",987.77795,72.46693,119.06172
"73203",987.79126,72.584114,118.9435
"73204",987.80457,72.66468,118.79231
"73205",987.8179,72.708626,118.607025
"73206",987.8312,72.71595,118.38649
"73207",987.8445,72.66956,118.11247
"73208",987.8578,72.56214,117.77597
"73209",987.8711,72.376595,117.35799
"73210",987.8844,72.09827,116.84143
"73211",987.8977,71.71984,116.21608
"73212",987.911,71.26086,115.49834
"73213",987.9243,70.79942,114.76381
"73214",987.9376,70.56504,114.24191
"73215",987.9509,71.04112,114.42315
"73216",987.96423,72.86244,115.96451
"73217",987.97754,76.50263,119.38165
"73218",987.99084,81.9617,124.73143
"73219",988.00415,88.69764,131.52867
"73220",988.01746,95.7583,138.86113
"73221",988.03076,102.09384,145.68912
"73222",988.04407,106.881516,151.16722
"73223",988.0574,109.80881,154.93456
"73224",988.0707,110.99046,157.04773
"73225",988.084,110.751205,157.77692
"73226",988.0973,109.39132,157.378
"73227",988.1106,107.1696,156.07477
"73228",988.1239,104.30335,154.05757
"73229",988.1372,101.01228,151.52599
"73230",988.1505,97.50637,148.67671
"73231",988.1638,93.98581,145.70322
"73232",988.1771,90.60685,142.7613
"73233",988.1904,87.47204,139.95796
"73234",988.20374,84.63752,137.35695
"73235",988.21704,82.12039,134.98474
"73236",988.23035,79.94507,132.87569
"73237",988.24365,78.16037,131.08926
"73238",988.25696,76.86641,129.73781
"73239",988.27026,76.18768,128.96115
"73240",988.28357,76.21454,128.86887
"73241",988.2969,76.94209,129.47812
"73242",988.3102,78.26292,130.70338
"73243",988.3235,79.9646,132.35078
"73244",988.3368,81.77615,134.16122
"73245",988.3501,83.42657,135.86714
"73246",988.3634,84.69611,137.24377
"73247",988.3767,85.452965,138.14738
"73248",988.39,85.643394,138.50822
"73249",988.4033,85.28207,138.32326
"73250",988.4166,84.439766,137.64603
"73251",988.42993,83.21904,136.56404
"73252",988.44324,81.722435,135.16803
"73253",988.45654,80.05005,133.54947
"73254",988.46985,78.294655,131.79564
"73255",988.48315,76.53193,129.97961
"73256",988.49646,74.82536,128.16467
"73257",988.50977,73.22621,126.40382
"73258",988.5231,71.77844,124.74437
"73259",988.5364,70.504005,123.21301
"73260",988.5497,69.420006,121.83226
"73261",988.563,68.53864,120.62027
"73262",988.5763,67.862366,119.58582
"73263",988.5896,67.39849,118.742645
"73264",988.6029,67.142136,118.09249
"73265",988.6162,67.09575,117.644295
"73266",988.6295,67.244675,117.38996
"73267",988.6428,67.56451,117.31119
"73268",988.6561,68.02838,117.38645
"73269",988.66943,68.60944,117.5934
"73270",988.68274,69.25887,117.88687
"73271",988.69604,69.942474,118.23481
"73272",988.70935,70.61875,118.59679
"73273",988.72266,71.24864,118.93351
"73274",988.73596,71.800415,119.21181
"73275",988.74927,72.25941,119.414566
"73276",988.7626,72.62806,119.54132
"73277",988.7759,72.90883,119.59172
"73278",988.7892,73.12123,119.58253
"73279",988.8025,73.272606,119.51894
"73280",988.8158,73.37026,119.40637
"73281",988.8291,73.39956,119.22849
"73282",988.8424,73.338524,118.9612
"73283",988.8557,73.15541,118.569916
"73284",988.869,72.8185,118.01911
"73285",988.8823,72.32288,117.29908
"73286",988.8956,71.70275,116.43904
"73287",988.90894,71.05333,115.530334
"73288",988.92224,70.58701,114.78444
"73289",988.93555,70.745705,114.64897
"73290",988.94885,72.12268,115.73675
"73291",988.96216,75.21599,118.58389
"73292",988.97546,80.12085,123.33926
"73293",988.9888,86.414894,129.63708
"73294",989.0021,93.24605,136.6687
"73295",989.0154,99.60357,143.44016
"73296",989.0287,104.62562,149.07481
"73297",989.042,107.88495,153.1037
"73298",989.0553,109.40597,155.49612
"73299",989.0686,109.45968,156.46877
"73300",989.0819,108.35371,156.2834
"73301",989.0952,106.34196,155.1577
"73302",989.1085,103.64904,153.28796
"73303",989.1218,100.4947,150.87265
"73304",989.13513,97.091324,148.10974
"73305",989.14844,93.63424,145.18677
"73306",989.16174,90.28214,142.26074
"73307",989.17505,87.13512,139.43503
"73308",989.18835,84.25422,136.7771
"73309",989.20166,81.6614,134.31723
"73310",989.21497,79.412834,132.12059
"73311",989.2283,77.61349,130.30289
"73312",989.2416,76.40009,129.01491
"73313",989.2549,75.90692,128.40924
"73314",989.2682,76.207214,128.58162
"73315",989.2815,77.25216,129.50804
"73316",989.2948,78.86595,131.03596
"73317",989.3081,80.7776,132.91217
"73318",989.3214,82.684364,134.84323
"73319",989.3347,84.32258,136.56534
"73320",989.348,85.489586,137.86743
"73321",989.3613,86.08774,138.63713
"73322",989.37463,86.09262,138.83226
"73323",989.38794,85.555504,138.48553
"73324",989.40125,84.559395,137.66304
"73325",989.41455,83.20683,136.45296
"73326",989.42786,81.60769,134.95403
"73327",989.44116,79.85718,133.25375
"73328",989.45447,78.03586,131.42798
"73329",989.4678,76.2121,129.54283
"73330",989.4811,74.44694,127.6593
"73331",989.4944,72.79164,125.830475
"73332",989.5077,71.28039,124.09396
"73333",989.521,69.942474,122.48357
"73334",989.5343,68.80476,121.031555
"73335",989.5476,67.87457,119.75151
"73336",989.5609,67.16167,118.65968
"73337",989.5742,66.66117,117.75799
"73338",989.5875,66.37797,117.057945
"73339",989.6008,66.29496,116.54925
"73340",989.61414,66.40482,116.23083
"73341",989.62744,66.6807,116.081856
"73342",989.64075,67.09331,116.07823
"73343",989.65405,67.613335,116.19492
"73344",989.66736,68.19684,116.39134
"73345",989.68066,68.79988,116.625534
"73346",989.694,69.383385,116.85903
"73347",989.7073,69.92294,117.06682
"73348",989.7206,70.3917,117.220665
"73349",989.7339,70.78722,117.31592
"73350",989.7472,71.10704,117.34784
"73351",989.7605,71.35851,117.32141
"73352",989.7738,71.53918,117.232025
"73353",989.7871,71.65392,117.08237
"73354",989.8004,71.68566,116.85329
"73355",989.8137,71.622185,116.52998
"73356",989.827,71.4464,116.09239
"73357",989.84033,71.15343,115.53212
"73358",989.85364,70.74082,114.84306
"73359",989.86694,70.237885,114.05077
"73360",989.88025,69.71053,113.21835
"73361",989.89355,69.33944,112.52571
"73362",989.90686,69.51522,112.36835
"73363",989.92017,70.821396,113.34687
"73364",989.9335,73.79996,116.038605
"73365",989.9468,78.63157,120.67647
"73366",989.9601,84.94026,126.9424
"73367",989.9734,91.88129,134.03781
"73368",989.9867,98.38529,140.9131
"73369",990,103.519646,146.622
"73370",990.0133,106.78142,150.61876
"73371",990.0266,108.16815,152.8424
"73372",990.0399,107.98505,153.53955
"73373",990.0532,106.615395,153.04443
"73374",990.0665,104.36683,151.6276
"73375",990.07983,101.49325,149.51547
"73376",990.09314,98.22171,146.9156
"73377",990.10645,94.76219,144.02551
"73378",990.11975,91.285576,141.01022
"73379",990.13306,87.92859,138.0059
"73380",990.14636,84.77425,135.09933
"73381",990.15967,81.87625,132.35054
"73382",990.173,79.276115,129.80904
"73383",990.1863,77.06172,127.57202
"73384",990.1996,75.37957,125.79805
"73385",990.2129,74.40055,124.674644
"73386",990.2262,74.26627,124.36539
"73387",990.2395,75.018234,124.93817
"73388",990.2528,76.544136,126.308395
"73389",990.2661,78.58762,128.24388
"73390",990.2794,80.81911,130.43123
"73391",990.2927,82.91875,132.55647
"73392",990.306,84.62531,134.35425
"73393",990.31934,85.78256,135.65604
"73394",990.33264,86.31968,136.37386
"73395",990.34595,86.25132,136.50299
"73396",990.35925,85.643394,136.09042
"73397",990.37256,84.593575,135.21696
"73398",990.38586,83.22148,133.98842
"73399",990.3992,81.651634,132.51924
"73400",990.4125,79.98901,130.90823
"73401",990.4258,78.30686,129.22574
"73402",990.4391,76.663765,127.52973
"73403",990.4524,75.0988,125.86051
"73404",990.4657,73.65591,124.26446
"73405",990.479,72.35462,122.76492
"73406",990.4923,71.23155,121.40294
"73407",990.5056,70.30381,120.20119
"73408",990.5189,69.590904,119.18527
"73409",990.5322,69.09773,118.36681
"73410",990.54553,68.83162,117.76
"73411",990.55884,68.79744,117.37681
"73412",990.57214,68.99031,117.2196
"73413",990.58545,69.39803,117.283264
"73414",990.59875,69.98886,117.54278
"73415",990.61206,70.70908,117.95015
"73416",990.62537,71.48791,118.43863
"73417",990.6387,72.254524,118.93924
"73418",990.652,72.935684,119.37836
"73419",990.6653,73.477684,119.6996
"73420",990.6786,73.83902,119.85712
"73421",990.6919,74.00992,119.83549
"73422",990.7052,73.99527,119.63365
"73423",990.7185,73.85367,119.304405
"73424",990.7318,73.75845,119.01712
"73425",990.7451,74.02457,119.08819
"73426",990.7584,75.089035,119.96593
"73427",990.7717,77.31808,122.041504
"73428",990.78503,80.80934,125.44896
"73429",990.79834,85.26498,129.92989
"73430",990.81165,90.07706,134.9065
"73431",990.82495,94.50095,139.6453
"73432",990.83826,97.90433,143.50182
"73433",990.85156,99.96002,146.11702
"73434",990.86487,100.65583,147.43658
"73435",990.8782,100.18707,147.61333
"73436",990.8915,98.810104,146.8672
"73437",990.9048,96.75441,145.39932
"73438",990.9181,94.220184,143.38867
"73439",990.9314,91.39544,141.0083
"73440",990.9447,88.45106,138.42003
"73441",990.958,85.51888,135.75195
"73442",990.9713,82.67216,133.0777
"73443",990.9846,79.95972,130.44876
"73444",990.9979,77.42306,127.91084
"73445",991.0112,75.142746,125.55
"73446",991.02454,73.25796,123.51343
"73447",991.03784,71.97131,122.0161
"73448",991.05115,71.485466,121.27936
"73449",991.06445,71.93225,121.46007
"73450",991.07776,73.29214,122.56784
"73451",991.09106,75.37469,124.44077
"73452",991.1044,77.85275,126.7743
"73453",991.1177,80.34547,129.1999
"73454",991.131,82.50614,131.37138
"73455",991.1443,84.088196,133.03175
"73456",991.1576,84.98421,134.05553
"73457",991.1709,85.20393,134.43102
"73458",991.1842,84.840164,134.22987
"73459",991.1975,84.02228,133.56325
"73460",991.2108,82.879684,132.54636
"73461",991.2241,81.52224,131.2789
"73462",991.2374,80.04028,129.84451
"73463",991.25073,78.5095,128.31499
"73464",991.26404,76.981155,126.74007
"73465",991.27734,75.50652,125.1711
"73466",991.29065,74.11978,123.643936
"73467",991.30396,72.86,122.2004
"73468",991.31726,71.75647,120.87375
"73469",991.33057,70.8336,119.69327
"73470",991.3439,70.12802,118.70123
"73471",991.3572,69.661705,117.926414
"73472",991.3705,69.454185,117.39582
"73473",991.3838,69.505455,117.11753
"73474",991.3971,69.78378,117.0679
"73475",991.4104,70.233,117.19786
"73476",991.4237,70.7921,117.45174
"73477",991.437,71.39025,117.762146
"73478",991.4503,71.956665,118.05951
"73479",991.4636,72.45228,118.30377
"73480",991.4769,72.85756,118.47319
"73481",991.49023,73.2018,118.59423
"73482",991.50354,73.62173,118.80172
"73483",991.51685,74.4152,119.395874
"73484",991.53015,75.97772,120.783875
"73485",991.54346,78.62913,123.309586
"73486",991.55676,82.39384,127.031456
"73487",991.57007,86.956894,131.66933
"73488",991.5834,91.70794,136.63777
"73489",991.5967,95.93652,141.23222
"73490",991.61,99.06401,144.85773
"73491",991.6233,100.824295,147.21376
"73492",991.6366,101.25399,148.29422
"73493",991.6499,100.56306,148.26747
"73494",991.6632,99.000534,147.34755
"73495",991.6765,96.798355,145.73914
"73496",991.6898,94.16159,143.62732
"73497",991.7031,91.27825,141.18652
"73498",991.71643,88.31434,138.57506
"73499",991.72974,85.40414,135.92468
"73500",991.74304,82.62577,133.3152
"73501",991.75635,80.01831,130.7898
"73502",991.76965,77.61349,128.38554
"73503",991.78296,75.46746,126.16494
"73504",991.79626,73.704735,124.260574
"73505",991.8096,72.50599,122.865105
"73506",991.8229,72.06409,122.18901
"73507",991.8362,72.50843,122.38536
"73508",991.8495,73.82681,123.469635
"73509",991.8628,75.83368,125.28359
"73510",991.8761,78.21408,127.5338
"73511",991.8894,80.58961,129.85352
"73512",991.9027,82.63065,131.913
"73513",991.916,84.102844,133.46739
"73514",991.9293,84.910965,134.40373
"73515",991.9426,85.06233,134.70857
"73516",991.95593,84.65949,134.46393
"73517",991.96924,83.83185,133.78189
"73518",991.98254,82.703896,132.77368
"73519",991.99585,81.3782,131.53249
"73520",992.00916,79.940186,130.13754
"73521",992.02246,78.45823,128.65372
"73522",992.03577,76.981155,127.12846
"73523",992.0491,75.55535,125.60832
"73524",992.0624,74.229645,124.14372
"73525",992.0757,73.040665,122.77442
"73526",992.089,72.01282,121.5291
"73527",992.1023,71.17296,120.43964
"73528",992.1156,70.54795,119.53879
"73529",992.1289,70.16464,118.8601
"73530",992.1422,70.030365,118.418465
"73531",992.1555,70.13779,118.21433
"73532",992.1688,70.450294,118.21864
"73533",992.1821,70.92149,118.39141
"73534",992.19543,71.47814,118.66435
"73535",992.20874,72.05432,118.97423
"73536",992.22205,72.59144,119.26305
"73537",992.23535,73.05043,119.490524
"73538",992.24866,73.426414,119.64934
"73539",992.26196,73.80728,119.82478
"73540",992.27527,74.42985,120.25383
"73541",992.2886,75.67742,121.32734
"73542",992.3019,77.92355,123.43839
"73543",992.3152,81.324486,126.77444
"73544",992.3285,85.68246,131.1738
"73545",992.3418,90.477455,136.14638
"73546",992.3551,95.01366,141.01
"73547",992.3684,98.6392,145.1047
"73548",992.3817,100.96101,148.009
"73549",992.395,101.908295,149.61131
"73550",992.4083,101.63241,150.02007
"73551",992.42163,100.37751,149.44118
"73552",992.43494,98.38529,148.08575
"73553",992.44824,95.870605,146.14561
"73554",992.46155,93.05562,143.82658
"73555",992.47485,90.13077,141.30972
"73556",992.48816,87.259636,138.75517
"73557",992.50146,84.54963,136.27203
"73558",992.5148,82.054474,133.91905
"73559",992.5281,79.78882,131.7176
"73560",992.5414,77.76486,129.68704
"73561",992.5547,76.033875,127.88621
"73562",992.568,74.720375,126.44877
"73563",992.5813,73.98306,125.54647
"73564",992.5946,73.970856,125.34624
"73565",992.6079,74.73502,125.922
"73566",992.6212,76.17792,127.20036
"73567",992.6345,78.07248,128.97548
"73568",992.6478,80.10376,130.94652
"73569",992.66113,81.951935,132.79794
"73570",992.67444,83.37774,134.28474
"73571",992.68774,84.23224,135.2448
"73572",992.70105,84.48127,135.62608
"73573",992.71436,84.18585,135.4707
"73574",992.72766,83.45098,134.86664
"73575",992.74097,82.391396,133.9149
"73576",992.7543,81.10719,132.70543
"73577",992.7676,79.693596,131.32643
"73578",992.7809,78.21408,129.83734
"73579",992.7942,76.7248,128.29225
"73580",992.8075,75.284355,126.74946
"73581",992.8208,73.94888,125.266624
"73582",992.8341,72.75746,123.88611
"73583",992.8474,71.73205,122.63437
"73584",992.8607,70.90196,121.54591
"73585",992.874,70.28672,120.64636
"73586",992.8873,69.90341,119.95951
"73587",992.90063,69.76669,119.50727
"73588",992.91394,69.874115,119.2949
"73589",992.92725,70.19394,119.29829
"73590",992.94055,70.66758,119.465485
"73591",992.95386,71.22911,119.735374
"73592",992.96716,71.8053,120.037476
"73593",992.98047,72.33753,120.31363
"73594",992.9938,72.781876,120.518524
"73595",993.0071,73.12367,120.63476
"73596",993.0204,73.39712,120.69332
"73597",993.0337,73.72915,120.819016
"73598",993.047,74.407875,121.30178
"73599",993.0603,75.83124,122.55039
"73600",993.0736,78.32639,124.915276
"73601",993.0869,81.951935,128.48851
"73602",993.1002,86.42466,133.02223
"73603",993.1135,91.16838,137.96672
"73604",993.12683,95.484856,142.6322
"73605",993.14014,98.79057,146.42181
"73606",993.15344,100.79256,149.011
"73607",993.16675,101.49813,150.36635
"73608",993.18005,101.085526,150.62556
"73609",993.19336,99.7818,149.98076
"73610",993.20667,97.80423,148.62137
"73611",993.22,95.3579,146.73141
"73612",993.2333,92.65522,144.50867
"73613",993.2466,89.88907,142.13799
"73614",993.2599,87.22789,139.78584
"73615",993.2732,84.77913,137.56296
"73616",993.2865,82.579384,135.51256
"73617",993.2998,80.61402,133.6278
"73618",993.3131,78.870834,131.90381
"73619",993.3264,77.39132,130.389
"73620",993.3397,76.2707,129.18686
"73621",993.353,75.65301,128.45262
"73622",993.36633,75.650566,128.31433
"73623",993.37964,76.29023,128.81807
"73624",993.39294,77.47677,129.88867
"73625",993.40625,79.00023,131.33328
"73626",993.41956,80.6067,132.90851
"73627",993.43286,82.04227,134.36304
"73628",993.44617,83.104294,135.48889
"73629",993.4595,83.67315,136.15475
"73630",993.4728,83.717094,136.31349
"73631",993.4861,83.267876,135.98044
"73632",993.4994,82.40116,135.21585
"73633",993.5127,81.22194,134.11166
"73634",993.526,79.84009,132.768
"73635",993.5393,78.35325,131.27617
"73636",993.5526,76.841995,129.71346
"73637",993.5659,75.36248,128.13525
"73638",993.5792,73.970856,126.59871
"73639",993.5925,72.7013,125.14075
"73640",993.60583,71.58312,123.79448
"73641",993.61914,70.6334,122.581726
"73642",993.63245,69.87167,121.52729
"73643",993.64575,69.30282,120.64192
"73644",993.65906,68.94148,119.9463
"73645",993.67236,68.795,119.45423
"73646",993.68567,68.8658,119.17487
"73647",993.699,69.14412,119.10525
"73648",993.7123,69.607994,119.22987
"73649",993.7256,70.21591,119.51304
"73650",993.7389,70.90196,119.89333
"73651",993.7522,71.59289,120.29994
"73652",993.7655,72.22034,120.66467
"73653",993.7788,72.723274,120.9245
"73654",993.7921,73.06752,121.04135
"73655",993.8054,73.23598,120.99317
"73656",993.8187,73.26284,120.80866
"73657",993.83203,73.23598,120.571266
"73658",993.84534,73.38491,120.50883
"73659",993.85864,74.10025,121.01745
"73660",993.87195,75.82391,122.55675
"73661",993.88525,78.79515,125.397484
"73662",993.89856,82.91875,129.48343
"73663",993.91187,87.73083,134.38672
"73664",993.9252,92.542915,139.4404
"73665",993.9385,96.639656,143.92911
"73666",993.9518,99.52056,147.33
"73667",993.9651,101.02693,149.4464
"73668",993.9784,101.26864,150.3452
"73669",993.9917,100.4654,150.2066
"73670",994.005,98.85405,149.2348
"73671",994.0183,96.66163,147.63158
"73672",994.0316,94.117645,145.60828
"73673",994.0449,91.42962,143.36142
"73674",994.0582,88.78798,141.07695
"73675",994.07153,86.33189,138.89548
"73676",994.08484,84.1297,136.89116
"73677",994.09814,82.18387,135.07439
"73678",994.11145,80.46021,133.41898
"73679",994.12476,78.93919,131.91234
"73680",994.13806,77.65743,130.59743
"73681",994.15137,76.72236,129.58914
"73682",994.1647,76.25849,129.02284
"73683",994.178,76.351265,128.99869
"73684",994.1913,76.998245,129.53165
"73685",994.2046,78.0798,130.5194
"73686",994.2179,79.398186,131.77777
"73687",994.2312,80.71656,133.07733
"73688",994.2445,81.8201,134.20326
"73689",994.2578,82.55497,134.99501
"73690",994.2711,82.83086,135.35074
"73691",994.2844,82.63554,135.24388
"73692",994.2977,82.01297,134.70367
"73693",994.31104,81.04616,133.79977
"73694",994.32434,79.82544,132.61176
"73695",994.33765,78.46067,131.24153
"73696",994.35095,77.032425,129.76518
"73697",994.36426,75.6115,128.25153
"73698",994.37756,74.249176,126.75206
"73699",994.39087,72.99428,125.31745
"73700",994.4042,71.87854,123.98279
"73701",994.4175,70.92149,122.77194
"73702",994.4308,70.135345,121.70209
"73703",994.4441,69.53475,120.79322
"73704",994.4574,69.12703,120.05846
"73705",994.4707,68.90486,119.496506
"73706",994.484,68.860916,119.105835
"73707",994.4973,68.98543,118.88225
"73708",994.5106,69.261314,118.81393
"73709",994.5239,69.65926,118.87629
"73710",994.53723,70.152435,119.04631
"73711",994.55054,70.70664,119.29278
"73712",994.56384,71.292595,119.58831
"73713",994.57715,71.86633,119.88994
"73714",994.59045,72.39124,120.160675
"73715",994.60376,72.82582,120.35748
"73716",994.61707,73.128555,120.43603
"73717",994.6304,73.27993,120.37267
"73718",994.6437,73.270164,120.15291
"73719",994.657,73.10658,119.77902
"73720",994.6703,72.82582,119.282845
"73721",994.6836,72.49134,118.724174
"73722",994.6969,72.28138,118.27957
"73723",994.7102,72.56214,118.31912
"73724",994.7235,73.80484,119.32939
"73725",994.7368,76.3415,121.672455
"73726",994.7501,80.177,125.39363
"73727",994.7634,84.92317,130.14532
"73728",994.77673,89.89395,135.26996
"73729",994.79004,94.310524,139.99571
"73730",994.80334,97.56008,143.69247
"73731",994.81665,99.39117,146.07231
"73732",994.82996,99.87457,147.1617
"73733",994.84326,99.24223,147.15044
"73734",994.85657,97.76517,146.27469
"73735",994.8699,95.692375,144.75705
"73736",994.8832,93.25338,142.80844
"73737",994.8965,90.66544,140.63467
"73738",994.9098,88.11658,138.4191
"73739",994.9231,85.74593,136.3021
"73740",994.9364,83.63653,134.37225
"73741",994.9497,81.812775,132.66214
"73742",994.963,80.23804,131.14406
"73743",994.9763,78.87816,129.79163
"73744",994.9896,77.730675,128.60909
"73745",995.0029,76.85664,127.66414
"73746",995.01624,76.35371,127.06297
"73747",995.02954,76.314644,126.909966
"73748",995.04285,76.76875,127.24891
"73749",995.05615,77.65011,128.02928
"73750",995.06946,78.79759,129.10333
"73751",995.08276,80.008545,130.2767
"73752",995.09607,81.08034,131.34875
"73753",995.1094,81.846954,132.14914
"73754",995.1227,82.20584,132.56575
"73755",995.136,82.13016,132.559
"73756",995.1493,81.64675,132.14217
"73757",995.1626,80.81911,131.36598
"73758",995.1759,79.73754,130.31001
"73759",995.1892,78.502174,129.06644
"73760",995.2025,77.20088,127.71834
"73761",995.2158,75.894714,126.3247
"73762",995.2291,74.64225,124.94395
"73763",995.24243,73.477684,123.61195
"73764",995.25574,72.42542,122.35587
"73765",995.26904,71.505,121.198746
"73766",995.28235,70.73106,120.15933
"73767",995.29565,70.115814,119.25443
"73768",995.30896,69.67147,118.501205
"73769",995.32227,69.400475,117.90744
"73770",995.3356,69.30282,117.478546
"73771",995.3489,69.366295,117.20773
"73772",995.3622,69.576256,117.08539
"73773",995.3755,69.910736,117.094124
"73774",995.3888,70.33799,117.206085
"73775",995.4021,70.82872,117.394875
"73776",995.4154,71.34142,117.62097
"73777",995.4287,71.84436,117.85333
"73778",995.442,72.31068,118.06479
"73779",995.4553,72.71595,118.22977
"73780",995.4686,73.05531,118.34151
"73781",995.48193,73.32876,118.397934
"73782",995.49524,73.53872,118.39942
"73783",995.50854,73.68276,118.34155
"73784",995.52185,73.76578,118.22716
"73785",995.53516,73.780426,118.04699
"73786",995.54846,73.70962,117.78182
"73787",995.56177,73.54604,117.42168
"73788",995.5751,73.28481,116.95876
"73789",995.5884,72.92592,116.39002
"73790",995.6017,72.46937,115.71241
"73791",995.615,71.96155,114.96925
"73792",995.6283,71.50744,114.26395
"73793",995.6416,71.38293,113.87404
"73794",995.6549,72.04944,114.27127
"73795",995.6682,74.01724,115.990616
"73796",995.6815,77.53536,119.32178
"73797",995.6948,82.388954,124.09835
"73798",995.7081,87.953,129.73706
"73799",995.72144,93.35592,135.3885
"73800",995.73474,97.77249,140.22244
"73801",995.74805,100.67536,143.6807
"73802",995.76135,101.98886,145.6403
"73803",995.77466,101.94003,146.27863
"73804",995.78796,100.85603,145.88025
"73805",995.8013,99.02251,144.69847
"73806",995.8146,96.69337,142.96379
"73807",995.8279,94.098114,140.8902
"73808",995.8412,91.44671,138.67935
"73809",995.8545,88.90761,136.49796
"73810",995.8678,86.61021,134.47891
"73811",995.8811,84.62043,132.69571
"73812",995.8944,82.94316,131.16283
"73813",995.9077,81.53445,129.84608
"73814",995.921,80.35035,128.70995
"73815",995.9343,79.38598,127.75652
"73816",995.94763,78.69016,127.04152
"73817",995.96094,78.345924,126.65635
"73818",995.97424,78.43137,126.69011
"73819",995.98755,78.95384,127.16356
"73820",996.00085,79.835205,128.01222
"73821",996.01416,80.92653,129.09839
"73822",996.02747,82.0325,130.23332
"73823",996.0408,82.97246,131.2368
"73824",996.0541,83.60723,131.96446
"73825",996.0674,83.85138,132.32133
"73826",996.0807,83.68047,132.27078
"73827",996.094,83.12871,131.83403
"73828",996.1073,82.262,131.0651
"73829",996.1206,81.163345,130.03712
"73830",996.1339,79.92554,128.83568
"73831",996.1472,78.62913,127.53694
"73832",996.1605,77.33517,126.20014
"73833",996.1738,76.09247,124.87417
"73834",996.18713,74.94011,123.5997
"73835",996.20044,73.90494,122.40641
"73836",996.21375,72.99916,121.310165
"73837",996.22705,72.232544,120.324776
"73838",996.24036,71.61242,119.461914
"73839",996.25366,71.148544,118.73593
"73840",996.26697,70.84093,118.1517
"73841",996.2803,70.69688,117.721436
"73842",996.2936,70.72129,117.455124
"73843",996.3069,70.9044,117.348274
"73844",996.3202,71.22179,117.381424
"73845",996.3335,71.64904,117.53436
"73846",996.3468,72.13977,117.76413
"73847",996.3601,72.64759,118.02632
"73848",996.3734,73.13832,118.28729
"73849",996.3867,73.58022,118.51477
"73850",996.4,73.94644,118.680374
"73851",996.4133,74.229645,118.77441
"73852",996.42664,74.42252,118.786964
"73853",996.43994,74.52262,118.71277
"73854",996.45325,74.54459,118.563576
"73855",996.46655,74.49821,118.34671
"73856",996.47986,74.39567,118.07224
"73857",996.49316,74.25651,117.75795
"73858",996.5065,74.09537,117.41733
"73859",996.5198,73.92203,117.05947
"73860",996.5331,73.75113,116.69864
"73861",996.5464,73.58022,116.33246
"73862",996.5597,73.409325,115.960945
"73863",996.573,73.22865,115.57432
"73864",996.5863,73.023575,115.15764
"73865",996.5996,72.779434,114.69549
"73866",996.6129,72.49622,114.18664
"73867",996.6262,72.17639,113.63231
"73868",996.6395,71.87854,113.089966
"73869",996.65283,71.776,112.73363
"73870",996.66614,72.254524,112.955154
"73871",996.67944,73.86099,114.31958
"73872",996.69275,77.015335,117.28208
"73873",996.70605,81.71267,121.88615
"73874",996.71936,87.46227,127.68927
"73875",996.73267,93.42184,133.88203
"73876",996.746,98.6392,139.51883
"73877",996.7593,102.38682,143.84892
"73878",996.7726,104.39124,146.55293
"73879",996.7859,104.81117,147.73509
"73880",996.7992,104.00305,147.70232
"73881",996.8125,102.313576,146.76294
"73882",996.8258,100.016174,145.16284
"73883",996.8391,97.357445,143.12962
"73884",996.8524,94.5449,140.8595
"73885",996.8657,91.756775,138.5259
"73886",996.879,89.1371,136.27362
"73887",996.89233,86.79088,134.21294
"73888",996.90564,84.75716,132.39143
"73889",996.91895,83.02373,130.80667
"73890",996.93225,81.55886,129.4363
"73891",996.94556,80.343025,128.26918
"73892",996.95886,79.41039,127.34727
"73893",996.97217,78.84642,126.76487
"73894",996.9855,78.746315,126.628716
"73895",996.9988,79.16136,127.004585
"73896",997.0121,80.05005,127.867065
"73897",997.0254,81.27566,129.09424
"73898",997.0387,82.62577,130.48422
"73899",997.052,83.88556,131.82607
"73900",997.0653,84.86214,132.92407
"73901",997.0786,85.435875,133.64975
"73902",997.0919,85.55306,133.93681
"73903",997.1052,85.22591,133.78319
"73904",997.1185,84.505684,133.22627
"73905",997.13184,83.475395,132.33679
"73906",997.14514,82.22537,131.19537
"73907",997.15845,80.850845,129.8904
"73908",997.17175,79.429924,128.49606
"73909",997.18506,78.028534,127.07686
"73910",997.19836,76.6955,125.68222
"73911",997.2117,75.46502,124.34847
"73912",997.225,74.35905,123.100784
"73913",997.2383,73.38979,121.95525
"73914",997.2516,72.56214,120.921036
"73915",997.2649,71.885864,120.01233
"73916",997.2782,71.36828,119.24118
"73917",997.2915,71.01671,118.61987
"73918",997.3048,70.84093,118.16336
"73919",997.3181,70.84093,117.87714
"73920",997.3314,71.009384,117.75937
"73921",997.3447,71.329216,117.79825
"73922",997.35803,71.76135,117.95943
"73923",997.37134,72.26429,118.20491
"73924",997.38464,72.798965,118.49785
"73925",997.39795,73.31899,118.79285
"73926",997.41125,73.79019,119.05527
"73927",997.42456,74.1857,119.25672
"73928",997.43787,74.50065,119.38998
"73929",997.4512,74.720375,119.43785
"73930",997.4645,74.84978,119.40227
"73931",997.4778,74.881516,119.27306
"73932",997.4911,74.83269,119.064285
"73933",997.5044,74.70817,118.77829
"73934",997.5177,74.527504,118.43226
"73935",997.531,74.31022,118.04396
"73936",997.5443,74.08316,117.6391
"73937",997.5576,73.85611,117.22715
"73938",997.5709,73.64126,116.820305
"73939",997.5842,73.43618,116.41652
"73940",997.59753,73.24086,116.01608
"73941",997.61084,73.040665,115.60467
"73942",997.62415,72.8185,115.16502
"73943",997.63745,72.569466,114.691574
"73944",997.65076,72.28626,114.17616
"73945",997.66406,71.97131,113.62016
"73946",997.67737,71.675896,113.07385
"73947",997.6907,71.59045,112.72827
"73948",997.704,72.13733,113.01236
"73949",997.7173,73.900055,114.52937
"73950",997.7306,77.32784,117.76654
"73951",997.7439,82.423134,122.77833
"73952",997.7572,88.64149,129.0724
"73953",997.7705,95.06737,135.76833
"73954",997.7838,100.6778,141.84961
"73955",997.7971,104.70374,146.52173
"73956",997.8104,106.85954,149.44952
"73957",997.8237,107.335625,150.76497
"73958",997.83704,106.50309,150.78667
"73959",997.85034,104.7306,149.84239
"73960",997.86365,102.311134,148.19576
"73961",997.87695,99.474174,146.05602
"73962",997.89026,96.429695,143.6201
"73963",997.90356,93.365685,141.06952
"73964",997.9169,90.43595,138.55746
"73965",997.9302,87.75037,136.198
"73966",997.9435,85.367516,134.05734
"73967",997.9568,83.29229,132.14986
"73968",997.9701,81.50515,130.4656
"73969",997.9834,79.99878,129.00627
"73970",997.9967,78.82201,127.82946
"73971",998.01,78.07004,127.04068
"73972",998.0233,77.86252,126.77285
"73973",998.0366,78.26292,127.10645
"73974",998.0499,79.24437,128.03362
"73975",998.06323,80.66285,129.42848
"73976",998.07654,82.286415,131.07277
"73977",998.08984,83.8587,132.7165
"73978",998.10315,85.14778,134.12617
"73979",998.11646,85.99008,135.12935
"73980",998.12976,86.30503,135.63148
"73981",998.14307,86.099945,135.62343
"73982",998.1564,85.42611,135.14021
"73983",998.1697,84.37873,134.2624
"73984",998.183,83.06523,133.08574
"73985",998.1963,81.59304,131.70934
"73986",998.2096,80.042725,130.2088
"73987",998.2229,78.49241,128.65982
"73988",998.2362,76.995804,127.116104
"73989",998.2495,75.59197,125.61839
"73990",998.2628,74.30778,124.19645
"73991",998.2761,73.15297,122.86376
"73992",998.2894,72.13977,121.6366
"73993",998.30273,71.28039,120.531586
"73994",998.31604,70.58701,119.56572
"73995",998.32935,70.066986,118.75153
"73996",998.34265,69.74227,118.11641
"73997",998.35596,69.61532,117.6689
"73998",998.36926,69.68124,117.41029
"73999",998.38257,69.91562,117.32221
"74000",998.3959,70.294044,117.3855
"74001",998.4092,70.77989,117.56803
"74002",998.4225,71.329216,117.82922
"74003",998.4358,71.90051,118.12956
"74004",998.4491,72.44984,118.42578
"74005",998.4624,72.952774,118.69278
"74006",998.4757,73.38491,118.90469
"74007",998.489,73.72915,119.04221
"74008",998.5023,73.9733,119.0904
"74009",998.5156,74.1149,119.04367
"74010",998.52893,74.161285,118.90615
"74011",998.54224,74.1149,118.67731
"74012",998.55554,74.002594,118.381096
"74013",998.56885,73.83658,118.027664
"74014",998.58215,73.64858,117.647064
"74015",998.59546,73.45083,117.25083
"74016",998.60876,73.24574,116.84109
"74017",998.6221,73.040665,116.42494
"74018",998.6354,72.82826,115.99506
"74019",998.6487,72.603645,115.54633
"74020",998.662,72.35462,115.06618
"74021",998.6753,72.07141,114.54405
"74022",998.6886,71.74914,113.974014
"74023",998.7019,71.40978,113.376816
"74024",998.7152,71.17052,112.86911
"74025",998.7285,71.363396,112.78607
"74026",998.7418,72.57435,113.72713
"74027",998.7551,75.3991,116.319824
"74028",998.76843,80.076904,120.85385
"74029",998.78174,86.28306,127.06241
"74030",998.79504,93.187454,134.16315
"74031",998.80835,99.70855,141.09634
"74032",998.82166,104.84535,146.84904
"74033",998.83496,108.05585,150.83595
"74034",998.84827,109.34249,152.99934
"74035",998.8616,109.0544,153.6282
"74036",998.8749,107.60174,153.0835
"74037",998.8882,105.321434,151.66574
"74038",998.9015,102.47959,149.61519
"74039",998.9148,99.300835,147.13892
"74040",998.9281,95.97803,144.41927
"74041",998.9414,92.67719,141.61774
"74042",998.9547,89.53994,138.87665
"74043",998.968,86.65659,136.29143
"74044",998.9813,84.071106,133.91396
"74045",998.9946,81.79324,131.76332
"74046",999.00793,79.823,129.84912
"74047",999.02124,78.19455,128.21515
"74048",999.03455,76.99336,126.95754
"74049",999.04785,76.34394,126.214165
"74050",999.06116,76.36347,126.119446
"74051",999.07446,77.09102,126.73335
"74052",999.08777,78.44358,127.99501
"74053",999.1011,80.22095,129.72374
"74054",999.1144,82.13992,131.64963
"74055",999.1277,83.90753,133.48412
"74056",999.141,85.27718,134.97588
"74057",999.1543,86.099945,135.96355
"74058",999.1676,86.32456,136.37878
"74059",999.1809,85.98764,136.2395
"74060",999.2075,84.00519,134.60588
"74061",999.2208,82.59647,133.32233
"74062",999.23413,81.058365,131.86536
"74063",999.24744,79.46899,130.30905
"74064",999.26074,77.89914,128.72261
"74065",999.27405,76.39277,127.15059
"74066",999.28735,74.98161,125.62671
"74067",999.30066,73.6852,124.17348
"74068",999.31396,72.52552,122.81646
"74069",999.3273,71.51232,121.56969
"74070",999.3406,70.657814,120.449936
"74071",999.3539,69.97177,119.47195
"74072",999.3672,69.437096,118.623886
"74073",999.3805,69.031815,117.88851
"74074",999.3938,68.76082,117.27476
"74075",999.4071,68.628975,116.79169
"74076",999.4204,68.648506,116.45587
"74077",999.4337,68.82918,116.28181
"74078",999.447,69.170975,116.27451
"74079",999.4603,69.6495,116.41463
"74080",999.47363,70.21103,116.6527
"74081",999.48694,70.79942,116.93519
"74082",999.50024,71.380486,117.22873
"74083",999.51355,71.9176,117.49649
"74084",999.52686,72.38148,117.707794
"74085",999.54016,72.75746,117.8457
"74086",999.55347,73.03334,117.895256
"74087",999.5668,73.20424,117.84845
"74088",999.5801,73.28237,117.71422
"74089",999.5934,73.28237,117.504295
"74090",999.6067,73.22621,117.23821
"74091",999.62,73.128555,116.92888
"74092",999.6333,73.01625,116.601845
"74093",999.6466,72.89662,116.26398
"74094",999.6599,72.764786,115.910164
"74095",999.6732,72.61097,115.53025
"74096",999.6865,72.427864,115.11624
"74097",999.6998,72.19348,114.64523
"74098",999.71313,71.90051,114.10831
"74099",999.72644,71.55871,113.5134
"74100",999.73975,71.25353,112.94443
"74101",999.75305,71.2633,112.68086
"74102",999.76636,72.13489,113.279434
"74103",999.77966,74.52506,115.42383
"74104",999.79297,78.82445,119.552124
"74105",999.8063,84.88167,125.57261
"74106",999.8196,91.97162,132.81511
"74107",999.8329,99.00542,140.22302
"74108",999.8462,104.87709,146.68861
"74109",999.8595,108.86153,151.45045
"74110",999.8728,110.79515,154.286
"74111",999.8861,110.96849,155.42169
"74112",999.8994,109.81125,155.23221
"74113",999.9127,107.69695,154.04951
"74114",999.926,104.90883,152.12692
"74115",999.93933,101.678795,149.6753
"74116",999.95264,98.19974,146.8737
"74117",999.96594,94.659645,143.90234
"74118",999.97925,91.209885,140.91069
"74119",999.99255,87.953,138.00412
"74120",1000.00586,84.945145,135.2448
"74121",1000.01917,82.20584,132.66003
"74122",1000.0325,79.742424,130.26555
"74123",1000.0458,77.59884,128.1139
"74124",1000.0591,75.87274,126.312775
"74125",1000.0724,74.71793,125.02899
"74126",1000.0857,74.29069,124.43668
"74127",1000.099,74.69352,124.6611
"74128",1000.1123,75.90204,125.7038
"74129",1000.1256,77.76242,127.43612
"74130",1000.1389,79.98901,129.59279
"74131",1000.1522,82.247345,131.85077
"74132",1000.1655,84.21759,133.89125
"74133",1000.17883,85.6556,135.46106
"74134",1000.19214,86.43687,136.41907
"74135",1000.20544,86.54673,136.73009
"74136",1000.21875,86.05356,136.4415
"74137",1000.23206,85.07942,135.65654
"74138",1000.24536,83.75128,134.48714
"74139",1000.25867,82.19119,133.04428
"74140",1000.272,80.50904,131.4306
"74141",1000.2853,78.7805,129.71797
"74142",1000.2986,77.066605,127.965965
"74143",1000.3119,75.40887,126.21656
"74144",1000.3252,73.848785,124.51301
"74145",1000.3385,72.41566,122.88766
"74146",1000.3518,71.131454,121.36644
"74147",1000.3651,70.00839,119.96623
"74148",1000.3784,69.05867,118.70427
"74149",1000.3917,68.28474,117.58842
"74150",1000.405,67.68902,116.626595
"74151",1000.41833,67.27886,115.83172
"74152",1000.43164,67.06889,115.22421
"74153",1000.44495,67.06401,114.81523
"74154",1000.45825,67.27154,114.61851
"74155",1000.47156,67.66949,114.61869
"74156",1000.48486,68.22858,114.79245
"74157",1000.49817,68.90486,115.100876
"74158",1000.5115,69.63973,115.48902
"74159",1000.5248,70.38438,115.909904
"74160",1000.5381,71.09972,116.32475
"74161",1000.5514,71.75159,116.69849
"74162",1000.5647,72.308235,116.997375
"74163",1000.578,72.762344,117.21112
"74164",1000.5913,73.09926,117.32186
"74165",1000.6046,73.31899,117.32595
"74166",1000.6179,73.428856,117.227036
"74167",1000.6312,73.46548,117.05831
"74168",1000.64453,73.45327,116.8419
"74169",1000.65784,73.40688,116.590935
"74170",1000.67114,73.33608,116.3141
"74171",1000.68445,73.2433,116.01308
"74172",1000.69775,73.11635,115.67498
"74173",1000.71106,72.935684,115.279205
"74174",1000.72437,72.68665,114.80942
"74175",1000.7377,72.361946,114.256165
"74176",1000.751,71.96399,113.61952
"74177",1000.7643,71.570915,112.97533
"74178",1000.7776,71.45129,112.592285
"74179",1000.7909,72.147095,113.02095
"74180",1000.8042,74.356606,114.98506
"74181",1000.8175,78.53391,118.986015
"74182",1000.8308,84.596016,125.002304
"74183",1000.8441,91.859314,132.40923
"74184",1000.8574,99.23979,140.16031
"74185",1000.8707,105.57534,147.0971
"74186",1000.88403,110.04318,152.36418
"74187",1000.89734,112.40894,155.6688
"74188",1000.91064,112.907,157.17963
"74189",1000.92395,111.96216,157.26312
"74190",1000.93726,109.96506,156.26483
"74191",1000.95056,107.22087,154.45706
"74192",1000.96387,103.96399,152.05083
"74193",1000.9772,100.39948,149.2352
"74194",1000.9905,96.705574,146.17877
"74195",1001.0038,93.031204,143.02646
"74196",1001.0171,89.49111,139.89359
"74197",1001.0304,86.17563,136.8747
"74198",1001.0437,83.12871,134.02077
"74199",1001.057,80.38697,131.3768
"74200",1001.0703,77.994354,128.99628
"74201",1001.0836,76.0412,126.980446
"74202",1001.0969,74.65934,125.47488
"74203",1001.1102,73.985504,124.63415
"74204",1001.12354,74.13199,124.59268
"74205",1001.13684,75.123215,125.400536
"74206",1001.15015,76.84444,126.96936
"74207",1001.16345,79.0515,129.0778
"74208",1001.17676,81.42458,131.42125
"74209",1001.19006,83.631645,133.67284
"74210",1001.20337,85.384605,135.53929
"74211",1001.2167,86.505226,136.82819
"74212",1001.23,86.9276,137.45384
"74213",1001.2433,86.695656,137.43839
"74214",1001.2566,85.90219,136.85416
"74215",1001.2699,84.68391,135.82031
"74216",1001.2832,83.16777,134.45055
"74217",1001.2965,81.47341,132.85518
"74218",1001.3098,79.68871,131.11653
"74219",1001.3231,77.88449,129.30258
"74220",1001.3364,76.11932,127.471306
"74221",1001.34973,74.43473,125.66544
"74222",1001.36304,72.86488,123.921684
"74223",1001.37634,71.44396,122.277794
"74224",1001.38965,70.19638,120.76283
"74225",1001.40295,69.12703,119.387115
"74226",1001.41626,68.253,118.1733
"74227",1001.42957,67.56939,117.1226
"74228",1001.4429,67.08354,116.24829
"74229",1001.4562,66.795456,115.556564
"74230",1001.4695,66.71732,115.06579
"74231",1001.4828,66.844284,114.777664
"74232",1001.4961,67.16655,114.68881
"74233",1001.5094,67.6524,114.77361
"74234",1001.5227,68.27009,115.00544
"74235",1001.536,68.97322,115.34201
"74236",1001.5493,69.7203,115.7445
"74237",1001.5626,70.467384,116.17034
"74238",1001.5759,71.17784,116.5829
"74239",1001.58923,71.82483,116.95419
"74240",1001.60254,72.3888,117.262695
"74241",1001.61584,72.850235,117.48628
"74242",1001.62915,73.20424,117.61686
"74243",1001.64246,73.45571,117.65597
"74244",1001.65576,73.619286,117.615036
"74245",1001.66907,73.69741,117.49377
"74246",1001.6824,73.68276,117.282166
"74247",1001.6957,73.56313,116.965126
"74248",1001.709,73.34829,116.54913
"74249",1001.7223,73.03578,116.02876
"74250",1001.7356,72.64027,115.41562
"74251",1001.7489,72.17639,114.721756
"74252",1001.7622,71.66613,113.96701
"74253",1001.7755,71.12901,113.169464
"74254",1001.7888,70.66758,112.43082
"74255",1001.8021,70.59678,112.068375
"74256",1001.8154,71.54162,112.71936
"74257",1001.82874,74.212555,115.12598
"74258",1001.84204,78.995346,119.72791
"74259",1001.85535,85.67025,126.37142
"74260",1001.86865,93.41451,134.29288
"74261",1001.88196,101.04402,142.34158
"74262",1001.89526,107.38201,149.3372
"74263",1001.90857,111.68139,154.49226
"74264",1001.9219,113.812775,157.6137
"74265",1001.9352,114.09354,158.95111
"74266",1001.9485,112.96803,158.89102
"74267",1001.9618,110.81712,157.77036
"74268",1001.9751,107.931335,155.8476
"74269",1001.9884,104.549934,153.33905
"74270",1002.0017,100.875565,150.43187
"74271",1002.015,97.091324,147.29999
"74272",1002.0283,93.365685,144.10846
"74273",1002.0416,89.813385,140.97383
"74274",1002.05493,86.51011,137.97722
"74275",1002.06824,83.492485,135.16304
"74276",1002.08154,80.7776,132.5573
"74277",1002.09485,78.40696,130.21095
"74278",1002.10815,76.45869,128.21289
"74279",1002.12146,75.07683,126.72037
"74280",1002.13477,74.40299,125.892685
"74281",1002.1481,74.53971,125.8545
"74282",1002.1614,75.494316,126.63847
"74283",1002.1747,77.152054,128.15541
"74284",1002.188,79.27123,130.1856
"74285",1002.2013,81.54421,132.43579
"74286",1002.2146,83.64385,134.5837
"74287",1002.2279,85.30648,136.3602
"74288",1002.2412,86.3563,137.57585
"74289",1002.2545,86.72007,138.13826
"74290",1002.2678,86.42954,138.05774
"74291",1002.2811,85.5848,137.41393
"74292",1002.29443,84.315254,136.31891
"74293",1002.30774,82.75273,134.89124
"74294",1002.32104,81.01686,133.2414
"74295",1002.33435,79.19554,131.45186
"74296",1002.34766,77.366905,129.59808
"74297",1002.36096,75.58465,127.73354
"74298",1002.37427,73.89761,125.90853
"74299",1002.3876,72.33997,124.160194
"74300",1002.4009,70.93858,122.519424
"74301",1002.4142,69.70321,121.000885
"74302",1002.4275,68.646065,119.62196
"74303",1002.4408,67.76959,118.39068
"74304",1002.4541,67.08354,117.322426
"74305",1002.4674,66.58549,116.42073
"74306",1002.4807,66.285194,115.70123
"74307",1002.494,66.18753,115.17498
"74308",1002.5073,66.29008,114.84589
"74309",1002.5206,66.58549,114.71286
"74310",1002.53394,67.04692,114.75509
"74311",1002.54724,67.64507,114.948456
"74312",1002.56055,68.34089,115.25818
"74313",1002.57385,69.08797,115.64091
"74314",1002.58716,69.837494,116.04943
"74315",1002.60046,70.56016,116.45451
"74316",1002.6138,71.22179,116.821144
"74317",1002.6271,71.79797,117.12302
"74318",1002.6404,72.26917,117.337906
"74319",1002.6537,72.63538,117.462524
"74320",1002.667,72.89662,117.49362
"74321",1002.6803,73.06752,117.44254
"74322",1002.6936,73.162735,117.32112
"74323",1002.7069,73.2018,117.14652
"74324",1002.7202,73.18959,116.921875
"74325",1002.7335,73.13344,116.6529
"74326",1002.7468,73.02113,116.32602
"74327",1002.76013,72.83803,115.92483
"74328",1002.77344,72.57191,115.4349
"74329",1002.78674,72.198364,114.82922
"74330",1002.80005,71.7174,114.10446
"74331",1002.81335,71.20958,113.337814
"74332",1002.82666,70.94591,112.79944
"74333",1002.83997,71.49279,113.063385
"74334",1002.8533,73.585106,114.88985
"74335",1002.8666,77.747765,118.85204
"74336",1002.8799,83.94171,124.97561
"74337",1002.8932,91.48333,132.64041
"74338",1002.9065,99.244675,140.7606
"74339",1002.9198,106.002594,148.11992
"74340",1002.9331,110.86839,153.7983
"74341",1002.9464,113.54177,157.43631
"74342",1002.9597,114.25468,159.19739
"74343",1002.973,113.44167,159.45483
"74344",1002.9863,111.50561,158.56381
"74345",1002.99963,108.754105,156.79686
"74346",1003.01294,105.43374,154.37506
"74347",1003.02625,101.75937,151.4955
"74348",1003.03955,97.916534,148.33264
"74349",1003.05286,94.081024,145.05702
"74350",1003.06616,90.389565,141.80559
"74351",1003.07947,86.93736,138.67805
"74352",1003.0928,83.77081,135.7283
"74353",1003.1061,80.91188,132.98721
"74354",1003.1194,78.399635,130.50346
"74355",1003.1327,76.317085,128.3709
"74356",1003.146,74.79851,126.73723
"74357",1003.1593,73.99527,125.77145
"74358",1003.1726,74.0441,125.63263
"74359",1003.1859,74.969406,126.37182
"74360",1003.1992,76.66621,127.911415
"74361",1003.2125,78.88548,130.0265
"74362",1003.2258,81.307396,132.41359
"74363",1003.23914,83.580376,134.72743
"74364",1003.25244,85.42123,136.68018
"74365",1003.26575,86.6395,138.06787
"74366",1003.27905,87.15465,138.7905
"74367",1003.29236,86.98131,138.84074
"74368",1003.30566,86.21713,138.29474
"74369",1003.319,84.98421,137.2561
"74370",1003.3323,83.42657,135.85422
"74371",1003.3456,81.66384,134.19858
"74372",1003.3589,79.801025,132.38776
"74373",1003.3722,77.91623,130.49673
"74374",1003.3855,76.06561,128.581
"74375",1003.3988,74.30045,126.69289
"74376",1003.4121,72.6598,124.87412
"74377",1003.4254,71.18028,123.16522
"74378",1003.4387,69.88144,121.59076
"74379",1003.452,68.773026,120.16614
"74380",1003.46533,67.86725,118.909515
"74381",1003.47864,67.16411,117.827225
"74382",1003.49194,66.668495,116.93049
"74383",1003.50525,66.38285,116.22823
"74384",1003.51855,66.30717,115.72701
"74385",1003.53186,66.439,115.43095
"74386",1003.54517,66.75639,115.324554
"74387",1003.5585,67.23735,115.39165
"74388",1003.5718,67.84772,115.60318
"74389",1003.5851,68.54841,115.92411
"74390",1003.5984,69.29305,116.31089
"74391",1003.6117,70.04501,116.72826
"74392",1003.625,70.77013,117.14227
"74393",1003.6383,71.43664,117.520355
"74394",1003.6516,72.025024,117.84114
"74395",1003.6649,72.52796,118.094864
"74396",1003.6782,72.94789,118.281296
"74397",1003.6915,73.289696,118.402725
"74398",1003.70483,73.55337,118.4567
"74399",1003.71814,73.73403,118.43591
"74400",1003.73145,73.82193,118.328
"74401",1003.74475,73.80728,118.12029
"74402",1003.75806,73.67544,117.79493
"74403",1003.77136,73.41665,117.3385
"74404",1003.78467,73.03334,116.749466
"74405",1003.798,72.5597,116.05812
"74406",1003.8113,72.12268,115.388596
"74407",1003.8246,72.08606,115.105804
"74408",1003.8379,73.060196,115.83263
"74409",1003.8512,75.684746,118.24031
"74410",1003.8645,80.26002,122.68073
"74411",1003.8778,86.52476,128.9536
"74412",1003.8911,93.67574,136.30849
"74413",1003.9044,100.61433,143.67444
"74414",1003.9177,106.29069,149.995
"74415",1003.931,110.07004,154.59593
"74416",1003.94434,111.8645,157.33008
"74417",1003.95764,111.954834,158.41617
"74418",1003.97095,110.729225,158.18915
"74419",1003.98425,108.524605,156.94482
"74420",1003.99756,105.60952,154.92113
"74421",1004.01086,102.20859,152.3205
"74422",1004.0242,98.529335,149.33527
"74423",1004.0375,94.73533,146.1203
"74424",1004.0508,90.98039,142.82584
"74425",1004.0641,87.37438,139.56296
"74426",1004.0774,84.000305,136.41933
"74427",1004.0907,80.902115,133.44615
"74428",1004.104,78.14572,130.71796
"74429",1004.1173,75.83124,128.34552
"74430",1004.1306,74.092926,126.47694
"74431",1004.1439,73.094376,125.29379
"74432",1004.1572,72.96498,124.9486
"74433",1004.17053,73.74624,125.51002
"74434",1004.18384,75.34295,126.9113
"74435",1004.19714,77.53536,128.95818
"74436",1004.21045,80.00122,131.34702
"74437",1004.22375,82.39628,133.74211
"74438",1004.23706,84.41047,135.83119
"74439",1004.25037,85.83383,137.39238
"74440",1004.2637,86.56382,138.30467
"74441",1004.277,86.59312,138.5391
"74442",1004.2903,86.00229,138.1543
"74443",1004.3036,84.92317,137.26276
"74444",1004.3169,83.48028,135.97371
"74445",1004.3302,81.80301,134.4052
"74446",1004.3435,79.99634,132.65488
"74447",1004.3568,78.14572,130.80414
"74448",1004.3701,76.314644,128.91512
"74449",1004.3834,74.5568,127.04211
"74450",1004.3967,72.901505,125.21671
"74451",1004.41003,71.3756,123.46899
"74452",1004.42334,69.99863,121.822495
"74453",1004.43665,68.77791,120.28923
"74454",1004.44995,67.73052,118.89115
"74455",1004.46326,66.87114,117.648346
"74456",1004.47656,66.2095,116.57643
"74457",1004.48987,65.75296,115.688934
"74458",1004.5032,65.51125,115.00201
"74459",1004.5165,65.48684,114.52482
"74460",1004.5298,65.65774,114.24218
"74461",1004.5431,66.00931,114.14555
"74462",1004.5564,66.512245,114.21128
"74463",1004.5697,67.12749,114.40503
"74464",1004.583,67.808655,114.68393
"74465",1004.5963,68.52155,115.01585
"74466",1004.6096,69.23201,115.3676
"74467",1004.6229,69.90585,115.70494
"74468",1004.6362,70.52354,116.00718
"74469",1004.64954,71.0753,116.2628
"74470",1004.66284,71.5465,116.45511
"74471",1004.67615,71.92981,116.57425
"74472",1004.68945,72.20569,116.59793
"74473",1004.70276,72.359505,116.50818
"74474",1004.71606,72.376595,116.2865
"74475",1004.7294,72.24719,115.91887
"74476",1004.7427,71.956665,115.38606
"74477",1004.756,71.52941,114.70746
"74478",1004.7693,71.0338,113.94714
"74479",1004.7826,70.67979,113.31294
"74480",1004.7959,70.91661,113.25851
"74481",1004.8092,72.40589,114.46393
"74482",1004.8225,75.72137,117.54208
"74483",1004.8358,80.98512,122.672134
"74484",1004.8491,87.75769,129.4755
"74485",1004.8624,95.099106,137.05934
"74486",1004.87573,101.86923,144.30132
"74487",1004.88904,107.0988,150.2143
"74488",1004.90234,110.29954,154.26187
"74489",1004.91565,111.51293,156.42212
"74490",1004.92896,111.08324,156.9772
"74491",1004.94226,109.40353,156.26884
"74492",1004.95557,106.810715,154.5949
"74493",1004.9689,103.5758,152.19781
"74494",1004.9822,99.93561,149.29437
"74495",1004.9955,96.08789,146.06964
"74496",1005.0088,92.21088,142.69537
"74497",1005.0221,88.44373,139.30981
"74498",1005.0354,84.874344,136.00429
"74499",1005.0487,81.55154,132.8338
"74500",1005.062,78.53391,129.86467
"74501",1005.0753,75.91913,127.20407
"74502",1005.0886,73.85611,125.01353
"74503",1005.1019,72.54017,123.50559
"74504",1005.11523,72.149536,122.881836
"74505",1005.12854,72.78676,123.27373
"74506",1005.14185,74.38102,124.64258
"74507",1005.15515,76.71259,126.79856
"74508",1005.16846,79.44213,129.42537
"74509",1005.18176,82.1741,132.13991
"74510",1005.19507,84.54963,134.58337
"74511",1005.2084,86.32212,136.49805
"74512",1005.2217,87.38171,137.7552
"74513",1005.235,87.72106,138.32524
"74514",1005.2483,87.40368,138.24915
"74515",1005.2616,86.54673,137.62357
"74516",1005.2749,85.2723,136.55373
"74517",1005.2882,83.69756,135.14375
"74518",1005.3015,81.9324,133.49414
"74519",1005.3148,80.08179,131.70392
"74520",1005.3281,78.22385,129.84854
"74521",1005.34143,76.4123,127.98149
"74522",1005.35474,74.69352,126.1506
"74523",1005.36804,73.10658,124.397835
"74524",1005.38135,71.68566,122.7615
"74525",1005.39465,70.44785,121.26387
"74526",1005.40796,69.417564,119.935074
"74527",1005.42126,68.611885,118.79869
"74528",1005.4346,68.02838,117.85931
"74529",1005.4479,67.66949,117.1263
"74530",1005.4612,67.542534,116.61401
"74531",1005.4745,67.649956,116.33214
"74532",1005.4878,67.984436,116.28068
"74533",1005.5011,68.53132,116.45207
"74534",1005.5144,69.261314,116.82367
"74535",1005.5277,70.12314,117.34991
"74536",1005.541,71.05577,117.973885
"74537",1005.5543,71.97864,118.61725
"74538",1005.5676,72.82338,119.21132
"74539",1005.58093,73.52651,119.690186
"74540",1005.59424,74.0441,120.00548
"74541",1005.60754,74.34684,120.1221
"74542",1005.62085,74.42985,120.02845
"74543",1005.63416,74.339516,119.76405
"74544",1005.64746,74.2272,119.47485
"74545",1005.66077,74.4152,119.48245
"74546",1005.6741,75.39422,120.28695
"74547",1005.6874,77.65255,122.40135
"74548",1005.7007,81.39529,126.07073
"74549",1005.714,86.3856,131.10464
"74550",1005.7273,91.99115,136.90974
"74551",1005.7406,97.35012,142.64343
"74552",1005.7539,101.66659,147.50209
"74553",1005.7672,104.444954,150.95753
"74554",1005.7805,105.59731,152.8738
"74555",1005.7938,105.31655,153.39294
"74556",1005.8071,103.89563,152.76317
"74557",1005.82043,101.607994,151.22227
"74558",1005.83374,98.70023,148.98976
"74559",1005.84705,95.39208,146.26599
"74560",1005.86035,91.87396,143.22888
"74561",1005.87366,88.29725,140.02322
"74562",1005.88696,84.77669,136.76195
"74563",1005.90027,81.38796,133.52249
"74564",1005.9136,78.184784,130.36269
"74565",1005.9269,75.2575,127.37868
"74566",1005.9402,72.75502,124.728
"74567",1005.9535,70.88243,122.629005
"74568",1005.9668,69.86435,121.326004
"74569",1005.9801,69.87656,121.02147
"74570",1005.9934,70.98253,121.81108
"74571",1006.0067,73.05043,123.59718
"74572",1006.02,75.78729,126.116875
"74573",1006.0333,78.79759,128.99553
"74574",1006.04663,81.66628,131.82664
"74575",1006.05994,84.04181,134.25424
"74576",1006.07324,85.69955,136.03828
"74577",1006.08655,86.56382,137.08067
"74578",1006.09985,86.66636,137.38834
"74579",1006.11316,86.136566,137.06686
"74580",1006.12646,85.11116,136.23323
"74581",1006.1398,83.74151,135.0233
"74582",1006.1531,82.15701,133.55573
"74583",1006.1664,80.45533,131.92145
"74584",1006.1797,78.70725,130.1876
"74585",1006.193,76.981155,128.42111
"74586",1006.2063,75.33074,126.67636
"74587",1006.2196,73.795074,124.99478
"74588",1006.2329,72.40589,123.4117
"74589",1006.2462,71.19005,121.95854
"74590",1006.2595,70.17197,120.665146
"74591",1006.2728,69.37606,119.56211
"74592",1006.28613,68.83162,118.68567
"74593",1006.29944,68.558174,118.06321
"74594",1006.31274,68.55573,117.70321
"74595",1006.32605,68.80965,117.59949
"74596",1006.33936,69.27108,117.71122
"74597",1006.35266,69.879,117.98386
"74598",1006.36597,70.5626,118.35117
"74599",1006.3793,71.2462,118.73985
"74600",1006.3926,71.86633,119.086426
"74601",1006.4059,72.3888,119.35472
"74602",1006.4192,72.83559,119.56366
"74603",1006.4325,73.36294,119.86713
"74604",1006.4458,74.29557,120.592354
"74605",1006.4591,76.06561,122.184135
"74606",1006.4724,79.01488,125.01045
"74607",1006.4857,83.18242,129.1472
"74608",1006.499,88.20691,134.27115
"74609",1006.5123,93.42672,139.74742
"74610",1006.52563,98.07767,144.81795
"74611",1006.53894,101.55184,148.85706
"74612",1006.55225,103.56603,151.54474
"74613",1006.56555,104.16174,152.87689
"74614",1006.57886,103.551384,153.02159
"74615",1006.59216,101.98642,152.19261
"74616",1006.60547,99.69146,150.58473
"74617",1006.6188,96.8716,148.38023
"74618",1006.6321,93.712364,145.74823
"74619",1006.6454,90.39445,142.85883
"74620",1006.6587,87.05943,139.84863
"74621",1006.672,83.79767,136.80748
"74622",1006.6853,80.672615,133.8011
"74623",1006.6986,77.738,130.88751
"74624",1006.7119,75.10124,128.18007
"74625",1006.7252,72.921036,125.84678
"74626",1006.7385,71.4049,124.10943
"74627",1006.75183,70.77013,123.206055
"74628",1006.76514,71.16075,123.30824
"74629",1006.77844,72.567024,124.43829
"74630",1006.79175,74.78142,126.42041
"74631",1006.80505,77.467,128.94292
"74632",1006.81836,80.20874,131.6055
"74633",1006.83167,82.62089,134.02417
"74634",1006.845,84.422676,135.90787
"74635",1006.8583,85.487144,137.11055
"74636",1006.8716,85.821625,137.6165
"74637",1006.8849,85.51156,137.48836
"74638",1006.8982,84.68879,136.83783
"74639",1006.9115,83.4876,135.78317
"74640",1006.9248,82.0325,134.43706
"74641",1006.9381,80.42603,132.8941
"74642",1006.9514,78.751205,131.23259
"74643",1006.9647,77.07149,129.51384
"74644",1006.978,75.43816,127.789
"74645",1006.99133,73.900055,126.10834
"74646",1007.00464,72.49134,124.509
"74647",1007.01794,71.24864,123.03166
"74648",1007.03125,70.21103,121.720566
"74649",1007.04456,69.41024,120.61387
"74650",1007.05786,68.87068,119.74338
"74651",1007.07117,68.58991,119.114815
"74652",1007.0845,68.560616,118.72895
"74653",1007.0978,68.748604,118.559456
"74654",1007.1111,69.10506,118.5643
"74655",1007.1244,69.56893,118.687706
"74656",1007.1377,70.084076,118.87688
"74657",1007.151,70.59434,119.07726
"74658",1007.1643,71.08507,119.27406
"74659",1007.1776,71.60265,119.51306
"74660",1007.1909,72.35218,120.00017
"74661",1007.2042,73.71938,121.12837
"74662",1007.2175,76.12421,123.33693
"74663",1007.23083,79.781494,126.8731
"74664",1007.24414,84.55451,131.63928
"74665",1007.25745,89.935455,137.16255
"74666",1007.27075,95.19676,142.73434
"74667",1007.28406,99.61089,147.62338
"74668",1007.29736,102.69932,151.32465
"74669",1007.31067,104.32044,153.65512
"74670",1007.324,104.584114,154.6788
"74671",1007.3373,103.71984,154.58278
"74672",1007.3506,101.95468,153.55887
"74673",1007.3639,99.510796,151.80107
"74674",1007.3772,96.603035,149.50302
"74675",1007.3905,93.44381,146.86264
"74676",1007.4038,90.213776,144.05272
"74677",1007.4171,87.05455,141.21268
"74678",1007.4304,84.051575,138.43016
"74679",1007.4437,81.248795,135.754
"74680",1007.45703,78.68772,133.23195
"74681",1007.47034,76.44892,130.95213
"74682",1007.48364,74.67155,129.06378
"74683",1007.49695,73.55337,127.77909
"74684",1007.51025,73.26284,127.28711
"74685",1007.52356,73.8732,127.686935
"74686",1007.53687,75.30389,128.92616
"74687",1007.5502,77.315636,130.79115
"74688",1007.5635,79.551994,132.94362
"74689",1007.5768,81.67605,135.05367
"74690",1007.5901,83.41924,136.84924
"74691",1007.6034,84.61799,138.15485
"74692",1007.6167,85.21126,138.89243
"74693",1007.63,85.21614,139.06017
"74694",1007.6433,84.698555,138.70558
"74695",1007.6566,83.75372,137.90758
"74696",1007.6699,82.48173,136.75288
"74697",1007.6832,80.98512,135.33383
"74698",1007.69653,79.37133,133.75082
"74699",1007.70984,77.72335,132.08319
"74700",1007.72314,76.09979,130.38849
"74701",1007.73645,74.55924,128.72606
"74702",1007.74976,73.14809,127.14488
"74703",1007.76306,71.905396,125.68807
"74704",1007.77637,70.870224,124.39995
"74705",1007.7897,70.081635,123.32605
"74706",1007.803,69.559166,122.49363
"74707",1007.8163,69.3077,121.915886
"74708",1007.8296,69.30526,121.57931
"74709",1007.8429,69.50301,121.44285
"74710",1007.8562,69.8497,121.4615
"74711",1007.8695,70.27451,121.569115
"74712",1007.8828,70.71885,121.709526
"74713",1007.8961,71.13878,121.83942
"74714",1007.9094,71.517204,121.94093
"74715",1007.9227,71.89563,122.054276
"74716",1007.93604,72.427864,122.33325
"74717",1007.94934,73.43618,123.104935
"74718",1007.96265,75.32098,124.784615
"74719",1007.97595,78.34348,127.660904
"74720",1007.98926,82.46708,131.73273
"74721",1008.00256,87.33288,136.67563
"74722",1008.01587,92.3476,141.91951
"74723",1008.0292,96.83986,146.79762
"74724",1008.0425,100.28718,150.77118
"74725",1008.0558,102.44297,153.56094
"74726",1008.0691,103.32189,155.1412
"74727",1008.0824,103.05577,155.6039
"74728",1008.0957,101.83261,155.10123
"74729",1008.109,99.85748,153.80836
"74730",1008.1223,97.357445,151.92888
"74731",1008.1356,94.554665,149.66852
"74732",1008.1489,91.65667,147.22536
"74733",1008.16223,88.81972,144.75267
"74734",1008.17554,86.14389,142.35246
"74735",1008.18884,83.66094,140.06151
"74736",1008.20215,81.38064,137.89561
"74737",1008.21545,79.33715,135.89528
"74738",1008.22876,77.62081,134.15822
"74739",1008.24207,76.383,132.84605
"74740",1008.2554,75.7702,132.12022
"74741",1008.2687,75.87274,132.09058
"74742",1008.282,76.65644,132.7453
"74743",1008.2953,77.95773,133.94211
"74744",1008.3086,79.520256,135.44081
"74745",1008.3219,81.06813,136.9737
"74746",1008.3352,82.35966,138.2986
"74747",1008.3485,83.23369,139.24637
"74748",1008.3618,83.59991,139.71364
"74749",1008.3751,83.441216,139.66745
"74750",1008.3884,82.811325,139.1451
"74751",1008.40173,81.79813,138.21976
"74752",1008.41504,80.50172,136.97954
"74753",1008.42834,79.0222,135.5157
"74754",1008.44165,77.45724,133.92018
"74755",1008.45496,75.877625,132.26111
"74756",1008.46826,74.34684,130.6015
"74757",1008.48157,72.91371,128.99171
"74758",1008.4949,71.622185,127.478745
"74759",1008.5082,70.49912,126.09387
"74760",1008.5215,69.57137,124.86922
"74761",1008.5348,68.85603,123.82798
"74762",1008.5481,68.37995,123.00365
"74763",1008.5614,68.14801,122.40858
"74764",1008.5747,68.15289,122.04308
"74765",1008.588,68.367744,121.88771
"74766",1008.6013,68.74372,121.90018
"74767",1008.6146,69.21004,122.01473
"74768",1008.6279,69.70321,122.170715
"74769",1008.64124,70.1622,122.30793
"74770",1008.65454,70.54307,122.38136
"74771",1008.66785,70.83116,122.373924
"74772",1008.68115,71.05333,122.30957
"74773",1008.69446,71.329216,122.30588
"74774",1008.70776,71.922485,122.62819
"74775",1008.72107,73.216446,123.66972
"74776",1008.7344,75.54803,125.78932
"74777",1008.7477,79.02464,129.12682
"74778",1008.761,83.43389,133.50558
"74779",1008.7743,88.289925,138.46893
"74780",1008.7876,92.962845,143.40091
"74781",1008.8009,96.86427,147.70743
"74782",1008.8142,99.630424,151.00058
"74783",1008.8275,101.15144,153.13506
"74784",1008.8408,101.51766,154.16226
"74785",1008.8541,100.86824,154.18527
"74786",1008.86743,99.39605,153.36522
"74787",1008.88074,97.31594,151.89124
"74788",1008.89404,94.86229,149.9787
"74789",1008.90735,92.25727,147.83813
"74790",1008.92065,89.686424,145.65033
"74791",1008.93396,87.274284,143.5409
"74792",1008.94727,85.0721,141.56602
"74793",1008.9606,83.06767,139.72011
"74794",1008.9739,81.24391,137.99222
"74795",1008.9872,79.62524,136.41241
"74796",1009.0005,78.29954,135.075
"74797",1009.0138,77.37911,134.10143
"74798",1009.0271,76.981155,133.62157
"74799",1009.0404,77.134964,133.68103
"74800",1009.0537,77.77219,134.22871
"74801",1009.067,78.73899,135.1259
"74802",1009.0803,79.82544,136.17294
"74803",1009.0936,80.82643,137.16849
"74804",1009.10693,81.57839,137.94627
"74805",1009.12024,81.9617,138.3789
"74806",1009.13354,81.92264,138.40115
"74807",1009.14685,81.46609,138.00468
"74808",1009.16016,80.635994,137.22041
"74809",1009.17346,79.520256,136.12456
"74810",1009.18677,78.20676,134.79607
"74811",1009.2001,76.79317,133.32643
"74812",1009.2134,75.36004,131.79309
"74813",1009.2267,73.968414,130.25647
"74814",1009.24,72.66468,128.76425
"74815",1009.2533,71.49035,127.36069
"74816",1009.2666,70.467384,126.07179
"74817",1009.2799,69.607994,124.914505
"74818",1009.2932,68.91951,123.90127
"74819",1009.3065,68.40925,123.04474
"74820",1009.3198,68.07233,122.345604
"74821",1009.3331,67.90875,121.80929
"74822",1009.34644,67.90875,121.431435
"74823",1009.35974,68.069885,121.214714
"74824",1009.37305,68.370186,121.1422
"74825",1009.38635,68.790115,121.19869
"74826",1009.39966,69.30038,121.35864
"74827",1009.41296,69.86191,121.58581
"74828",1009.4263,70.43076,121.837845
"74829",1009.4396,70.96788,122.07592
"74830",1009.4529,71.41955,122.24533
"74831",1009.4662,71.75159,122.309235
"74832",1009.4795,71.93713,122.237015
"74833",1009.4928,71.96155,122.00946
"74834",1009.5061,71.83215,121.62886
"74835",1009.5194,71.57824,121.119705
"74836",1009.5327,71.27795,120.55623
"74837",1009.546,71.12169,120.12741
"74838",1009.5593,71.468376,120.196655
"74839",1009.57263,72.76723,121.2289
"74840",1009.58594,75.34539,123.58104
"74841",1009.59924,79.22484,127.31503
"74842",1009.61255,84.05646,132.12242
"74843",1009.62585,89.22255,137.41528
"74844",1009.63916,94.012665,142.4936
"74845",1009.65247,97.85306,146.7719
"74846",1009.6658,100.44587,149.9226
"74847",1009.6791,101.771576,151.88725
"74848",1009.6924,101.95468,152.75072
"74849",1009.7057,101.16365,152.64577
"74850",1009.719,99.60357,151.74706
"74851",1009.7323,97.50393,150.26003
"74852",1009.7456,95.10887,148.41196
"74853",1009.7589,92.64057,146.4158
"74854",1009.7722,90.269936,144.44019
"74855",1009.7855,88.07507,142.56625
"74856",1009.7988,86.080414,140.82394
"74857",1009.81213,84.24933,139.18288
"74858",1009.82544,82.55985,137.62619
"74859",1009.83875,81.03883,136.18517
"74860",1009.85205,79.783936,134.96274
"74861",1009.86536,78.9099,134.08194
"74862",1009.87866,78.51682,133.6548
"74863",1009.89197,78.61936,133.71098
"74864",1009.9053,79.14183,134.1903
"74865",1009.9186,79.92798,134.94963
"74866",1009.9319,80.78981,135.8092
"74867",1009.9452,81.549095,136.59317
"74868",1009.9585,82.06424,137.15672
"74869",1009.9718,82.23758,137.39458
"74870",1009.9851,82.02518,137.2521
"74871",1009.9984,81.43191,136.72212
"74872",1010.0117,80.50904,135.84401
"74873",1010.025,79.33227,134.68315
"74874",1010.0383,77.99924,133.32925
"74875",1010.05164,76.592964,131.86046
"74876",1010.06494,75.19646,130.35748
"74877",1010.07825,73.865875,128.87679
"74878",1010.09155,72.64515,127.46437
"74879",1010.10486,71.55627,126.145645
"74880",1010.11816,70.61875,124.94426
"74881",1010.1315,69.839935,123.87228
"74882",1010.1448,69.224686,122.93952
"74883",1010.1581,68.77791,122.15601
"74884",1010.1714,68.50202,121.529434
"74885",1010.1847,68.387276,121.055374
"74886",1010.198,68.42878,120.73398
"74887",1010.2113,68.607,120.5506
"74888",1010.2246,68.895096,120.48266
"74889",1010.2379,69.2662,120.50673
"74890",1010.2512,69.678795,120.58389
"74891",1010.2645,70.098724,120.68128
"74892",1010.27783,70.49668,120.76982
"74893",1010.29114,70.853134,120.82929
"74894",1010.30444,71.16319,120.853516
"74895",1010.31775,71.41955,120.833725
"74896",1010.33105,71.624626,120.77066
"74897",1010.34436,71.78577,120.670074
"74898",1010.35767,71.89563,120.52324
"74899",1010.371,71.94934,120.323685
"74900",1010.3843,71.93469,120.05745
"74901",1010.3976,71.83948,119.71019
"74902",1010.4109,71.66125,119.27695
"74903",1010.4242,71.39025,118.74536
"74904",1010.4375,71.02403,118.11009
"74905",1010.4508,70.572365,117.37793
"74906",1010.4641,70.07675,116.5877
"74907",1010.4774,69.625084,115.82593
"74908",1010.4907,69.46395,115.340576
"74909",1010.504,70.030365,115.577736
"74910",1010.51733,71.834595,117.07041
"74911",1010.53064,75.174484,120.155136
"74912",1010.54395,79.9646,124.79446
"74913",1010.55725,85.714195,130.54294
"74914",1010.57056,91.649345,136.65666
"74915",1010.58386,96.96193,142.33328
"74916",1010.59717,101.05379,146.9552
"74917",1010.6105,103.69543,150.25478
"74918",1010.6238,104.94301,152.24284
"74919",1010.6371,104.97719,153.05649
"74920",1010.6504,104.00549,152.86533
"74921",1010.6637,102.240326,151.85033
"74922",1010.677,99.92828,150.23329
"74923",1010.6903,97.32082,148.2486
"74924",1010.7036,94.66209,146.13113
"74925",1010.7169,92.140076,144.0673
"74926",1010.7302,89.86221,142.16882
"74927",1010.7435,87.8407,140.4555
"74928",1010.75684,86.03403,138.89386
"74929",1010.77014,84.39582,137.44421
"74930",1010.78345,82.930954,136.11671
"74931",1010.79675,81.70046,134.97781
"74932",1010.81006,80.82155,134.15204
"74933",1010.82336,80.377205,133.73337
"74934",1010.8367,80.40162,133.76958
"74935",1010.85,80.82643,134.20694
"74936",1010.8633,81.50759,134.91393
"74937",1010.8766,82.269325,135.72278
"74938",1010.8899,82.9456,136.46997
"74939",1010.9032,83.389946,137.00636
"74940",1010.9165,83.50469,137.22705
"74941",1010.9298,83.24101,137.07289
"74942",1010.9431,82.6038,136.53696
"74943",1010.9564,81.62966,135.6442
"74944",1010.9697,80.396736,134.4622
"74945",1010.98303,79.00023,133.0781
"74946",1010.99634,77.52804,131.57466
"74947",1011.00964,76.06073,130.0301
"74948",1011.02295,74.66178,128.50806
"74949",1011.03625,73.375145,127.0546
"74950",1011.04956,72.215454,125.68789
"74951",1011.06287,71.20714,124.43631
"74952",1011.0762,70.35508,123.30948
"74953",1011.0895,69.66659,122.31958
"74954",1011.1028,69.15144,121.481514
"74955",1011.1161,68.81941,120.81046
"74956",1011.1294,68.67048,120.31213
"74957",1011.1427,68.69489,119.9825
"74958",1011.156,68.86824,119.80256
"74959",1011.1693,69.15633,119.742775
"74960",1011.1826,69.52987,119.77745
"74961",1011.1959,69.94736,119.867744
"74962",1011.2092,70.37217,119.97841
"74963",1011.22253,70.77013,120.07549
"74964",1011.23584,71.116806,120.13374
"74965",1011.24915,71.395134,120.134476
"74966",1011.26245,71.59533,120.065765
"74967",1011.27576,71.71496,119.922745
"74968",1011.28906,71.75647,119.70535
"74969",1011.30237,71.72961,119.42088
"74970",1011.3157,71.65392,119.08675
"74971",1011.329,71.53918,118.71118
"74972",1011.3423,71.40734,118.31494
"74973",1011.3556,71.27306,117.91214
"74974",1011.3689,71.1461,117.51247
"74975",1011.3822,71.01671,117.106384
"74976",1011.3955,70.88243,116.691376
"74977",1011.4088,70.72129,116.245316
"74978",1011.4221,70.51621,115.750275
"74979",1011.4354,70.25254,115.19023
"74980",1011.4487,69.93515,114.56823
"74981",1011.46204,69.5787,113.89725
"74982",1011.47534,69.25155,113.24443
"74983",1011.48865,69.14168,112.79867
"74984",1011.50195,69.6202,112.93787
"74985",1011.51526,71.21202,114.205315
"74986",1011.52856,74.34928,117.06795
"74987",1011.5419,79.078354,121.62044
"74988",1011.5552,85.00862,127.521904
"74989",1011.5685,91.407646,134.07745
"74990",1011.5818,97.39651,140.4228
"74991",1011.5951,102.233,145.80295
"74992",1011.6084,105.5436,149.80833
"74993",1011.6217,107.31609,152.37906
"74994",1011.635,107.72137,153.63795
"74995",1011.6483,106.97917,153.76205
"74996",1011.6616,105.31655,152.94254
"74997",1011.6749,102.977646,151.39478
"74998",1011.68823,100.226135,149.36131
"74999",1011.70154,97.32082,147.08807
"75000",1011.71484,94.48142,144.78995
"75001",1011.72815,91.8642,142.62526
"75002",1011.74146,89.53506,140.66687
"75003",1011.75476,87.48669,138.91647
"75004",1011.76807,85.67025,137.334
"75005",1011.7814,84.051575,135.89252
"75006",1011.7947,82.65507,134.62262
"75007",1011.808,81.5613,133.61183
"75008",1011.8213,80.87526,132.97458
"75009",1011.8346,80.66529,132.79196
"75010",1011.8479,80.92897,133.07643
"75011",1011.8612,81.566185,133.74268
"75012",1011.8745,82.408485,134.63393
"75013",1011.8878,83.26299,135.5637
"75014",1011.9011,83.95636,136.35904
"75015",1011.9144,84.35432,136.88063
"75016",1011.92773,84.36408,137.02647
"75017",1011.94104,83.95392,136.75269
"75018",1011.95435,83.14824,136.07057
"75019",1011.96765,82.00076,135.02148
"75020",1011.98096,80.6067,133.68994
"75021",1011.99426,79.05638,132.15858
"75022",1012.00757,77.452354,130.52507
"75023",1012.0209,75.8703,128.8634
"75024",1012.0342,74.371254,127.235306
"75025",1012.0475,73.00404,125.6922
"75026",1012.0608,71.78577,124.2553
"75027",1012.0741,70.72373,122.93657
"75028",1012.0874,69.83505,121.758
"75029",1012.1007,69.12459,120.72988
"75030",1012.114,68.60212,119.86755
"75031",1012.1273,68.282295,119.19154
"75032",1012.1406,68.16266,118.70573
"75033",1012.15393,68.23346,118.40661
"75034",1012.16724,68.47028,118.27573
"75035",1012.18054,68.84627,118.291405
"75036",1012.19385,69.31747,118.41405
"75037",1012.20715,69.83505,118.5978
"75038",1012.22046,70.35264,118.79773
"75039",1012.23376,70.82872,118.97233
"75040",1012.2471,71.22667,119.08368
"75041",1012.2604,71.534294,119.11714
"75042",1012.2737,71.74181,119.060104
"75043",1012.287,71.85901,118.919235
"75044",1012.3003,71.885864,118.69168
"75045",1012.3136,71.83948,118.39172
"75046",1012.3269,71.73205,118.02928
"75047",1012.3402,71.588005,117.62686
"75048",1012.3535,71.42443,117.20041
"75049",1012.3668,71.26086,116.768845
"75050",1012.3801,71.11192,116.34682
"75051",1012.39343,70.97032,115.92746
"75052",1012.40674,70.81651,115.49147
"75053",1012.42004,70.62852,115.016495
"75054",1012.43335,70.38926,114.484375
"75055",1012.44666,70.08652,113.881294
"75056",1012.45996,69.730064,113.21504
"75057",1012.47327,69.34432,112.50836
"75058",1012.4866,69.00252,111.833565
"75059",1012.4999,68.89021,111.37759
"75060",1012.5132,69.4078,111.54799
"75061",1012.5265,71.10948,112.91866
"75062",1012.5398,74.44938,115.98073
"75063",1012.5531,79.48608,120.84397
"75064",1012.5664,85.78989,127.13172
"75065",1012.5797,92.55268,134.07545
"75066",1012.593,98.82475,140.73979
"75067",1012.6063,103.82483,146.32814
"75068",1012.6196,107.159836,150.40767
"75069",1012.63293,108.84444,152.94101
"75070",1012.64624,109.100784,154.09874
"75071",1012.65955,108.18036,154.0877
"75072",1012.67285,106.322426,153.11041
"75073",1012.68616,103.77844,151.389
"75074",1012.69946,100.80965,149.16328
"75075",1012.71277,97.6675,146.67145
"75076",1012.7261,94.591286,144.14734
"75077",1012.7394,91.74456,141.75659
"75078",1012.7527,89.21278,139.59183
"75079",1012.766,86.9984,137.66534
"75080",1012.7793,85.05989,135.94554
"75081",1012.7926,83.35821,134.40198
"75082",1012.8059,81.92264,133.07135
"75083",1012.8192,80.8362,132.045
"75084",1012.8325,80.2063,131.44124
"75085",1012.8458,80.10376,131.34515
"75086",1012.85913,80.52613,131.77077
"75087",1012.87244,81.35134,132.61243
"75088",1012.88574,82.39384,133.69716
"75089",1012.89905,83.4461,134.82423
"75090",1012.91235,84.32014,135.80597
"75091",1012.92566,84.86214,136.48297
"75092",1012.93896,84.972,136.74478
"75093",1012.9523,84.62287,136.55103
"75094",1012.9656,83.83429,135.9069
"75095",1012.9789,82.67216,134.8646
"75096",1012.9922,81.23659,133.51253
"75097",1013.0055,79.63256,131.94714
"75098",1013.0188,77.962616,130.26572
"75099",1013.0321,76.30244,128.54187
"75100",1013.0454,74.70573,126.82961
"75101",1013.0587,73.216446,125.17489
"75102",1013.072,71.85901,123.60547
"75103",1013.0853,70.65293,122.14499
"75104",1013.09863,69.61776,120.81772
"75105",1013.11194,68.77547,119.65098
"75106",1013.12524,68.14313,118.66787
"75107",1013.13855,67.735405,117.88962
"75108",1013.15186,67.544975,117.31592
"75109",1013.16516,67.56451,116.94623
"75110",1013.17847,67.76959,116.7627
"75111",1013.1918,68.1236,116.734505
"75112",1013.2051,68.592354,116.83212
"75113",1013.2184,69.13435,117.01763
"75114",1013.2317,69.70321,117.24693
"75115",1013.245,70.25498,117.47693
"75116",1013.2583,70.75792,117.67533
"75117",1013.2716,71.182724,117.811325
"75118",1013.2849,71.51476,117.86783
"75119",1013.2982,71.74181,117.82971
"75120",1013.3115,71.86633,117.69617
"75121",1013.3248,71.89807,117.473724
"75122",1013.33813,71.84436,117.166824
"75123",1013.35144,71.710075,116.77768
"75124",1013.36475,71.50988,116.31842
"75125",1013.37805,71.258415,115.801636
"75126",1013.39136,70.98009,115.25014
"75127",1013.40466,70.70176,114.68994
"75128",1013.41797,70.44541,114.14302
"75129",1013.4313,70.22812,113.627144
"75130",1013.4446,70.04501,113.138664
"75131",1013.4579,69.879,112.66155
"75132",1013.4712,69.70565,112.17192
"75133",1013.4845,69.50301,111.64758
"75134",1013.4978,69.25643,111.07297
"75135",1013.5111,68.9781,110.4589
"75136",1013.5244,68.72419,109.86055
"75137",1013.5377,68.697334,109.48132
"75138",1013.551,69.332115,109.76289
"75139",1013.56433,71.22911,111.326515
"75140",1013.57764,74.89128,114.7146
"75141",1013.59094,80.377205,120.04088
"75142",1013.60425,87.218124,126.893585
"75143",1013.61755,94.52781,134.42883
"75144",1013.63086,101.261314,141.61633
"75145",1013.64417,106.56168,147.58112
"75146",1013.6575,110.01877,151.86826
"75147",1013.6708,111.67162,154.4592
"75148",1013.6841,111.7937,155.57101
"75149",1013.6974,110.6804,155.45126
"75150",1013.7107,108.595406,154.32504
"75151",1013.724,105.795074,152.41832
"75152",1013.7373,102.53086,149.9602
"75153",1013.7506,99.06401,147.19745
"75154",1013.7639,95.624016,144.35321
"75155",1013.7772,92.39887,141.61632
"75156",1013.7905,89.495995,139.1009
"75157",1013.80383,86.95445,136.85611
"75158",1013.81714,84.75227,134.87126
"75159",1013.83044,82.8748,133.1423
"75160",1013.84375,81.34646,131.7038
"75161",1013.85706,80.25025,130.64967
"75162",1013.87036,79.68383,130.09108
"75163",1013.88367,79.72045,130.11781
"75164",1013.897,80.33082,130.71944
"75165",1013.9103,81.38796,131.78693
"75166",1013.9236,82.68192,133.12427
"75167",1013.9369,83.980774,134.50693
"75168",1013.9502,85.06233,135.71289
"75169",1013.9635,85.76059,136.56935
"75170",1013.9768,85.980316,136.9691
"75171",1013.9901,85.68978,136.86545
"75172",1014.0034,84.91341,136.26688
"75173",1014.0167,83.7293,135.23631
"75174",1014.03,82.24002,133.86357
"75175",1014.04333,80.56519,132.25874
"75176",1014.05664,78.802475,130.51369
"75177",1014.06995,77.04219,128.71597
"75178",1014.08325,75.34051,126.92186
"75179",1014.09656,73.74624,125.181984
"75180",1014.10986,72.29603,123.53635
"75181",1014.12317,71.01671,122.01628
"75182",1014.1365,69.925385,120.644226
"75183",1014.1498,69.03914,119.443146
"75184",1014.1631,68.3653,118.42678
"75185",1014.1764,67.913635,117.61153
"75186",1014.1897,67.684135,117.004326
"75187",1014.203,67.667046,116.60236
"75188",1014.2163,67.85016,116.40007
"75189",1014.2296,68.206604,116.37683
"75190",1014.2429,68.69001,116.49169
"75191",1014.2562,69.25643,116.70467
"75192",1014.26953,69.86191,116.97441
"75193",1014.28284,70.46006,117.255745
"75194",1014.29614,71.01427,117.511826
"75195",1014.30945,71.500114,117.71687
"75196",1014.32275,71.89807,117.84921
"75197",1014.33606,72.200806,117.89876
"75198",1014.34937,72.40833,117.862564
"75199",1014.3627,72.51331,117.7303
"75200",1014.376,72.52308,117.5061
"75201",1014.3893,72.44251,117.19188
"75202",1014.4026,72.2765,116.78969
"75203",1014.4159,72.03235,116.304184
"75204",1014.4292,71.73693,115.75978
"75205",1014.4425,71.414665,115.17929
"75206",1014.4558,71.09239,114.58873
"75207",1014.4691,70.801865,114.01984
"75208",1014.4824,70.56992,113.50046
"75209",1014.4957,70.40391,113.03975
"75210",1014.50903,70.2916,112.62756
"75211",1014.52234,70.223236,112.255806
"75212",1014.53564,70.1622,111.889244
"75213",1014.54895,70.07187,111.49148
"75214",1014.56226,69.910736,111.02009
"75215",1014.57556,69.65682,110.45088
"75216",1014.58887,69.34188,109.81271
"75217",1014.6022,69.13435,109.27212
"75218",1014.6155,69.42977,109.22798
"75219",1014.6288,70.86534,110.33323
"75220",1014.6421,74.06363,113.24606
"75221",1014.6554,79.24925,118.24618
"75222",1014.6687,86.06088,125.03435
"75223",1014.682,93.626915,132.78978
"75224",1014.6953,100.84383,140.43253
"75225",1014.7086,106.71061,146.95068
"75226",1014.7219,110.66331,151.73808
"75227",1014.7352,112.65308,154.6861
"75228",1014.74854,112.96803,156.02145
"75229",1014.76184,111.954834,156.03851
"75230",1014.77515,109.90402,154.9863
"75231",1014.78845,107.071945,153.08871
"75232",1014.80176,103.710075,150.57285
"75233",1014.81506,100.067444,147.67116
"75234",1014.82837,96.35401,144.58484
"75235",1014.8417,92.74311,141.485
"75236",1014.855,89.35195,138.49207
"75237",1014.8683,86.2562,135.68857
"75238",1014.8816,83.48028,133.10815
"75239",1014.8949,81.058365,130.795
"75240",1014.9082,79.07591,128.84563
"75241",1014.9215,77.65011,127.390945
"75242",1014.9348,76.91768,126.58508
"75243",1014.9481,76.96651,126.53759
"75244",1014.9614,77.78439,127.26068
"75245",1014.97473,79.22728,128.63432
"75246",1014.98804,81.05104,130.43393
"75247",1015.00134,82.95293,132.36867
"75248",1015.01465,84.63996,134.14798
"75249",1015.02795,85.89487,135.54788
"75250",1015.04126,86.590675,136.4279
"75251",1015.05457,86.67368,136.71687
"75252",1015.0679,86.168304,136.42004
"75253",1015.0812,85.16243,135.60693
"75254",1015.0945,83.76105,134.36688
"75255",1015.1078,82.08621,132.80959
"75256",1015.1211,80.25025,131.03882
"75257",1015.1344,78.35325,129.14964
"75258",1015.1477,76.473335,127.21827
"75259",1015.161,74.67643,125.31116
"75260",1015.1743,73.01137,123.47974
"75261",1015.1876,71.50744,121.757416
"75262",1015.2009,70.17929,120.16388
"75263",1015.21423,69.048904,118.72659
"75264",1015.22754,68.13092,117.466385
"75265",1015.24084,67.43511,116.399666
"75266",1015.25415,66.97612,115.54802
"75267",1015.26746,66.75639,114.921295
"75268",1015.28076,66.77104,114.52208
"75269",1015.29407,67.002975,114.34061
"75270",1015.3074,67.42046,114.35194
"75271",1015.3207,67.981995,114.520355
"75272",1015.334,68.63386,114.79665
"75273",1015.3473,69.3077,115.1153
"75274",1015.3606,69.959564,115.43303
"75275",1015.3739,70.55039,115.71009
"75276",1015.3872,71.05821,115.92261
"75277",1015.4005,71.47082,116.055786
"75278",1015.4138,71.79065,116.109085
"75279",1015.4271,72.01282,116.07471
"75280",1015.4404,72.13733,115.949615
"75281",1015.45374,72.1593,115.725876
"75282",1015.46704,72.09338,115.41493
"75283",1015.48035,71.94934,115.0238
"75284",1015.49365,71.73693,114.559814
"75285",1015.50696,71.47082,114.03548
"75286",1015.52026,71.168076,113.4662
"75287",1015.53357,70.85802,112.88014
"75288",1015.5469,70.5626,112.29904
"75289",1015.5602,70.311134,111.752655
"75290",1015.5735,70.118256,111.256996
"75291",1015.5868,69.98398,110.81391
"75292",1015.6001,69.891205,110.408134
"75293",1015.6134,69.8082,110.009224
"75294",1015.6267,69.698326,109.58086
"75295",1015.64,69.539635,109.100235
"75296",1015.6533,69.32723,108.56094
"75297",1015.6666,69.10994,108.010124
"75298",1015.67993,69.08797,107.647835
"75299",1015.69324,69.72518,107.944046
"75300",1015.70654,71.70519,109.60297
"75301",1015.71985,75.63592,113.274475
"75302",1015.73315,81.65652,119.1587
"75303",1015.74646,89.27627,126.830215
"75304",1015.75977,97.49172,135.33556
"75305",1015.7731,105.08705,143.47751
"75306",1015.7864,111.03441,150.20883
"75307",1015.7997,114.8333,154.97754
"75308",1015.813,116.53498,157.76776
"75309",1015.8263,116.5008,158.8753
"75310",1015.8396,115.12627,158.64142
"75311",1015.8529,112.73609,157.34894
"75312",1015.8662,109.58907,155.22491
"75313",1015.8795,105.93912,152.49962
"75314",1015.8928,102.02792,149.39902
"75315",1015.9061,98.07034,146.1298
"75316",1015.91943,94.2446,142.86876
"75317",1015.93274,90.68009,139.74939
"75318",1015.94604,87.44274,136.8458
"75319",1015.95935,84.54475,134.18039
"75320",1015.97266,82.00809,131.78575
"75321",1015.98596,79.886475,129.7269
"75322",1015.99927,78.29221,128.12909
"75323",1016.0126,77.36202,127.14553
"75324",1016.0259,77.205765,126.90684
"75325",1016.0392,77.84787,127.461624
"75326",1016.0525,79.185776,128.73227
"75327",1016.0658,80.987564,130.5086
"75328",1016.0791,82.96269,132.5146
"75329",1016.0924,84.8011,134.4456
"75330",1016.1057,86.24887,136.04341
"75331",1016.119,87.14488,137.1347
"75332",1016.1323,87.413445,137.62654
"75333",1016.1456,87.05943,137.5042
"75334",1016.15894,86.16098,136.82635
"75335",1016.17224,84.825516,135.68343
"75336",1016.18555,83.17021,134.17892
"75337",1016.19885,81.31228,132.42006
"75338",1016.21216,79.35912,130.50792
"75339",1016.22546,77.39132,128.52008
"75340",1016.2388,75.47967,126.52691
"75341",1016.2521,73.68032,124.5863
"75342",1016.2654,72.03235,122.740845
"75343",1016.2787,70.56016,121.01967
"75344",1016.292,69.28329,119.4478
"75345",1016.3053,68.21393,118.04354
"75346",1016.3186,67.36675,116.82805
"75347",1016.3319,66.74662,115.813126
"75348",1016.3452,66.36576,115.0181
"75349",1016.3585,66.20706,114.43333
"75350",1016.3718,66.24368,114.03892
"75351",1016.38513,66.45365,113.819
"75352",1016.39844,66.812546,113.75457
"75353",1016.41174,67.28863,113.81854
"75354",1016.42505,67.859924,113.99261
"75355",1016.43835,68.492256,114.24556
"75356",1016.45166,69.15144,114.54513
"75357",1016.46497,69.79111,114.84577
"75358",1016.4783,70.36973,115.10536
"75359",1016.4916,70.86534,115.300026
"75360",1016.5049,71.258415,115.40764
"75361",1016.5182,71.54162,115.41766
"75362",1016.5315,71.71984,115.33156
"75363",1016.5448,71.79065,115.143616
"75364",1016.5581,71.763794,114.860214
"75365",1016.5714,71.65148,114.490524
"75366",1016.5847,71.47326,114.05141
"75367",1016.598,71.25109,113.562775
"75368",1016.6113,71.01915,113.057434
"75369",1016.62463,70.804306,112.561935
"75370",1016.63794,70.623634,112.0939
"75371",1016.65125,70.48203,111.65929
"75372",1016.66455,70.36729,111.2471
"75373",1016.67786,70.24765,110.82644
"75374",1016.69116,70.08896,110.36298
"75375",1016.70447,69.8497,109.814
"75376",1016.7178,69.5201,109.167206
"75377",1016.7311,69.15877,108.47837
"75378",1016.7444,68.980545,107.96136
"75379",1016.7577,69.48104,108.11749
"75380",1016.771,71.38781,109.69554
"75381",1016.7843,75.352715,113.39131
"75382",1016.7976,81.52712,119.420494
"75383",1016.8109,89.38613,127.327225
"75384",1016.8242,97.882355,136.11676
"75385",1016.8375,105.738914,144.53214
"75386",1016.8508,111.87671,151.47427
"75387",1016.86414,115.76593,156.35965
"75388",1016.87744,117.47738,159.18878
"75389",1016.89075,117.40414,160.28671
"75390",1016.90405,115.97345,160.0249
"75391",1016.91736,113.52468,158.7003
"75392",1016.93066,110.33372,156.55698
"75393",1016.944,106.63981,153.811
"75394",1016.9573,102.67002,150.6737
"75395",1016.9706,98.6392,147.35132
"75396",1016.9839,94.72068,144.01527
"75397",1016.9972,91.05119,140.8058
"75398",1017.0105,87.70153,137.80148
"75399",1017.0238,84.70832,135.04895
"75400",1017.0371,82.08621,132.57397
"75401",1017.0504,79.89624,130.4492
"75402",1017.0637,78.22385,128.77356
"75403",1017.077,77.188675,127.682884
"75404",1017.09033,76.90303,127.30939
"75405",1017.10364,77.41085,127.72043
"75406",1017.11694,78.643776,128.87244
"75407",1017.13025,80.411385,130.59766
"75408",1017.14355,82.42802,132.62715
"75409",1017.15686,84.38361,134.65863
"75410",1017.17017,85.994965,136.40697
"75411",1017.1835,87.05699,137.65634
"75412",1017.1968,87.45739,138.27727
