"","Time..s.","PPG.trace","Preprocessed.PPG"
"3022",53.849228,78.009,86.24911
"3023",53.862564,77.10811,85.285995
"3024",53.8759,76.36103,84.44855
"3025",53.88922,75.79706,83.77086
"3026",53.902557,75.440605,83.283066
"3027",53.915894,75.29168,82.99166
"3028",53.929214,75.32342,82.87627
"3029",53.94255,75.4992,82.90591
"3030",53.955887,75.76532,83.03138
"3031",53.969223,76.04364,83.17737
"3032",53.98256,76.26093,83.27103
"3033",53.99588,76.36591,83.25916
"3034",54.009216,76.3415,83.121185
"3035",54.022552,76.18768,82.85304
"3036",54.035873,75.945984,82.49221
"3037",54.04921,75.68719,82.10673
"3038",54.062546,75.46258,81.747345
"3039",54.075882,75.28924,81.43221
"3040",54.08922,75.16472,81.160484
"3041",54.10254,75.07683,80.92149
"3042",54.115875,74.99626,80.68708
"3043",54.12921,74.90105,80.4355
"3044",54.142532,74.81804,80.19315
"3045",54.15587,74.8571,80.07028
"3046",54.169205,75.228195,80.28066
"3047",54.18254,76.21454,81.11789
"3048",54.195877,77.99924,82.784294
"3049",54.209198,80.56519,85.28773
"3050",54.222534,83.63653,88.376724
"3051",54.23587,86.76158,91.61542
"3052",54.24919,89.40322,94.46835
"3053",54.262527,91.14885,96.507835
"3054",54.275864,91.81293,97.52032
"3055",54.2892,91.46136,97.5379
"3056",54.302536,90.31388,96.7486
"3057",54.315857,88.65125,95.40828
"3058",54.329193,86.751816,93.77919
"3059",54.34253,84.842606,92.08097
"3060",54.35585,83.09453,90.48422
"3061",54.369186,81.59548,89.08188
"3062",54.382523,80.360115,87.89637
"3063",54.39586,79.35912,86.90663
"3064",54.409195,78.54856,86.07604
"3065",54.422516,77.88937,85.3715
"3066",54.435852,77.37667,84.79284
"3067",54.44919,77.04707,84.38126
"3068",54.46251,76.9543,84.19621
"3069",54.475845,77.120316,84.26705
"3070",54.48918,77.49386,84.550606
"3071",54.502518,77.98459,84.96302
"3072",54.515854,78.46311,85.37856
"3073",54.529175,78.80736,85.67478
"3074",54.54251,78.924545,85.7547
"3075",54.555847,78.80003,85.59658
"3076",54.569168,78.45823,85.21728
"3077",54.582504,77.943085,84.65395
"3078",54.59584,77.313194,83.959785
"3079",54.609177,76.63203,83.19466
"3080",54.622513,75.94354,82.400925
"3081",54.635834,75.29412,81.62474
"3082",54.64917,74.71549,80.899055
"3083",54.662506,74.22476,80.24319
"3084",54.675827,73.82437,79.66232
"3085",54.689163,73.51675,79.16171
"3086",54.7025,73.321434,78.7638
"3087",54.715836,73.3312,78.564865
"3088",54.72917,73.73403,78.7593
"3089",54.742493,74.737465,79.566925
"3090",54.75583,76.45869,81.123695
"3091",54.769165,78.836655,83.391
"3092",54.782486,81.60525,86.12324
"3093",54.795822,84.34455,88.912704
"3094",54.80916,86.598,91.30192
"3095",54.822495,88.05066,92.96076
"3096",54.83583,88.59022,93.75191
"3097",54.84915,88.29969,93.72983
"3098",54.862488,87.38171,93.07121
"3099",54.875824,86.09506,92.01524
"3100",54.889145,84.664375,90.775024
"3101",54.90248,83.27276,89.52917
"3102",54.915817,82.0325,88.39118
"3103",54.929153,80.990005,87.4122
"3104",54.94249,80.13306,86.58619
"3105",54.95581,79.41039,85.86768
"3106",54.969147,78.77806,85.21693
"3107",54.982483,78.20676,84.60744
"3108",54.995804,77.70138,84.04602
"3109",55.00914,77.296104,83.56892
"3110",55.022476,77.02754,83.21586
"3111",55.035812,76.92256,83.01799
"3112",55.04915,76.97139,82.97065
"3113",55.06247,77.120316,83.02493
"3114",55.075806,77.29366,83.10829
"3115",55.08914,77.41085,83.14091
"3116",55.102463,77.40353,83.05267
"3117",55.1158,77.23018,82.79819
"3118",55.129135,76.88594,82.36739
"3119",55.14247,76.39277,81.77691
"3120",55.155807,75.7995,81.070915
"3121",55.16913,75.15251,80.29266
"3122",55.182465,74.50553,79.4942
"3123",55.1958,73.88541,78.70238
"3124",55.20912,73.30923,77.93512
"3125",55.222458,72.77699,77.1938
"3126",55.235794,72.28382,76.474915
"3127",55.24913,71.82727,75.77724
"3128",55.262466,71.4049,75.09947
"3129",55.275787,71.01671,74.44269
"3130",55.289124,70.66514,73.810394
"3131",55.30246,70.364845,73.21838
"3132",55.31578,70.17929,72.73173
"3133",55.329117,70.24765,72.49319
"3134",55.342453,70.76524,72.70602
"3135",55.35579,71.89563,73.54782
"3136",55.369125,73.673,75.07193
"3137",55.382446,75.94354,77.14476
"3138",55.395782,78.39475,79.46921
"3139",55.40912,80.635994,81.660286
"3140",55.42244,82.33036,83.37453
"3141",55.435776,83.29717,84.41416
"3142",55.449112,83.543755,84.76378
"3143",55.46245,83.19951,84.53027
"3144",55.475784,82.44999,83.88074
"3145",55.489105,81.49294,83.00025
"3146",55.50244,80.49683,82.0508
"3147",55.515778,79.58129,81.15078
"3148",55.5291,78.819565,80.37597
"3149",55.542435,78.238495,79.75801
"3150",55.55577,77.80881,79.27328
"3151",55.569107,77.469444,78.86544
"3152",55.582443,77.17647,78.493385
"3153",55.595764,76.91524,78.14392
"3154",55.6091,76.6833,77.81558
"3155",55.622437,76.50996,77.5386
"3156",55.635757,76.439156,77.358734
"3157",55.649094,76.48066,77.28896
"3158",55.66243,76.61494,77.31326
"3159",55.675766,76.79805,77.390594
"3160",55.689102,76.981155,77.47364
"3161",55.702423,77.11543,77.51358
"3162",55.71576,77.1667,77.47471
"3163",55.729095,77.11055,77.33002
"3164",55.742416,76.95674,77.085915
"3165",55.755753,76.72968,76.763756
"3166",55.76909,76.45869,76.390564
"3167",55.782425,76.16083,75.98204
"3168",55.79576,75.85565,75.55689
"3169",55.809082,75.560234,75.131966
"3170",55.82242,75.28924,74.72223
"3171",55.835754,75.04509,74.33087
"3172",55.849075,74.844894,73.97584
"3173",55.86241,74.69108,73.66093
"3174",55.875748,74.581215,73.38516
"3175",55.889084,74.50309,73.1377
"3176",55.90242,74.44694,72.909775
"3177",55.91574,74.41276,72.702065
"3178",55.929077,74.40543,72.52014
"3179",55.942413,74.42008,72.35996
"3180",55.955734,74.44938,72.21489
"3181",55.96907,74.49821,72.09026
"3182",55.982407,74.57877,71.9989
"3183",55.995743,74.759445,72.01016
"3184",56.00908,75.174484,72.26144
"3185",56.0224,75.98016,72.91632
"3186",56.035736,77.25216,74.0627
"3187",56.049072,78.922104,75.646774
"3188",56.062393,80.78981,77.4808
"3189",56.07573,82.55741,79.27308
"3190",56.089066,83.931946,80.72753
"3191",56.1024,84.72297,81.641426
"3192",56.115738,84.9012,81.96725
"3193",56.12906,84.57404,81.79325
"3194",56.142395,83.90509,81.267235
"3195",56.15573,83.06767,80.55185
"3196",56.169052,82.20828,79.78832
"3197",56.18239,81.43435,79.0834
"3198",56.195724,80.80446,78.49833
"3199",56.20906,80.33082,78.04983
"3200",56.222397,79.99634,77.725685
"3201",56.235718,79.76196,77.491196
"3202",56.249054,79.586174,77.30797
"3203",56.26239,79.43725,77.14611
"3204",56.27571,79.31274,77.00401
"3205",56.289047,79.22484,76.89464
"3206",56.302383,79.200424,76.846
"3207",56.31572,79.256584,76.877174
"3208",56.329056,79.39086,76.98822
"3209",56.342377,79.57397,77.15229
"3210",56.355713,79.76196,77.32697
"3211",56.36905,79.90845,77.46602
"3212",56.38237,79.974365,77.529076
"3213",56.395706,79.94507,77.49898
"3214",56.409042,79.82056,77.37275
"3215",56.42238,79.62768,77.17426
"3216",56.435715,79.38354,76.91849
"3217",56.449036,79.12474,76.64043
"3218",56.46237,78.86595,76.35429
"3219",56.475708,78.61936,76.07226
"3220",56.48903,78.38743,75.79718
"3221",56.502365,78.17502,75.53438
"3222",56.5157,77.99191,75.29424
"3223",56.529037,77.838104,75.07768
"3224",56.542374,77.713585,74.885605
"3225",56.555695,77.61593,74.7165
"3226",56.56903,77.54757,74.57364
"3227",56.582367,77.50118,74.450615
"3228",56.595688,77.47433,74.34567
"3229",56.609024,77.469444,74.26186
"3230",56.62236,77.486534,74.199875
"3231",56.635696,77.51583,74.15063
"3232",56.649033,77.55001,74.10718
"3233",56.662354,77.57931,74.05991
"3234",56.67569,77.60372,74.00868
"3235",56.689026,77.63302,73.9631
"3236",56.702347,77.72823,73.984344
"3237",56.715683,78.013885,74.199005
"3238",56.72902,78.62913,74.75218
"3239",56.742355,79.63012,75.710335
"3240",56.75569,80.95827,77.026924
"3241",56.769012,82.423134,78.521736
"3242",56.78235,83.76105,79.93537
"3243",56.795685,84.72053,81.01238
"3244",56.809006,85.16243,81.6018
"3245",56.822342,85.09163,81.69232
"3246",56.83568,84.613106,81.37291
"3247",56.849014,83.86359,80.76755
"3248",56.86235,82.97246,79.997154
"3249",56.87567,82.0618,79.17938
"3250",56.889008,81.21706,78.39907
"3251",56.902344,80.51148,77.73153
"3252",56.915665,80.00122,77.23725
"3253",56.929,79.693596,76.929665
"3254",56.942337,79.54955,76.77605
"3255",56.955673,79.51293,76.72535
"3256",56.96901,79.54467,76.74187
"3257",56.98233,79.61059,76.79356
"3258",56.995667,79.70336,76.87416
"3259",57.009003,79.83032,76.99185
"3260",57.022324,79.9939,77.15012
"3261",57.03566,80.17456,77.3306
"3262",57.048996,80.35035,77.51184
"3263",57.062332,80.49439,77.66683
"3264",57.07567,80.57252,77.76041
"3265",57.08899,80.56519,77.77097
"3266",57.102325,80.46021,77.683655
"3267",57.11566,80.24536,77.483185
"3268",57.128983,79.94263,77.18812
"3269",57.14232,79.5935,76.8372
"3270",57.155655,79.23949,76.47048
"3271",57.16899,78.9099,76.11713
"3272",57.182327,78.626686,75.79985
"3273",57.19565,78.39231,75.52256
"3274",57.208984,78.19455,75.27456
"3275",57.22232,78.028534,75.052124
"3276",57.23564,77.90158,74.86356
"3277",57.248978,77.823456,74.719864
"3278",57.262314,77.7966,74.62499
"3279",57.27565,77.821014,74.58055
"3280",57.288986,77.89426,74.5857
"3281",57.302307,78.00412,74.62976
"3282",57.315643,78.13107,74.69434
"3283",57.32898,78.26536,74.770226
"3284",57.3423,78.39231,74.84297
"3285",57.355637,78.5095,74.90992
"3286",57.368973,78.65598,75.00983
"3287",57.38231,78.94896,75.2608
"3288",57.395645,79.517815,75.796814
"3289",57.408966,80.41871,76.68264
"3290",57.422302,81.59792,77.87494
"3291",57.43564,82.899216,79.226166
"3292",57.44896,84.07843,80.49598
"3293",57.462296,84.90608,81.45108
"3294",57.47563,85.25277,81.95108
"3295",57.488968,85.12825,81.99071
"3296",57.502304,84.62287,81.645584
"3297",57.515625,83.87335,81.04053
"3298",57.52896,83.01152,80.299736
"3299",57.542297,82.16678,79.5491
"3300",57.55562,81.48562,78.93565
"3301",57.568954,81.129166,78.625626
"3302",57.58229,81.20241,78.73415
"3303",57.595627,81.71755,79.28687
"3304",57.608963,82.61112,80.234116
"3305",57.622284,83.7293,81.43389
"3306",57.63562,84.859695,82.680824
"3307",57.648956,85.83627,83.809265
"3308",57.662277,86.57603,84.7314
"3309",57.675613,87.061874,85.422745
"3310",57.68895,87.29626,85.87781
"3311",57.702286,87.293816,86.10338
"3312",57.715622,87.0692,86.10669
"3313",57.728943,86.60288,85.86128
"3314",57.74228,85.892426,85.35716
"3315",57.755615,84.95979,84.608665
"3316",57.768936,83.878235,83.6821
"3317",57.782272,82.72587,82.650925
"3318",57.79561,81.58083,81.59107
"3319",57.808945,80.51148,80.57112
"3320",57.82228,79.56176,79.63738
"3321",57.8356,78.78294,78.84487
"3322",57.848938,78.25559,78.27949
"3323",57.862274,78.0676,78.03698
"3324",57.875595,78.25315,78.16215
"3325",57.88893,78.71458,78.568985
"3326",57.902267,79.22728,79.04152
"3327",57.915604,79.52758,79.31767
"3328",57.92894,79.44457,79.2199
"3329",57.94226,78.91234,78.67031
"3330",57.955597,77.979706,77.70369
"3331",57.968933,76.771194,76.432045
"3332",57.982254,75.40154,74.961494
"3333",57.99559,73.90738,73.32363
"3334",58.008926,72.35706,71.582924
"3335",58.022263,70.91905,69.90607
"3336",58.0356,69.788666,68.4919
"3337",58.04892,69.065994,67.45012
"3338",58.062256,68.77791,66.82034
"3339",58.075592,68.82918,66.52092
"3340",58.088913,69.00984,66.35249
"3341",58.10225,69.09529,66.0945
"3342",58.115585,68.98787,65.6463
"3343",58.12892,68.71931,65.03361
"3344",58.142258,68.36286,64.32464
"3345",58.15558,68.016174,63.61429
"3346",58.168915,67.7818,63.005417
"3347",58.18225,67.69634,62.53814
"3348",58.19557,67.74761,62.204918
"3349",58.208908,67.913635,61.988052
"3350",58.222244,68.17975,61.876465
"3351",58.23558,68.55085,61.87818
"3352",58.248917,69.014725,61.98427
"3353",58.262238,69.56649,62.19274
"3354",58.275574,70.18173,62.481937
"3355",58.28891,70.855576,62.84896
"3356",58.30223,71.58068,63.288303
"3357",58.315567,72.35462,63.79914
"3358",58.328903,73.15785,64.36345
"3359",58.34224,73.94156,64.93334
"3360",58.355576,74.64469,65.44715
"3361",58.368896,75.21355,65.848656
"3362",58.382233,75.62859,66.11413
"3363",58.39557,75.880066,66.229
"3364",58.40889,75.98749,66.20767
"3365",58.422226,75.97772,66.07252
"3366",58.435562,75.85809,65.827194
"3367",58.4489,75.63592,65.475586
"3368",58.462234,75.31609,65.01939
"3369",58.475555,74.91814,64.47506
"3370",58.48889,74.49821,63.89632
"3371",58.502228,74.14664,63.372818
"3372",58.51555,73.96353,63.006794
"3373",58.528885,74.01724,62.871864
"3374",58.54222,74.319984,62.987644
"3375",58.555557,74.83757,63.32773
"3376",58.568893,75.4699,63.798733
"3377",58.582214,76.112,64.29926
"3378",58.59555,76.68574,64.7515
"3379",58.608887,77.17647,65.138664
"3380",58.622208,77.662315,65.53628
"3381",58.635544,78.30198,66.10289
"3382",58.64888,79.26147,67.009315
"3383",58.662216,80.59937,68.32414
"3384",58.675552,82.22049,69.96399
"3385",58.688873,83.88556,71.69845
"3386",58.70221,85.29183,73.22614
"3387",58.715546,86.170746,74.270424
"3388",58.728867,86.39048,74.68299
"3389",58.742203,85.99252,74.48473
"3390",58.75554,85.120926,73.8004
"3391",58.768875,83.963684,72.803185
"3392",58.78221,82.69169,71.65505
"3393",58.795532,81.45144,70.49892
"3394",58.80887,80.343025,69.43586
"3395",58.822205,79.41772,68.52127
"3396",58.835526,78.67063,67.75599
"3397",58.84886,78.07736,67.12118
"3398",58.862198,77.61593,66.59966
"3399",58.875534,77.26681,66.17604
"3400",58.88887,77.032425,65.85625
"3401",58.90219,76.93233,65.663414
"3402",58.915527,77.00069,65.63591
"3403",58.928864,77.25704,65.79854
"3404",58.942184,77.6672,66.12298
"3405",58.95552,78.18967,66.57255
"3406",58.968857,78.75365,67.079956
"3407",58.982193,79.27856,67.56592
"3408",58.99553,79.68139,67.946205
"3409",59.00885,79.920654,68.175514
"3410",59.022186,79.991455,68.243835
"3411",59.035522,79.91333,68.16544
"3412",59.048843,79.708244,67.95765
"3413",59.06218,79.415276,67.65556
"3414",59.075516,79.08324,67.30525
"3415",59.088852,78.74876,66.94212
"3416",59.10219,78.450905,66.60517
"3417",59.11551,78.22385,66.329704
"3418",59.128845,78.08713,66.13748
"3419",59.14218,78.04318,66.03376
"3420",59.155502,78.10666,66.03609
"3421",59.16884,78.29954,66.1698
"3422",59.182175,78.63157,66.44869
"3423",59.19551,79.12718,66.90154
"3424",59.208847,79.83276,67.57985
"3425",59.222168,80.82643,68.56829
"3426",59.235504,82.18143,69.94911
"3427",59.24884,83.90997,71.74583
"3428",59.26216,85.93881,73.89685
"3429",59.275497,88.077515,76.22114
"3430",59.288834,90.05264,78.448685
"3431",59.30217,91.60784,80.31803
"3432",59.315506,92.57221,81.64515
"3433",59.328827,92.928665,82.394485
"3434",59.342163,92.7773,82.64714
"3435",59.3555,92.26704,82.53617
"3436",59.36882,91.5346,82.18708
"3437",59.382156,90.68009,81.69303
"3438",59.395493,89.779205,81.1259
"3439",59.40883,88.88075,80.53305
"3440",59.422165,88.02869,79.95851
"3441",59.435486,87.26452,79.44524
"3442",59.448822,86.60532,79.01306
"3443",59.46216,86.04379,78.65794
"3444",59.47548,85.56527,78.368286
"3445",59.488815,85.172195,78.149124
"3446",59.50215,84.86458,78.003136
"3447",59.515488,84.65949,77.950066
"3448",59.528824,84.56672,78.0029
"3449",59.542145,84.58625,78.16514
"3450",59.55548,84.698555,78.42076
"3451",59.568817,84.86214,78.73117
"3452",59.582138,85.02571,79.046684
"3453",59.595474,85.14778,79.325806
"3454",59.60881,85.1844,79.52329
"3455",59.622147,85.120926,79.621826
"3456",59.635483,84.947586,79.60851
"3457",59.648804,84.69123,79.50677
"3458",59.66214,84.38361,79.34575
"3459",59.675476,84.06134,79.16046
"3460",59.688797,83.74883,78.97487
"3461",59.702133,83.46807,78.81126
"3462",59.71547,83.22392,78.67548
"3463",59.728806,83.01396,78.56627
"3464",59.74214,82.8333,78.47979
"3465",59.755463,82.669716,78.40475
"3466",59.7688,82.52567,78.34413
"3467",59.782135,82.391396,78.28878
"3468",59.795456,82.27909,78.251205
"3469",59.808792,82.2327,78.27603
"3470",59.82213,82.36454,78.477646
"3471",59.835464,82.82353,79.01053
"3472",59.8488,83.70489,79.98012
"3473",59.86212,84.96712,81.35812
"3474",59.875458,86.43687,82.98309
"3475",59.888794,87.84558,84.59296
"3476",59.902115,88.90028,85.89284
"3477",59.91545,89.410545,86.68123
"3478",59.928787,89.34707,86.911835
"3479",59.942123,88.80263,86.65949
"3480",59.95546,87.93347,86.065414
"3481",59.96878,86.908066,85.28793
"3482",59.982117,85.85336,84.449104
"3483",59.995453,84.88167,83.660324
"3484",60.008774,84.054016,82.98522
"3485",60.02211,83.404594,82.46249
"3486",60.035446,82.916306,82.08059
"3487",60.048782,82.547646,81.80306
"3488",60.06212,82.266884,81.60191
"3489",60.07544,82.04471,81.45058
"3490",60.088776,81.87869,81.34846
"3491",60.10211,81.795685,81.32416
"3492",60.115433,81.815216,81.3998
"3493",60.12877,81.934845,81.57616
"3494",60.142105,82.1326,81.83437
"3495",60.15544,82.36454,82.13296
"3496",60.168777,82.56962,82.41193
"3497",60.1821,82.69901,82.62162
"3498",60.195435,82.720985,82.727936
"3499",60.20877,82.62333,82.71531
"3500",60.22209,82.406044,82.58
"3501",60.235428,82.09598,82.34512
"3502",60.248764,81.722435,82.03708
"3503",60.2621,81.31472,81.68319
"3504",60.275436,80.89235,81.3019
"3505",60.288757,80.47242,80.90986
"3506",60.302094,80.06714,80.51934
"3507",60.31543,79.69848,80.15278
"3508",60.32875,79.378654,79.82353
"3509",60.342087,79.11742,79.54288
"3510",60.355423,78.9099,79.30778
"3511",60.36876,78.74876,79.11257
"3512",60.382095,78.626686,78.9514
"3513",60.395416,78.555885,78.837685
"3514",60.408752,78.57053,78.807205
"3515",60.42209,78.77318,78.96518
"3516",60.43541,79.281,79.43466
"3517",60.448746,80.16235,80.29355
"3518",60.462082,81.36355,81.49982
"3519",60.475418,82.7161,82.89498
"3520",60.488754,83.97589,84.23965
"3521",60.502075,84.89876,85.28676
"3522",60.51541,85.31869,85.85977
"3523",60.528748,85.223465,85.930756
"3524",60.54207,84.72053,85.59105
"3525",60.555405,83.96124,84.97928
"3526",60.56874,83.09697,84.23879
"3527",60.582077,82.23758,83.47618
"3528",60.595413,81.449,82.75752
"3529",60.608734,80.77028,82.124084
"3530",60.62207,80.19653,81.57441
"3531",60.635406,79.70336,81.08738
"3532",60.648727,79.27123,80.64598
"3533",60.662064,78.8806,80.232574
"3534",60.6754,78.536354,79.85335
"3535",60.688736,78.24582,79.517075
"3536",60.702072,78.05539,79.27183
"3537",60.715393,78.009,79.16467
"3538",60.72873,78.13107,79.224525
"3539",60.742065,78.41184,79.44689
"3540",60.755386,78.80736,79.79278
"3541",60.768723,79.24193,80.19008
"3542",60.78206,79.62768,80.55214
"3543",60.795395,79.91089,80.823715
"3544",60.80873,80.07202,80.98206
"3545",60.822052,80.130615,81.04291
"3546",60.83539,80.11597,81.03234
"3547",60.848724,80.045166,80.965164
"3548",60.862045,79.94751,80.86892
"3549",60.87538,79.82544,80.74521
"3550",60.888718,79.68627,80.600586
"3551",60.902054,79.53246,80.43697
"3552",60.91539,79.38354,80.27344
"3553",60.92871,79.24437,80.115005
"3554",60.942047,79.12474,79.97176
"3555",60.955383,79.0222,79.84187
"3556",60.968704,78.94408,79.73319
"3557",60.98204,78.8806,79.63672
"3558",60.995377,78.839096,79.560234
"3559",61.008713,78.83177,79.51663
"3560",61.02205,78.922104,79.57046
"3561",61.03537,79.23216,79.84683
"3562",61.048706,79.87427,80.46494
"3563",61.062042,80.885025,81.47177
"3564",61.075363,82.18631,82.80071
"3565",61.0887,83.595024,84.27775
"3566",61.102036,84.85481,85.64988
"3567",61.11537,85.73373,86.680504
"3568",61.128708,86.10239,87.22834
"3569",61.14203,85.97055,87.2872
"3570",61.155365,85.44076,86.943985
"3571",61.1687,84.66682,86.340065
"3572",61.182022,83.792786,85.61187
"3573",61.19536,82.9456,84.88321
"3574",61.208694,82.20584,84.2355
"3575",61.22203,81.61013,83.70872
"3576",61.235367,81.17311,83.322014
"3577",61.248688,80.85573,83.04129
"3578",61.262024,80.60914,82.82144
"3579",61.27536,80.4065,82.63784
"3580",61.28868,80.24292,82.48696
"3581",61.302017,80.128174,82.37981
"3582",61.315353,80.08667,82.34231
"3583",61.32869,80.14282,82.40117
"3584",61.342026,80.28199,82.5448
"3585",61.355347,80.465096,82.73672
"3586",61.368683,80.63111,82.91727
"3587",61.38202,80.719,83.02488
"3588",61.39534,80.67506,83.0034
"3589",61.408676,80.482185,82.83163
"3590",61.422012,80.15015,82.514656
"3591",61.43535,79.710686,82.07989
"3592",61.448685,79.21263,81.57279
"3593",61.462006,78.70481,81.04037
"3594",61.47534,78.23117,80.52625
"3595",61.488678,77.80881,80.048615
"3596",61.502,77.44015,79.61148
"3597",61.515335,77.11299,79.20433
"3598",61.52867,76.822464,78.823586
"3599",61.542007,76.54902,78.45084
"3600",61.555344,76.28535,78.07933
"3601",61.568665,76.036316,77.71422
"3602",61.582,75.80682,77.36086
"3603",61.595337,75.60906,77.03207
"3604",61.608658,75.44305,76.728836
"3605",61.621994,75.32586,76.469246
"3606",61.63533,75.32586,76.32318
"3607",61.648666,75.596855,76.44811
"3608",61.662003,76.29511,77.00877
"3609",61.675323,77.488976,78.08686
"3610",61.68866,79.11253,79.63195
"3611",61.701996,80.9485,81.440186
"3612",61.715317,82.67948,83.200806
"3613",61.728653,84.017395,84.62245
"3614",61.74199,84.79378,85.524376
"3615",61.755325,85.0013,85.8817
"3616",61.76866,84.76204,85.79873
"3617",61.781982,84.242004,85.427505
"3618",61.79532,83.60479,84.92285
"3619",61.808655,82.97246,84.40317
"3620",61.821976,82.42802,83.951614
"3621",61.83531,82.01053,83.61
"3622",61.848648,81.71999,83.38229
"3623",61.861984,81.52468,83.24073
"3624",61.87532,81.38308,83.146774
"3625",61.88864,81.26833,83.07525
"3626",61.901978,81.17555,83.0221
"3627",61.915314,81.11696,83.000244
"3628",61.928635,81.11696,83.03515
"3629",61.94197,81.19508,83.14818
"3630",61.955307,81.3489,83.33934
"3631",61.968643,81.54421,83.576805
"3632",61.98198,81.739525,83.82037
"3633",61.9953,81.87869,84.0139
"3634",62.008636,81.9324,84.12632
"3635",62.021973,81.88602,84.14032
"3636",62.035294,81.739525,84.052765
"3637",62.04863,81.52224,83.88984
"3638",62.061966,81.25613,83.671295
"3639",62.075302,80.970474,83.4249
"3640",62.08864,80.67994,83.16469
"3641",62.10196,80.39918,82.905174
"3642",62.115295,80.13794,82.65641
"3643",62.12863,79.90845,82.43123
"3644",62.141953,79.710686,82.230606
"3645",62.15529,79.551994,82.062874
"3646",62.168625,79.432365,81.929245
"3647",62.18196,79.33471,81.81385
"3648",62.195297,79.24681,81.70516
"3649",62.20862,79.15892,81.593735
"3650",62.221954,79.07103,81.47956
"3651",62.23529,78.99046,81.369965
"3652",62.24861,78.93919,81.28715
"3653",62.261948,78.98558,81.300385
"3654",62.275284,79.24437,81.52747
"3655",62.28862,79.82788,82.08737
"3656",62.301956,80.79469,83.048805
"3657",62.315277,82.08377,84.36272
"3658",62.328613,83.53887,85.882935
"3659",62.34195,84.90852,87.363174
"3660",62.35527,85.95834,88.56638
"3661",62.368607,86.52964,89.323875
"3662",62.381943,86.61021,89.60849
"3663",62.39528,86.28062,89.485466
"3664",62.408615,85.68246,89.08357
"3665",62.421936,84.95735,88.53604
"3666",62.44861,83.57061,87.43632
"3667",62.46193,83.038376,87.01566
"3668",62.475266,82.633095,86.70533
"3669",62.4886,82.3328,86.48732
"3670",62.501938,82.09842,86.325836
"3671",62.515274,81.89578,86.188774
"3672",62.528595,81.71511,86.067345
"3673",62.54193,81.56863,85.97446
"3674",62.555267,81.48806,85.94291
"3675",62.56859,81.50027,86.00162
"3676",62.581924,81.60769,86.15592
"3677",62.59526,81.77371,86.372185
"3678",62.608597,81.94461,86.59851
"3679",62.621933,82.05936,86.774025
"3680",62.635254,82.08377,86.86279
"3681",62.64859,82.01053,86.85467
"3682",62.661926,81.83963,86.7466
"3683",62.675247,81.59304,86.557495
"3684",62.688583,81.29275,86.306984
"3685",62.70192,80.95094,86.00558
"3686",62.715256,80.59205,85.6764
"3687",62.728592,80.23804,85.34089
"3688",62.741913,79.903564,85.013855
"3689",62.75525,79.59838,84.70566
"3690",62.768585,79.33227,84.426994
"3691",62.781906,79.09544,84.169304
"3692",62.795242,78.87816,83.92375
"3693",62.80858,78.675514,83.68605
"3694",62.821915,78.48997,83.459114
"3695",62.83525,78.32395,83.24591
"3696",62.84857,78.1799,83.049484
"3697",62.861908,78.05051,82.86321
"3698",62.875244,77.9382,82.68999
"3699",62.888565,77.84787,82.535225
"3700",62.9019,77.79904,82.41914
"3701",62.915237,77.874725,82.42605
"3702",62.928574,78.19943,82.68434
"3703",62.94191,78.87816,83.3068
"3704",62.95523,79.94507,84.33865
"3705",62.968567,81.32693,85.718796
"3706",62.981903,82.8333,87.26663
"3707",62.995224,84.21515,88.73702
"3708",63.00856,85.23567,89.88927
"3709",63.021896,85.770355,90.58756
"3710",63.035233,85.81918,90.81671
"3711",63.04857,85.45785,90.63722
"3712",63.06189,84.82063,90.17056
"3713",63.075226,84.04913,89.549706
"3714",63.088562,83.25323,88.88033
"3715",63.101883,82.513466,88.24223
"3716",63.11522,81.89578,87.703094
"3717",63.128555,81.41726,87.28381
"3718",63.14189,81.06081,86.97165
"3719",63.155228,80.782486,86.72648
"3720",63.16855,80.55543,86.52387
"3721",63.181885,80.365,86.3508
"3722",63.19522,80.22095,86.218155
"3723",63.20854,80.15503,86.15914
"3724",63.221878,80.19165,86.20061
"3725",63.235214,80.32838,86.34332
"3726",63.24855,80.52613,86.55134
"3727",63.261887,80.726326,86.767975
"3728",63.275208,80.87038,86.93472
"3729",63.288544,80.921646,87.01319
"3730",63.30188,80.85817,86.978516
"3731",63.3152,80.689705,86.83687
"3732",63.328537,80.4358,86.604515
"3733",63.341873,80.12329,86.305626
"3734",63.35521,79.77417,85.96036
"3735",63.368546,79.41772,85.59685
"3736",63.381866,79.07347,85.234406
"3737",63.395203,78.76097,84.89295
"3738",63.40854,78.485085,84.57835
"3739",63.42186,78.24826,84.29418
"3740",63.435196,78.05051,84.04169
"3741",63.448532,77.87961,83.80987
"3742",63.46187,77.72823,83.59223
"3743",63.475204,77.5964,83.389404
"3744",63.488525,77.486534,83.20443
"3745",63.50186,77.3962,83.03555
"3746",63.515198,77.31808,82.87606
"3747",63.52852,77.24483,82.719
"3748",63.541855,77.17403,82.5621
"3749",63.55519,77.10567,82.40543
"3750",63.568527,77.04707,82.25639
"3751",63.581863,77.049515,82.16656
"3752",63.595184,77.21309,82.23793
"3753",63.60852,77.6672,82.60495
"3754",63.621857,78.5095,83.37435
"3755",63.635178,79.744865,84.56314
"3756",63.648514,81.25857,86.06887
"3757",63.66185,82.8333,87.68293
"3758",63.675186,84.2005,89.13867
"3759",63.688522,85.14046,90.20989
"3760",63.701843,85.55306,90.783134
"3761",63.71518,85.46273,90.86633
"3762",63.728516,84.981766,90.556076
"3763",63.741837,84.2591,89.98909
"3764",63.755173,83.43145,89.29453
"3765",63.76851,82.62089,88.5912
"3766",63.781845,81.91531,87.96753
"3767",63.79518,81.3489,87.46097
"3768",63.808502,80.92409,87.07831
"3769",63.82184,80.60914,86.79224
"3770",63.835175,80.36988,86.572014
"3771",63.848495,80.16968,86.38337
"3772",63.86183,80.008545,86.22754
"3773",63.875168,79.903564,86.122826
"3774",63.888504,79.87427,86.090515
"3775",63.90184,79.92554,86.137856
"3776",63.91516,80.045166,86.25516
"3777",63.928497,80.19165,86.40305
"3778",63.941833,80.31861,86.536
"3779",63.955154,80.37476,86.60211
"3780",63.96849,80.33814,86.5772
"3781",63.981827,80.201416,86.45104
"3782",63.995163,79.971924,86.227844
"3783",64.0085,79.66918,85.924225
"3784",64.02182,79.33471,85.579414
"3785",64.03516,78.98558,85.209496
"3786",64.04849,78.63889,84.83111
"3787",64.06181,78.2971,84.44678
"3788",64.07515,77.96506,84.06152
"3789",64.088486,77.65743,83.69031
"3790",64.10182,77.39376,83.35343
"3791",64.11516,77.188675,83.0669
"3792",64.12848,77.02998,82.82036
"3793",64.141815,76.90303,82.60059
"3794",64.15515,76.79561,82.39639
"3795",64.16847,76.70771,82.20836
"3796",64.18181,76.63691,82.034676
"3797",64.195145,76.59052,81.883194
"3798",64.20848,76.5832,81.769325
"3799",64.22182,76.64912,81.72847
"3800",64.23514,76.85176,81.8264
"3801",64.248474,77.30587,82.18213
"3802",64.26181,78.118866,82.910934
"3803",64.27513,79.3225,84.055786
"3804",64.28847,80.833755,85.54587
"3805",64.3018,82.46464,87.202805
"3806",64.31514,83.949036,88.76422
"3807",64.328476,85.06477,90.003365
"3808",64.3418,85.677574,90.77444
"3809",64.35513,85.77768,91.05196
"3810",64.36847,85.44076,90.89559
"3811",64.38179,84.8011,90.42596
"3812",64.39513,83.99298,89.76787
"3813",64.40846,83.1458,89.04546
"3814",64.4218,82.34745,88.34542
"3815",64.435135,81.64919,87.72052
"3816",64.448456,81.06569,87.18855
"3817",64.46179,80.58228,86.73845
"3818",64.47513,80.16968,86.34404
"3819",64.48845,79.815674,85.99534
"3820",64.501785,79.52514,85.69904
"3821",64.51512,79.31518,85.47424
"3822",64.52846,79.20775,85.34541
"3823",64.541794,79.20775,85.320656
"3824",64.555115,79.290764,85.378914
"3825",64.56845,79.398186,85.46417
"3826",64.58179,79.4519,85.49908
"3827",64.59511,79.38598,85.41603
"3828",64.608444,79.15404,85.1649
"3829",64.62178,78.74387,84.7283
"3830",64.63512,78.16281,84.10799
"3831",64.64845,77.44503,83.332794
"3832",64.66177,76.61738,82.4253
"3833",64.67511,75.70428,81.406494
"3834",64.688446,74.73991,80.307884
"3835",64.70177,73.76578,79.16938
"3836",64.7151,72.833145,78.04193
"3837",64.72844,71.99573,76.98055
"3838",64.741776,71.30724,76.04193
"3839",64.75511,70.801865,75.26491
"3840",64.76843,70.47471,74.650314
"3841",64.78177,70.30381,74.18175
"3842",64.795105,70.27451,73.84944
"3843",64.808426,70.37461,73.645615
"3844",64.82176,70.57969,73.5499
"3845",64.8351,70.872665,73.548485
"3846",64.848434,71.24376,73.63435
"3847",64.86177,71.68566,73.80263
"3848",64.87509,72.24231,74.09946
"3849",64.88843,73.02113,74.63585
"3850",64.901764,74.158844,75.55547
"3851",64.915085,75.72625,76.940346
"3852",64.92842,77.67452,78.755066
"3853",64.94176,79.83032,80.838196
"3854",64.95509,81.934845,82.937416
"3855",64.96843,83.73174,84.79478
"3856",64.98175,85.03792,86.21757
"3857",64.99509,85.79965,87.136734
"3858",65.00842,86.06088,87.5792
"3859",65.02174,85.92905,87.636765
"3860",65.03508,85.53597,87.42897
"3861",65.048416,85.01106,87.07706
"3862",65.06175,84.46418,86.68677
"3863",65.07509,83.97101,86.3331
"3864",65.08841,83.57305,86.059235
"3865",65.101746,83.26299,85.86083
"3866",65.11508,83.02373,85.72353
"3867",65.1284,82.83086,85.62515
"3868",65.14174,82.68925,85.57201
"3869",65.155075,82.61112,85.57792
"3870",65.16841,82.62821,85.676605
"3871",65.18175,82.760056,85.89058
"3872",65.19507,83.00908,86.22585
"3873",65.208405,83.32891,86.63972
"3874",65.22174,83.65606,87.07089
"3875",65.23506,83.92462,87.453705
"3876",65.2484,84.09552,87.747246
"3877",65.261734,84.13458,87.91429
"3878",65.27507,84.03693,87.94584
"3879",65.28841,83.81232,87.84738
"3880",65.30173,83.47295,87.62715
"3881",65.31506,83.04326,87.305984
"3882",65.3284,82.56718,86.925
"3883",65.34172,82.08621,86.52426
"3884",65.35506,81.62966,86.132904
"3885",65.36839,81.22438,85.77855
"3886",65.38173,80.87282,85.46525
"3887",65.395065,80.56519,85.1849
"3888",65.40839,80.274666,84.91203
"3889",65.42172,79.974365,84.620316
"3890",65.43506,79.6643,84.30945
"3891",65.44838,79.3518,83.98646
"3892",65.461716,79.05638,83.670784
"3893",65.47505,78.802475,83.38739
"3894",65.48839,78.626686,83.17418
"3895",65.501724,78.59251,83.097084
"3896",65.515045,78.80736,83.26795
"3897",65.52838,79.378654,83.80198
"3898",65.54172,80.36744,84.77135
"3899",65.55504,81.75662,86.17201
"3900",65.568375,83.3753,87.84558
"3901",65.58171,84.962234,89.537994
"3902",65.59505,86.22934,90.96017
"3903",65.60838,86.96178,91.88727
"3904",65.621704,87.07164,92.21468
"3905",65.63504,86.607765,91.971794
"3906",65.64838,85.711754,91.28227
"3907",65.6617,84.55451,90.30352
"3908",65.67503,83.28741,89.17874
"3909",65.68837,82.037384,88.03145
"3910",65.701706,80.8777,86.93543
"3911",65.71504,79.84009,85.92525
"3912",65.72836,78.924545,85.00471
"3913",65.7417,78.133514,84.18007
"3914",65.755035,77.469444,83.45767
"3915",65.76836,76.95186,82.86101
"3916",65.78169,76.61738,82.431274
"3917",65.79503,76.49775,82.20594
"3918",65.808365,76.61738,82.216125
"3919",65.8217,76.964066,82.45711
"3920",65.83502,77.486534,82.884705
"3921",65.84836,78.08469,83.40431
"3922",65.861694,78.65598,83.91576
"3923",65.875015,79.10765,84.325424
"3924",65.88835,79.37621,84.5661
"3925",65.90169,79.43969,84.610085
"3926",65.91502,79.32983,84.48271
"3927",65.92836,79.10277,84.23471
"3928",65.94168,78.81712,83.92103
"3929",65.95502,78.51682,83.58376
"3930",65.96835,78.23361,83.2542
"3931",65.981674,77.98215,82.94754
"3932",65.99501,77.77219,82.67452
"3933",66.00835,77.60372,82.43644
"3934",66.02168,77.47433,82.23216
"3935",66.03502,77.38888,82.06779
"3936",66.04834,77.332726,81.93004
"3937",66.061676,77.30343,81.81739
"3938",66.07501,77.296104,81.7258
"3939",66.08833,77.313194,81.658394
"3940",66.10167,77.39864,81.65988
"3941",66.115005,77.65011,81.830055
"3942",66.12834,78.19943,82.30595
"3943",66.14168,79.13939,83.18964
"3944",66.155,80.47242,84.49577
"3945",66.168335,82.07889,86.117004
"3946",66.18167,83.719536,87.82262
"3947",66.19499,85.103836,89.32315
"3948",66.20833,86.00961,90.38842
"3949",66.221664,86.327,90.89361
"3950",66.235,86.07065,90.83497
"3951",66.24834,85.34066,90.294685
"3952",66.26166,84.281075,89.40199
"3953",66.274994,83.035934,88.290634
"3954",66.28833,81.74929,87.09886
"3955",66.30165,80.54078,85.945015
"3956",66.31499,79.49828,84.91942
"3957",66.32832,78.66331,84.06876
"3958",66.34166,78.0383,83.401985
"3959",66.354996,77.593956,82.89634
"3960",66.36832,77.30587,82.533066
"3961",66.38165,77.1667,82.30971
"3962",66.39499,77.19356,82.248024
"3963",66.40831,77.3962,82.36297
"3964",66.421646,77.7551,82.640495
"3965",66.43498,78.21896,83.03421
"3966",66.44832,78.70481,83.4644
"3967",66.461655,79.12474,83.84386
"3968",66.474976,79.42504,84.116806
"3969",66.48831,79.57641,84.250206
"3970",66.50165,79.57885,84.23941
"3971",66.51497,79.47143,84.11883
"3972",66.528305,79.28832,83.919205
"3973",66.54164,79.06615,83.67479
"3974",66.55498,78.82689,83.40635
"3975",66.56831,78.58274,83.12554
"3976",66.581635,78.345924,82.84444
"3977",66.59497,78.118866,82.56569
"3978",66.60831,77.91623,82.30427
"3979",66.62163,77.75021,82.073135
"3980",66.634964,77.628136,81.88075
"3981",66.6483,77.55245,81.73095
"3982",66.66164,77.51095,81.61296
"3983",66.67497,77.50118,81.52541
"3984",66.68829,77.52804,81.47418
"3985",66.70163,77.65255,81.52145
"3986",66.714966,77.99191,81.78745
"3987",66.72829,78.69749,82.430275
"3988",66.74162,79.88159,83.57368
"3989",66.75496,81.53933,85.227715
"3990",66.768295,83.52178,87.25827
"3991",66.78163,85.540855,89.3874
"3992",66.79495,87.27184,91.291534
"3993",66.80829,88.45106,92.698
"3994",66.821625,88.956436,93.46747
"3995",66.834946,88.82704,93.617966
"3996",66.84828,88.19714,93.263916
"3997",66.86162,87.24498,92.56792
"3998",66.874954,86.14877,91.69811
"3999",66.88829,85.050125,90.79161
"4000",66.90161,84.04425,89.94355
"4001",66.91495,83.16533,89.19101
"4002",66.92828,82.406044,88.53064
"4003",66.941605,81.72976,87.92954
"4004",66.95494,81.109634,87.36347
"4005",66.96828,80.56031,86.84882
"4006",66.98161,80.13306,86.43908
"4007",66.99495,79.87427,86.18445
"4008",67.00827,79.80835,86.1146
"4009",67.02161,79.91333,86.21359
"4010",67.03494,80.12329,86.420845
"4011",67.04826,80.34791,86.649315
"4012",67.0616,80.50904,86.82132
"4013",67.074936,80.550545,86.87873
"4014",67.08827,80.448006,86.793396
"4015",67.10161,80.201416,86.56081
"4016",67.11493,79.83276,86.19845
"4017",67.128265,79.38354,85.743996
"4018",67.1416,78.89525,85.23644
"4019",67.15492,78.40208,84.70875
"4020",67.16826,77.92844,84.18517
"4021",67.181595,77.50118,83.693184
"4022",67.19493,77.12276,83.23667
"4023",67.20827,76.79805,82.82205
"4024",67.22159,76.50996,82.4339
"4025",67.234924,76.19745,82.01233
"4026",67.24826,75.79706,81.49311
"4027",67.26158,75.267265,80.83198
"4028",67.27492,74.62272,80.039536
"4029",67.28825,73.94888,79.19766
"4030",67.30159,73.42397,78.48366
"4031",67.314926,73.27749,78.131676
"4032",67.32825,73.69741,78.34152
"4033",67.34158,74.73502,79.18218
"4034",67.35492,76.27802,80.56065
"4035",67.36824,78.07492,82.24124
"4036",67.38158,79.79126,83.89742
"4037",67.39491,81.12428,85.22392
"4038",67.40825,81.8909,86.02567
"4039",67.421585,82.0618,86.25566
"4040",67.434906,81.72732,85.98561
"4041",67.44824,81.02907,85.34134
"4042",67.46158,80.13794,84.48237
"4043",67.4749,79.20531,83.55405
"4044",67.488235,78.345924,82.66983
"4045",67.50157,77.63302,81.905235
"4046",67.51491,77.08125,81.2795
"4047",67.528244,76.64912,80.75616
"4048",67.541565,76.282906,80.28523
"4049",67.5549,75.93622,79.82239
"4050",67.56824,75.60906,79.36824
"4051",67.58156,75.34539,78.967354
"4052",67.594894,75.20134,78.67785
"4053",67.60823,75.23552,78.56207
"4054",67.62157,75.457695,78.63536
"4055",67.6349,75.83856,78.87428
"4056",67.648224,76.297554,79.20323
"4057",67.66156,76.754105,79.54408
"4058",67.6749,77.14717,79.83572
"4059",67.68822,77.44503,80.044426
"4060",67.70155,77.63302,80.15257
"4061",67.71489,77.71847,80.164055
"4062",67.728226,77.72335,80.09764
"4063",67.74156,77.66476,79.9679
"4064",67.75488,77.557335,79.787506
"4065",67.76822,77.420616,79.574455
"4066",67.781555,77.26925,79.34248
"4067",67.794876,77.11543,79.10333
"4068",67.80821,76.961624,78.85938
"4069",67.82155,76.8127,78.61551
"4070",67.834885,76.67597,78.37918
"4071",67.84822,76.56855,78.167885
"4072",67.86154,76.53681,78.028915
"4073",67.87488,76.66621,78.05009
"4074",67.888214,77.09834,78.378044
"4075",67.901535,77.96506,79.15408
"4076",67.91487,79.33471,80.460144
"4077",67.92821,81.13649,82.241135
"4078",67.94154,83.16777,84.30793
"4079",67.95488,85.13313,86.372284
"4080",67.9682,86.72251,88.12207
"4081",67.98154,87.71862,89.328255
"4082",67.99487,88.05798,89.90883
"4083",68.008194,87.81384,89.916504
"4084",68.02153,87.132675,89.47952
"4085",68.03487,86.187836,88.757576
"4086",68.0482,85.14778,87.91089
"4087",68.06154,84.14679,87.07076
"4088",68.07486,83.25811,86.31167
"4089",68.088196,82.5037,85.65907
"4090",68.10153,81.87137,85.10498
"4091",68.11485,81.33425,84.62634
"4092",68.12819,80.89235,84.226135
"4093",68.141525,80.55787,83.91954
"4094",68.15486,80.36988,83.748985
"4095",68.1682,80.35523,83.745895
"4096",68.18152,80.52125,83.92301
"4097",68.194855,80.81178,84.229836
"4098",68.20819,81.15846,84.60188
"4099",68.22151,81.478294,84.95792
"4100",68.23485,81.7029,85.22872
"4101",68.248184,81.78104,85.36007
"4102",68.26152,81.70779,85.342476
"4103",68.27486,81.50271,85.190765
"4104",68.28818,81.19264,84.92766
"4105",68.30151,80.80446,84.576744
"4106",68.31485,80.38209,84.17951
"4107",68.32817,79.957275,83.76664
"4108",68.34151,79.554436,83.362465
"4109",68.35484,79.19066,82.984764
"4110",68.36818,78.870834,82.63965
"4111",68.381516,78.59983,82.33336
"4112",68.39484,78.365456,82.05523
"4113",68.40817,78.16281,81.801506
"4114",68.42151,78.013885,81.59517
"4115",68.43483,78.00656,81.52578
"4116",68.448166,78.25559,81.71252
"4117",68.4615,78.905014,82.30743
"4118",68.47484,80.05005,83.41824
"4119",68.488174,81.67361,85.043365
"4120",68.501495,83.59991,87.021965
"4121",68.51483,85.53597,89.070526
"4122",68.52817,87.15709,90.86464
"4123",68.54149,88.20935,92.14056
"4124",68.554825,88.58045,92.7682
"4125",68.56816,88.307014,92.76291
"4126",68.5815,87.54772,92.263214
"4127",68.59483,86.49302,91.44438
"4128",68.608154,85.33578,90.49004
"4129",68.62149,84.210266,89.53127
"4130",68.63483,83.19951,88.652084
"4131",68.64815,82.33036,87.88292
"4132",68.66148,81.59792,87.223305
"4133",68.67482,80.96803,86.64335
"4134",68.688156,80.43336,86.13892
"4135",68.70149,79.99878,85.71789
"4136",68.71481,79.676506,85.39558
"4137",68.72815,79.45922,85.16818
"4138",68.741486,79.3225,85.014565
"4139",68.75481,79.21507,84.88596
"4140",68.76814,79.08324,84.7296
"4141",68.78148,78.87572,84.49343
"4142",68.794815,78.56809,84.15067
"4143",68.80815,78.16281,83.700645
"4144",68.82147,77.66964,83.15006
"4145",68.83481,77.11299,82.52059
"4146",68.848145,76.52949,81.84687
"4147",68.861465,75.95575,81.16468
"4148",68.8748,75.43328,80.51583
"4149",68.88814,74.986496,79.92634
"4150",68.901474,74.62516,79.40833
"4151",68.91481,74.34196,78.95717
"4152",68.92813,74.11734,78.55574
"4153",68.94147,73.934235,78.188805
"4154",68.9548,73.78287,77.847885
"4155",68.968124,73.653465,77.5242
"4156",68.98146,73.55825,77.23066
"4157",68.9948,73.55337,77.024475
"4158",69.00813,73.76822,77.03787
"4159",69.02147,74.36393,77.43884
"4160",69.03479,75.45281,78.3516
"4161",69.04813,77.03975,79.79644
"4162",69.06146,78.9807,81.64488
"4163",69.07478,80.99733,83.62966
"4164",69.08812,82.74784,85.41134
"4165",69.101456,83.97345,86.72282
"4166",69.11479,84.54963,87.423164
"4167",69.12813,84.51789,87.5336
"4168",69.14145,84.01007,87.16696
"4169",69.154785,83.2166,86.4988
"4170",69.16812,82.31083,85.69355
"4171",69.18144,81.42947,84.8844
"4172",69.19478,80.65797,84.15757
"4173",69.208115,80.025635,83.5458
"4174",69.22145,79.5227,83.04366
"4175",69.23479,79.1223,82.62835
"4176",69.24811,78.81468,82.293304
"4177",69.261444,78.607155,82.04874
"4178",69.27478,78.53391,81.93197
"4179",69.2881,78.624245,81.97649
"4180",69.30144,78.8806,82.18985
"4181",69.31477,79.26147,82.535736
"4182",69.32811,79.70336,82.95455
"4183",69.341446,80.12329,83.36521
"4184",69.35477,80.44068,83.686455
"4185",69.3681,80.601814,83.86136
"4186",69.38144,80.58961,83.86796
"4187",69.39476,80.413826,83.7106
"4188",69.4081,80.09888,83.408585
"4189",69.42143,79.70092,83.01372
"4190",69.43477,79.26635,82.5698
"4191",69.448105,78.83421,82.11474
"4192",69.461426,78.42893,81.67303
"4193",69.47476,78.0676,81.262596
"4194",69.4881,77.75998,80.89459
"4195",69.50142,77.506065,80.57068
"4196",69.514755,77.30099,80.28767
"4197",69.52809,77.14229,80.044624
"4198",69.54143,77.01778,79.83081
"4199",69.55476,76.91768,79.63752
"4200",69.568085,76.839554,79.46307
"4201",69.58142,76.82002,79.34478
"4202",69.59476,76.93477,79.36015
"4203",69.60808,77.33761,79.667206
"4204",69.621414,78.187225,80.433624
"4205",69.63475,79.571526,81.76128
"4206",69.64809,81.43923,83.61559
"4207",69.66142,83.580376,85.80171
"4208",69.67474,85.677574,88.010796
"4209",69.68808,87.39391,89.90456
"4210",69.701416,88.49012,91.23183
"4211",69.71474,88.89296,91.89998
"4212",69.72807,88.673225,91.958145
"4213",69.74141,87.98718,91.54314
"4214",69.754745,87.02281,90.82837
"4215",69.76808,85.9559,89.98092
"4216",69.7814,84.91829,89.129425
"4217",69.79474,83.99054,88.35537
"4218",69.808075,83.20439,87.693924
"4219",69.821396,82.55253,87.1422
"4220",69.83473,82.01297,86.6824
"4221",69.84807,81.58572,86.318054
"4222",69.861404,81.28298,86.06487
"4223",69.87474,81.13893,85.960915
"4224",69.88806,81.17067,86.028244
"4225",69.9014,81.36843,86.26259
"4226",69.914734,81.68337,86.62029
"4227",69.928055,82.039825,87.02935
"4228",69.94139,82.36454,87.41781
"4229",69.95473,82.58427,87.711426
"4230",69.96806,82.65507,87.86298
"4231",69.9814,82.562294,87.85318
"4232",69.99472,82.31083,87.681786
"4233",70.00806,81.92264,87.36581
"4234",70.02139,81.43923,86.94248
"4235",70.03471,80.89723,86.44546
"4236",70.04805,80.34547,85.92173
"4237",70.061386,79.81323,85.40029
"4238",70.07472,79.327385,84.90861
"4239",70.08806,78.887924,84.44813
"4240",70.10138,78.504616,84.03007
"4241",70.114716,78.16525,83.643974
"4242",70.12805,77.86496,83.28635
"4243",70.14137,77.591515,82.94618
"4244",70.15471,77.332726,82.61213
"4245",70.168045,77.12276,82.31881
"4246",70.18138,77.02998,82.13612
"4247",70.19472,77.196,82.20933
"4248",70.20804,77.77951,82.705215
"4249",70.221375,78.88548,83.7418
"4250",70.23471,80.48463,85.306114
"4251",70.24803,82.406044,87.242676
"4252",70.26137,84.351875,89.263695
"4253",70.274704,86.00961,91.05743
"4254",70.28804,87.14244,92.37805
"4255",70.30138,87.64782,93.10663
"4256",70.3147,87.55993,93.25774
"4257",70.32803,87.01305,92.9471
"4258",70.34137,86.17563,92.328835
"4259",70.35469,85.20882,91.55501
"4260",70.36803,84.23712,90.746086
"4261",70.38136,83.32403,89.9654
"4262",70.3947,82.496376,89.24162
"4263",70.408035,81.73708,88.56034
"4264",70.42136,81.041275,87.918816
"4265",70.43469,80.41627,87.32635
"4266",70.44803,79.89868,86.82177
"4267",70.46135,79.5227,86.44262
"4268",70.474686,79.3225,86.22751
"4269",70.48802,79.30541,86.18925
"4270",70.50136,79.43481,86.296936
"4271",70.514694,79.64233,86.48679
"4272",70.528015,79.852295,86.685585
"4273",70.54135,79.991455,86.82013
"4274",70.55469,80.00122,86.82963
"4275",70.56801,79.84741,86.67586
"4276",70.581345,79.537346,86.36102
"4277",70.59468,79.10277,85.91199
"4278",70.60802,78.59251,85.37369
"4279",70.62135,78.05539,84.79259
"4280",70.634674,77.53292,84.20935
"4281",70.64801,77.049515,83.64885
"4282",70.66135,76.61738,83.12451
"4283",70.67467,76.243835,82.64526
"4284",70.688,75.92157,82.20562
"4285",70.70134,75.648125,81.804726
"4286",70.714676,75.41863,81.43924
"4287",70.72801,75.21843,81.09587
"4288",70.74133,75.054855,80.782875
"4289",70.75467,74.93034,80.50383
"4290",70.768005,74.86931,80.28437
"4291",70.78133,74.93767,80.1924
"4292",70.79466,75.28191,80.37845
"4293",70.808,76.05829,81.007385
"4294",70.821335,77.37423,82.20015
"4295",70.83467,79.22972,83.97359
"4296",70.84799,81.46609,86.18588
"4297",70.86133,83.78058,88.54619
"4298",70.874664,85.8143,90.69805
"4299",70.887985,87.259636,92.32508
"4300",70.90132,87.94812,93.24043
"4301",70.91466,87.86755,93.40825
"4302",70.92799,87.14,92.92656
"4303",70.94133,85.95346,91.96314
"4304",70.95465,84.53498,90.730705
"4305",70.96799,83.08476,89.4222
"4306",70.98132,81.74929,88.18313
"4307",70.994644,80.59937,87.087875
"4308",71.00798,79.63012,86.13735
"4309",71.02132,78.81224,85.307915
"4310",71.03465,78.10422,84.562775
"4311",71.04799,77.50118,83.9005
"4312",71.06131,77.0251,83.34633
"4313",71.074646,76.7248,82.953064
"4314",71.08798,76.627144,82.75306
"4315",71.1013,76.72236,82.742874
"4316",71.11464,76.96651,82.8846
"4317",71.127975,77.2839,83.10719
"4318",71.14131,77.58419,83.32261
"4319",71.15465,77.806366,83.46929
"4320",71.16797,77.90646,83.50084
"4321",71.181305,77.86984,83.398796
"4322",71.19464,77.7087,83.17109
"4323",71.20796,77.44991,82.8407
"4324",71.2213,77.117874,82.42897
"4325",71.234634,76.74189,81.96292
"4326",71.24797,76.351265,81.47048
"4327",71.26131,75.96307,80.96827
"4328",71.27463,75.5993,80.47834
"4329",71.287964,75.27947,80.020996
"4330",71.3013,75.01579,79.6098
"4331",71.31462,74.80583,79.24409
"4332",71.32796,74.64469,78.92063
"4333",71.34129,74.529945,78.638535
"4334",71.35463,74.45182,78.38947
"4335",71.367966,74.39567,78.15994
"4336",71.38129,74.36881,77.957954
"4337",71.39462,74.40055,77.81372
"4338",71.40796,74.57145,77.80964
"4339",71.42128,75.03044,78.09899
"4340",71.434616,75.948425,78.86168
"4341",71.44795,77.43038,80.217026
"4342",71.46129,79.4226,82.128944
"4343",71.474625,81.7029,84.391205
"4344",71.487946,83.92706,86.66858
"4345",71.50128,85.731285,88.59552
"4346",71.51462,86.85924,89.90257
"4347",71.52794,87.2401,90.49778
"4348",71.541275,86.97154,90.455475
"4349",71.55461,86.22934,89.93113
"4350",71.56795,85.22591,89.12236
"4351",71.58128,84.12482,88.18458
"4352",71.594604,83.053024,87.241684
"4353",71.60794,82.08621,86.37028
"4354",71.62128,81.25613,85.605385
"4355",71.6346,80.55543,84.94394
"4356",71.647934,79.9646,84.37047
"4357",71.66127,79.47387,83.87863
"4358",71.67461,79.097885,83.486206
"4359",71.68794,78.856186,83.21632
"4360",71.70126,78.78294,83.10733
"4361",71.7146,78.89281,83.17916
"4362",71.727936,79.151596,83.40335
"4363",71.74126,79.4934,83.71864
"4364",71.75459,79.84009,84.0495
"4365",71.76793,80.113525,84.31794
"4366",71.781265,80.26246,84.47042
"4367",71.7946,80.257576,84.47374
"4368",71.80792,80.10132,84.32553
"4369",71.82126,79.815674,84.04305
"4370",71.834595,79.43481,83.656425
"4371",71.847916,79.00511,83.20907
"4372",71.86125,78.555885,82.72875
"4373",71.87459,78.12131,82.24905
"4374",71.887924,77.72579,81.79482
"4375",71.90126,77.38155,81.37952
"4376",71.91458,77.083694,80.99983
"4377",71.92792,76.82735,80.65235
"4378",71.94125,76.612495,80.338356
"4379",71.954575,76.4416,80.0616
"4380",71.96791,76.30732,79.816124
"4381",71.98125,76.22186,79.61527
"4382",71.99458,76.175476,79.45082
"4383",72.00792,76.16327,79.3191
"4384",72.02124,76.17792,79.21385
"4385",72.03458,76.226746,79.14324
"4386",72.04791,76.33662,79.1352
"4387",72.06123,76.60273,79.286835
"4388",72.07457,77.18135,79.75929
"4389",72.087906,78.22629,80.71615
"4390",72.10124,79.815674,82.25011
"4391",72.11458,81.8909,84.31957
"4392",72.1279,84.21515,86.70291
"4393",72.141235,86.44907,89.06856
"4394",72.15457,88.24841,91.06943
"4395",72.16789,89.37881,92.45758
"4396",72.18123,89.75479,93.126656
"4397",72.194565,89.461815,93.13852
"4398",72.2079,88.65858,92.63097
"4399",72.22124,87.54528,91.78825
"4400",72.23456,86.29282,90.77159
"4401",72.247894,85.050125,89.72554
"4402",72.26123,83.90997,88.7432
"4403",72.27455,82.91875,87.87416
"4404",72.28789,82.07889,87.12551
"4405",72.30122,81.36843,86.48002
"4406",72.31456,80.7776,85.93195
"4407",72.327896,80.31861,85.49726
"4408",72.34122,80.01587,85.204475
"4409",72.35455,79.89868,85.08778
"4410",72.36789,79.971924,85.15786
"4411",72.38121,80.2063,85.39136
"4412",72.39455,80.52857,85.72008
"4413",72.40788,80.85573,86.06375
"4414",72.42122,81.10475,86.339516
"4415",72.434555,81.21706,86.48634
"4416",72.447876,81.163345,86.470665
"4417",72.46121,80.938736,86.28241
"4418",72.47455,80.56275,85.93576
"4419",72.48787,80.06714,85.45773
"4420",72.501205,79.48119,84.873886
"4421",72.51454,78.836655,84.213135
"4422",72.52788,78.17502,83.515144
"4423",72.541214,77.5378,82.8209
"4424",72.554535,76.95186,82.15801
"4425",72.56787,76.44404,81.55494
"4426",72.58121,76.03143,81.03121
"4427",72.59453,75.7116,80.587364
"4428",72.607864,75.47967,80.22142
"4429",72.6212,75.31609,79.91659
"4430",72.63454,75.21355,79.66767
"4431",72.64787,75.16228,79.46683
"4432",72.661194,75.15251,79.305885
"4433",72.67453,75.16472,79.16661
"4434",72.68787,75.191574,79.042366
"4435",72.70119,75.22575,78.926285
"4436",72.71452,75.27215,78.82349
"4437",72.72786,75.369804,78.7734
"4438",72.741196,75.63836,78.89726
"4439",72.75453,76.243835,79.36644
"4440",72.76785,77.35226,80.35748
"4441",72.78119,79.012436,81.93492
"4442",72.794525,81.13405,84.02567
"4443",72.807846,83.46075,86.38781
"4444",72.82118,85.63363,88.66884
"4445",72.83452,87.325554,90.53681
"4446",72.847855,88.326546,91.76672
"4447",72.86119,88.59266,92.293045
"4448",72.87451,88.20935,92.17825
"4449",72.88785,87.34997,91.57541
"4450",72.901184,86.202484,90.65761
"4451",72.914505,84.93538,89.58433
"4452",72.92784,83.69512,88.4983
"4453",72.94118,82.57206,87.49071
"4454",72.95451,81.60769,86.60671
"4455",72.96785,80.80202,85.85128
"4456",72.98117,80.14282,85.21715
"4457",72.99451,79.61791,84.6967
"4458",73.00784,79.234604,84.30145
"4459",73.021164,79.01488,84.05781
"4460",73.0345,78.98802,84.00017
"4461",73.04784,79.168686,84.14921
"4462",73.06117,79.52514,84.47968
"4463",73.07451,79.97925,84.91895
"4464",73.08783,80.430916,85.36997
"4465",73.101166,80.78493,85.73745
"4466",73.1145,80.96315,85.9402
"4467",73.12782,80.92653,85.93368
"4468",73.14116,80.68726,85.723366
"4469",73.154495,80.27955,85.33713
"4470",73.16783,79.75708,84.823395
"4471",73.18117,79.17113,84.22985
"4472",73.19449,78.55833,83.59115
"4473",73.207825,77.943085,82.930855
"4474",73.22116,77.3547,82.27819
"4475",73.23448,76.81514,81.65597
"4476",73.24782,76.3415,81.0828
"4477",73.261154,75.95331,80.580284
"4478",73.27449,75.65789,80.15841
"4479",73.28783,75.45037,79.8152
"4480",73.30115,75.30877,79.531425
"4481",73.31448,75.211105,79.28716
"4482",73.32782,75.142746,79.06915
"4483",73.34114,75.106125,78.880745
"4484",73.35448,75.13542,78.75711
"4485",73.36781,75.318535,78.78821
"4486",73.38115,75.81415,79.13753
"4487",73.394485,76.77852,79.97109
"4488",73.40781,78.28733,81.379234
"4489",73.42114,80.28443,83.322815
"4490",73.43448,82.55741,85.60468
"4491",73.4478,84.78401,87.9112
"4492",73.461136,86.624855,89.90154
"4493",73.47447,87.8407,91.32441
"4494",73.48781,88.33631,92.06505
"4495",73.501144,88.145874,92.13512
"4496",73.514465,87.40856,91.65236
"4497",73.5278,86.30503,90.78035
"4498",73.54114,85.01106,89.68341
"4499",73.55446,83.682915,88.511856
"4500",73.567795,82.4329,87.37693
"4501",73.58113,81.3196,86.33966
"4502",73.59447,80.35767,85.41897
"4503",73.6078,79.54955,84.622025
"4504",73.621124,78.89769,83.956085
"4505",73.63446,78.43137,83.45532
"4506",73.6478,78.18234,83.15727
"4507",73.66112,78.18234,83.10047
"4508",73.67445,78.42161,83.282936
"4509",73.68779,78.853745,83.66575
"4510",73.701126,79.3933,84.16949
"4511",73.71446,79.9353,84.69253
"4512",73.72778,80.38209,85.13729
"4513",73.74112,80.66041,85.42755
"4514",73.754456,80.723885,85.511665
"4515",73.76778,80.57496,85.38536
"4516",73.78111,80.24536,85.07373
"4517",73.79445,79.77905,84.61509
"4518",73.807785,79.24437,84.0735
"4519",73.82112,78.68284,83.48836
"4520",73.83444,78.12863,82.89299
"4521",73.84778,77.60128,82.30716
"4522",73.861115,77.10567,81.73659
"4523",73.874435,76.654,81.19447
"4524",73.88777,76.25849,80.694405
"4525",73.90111,75.931335,80.25033
"4526",73.914444,75.67254,79.86439
"4527",73.92778,75.47723,79.533844
"4528",73.9411,75.3283,79.24358
"4529",73.95444,75.22575,78.99505
"4530",73.96777,75.191574,78.811676
"4531",73.981094,75.32342,78.79326
"4532",73.99443,75.79462,79.11832
"4533",74.00777,76.78584,79.97813
"4534",74.0211,78.399635,81.49148
"4535",74.03444,80.587166,83.629
"4536",74.04776,83.13115,86.19133
"4537",74.0611,85.67025,88.82828
"4538",74.07443,87.816284,91.151505
"4539",74.08775,89.27627,92.85574
"4540",74.10109,89.92325,93.79261
"4541",74.114426,89.78897,93.96844
"4542",74.12776,89.024796,93.51017
"4543",74.1411,87.833374,92.60077
"4544",74.15442,86.434425,91.44661
"4545",74.167755,85.01106,90.22432
"4546",74.18109,83.69756,89.06741
"4547",74.19441,82.55741,88.04281
"4548",74.20775,81.61013,87.175446
"4549",74.221085,80.82399,86.43962
"4550",74.23442,80.17456,85.81594
"4551",74.24776,79.6643,85.311134
"4552",74.26108,79.32494,84.96129
"4553",74.274414,79.1931,84.80835
"4554",74.28775,79.28588,84.875916
"4555",74.30107,79.57885,85.14657
"4556",74.31441,79.99878,85.55334
"4557",74.32774,80.45045,86.00497
"4558",74.34108,80.833755,86.40235
"4559",74.354416,81.07057,86.66522
"4560",74.36774,81.10719,86.7353
"4561",74.38107,80.92409,86.58679
"4562",74.39441,80.52369,86.21527
"4563",74.40773,79.92798,85.635925
"4564",74.42107,79.14427,84.84997
"4565",74.4344,78.19943,83.87839
"4566",74.44774,77.152054,82.77474
"4567",74.461075,76.08026,81.61395
"4568",74.474396,75.08171,80.49291
"4569",74.48773,74.251625,79.50913
"4570",74.50107,73.65835,78.73622
"4571",74.51439,73.304344,78.184044
"4572",74.527725,73.1432,77.81367
"4573",74.54106,73.10658,77.562775
"4574",74.5544,73.13588,77.376656
"4575",74.56773,73.19447,77.22075
"4576",74.581055,73.27505,77.08865
"4577",74.59439,73.42153,77.02499
"4578",74.60773,73.738914,77.136795
"4579",74.62105,74.41032,77.61254
"4580",74.634384,75.62615,78.6537
"4581",74.64772,77.488976,80.379845
"4582",74.66106,79.93286,82.74526
"4583",74.67439,82.7161,85.526405
"4584",74.68771,85.45052,88.3457
"4585",74.70105,87.71862,90.78413
"4586",74.714386,89.2079,92.51462
"4587",74.72771,89.79385,93.38832
"4588",74.74104,89.5375,93.43803
"4589",74.75438,88.619514,92.81809
"4590",74.767715,87.274284,91.74222
"4591",74.78105,85.74593,90.44119
"4592",74.79437,84.23224,89.107056
"4593",74.80771,82.87236,87.87943
"4594",74.821045,81.72976,86.82659
"4595",74.834366,80.81178,85.96267
"4596",74.8477,80.08911,85.265366
"4597",74.86104,79.53002,84.70906
"4598",74.874374,79.12962,84.293976
"4599",74.88771,78.9099,84.04705
"4600",74.90103,78.90257,84.00566
"4601",74.91437,79.10277,84.17156
"4602",74.927704,79.48119,84.52195
"4603",74.941025,79.971924,84.99647
"4604",74.95436,80.4773,85.50097
"4605",74.9677,80.902115,85.9407
"4606",74.98103,81.17067,86.23744
"4607",74.99437,81.22926,86.33262
"4608",75.00769,81.06081,86.202576
"4609",75.02103,80.67994,85.85486
"4610",75.03436,80.130615,85.32678
"4611",75.04768,79.46899,84.669235
"4612",75.06102,78.75853,83.942184
"4613",75.074356,78.048065,83.192924
"4614",75.08769,77.37423,82.45809
"4615",75.10103,76.76143,81.76324
"4616",75.11435,76.23407,81.134674
"4617",75.127686,75.789734,80.572655
"4618",75.14102,75.4284,80.07975
"4619",75.15434,75.13542,79.64391
"4620",75.16768,74.90837,79.26485
"4621",75.181015,74.7277,78.925064
"4622",75.19435,74.58366,78.616264
"4623",75.20769,74.46891,78.33226
"4624",75.22101,74.38346,78.07397
"4625",75.234344,74.36149,77.87648
"4626",75.24768,74.49821,77.837
"4627",75.261,74.97673,78.14359
"4628",75.27434,75.999695,79.00958
"4629",75.287674,77.69894,80.58382
"4630",75.30101,80.05249,82.86546
"4631",75.31435,82.845505,85.66012
"4632",75.32767,85.71664,88.62017
"4633",75.341,88.23132,91.3135
"4634",75.35434,90.04532,93.38472
"4635",75.36766,90.98772,94.64104
"4636",75.381,91.06096,95.05765
"4637",75.39433,90.40421,94.74656
"4638",75.40767,89.23964,93.90712
"4639",75.421005,87.79675,92.752975
"4640",75.434326,86.2855,91.48537
"4641",75.44766,84.86458,90.260864
"4642",75.461,83.617,89.1653
"4643",75.47432,82.56962,88.23095
"4644",75.487656,81.7029,87.444534
"4645",75.50099,80.987564,86.78241
"4646",75.51433,80.41627,86.241974
"4647",75.527664,79.99878,85.837494
"4648",75.540985,79.77417,85.61285
"4649",75.55432,79.76196,85.59358
"4650",75.56766,79.95972,85.7839
"4651",75.58098,80.31129,86.13421
"4652",75.594315,80.723885,86.55653
"4653",75.60765,81.092545,86.947815
"4654",75.62099,81.32693,87.21634
"4655",75.63432,81.36599,87.29687
"4656",75.647644,81.18532,87.15888
"4657",75.66098,80.799576,86.81018
"4658",75.67432,80.25025,86.28584
"4659",75.68764,79.5935,85.63691
"4660",75.70097,78.88548,84.91619
"4661",75.71431,78.17746,84.17334
"4662",75.727646,77.51095,83.449875
"4663",75.74098,76.91524,82.77638
"4664",75.7543,76.39765,82.1624
"4665",75.7943,75.29412,80.68209
"4666",75.80763,75.06462,80.305534
"4667",75.82097,74.898605,79.98529
"4668",75.834305,74.7863,79.71357
"4669",75.84764,74.71061,79.47495
"4670",75.86096,74.666664,79.26572
"4671",75.8743,74.65934,79.09173
"4672",75.887634,74.737465,79.00296
"4673",75.900955,75.018234,79.11928
"4674",75.91429,75.68963,79.634995
"4675",75.92763,76.92256,80.73323
"4676",75.94096,78.79027,82.50477
"4677",75.9543,81.20729,84.88399
"4678",75.96762,83.89288,87.60731
"4679",75.98096,86.44663,90.28271
"4680",75.99429,88.46082,92.49835
"4681",76.007614,89.65957,93.9615
"4682",76.02095,89.94278,94.54658
"4683",76.03429,89.39834,94.31285
"4684",76.04762,88.23132,93.43954
"4685",76.06096,86.6981,92.16354
"4686",76.07428,85.04768,90.72244
"4687",76.087616,83.46807,89.30057
"4688",76.10095,82.08133,88.0222
"4689",76.11427,80.921646,86.92756
"4690",76.12761,79.96704,86.001755
"4691",76.140945,79.183334,85.21702
"4692",76.15428,78.54612,84.55428
"4693",76.16762,78.07736,84.04009
"4694",76.18094,77.81369,83.71634
"4695",76.194275,77.79904,83.63337
"4696",76.20761,78.03586,83.80141
"4697",76.22093,78.4802,84.18437
"4698",76.23427,79.03929,84.69597
"4699",76.247604,79.59106,85.21771
"4700",76.26094,80.025635,85.63951
"4701",76.27428,80.26002,85.874695
"4702",76.2876,80.2478,85.870605
"4703",76.300934,79.98413,85.61468
"4704",76.31427,79.51293,85.14298
"4705",76.32759,78.89769,84.51252
"4706",76.34093,78.2092,83.78958
"4707",76.35426,77.51095,83.03537
"4708",76.3676,76.84688,82.29352
"4709",76.380936,76.243835,81.59194
"4710",76.39426,75.72381,80.95454
"4711",76.40759,75.29656,80.39366
"4712",76.42093,74.9572,79.90732
"4713",76.43425,74.703285,79.49582
"4714",76.447586,74.52262,79.149635
"4715",76.46092,74.40055,78.8564
"4716",76.47426,74.32975,78.61062
"4717",76.487595,74.31754,78.42122
"4718",76.500916,74.40299,78.329094
"4719",76.51425,74.686195,78.43739
"4720",76.52759,75.34539,78.930534
"4721",76.54091,76.5539,79.99359
"4722",76.554245,78.38743,81.71943
"4723",76.56758,80.75807,84.03968
"4724",76.58092,83.40215,86.70745
"4725",76.59425,85.93149,89.3431
"4726",76.607574,87.938354,91.535324
"4727",76.62091,89.144424,92.98947
"4728",76.63425,89.45449,93.5853
"4729",76.64757,88.956436,93.3827
"4730",76.660904,87.850464,92.55661
"4731",76.67424,86.39048,91.34195
"4732",76.68758,84.81087,89.962036
"4733",76.70091,83.29717,88.59868
"4734",76.71423,81.95926,87.3638
"4735",76.72757,80.831314,86.29708
"4736",76.740906,79.90112,85.39287
"4737",76.75423,79.15404,84.64269
"4738",76.76756,78.58762,84.04984
"4739",76.7809,78.24094,83.65902
"4740",76.794235,78.14084,83.50395
"4741",76.80757,78.32151,83.626526
"4742",76.82089,78.76097,84.013535
"4743",76.83423,79.395744,84.60959
"4744",76.847565,80.111084,85.306046
"4745",76.860886,80.782486,85.98092
"4746",76.87422,81.30251,86.5254
"4747",76.88756,81.59304,86.85663
"4748",76.900894,81.617455,86.930824
"4749",76.91423,81.39529,86.7592
"4750",76.92755,80.96559,86.37311
"4751",76.94089,80.39185,85.829544
"4752",76.95422,79.744865,85.1948
"4753",76.967545,79.080795,84.52276
"4754",76.98088,78.43626,83.849495
"4755",76.99422,77.85031,83.21468
"4756",77.00755,77.34249,82.63969
"4757",77.02089,76.92256,82.13671
"4758",77.03421,76.58564,81.70362
"4759",77.04755,76.32197,81.33325
"4760",77.06088,76.10956,81.005905
"4761",77.0742,75.93622,80.71099
"4762",77.08754,75.78729,80.435074
"4763",77.100876,75.665215,80.18135
"4764",77.11421,75.60174,79.982414
"4765",77.12755,75.7116,79.954834
"4766",77.14087,76.17792,80.28714
"4767",77.154205,77.21553,81.205315
"4768",77.16754,78.96117,82.86394
"4769",77.18086,81.375755,85.24606
"4770",77.1942,84.22003,88.13333
"4771",77.207535,87.07652,91.1217
"4772",77.22087,89.478905,93.74522
"4773",77.23421,91.0634,95.62593
"4774",77.24753,91.66155,96.56982
"4775",77.260864,91.317314,96.590004
"4776",77.2742,90.22598,95.85234
"4777",77.28752,88.65858,94.6045
"4778",77.30086,86.8983,93.11481
"4779",77.31419,85.169754,91.60183
"4780",77.32753,83.6292,90.22283
"4781",77.340866,82.337685,89.04472
"4782",77.35419,81.29275,88.07284
"4783",77.36752,80.448006,87.26849
"4784",77.38086,79.764404,86.59889
"4785",77.39418,79.22972,86.05685
"4786",77.40752,78.870834,85.67389
"4787",77.42085,78.7219,85.48967
"4788",77.43419,78.79759,85.52542
"4789",77.447525,79.080795,85.77105
"4790",77.460846,79.50317,86.164696
"4791",77.47418,79.954834,86.60084
"4792",77.48752,80.33082,86.97541
"4793",77.50084,80.54566,87.20059
"4794",77.514175,80.54566,87.21764
"4795",77.52751,80.31617,87.0052
"4796",77.54085,79.88159,86.580505
"4797",77.554184,79.28832,85.983536
"4798",77.56752,78.60227,85.275246
"4799",77.58086,77.88205,84.511345
"4800",77.59419,77.18135,83.74446
"4801",77.60753,76.53681,83.01184
"4802",77.620865,75.97772,82.34453
"4803",77.6342,75.50652,81.747635
"4804",77.64754,75.13298,81.23367
"4805",77.66087,74.84245,80.79105
"4806",77.67421,74.6276,80.41503
"4807",77.687546,74.476234,80.09578
"4808",77.70088,74.371254,79.818184
"4809",77.71422,74.305336,79.57637
"4810",77.727554,74.26627,79.35935
"4811",77.74089,74.27848,79.19238
"4812",77.75423,74.39811,79.13322
"4813",77.76756,74.77409,79.334145
"4814",77.7809,75.6115,80.00825
"4815",77.794235,77.09346,81.353065
"4816",77.80757,79.276115,83.44489
"4817",77.82091,82.02518,86.17133
"4818",77.83424,85.00374,89.21318
"4819",77.84758,87.75281,92.118614
"4820",77.860916,89.8378,94.44588
"4821",77.87425,90.985275,95.90079
"4822",77.88759,91.139084,96.39789
"4823",77.900925,90.43595,96.042854
"4824",77.91426,89.11757,95.0506
"4825",77.9276,87.47692,93.69487
"4826",77.94093,85.76547,92.21707
"4827",77.95427,84.173645,90.80541
"4828",77.967606,82.81377,89.57596
"4829",77.99428,80.84352,87.74724
"4830",78.007614,80.14038,87.07046
"4831",78.02095,79.569084,86.50355
"4832",78.03429,79.12718,86.04818
"4833",78.04762,78.836655,85.73038
"4834",78.06096,78.73899,85.59636
"4835",78.074295,78.84886,85.666824
"4836",78.08763,79.13695,85.91894
"4837",78.10097,79.52514,86.28016
"4838",78.1143,79.91089,86.65107
"4839",78.12764,80.19165,86.92905
"4840",78.140976,80.289314,87.0327
"4841",78.15431,80.16724,86.91966
"4842",78.16765,79.82544,86.58309
"4843",78.180984,79.30297,86.05517
"4844",78.19432,78.658424,85.38884
"4845",78.20766,77.95529,84.64378
"4846",78.22099,77.25216,83.876755
"4847",78.23433,76.592964,83.13169
"4848",78.247665,76.00946,82.44172
"4849",78.261,75.51873,81.82629
"4850",78.27434,75.1281,81.295616
"4851",78.287674,74.83757,80.852844
"4852",78.30101,74.63004,80.48399
"4853",78.31435,74.49821,80.18435
"4854",78.32768,74.42985,79.94406
"4855",78.34102,74.41276,79.75291
"4856",78.354355,74.442055,79.607605
"4857",78.36769,74.50553,79.4974
"4858",78.38103,74.58366,79.403824
"4859",78.39436,74.66422,79.31513
"4860",78.4077,74.73258,79.21675
"4861",78.421036,74.80095,79.120514
"4862",78.43437,74.93034,79.08744
"4863",78.44771,75.26238,79.261055
"4864",78.461044,76.0119,79.862526
"4865",78.47438,77.383995,81.10999
"4866",78.48772,79.46899,83.113235
"4867",78.50105,82.159454,85.78711
"4868",78.51439,85.135574,88.83071
"4869",78.527725,87.938354,91.793976
"4870",78.54106,90.11612,94.21982
"4871",78.5544,91.35638,95.77621
"4872",78.56773,91.580986,96.355705
"4873",78.58107,90.90715,96.04378
"4874",78.594406,89.59121,95.06869
"4875",78.60774,87.93103,93.70824
"4876",78.62108,86.202484,92.22754
"4877",78.634415,84.60334,90.82222
"4878",78.64775,83.25811,89.62084
"4879",78.66109,82.196075,88.66062
"4880",78.67442,81.38064,87.91381
"4881",78.68776,80.743416,87.31973
"4882",78.701096,80.233154,86.8327
"4883",78.71443,79.83276,86.4396
"4884",78.72777,79.56664,86.16825
"4885",78.741104,79.46166,86.04973
"4886",78.75444,79.54955,86.1208
"4887",78.76778,79.80835,86.36552
"4888",78.78111,80.17456,86.72574
"4889",78.79445,80.550545,87.10718
"4890",78.807785,80.8362,87.410034
"4891",78.82112,80.94118,87.541145
"4892",78.83446,80.82399,87.45337
"4893",78.84779,80.4773,87.13243
"4894",78.86113,79.92798,86.59802
"4895",78.874466,79.234604,85.9024
"4896",78.8878,78.467995,85.11187
"4897",78.90114,77.68673,84.28273
"4898",78.914474,76.93965,83.46336
"4899",78.92781,76.26826,82.696335
"4900",78.94115,75.69207,82.00353
"4901",78.95448,75.21599,81.39283
"4902",78.96782,74.84245,80.8698
"4903",78.981155,74.56901,80.43518
"4904",78.99449,74.39567,80.092125
"4905",79.00783,74.30778,79.8291
"4906",79.021164,74.285805,79.62925
"4907",79.0345,74.31022,79.4751
"4908",79.04784,74.35905,79.34612
"4909",79.06117,74.41032,79.221115
"4910",79.07451,74.4567,79.09283
"4911",79.087845,74.493324,78.95622
"4912",79.10118,74.547035,78.83785
"4913",79.11452,74.666664,78.78708
"4914",79.12785,74.97917,78.93292
"4915",79.14119,75.68963,79.48648
"4916",79.154526,76.995804,80.65796
"4917",79.16786,78.975815,82.54409
"4918",79.1812,81.51736,85.05363
"4919",79.194534,84.32502,87.90871
"4920",79.20787,86.959335,90.67818
"4921",79.22121,88.990616,92.92693
"4922",79.23454,90.121,94.33827
"4923",79.24788,90.27726,94.810814
"4924",79.261215,89.579,94.43372
"4925",79.27455,88.2533,93.40737
"4926",79.28789,86.58091,91.99289
"4927",79.30122,84.81819,90.43582
"4928",79.31456,83.17021,88.93841
"4929",79.327896,81.74441,87.61167
"4930",79.34123,80.5774,86.499176
"4931",79.35457,79.64477,85.58459
"4932",79.367905,78.907455,84.836174
"4933",79.38124,78.33372,84.228294
"4934",79.39458,77.92844,83.77094
"4935",79.40791,77.73556,83.51333
"4936",79.42125,77.79172,83.498726
"4937",79.434586,78.1091,83.7471
"4938",79.44792,78.643776,84.22269
"4939",79.46126,79.30297,84.8395
"4940",79.474594,79.95239,85.46714
"4941",79.48793,80.46998,85.98324
"4942",79.50127,80.76051,86.28846
"4943",79.5146,80.77028,86.32199
"4944",79.52794,80.50172,86.0775
"4945",79.541275,79.99634,85.5878
"4946",79.55461,79.3225,84.91385
"4947",79.56795,78.56077,84.13094
"4948",79.58128,77.78195,83.30715
"4949",79.59462,77.04219,82.49808
"4950",79.607956,76.368355,81.73181
"4951",79.62129,75.792175,81.042145
"4952",79.63463,75.30389,80.42236
"4953",79.647964,74.879074,79.8508
"4954",79.6613,74.50065,79.31235
"4955",79.67464,74.16373,78.80357
"4956",79.68797,73.865875,78.32334
"4957",79.70131,73.61196,77.87774
"4958",79.714645,73.43374,77.49989
"4959",79.72798,73.36782,77.22878
"4960",79.74132,73.49233,77.14604
"4961",79.754654,73.93912,77.389465
"4962",79.76799,74.90837,78.16932
"4963",79.78133,76.56611,79.667946
"4964",79.79466,78.958725,81.953255
"4965",79.808,81.93973,84.90172
"4966",79.821335,85.16487,88.18748
"4967",79.83467,88.15808,91.34209
"4968",79.84801,90.45304,93.89198
"4969",79.86134,91.74212,95.50772
"4970",79.87468,91.94232,96.07487
"4971",79.888016,91.17082,95.67657
"4972",79.90135,89.68398,94.53882
"4973",79.91469,87.78699,92.94445
"4974",79.928024,85.76059,91.16139
"4975",79.94136,83.81964,89.40046
"4976",79.9547,82.09598,87.79616
"4977",79.96803,80.63355,86.39923
"4978",79.98137,79.42748,85.21296
"4979",79.994705,78.45335,84.22093
"4980",80.00804,77.7087,83.427956
"4981",80.02138,77.21553,82.86318
"4982",80.03471,77.01289,82.57353
"4983",80.04805,77.12764,82.59493
"4984",80.061386,77.54513,82.92266
"4985",80.07472,78.18967,83.490486
"4986",80.08806,78.94652,84.190765
"4987",80.101395,79.68139,84.892715
"4988",80.11473,80.26734,85.46871
"4989",80.12807,80.62623,85.83595
"4990",80.1414,80.719,85.948296
"4991",80.15474,80.550545,85.80231
"4992",80.168076,80.16235,85.43132
"4993",80.18141,79.61791,84.89195
"4994",80.19475,78.98314,84.24524
"4995",80.208084,78.31663,83.54695
"4996",80.22142,77.6672,82.84492
"4997",80.23476,77.06172,82.16654
"4998",80.24809,76.53193,81.54493
"4999",80.26143,76.07782,80.982445
"5000",80.274765,75.70672,80.48878
"5001",80.2881,75.3991,80.047
"5002",80.30144,75.15007,79.65419
"5003",80.31477,74.95232,79.30488
"5004",80.32811,74.79118,78.98601
"5005",80.341446,74.67643,78.70848
"5006",80.35478,74.64469,78.51038
"5007",80.36812,74.8156,78.51394
"5008",80.381454,75.3991,78.93543
"5009",80.39479,76.62226,80.01482
"5010",80.40813,78.61204,81.89904
"5011",80.42146,81.31472,84.55835
"5012",80.4348,84.44221,87.72692
"5013",80.448135,87.53307,90.956604
"5014",80.46147,90.0795,93.738434
"5015",80.47481,91.70306,95.67698
"5016",80.488144,92.25239,96.59203
"5017",80.50148,91.79584,96.51837
"5018",80.51482,90.55802,95.64918
"5019",80.52815,88.831924,94.25302
"5020",80.54149,86.90318,92.60028
"5021",80.554825,85.01106,90.92388
"5022",80.56816,83.32159,89.391
"5023",80.5815,81.9202,88.09341
"5024",80.59483,80.81178,87.045
"5025",80.60817,79.957275,86.21586
"5026",80.621506,79.29809,85.555336
"5027",80.63484,78.8098,85.04511
"5028",80.64818,78.48997,84.68809
"5029",80.661514,78.348366,84.4993
"5030",80.67485,78.40452,84.50384
"5031",80.68819,78.63889,84.688354
"5032",80.70152,78.99046,84.99739
"5033",80.71486,79.3518,85.32718
"5034",80.728195,79.62524,85.58036
"5035",80.74153,79.73022,85.67363
"5036",80.75487,79.62035,85.555336
"5037",80.7682,79.28832,85.21144
"5038",80.78154,78.768295,84.669174
"5039",80.794876,78.116425,83.97881
"5040",80.80821,77.38888,83.192406
"5041",80.82155,76.629585,82.35152
"5042",80.834885,75.862976,81.47958
"5043",80.84822,75.10857,80.595894
"5044",80.86156,74.38102,79.71549
"5045",80.87489,73.7145,78.87338
"5046",80.88823,73.13832,78.100784
"5047",80.901566,72.68177,77.42981
"5048",80.9149,72.36439,76.88373
"5049",80.92824,72.181274,76.462006
"5050",80.941574,72.11536,76.15175
"5051",80.95491,72.147095,75.93709
"5052",80.96825,72.24963,75.79422
"5053",80.98158,72.42298,75.72537
"5054",80.99492,72.70374,75.76935
"5055",81.008255,73.21889,76.05649
"5056",81.02159,74.19058,76.81628
"5057",81.03493,75.83612,78.28027
"5058",81.04826,78.25803,80.57207
"5059",81.0616,81.35378,83.61338
"5060",81.074936,84.78401,87.085915
"5061",81.08827,88.05554,90.50694
"5062",81.10161,90.667885,93.37102
"5063",81.114944,92.27924,95.31575
"5064",81.12828,92.78218,96.202415
"5065",81.14162,92.281685,96.101364
"5066",81.15495,91.01457,95.218056
"5067",81.16829,89.28359,93.83128
"5068",81.181625,87.37194,92.20975
"5069",81.19496,85.49691,90.565094
"5070",81.2083,83.807434,89.04739
"5071",81.221634,82.36454,87.72348
"5072",81.23497,81.163345,86.596176
"5073",81.24831,80.15991,85.6291
"5074",81.26164,79.32494,84.799126
"5075",81.27498,78.66819,84.12128
"5076",81.288315,78.22385,83.635315
"5077",81.30165,78.04074,83.396706
"5078",81.31499,78.14572,83.44046
"5079",81.32832,78.51682,83.75362
"5080",81.34166,79.07103,84.261475
"5081",81.354996,79.70092,84.862335
"5082",81.36833,80.28687,85.43894
"5083",81.38167,80.723885,85.88492
"5084",81.395004,80.94606,86.129715
"5085",81.40834,80.92409,86.13731
"5086",81.42168,80.67017,85.91227
"5087",81.43501,80.22583,85.48887
"5088",81.44835,79.65209,84.92219
"5089",81.461685,79.00267,84.261894
"5090",81.47502,78.3386,83.56666
"5091",81.48836,77.68917,82.86531
"5092",81.50169,77.08125,82.18518
"5093",81.51503,76.52949,81.542206
"5094",81.528366,76.04608,80.95035
"5095",81.5417,75.631035,80.41174
"5096",81.55504,75.2868,79.93098
"5097",81.568375,75.01091,79.507805
"5098",81.58171,74.80095,79.14194
"5099",81.59505,74.64469,78.82321
"5100",81.60838,74.527504,78.53867
"5101",81.62172,74.43229,78.272446
"5102",81.635056,74.339516,78.005684
"5103",81.64839,74.246735,77.736015
"5104",81.66173,74.175934,77.48543
"5105",81.675064,74.21988,77.347374
"5106",81.6884,74.57877,77.52564
"5107",81.70174,75.511406,78.288864
"5108",81.71507,77.23018,79.86737
"5109",81.72841,79.76196,82.3126
"5110",81.741745,82.91142,85.45462
"5111",81.75508,86.258644,88.89282
"5112",81.76842,89.27383,92.103584
"5113",81.78175,91.48333,94.6029
"5114",81.79509,92.61616,96.09458
"5115",81.808426,92.63325,96.50593
"5116",81.82176,91.69329,95.96076
"5117",81.8351,90.06729,94.70018
"5118",81.848434,88.06531,93.0128
"5119",81.86177,85.960785,91.160324
"5120",81.87511,83.9881,89.37391
"5121",81.88844,82.27909,87.78953
"5122",81.90178,80.88747,86.469124
"5123",81.915115,79.79614,85.40553
"5124",81.92845,78.96361,84.56663
"5125",81.94179,78.345924,83.91656
"5126",81.955124,77.93576,83.454704
"5127",81.96846,77.74288,83.19732
"5128",81.9818,77.74044,83.124344
"5129",81.99513,77.83078,83.14407
"5130",82.00847,77.79904,83.04455
"5131",82.021805,77.50118,82.67791
"5132",82.03514,76.961624,82.060265
"5133",82.04848,76.33906,81.34275
"5134",82.06181,75.755554,80.644844
"5135",82.07515,75.26238,80.019035
"5136",82.088486,74.79118,79.39979
"5137",82.10182,74.17105,78.61688
"5138",82.11516,73.248184,77.51186
"5139",82.128494,72.05188,76.10457
"5140",82.14183,70.82384,74.62814
"5141",82.15517,69.8082,73.325745
"5142",82.1685,69.16365,72.3627
"5143",82.18184,68.89998,71.76039
"5144",82.195175,68.946365,71.4599
"5145",82.20851,69.18318,71.35129
"5146",82.22185,69.5079,71.337975
"5147",82.23518,69.86679,71.36899
"5148",82.24852,70.240326,71.42586
"5149",82.261856,70.640724,71.52126
"5150",82.27519,71.06554,71.653595
"5151",82.28853,71.47814,71.787
"5152",82.301865,71.82483,71.867386
"5153",82.3152,72.08118,71.868256
"5154",82.32854,72.3473,71.88692
"5155",82.34187,72.89174,72.192215
"5156",82.35521,74.05875,73.13709
"5157",82.368546,76.085144,74.97783
"5158",82.38188,78.975815,77.74616
"5159",82.39522,82.45243,81.19077
"5160",82.408554,85.994965,84.809944
"5161",82.42189,89.00282,88.00514
"5162",82.43523,91.0219,90.30556
"5163",82.44856,91.87152,91.49962
"5164",82.4619,91.62737,91.62646
"5165",82.475235,90.52628,90.888725
"5166",82.48857,88.90028,89.591675
"5167",82.50191,87.08385,88.053375
"5168",82.51524,85.32357,86.514465
"5169",82.52858,83.74883,85.10609
"5170",82.541916,82.37919,83.85359
"5171",82.55525,81.18776,82.73651
"5172",82.56859,80.1355,81.72137
"5173",82.581924,79.23216,80.822266
"5174",82.59526,78.538795,80.104904
"5175",82.6086,78.14572,79.66617
"5176",82.62193,78.118866,79.58137
"5177",82.63527,78.470436,79.87415
"5178",82.648605,79.12474,80.48066
"5179",82.66194,79.954834,81.2834
"5180",82.67528,80.78737,82.114525
"5181",82.688614,81.480736,82.8325
"5182",82.70195,81.917755,83.31579
"5183",82.71529,82.04715,83.50511
"5184",82.72862,81.86893,83.39086
"5185",82.74196,81.43679,83.01713
"5186",82.755295,80.81911,82.44434
"5187",82.76863,80.09155,81.742386
"5188",82.78197,79.32006,80.973755
"5189",82.7953,78.553444,80.18589
"5190",82.80864,77.8259,79.41314
"5191",82.821976,77.152054,78.67136
"5192",82.83531,76.558784,77.98909
"5193",82.84865,76.053406,77.376175
"5194",82.861984,75.64568,76.84512
"5195",82.87532,75.34539,76.40876
"5196",82.88866,75.16716,76.085075
"5197",82.90199,75.15495,75.921844
"5198",82.91533,75.43572,76.05121
"5199",82.928665,76.21698,76.689835
"5200",82.942,77.70382,78.05846
"5201",82.95534,79.97681,80.25969
"5202",82.96867,82.90898,83.19114
"5203",82.98201,86.16586,86.538925
"5204",82.995346,89.26894,89.83469
"5205",83.00868,91.737236,92.592636
"5206",83.02202,93.24361,94.4658
"5207",83.035355,93.69039,95.32645
"5208",83.04869,93.16548,95.22936
"5209",83.06203,91.88617,94.36147
"5210",83.07536,90.108795,92.95554
"5211",83.0887,88.097046,91.2597
"5212",83.102036,86.07065,89.48633
"5213",83.11537,84.17853,87.78391
"5214",83.12871,82.50126,86.23722
"5215",83.142044,81.06569,84.879814
"5216",83.15538,79.86694,83.71437
"5217",83.16872,78.90013,82.7434
"5218",83.18205,78.19211,82.00101
"5219",83.19539,77.77463,81.52703
"5220",83.208725,77.68673,81.36959
"5221",83.22206,77.93332,81.54389
"5222",83.2354,78.45335,81.99934
"5223",83.24873,79.14427,82.64193
"5224",83.26207,79.869385,83.3403
"5225",83.275406,80.499275,83.96611
"5226",83.28874,80.92653,84.408966
"5227",83.30208,81.092545,84.603935
"5228",83.315414,80.98512,84.530655
"5229",83.32875,80.635994,84.21231
"5230",83.34209,80.09888,83.69507
"5231",83.35542,79.44213,83.04141
"5232",83.36876,78.73899,82.32084
"5233",83.382095,78.03586,81.5783
"5234",83.39543,77.36935,80.85041
"5235",83.40877,76.76631,80.16517
"5236",83.422104,76.241394,79.5392
"5237",83.43544,75.78485,78.9652
"5238",83.44878,75.39178,78.44041
"5239",83.46211,75.06462,77.969246
"5240",83.47545,74.79851,77.548904
"5241",83.488785,74.62272,77.21057
"5242",83.50212,74.649574,77.06939
"5243",83.51546,75.11589,77.36851
"5244",83.52879,76.27802,78.37801
"5245",83.54213,78.3093,80.292984
"5246",83.555466,81.160904,83.09175
"5247",83.5688,84.54719,86.51431
"5248",83.58214,87.989624,90.09885
"5249",83.595474,90.948654,93.307556
"5250",83.60881,93.00679,95.70784
"5251",83.62215,93.97116,97.078674
"5252",83.63548,93.85886,97.40297
"5253",83.64882,92.84566,96.82286
"5254",83.662155,91.18547,95.5641
"5255",83.67549,89.163956,93.892136
"5256",83.68883,87.0399,92.05446
"5257",83.70216,85.02327,90.25782
"5258",83.7155,83.243454,88.63498
"5259",83.728836,81.74685,87.23973
"5260",83.74217,80.5066,86.05407
"5261",83.75551,79.49096,85.05426
"5262",83.768845,78.6804,84.22779
"5263",83.78218,78.09689,83.60305
"5264",83.79552,77.77707,83.223755
"5265",83.80885,77.747765,83.124985
"5266",83.82219,78.011444,83.31828
"5267",83.835526,78.49973,83.74443
"5268",83.84886,79.10277,84.30058
"5269",83.8622,79.68383,84.85361
"5270",83.875534,80.128174,85.28807
"5271",83.88887,80.34791,85.51181
"5272",83.90221,80.31373,85.4885
"5273",83.91554,80.028076,85.212654
"5274",83.92888,79.53246,84.71792
"5275",83.942215,78.887924,84.05877
"5276",83.95555,78.16037,83.29646
"5277",83.96889,77.40597,82.48457
"5278",83.98222,76.67109,81.66863
"5279",83.99556,75.98505,80.87856
"5280",84.008896,75.37713,80.14518
"5281",84.02223,74.85466,79.47825
"5282",84.03557,74.42252,78.88532
"5283",84.048904,74.073395,78.3619
"5284",84.06224,73.795074,77.89838
"5285",84.07558,73.57534,77.48474
"5286",84.08891,73.445946,77.15458
"5287",84.10225,73.50454,77.00836
"5288",84.115585,73.97818,77.27902
"5289",84.12892,75.13298,78.24564
"5290",84.14226,77.14717,80.10774
"5291",84.155594,79.991455,82.86288
"5292",84.16893,83.39727,86.268425
"5293",84.18227,86.890976,89.86829
"5294",84.1956,89.93057,93.12323
"5295",84.20894,92.08392,95.586914
"5296",84.222275,93.14107,97.02168
"5297",84.23561,93.119095,97.41037
"5298",84.24895,92.18646,96.88771
"5299",84.26228,90.60441,95.686485
"5300",84.27562,88.65125,94.06472
"5301",84.288956,86.58091,92.264725
"5302",84.30229,84.596016,90.48548
"5303",84.31563,82.8333,88.86639
"5304",84.328964,81.34402,87.465645
"5305",84.3423,80.113525,86.27715
"5306",84.35564,79.11986,85.28703
"5307",84.36897,78.34104,84.48071
"5308",84.38231,77.79172,83.87955
"5309",84.395645,77.49874,83.51756
"5310",84.40898,77.4963,83.43696
"5311",84.42232,77.77463,83.63705
"5312",84.43565,78.27512,84.068
"5313",84.44899,78.88548,84.62446
"5314",84.462326,79.47631,85.18046
"5315",84.47566,79.93042,85.6182
"5316",84.489,80.15747,85.84308
"5317",84.502335,80.11841,85.80894
"5318",84.51567,79.81323,85.50746
"5319",84.52901,79.29809,84.98648
"5320",84.54234,78.63157,84.29803
"5321",84.55568,77.88937,83.51307
"5322",84.569016,77.13008,82.68782
"5323",84.58235,76.402534,81.87059
"5324",84.59569,75.73113,81.08677
"5325",84.609024,75.13786,80.3601
"5326",84.62236,74.62516,79.69546
"5327",84.6357,74.20035,79.102684
"5328",84.64903,73.85123,78.57233
"5329",84.66237,73.565575,78.09453
"5330",84.675705,73.3312,77.65908
"5331",84.68904,73.162735,77.28222
"5332",84.70238,73.13588,77.0417
"5333",84.71571,73.428856,77.12018
"5334",84.72905,74.30045,77.78643
"5335",84.742386,75.98505,79.292915
"5336",84.75572,78.56809,81.750496
"5337",84.76906,81.90311,85.040764
"5338",84.782394,85.58724,88.78437
"5339",84.79573,89.05165,92.42338
"5340",84.80907,91.756775,95.41136
"5341",84.8224,93.365685,97.38767
"5342",84.83574,93.788055,98.22772
"5343",84.849075,93.15083,98.02138
"5344",84.86241,91.72503,97.00654
"5345",84.87575,89.82559,95.47351
"5346",84.889084,87.72106,93.67603
"5347",84.90242,85.63851,91.83476
"5348",84.91576,83.72686,90.09931
"5349",84.92909,82.074005,88.56292
"5350",84.94243,80.67994,87.233665
"5351",84.955765,79.520256,86.09523
"5352",84.9691,78.57786,85.13784
"5353",84.98244,77.857635,84.37318
"5354",84.99577,77.39376,83.842354
"5355",85.00911,77.23018,83.59733
"5356",85.022446,77.37423,83.65482
"5357",85.03578,77.78195,83.98049
"5358",85.04912,78.345924,84.47515
"5359",85.062454,78.92699,85.004524
"5360",85.07579,79.3933,85.43731
"5361",85.08913,79.639885,85.66493
"5362",85.10246,79.61791,85.63171
"5363",85.1158,79.32006,85.321915
"5364",85.129135,78.802475,84.78308
"5365",85.14247,78.153046,84.09623
"5366",85.15581,77.45968,83.345146
"5367",85.16914,76.76143,82.56751
"5368",85.18248,76.09735,81.80223
"5369",85.195816,75.48455,81.067474
"5370",85.20915,74.92546,80.36728
"5371",85.22249,74.424965,79.708206
"5372",85.235825,74.002594,79.11162
"5373",85.24916,73.68032,78.60193
"5374",85.2625,73.45083,78.17495
"5375",85.27583,73.29458,77.81404
"5376",85.28917,73.20912,77.51904
"5377",85.302505,73.24086,77.33857
"5378",85.31584,73.54116,77.42765
"5379",85.32918,74.339516,78.02417
"5380",85.342514,75.86542,79.373184
"5381",85.35585,78.18967,81.56823
"5382",85.36919,81.16823,84.49022
"5383",85.38252,84.439766,87.79826
"5384",85.39586,87.49645,90.99369
"5385",85.409195,89.85489,93.586395
"5386",85.42253,91.21477,95.25424
"5387",85.43587,91.510185,95.90012
"5388",85.4492,90.86076,95.6104
"5389",85.46254,89.50088,94.58991
"5390",85.475876,87.69909,93.08503
"5391",85.48921,85.711754,91.33829
"5392",85.50255,83.74151,89.54653
"5393",85.515884,81.951935,87.87388
"5394",85.52922,80.430916,86.41386
"5395",85.54256,79.183334,85.17974
"5396",85.55589,78.17502,84.145905
"5397",85.56923,77.37179,83.285645
"5398",85.582565,76.78096,82.612686
"5399",85.5959,76.42695,82.15808
"5400",85.60924,76.36347,81.98295
"5401",85.622574,76.62226,82.1281
"5402",85.63591,77.16914,82.56943
"5403",85.64925,77.872284,83.184105
"5404",85.66258,78.57542,83.82075
"5405",85.67592,79.132065,84.33288
"5406",85.689255,79.43481,84.6085
"5407",85.70259,79.432365,84.588394
"5408",85.71593,79.12962,84.267914
"5409",85.72926,78.57542,83.68651
"5410",85.7426,77.838104,82.90468
"5411",85.755936,76.995804,81.99482
"5412",85.76927,76.11688,81.02202
"5413",85.78261,75.250175,80.033966
"5414",85.795944,74.43473,79.07009
"5415",85.80928,73.69741,78.15886
"5416",85.82262,73.057755,77.32225
"5417",85.83595,72.515755,76.56331
"5418",85.84929,72.06653,75.8802
"5419",85.862625,71.7174,75.28316
"5420",85.87596,71.49279,74.79971
"5421",85.8893,71.500114,74.54118
"5422",85.90263,71.9469,74.72235
"5423",85.91597,73.08461,75.6084
"5424",85.929306,75.06706,77.37475
"5425",85.94264,77.84299,79.99652
"5426",85.95598,81.12184,83.20797
"5427",85.969315,84.43488,86.55607
"5428",85.98265,87.2694,89.529175
"5429",85.99599,89.232315,91.71925
"5430",86.00932,90.160065,92.93552
"5431",86.02266,90.10635,93.19931
"5432",86.035995,89.26162,92.6704
"5433",86.04933,87.869995,91.56821
"5434",86.06267,86.18051,90.124664
"5435",86.076004,84.41779,88.555084
"5436",86.08934,82.738075,87.01342
"5437",86.10268,81.231705,85.59261
"5438",86.11601,79.920654,84.32005
"5439",86.12935,78.79027,83.18719
"5440",86.142685,77.8259,82.18501
"5441",86.15602,77.03487,81.32604
"5442",86.16936,76.46357,80.66209
"5443",86.18269,76.17792,80.26592
"5444",86.19603,76.21454,80.183105
"5445",86.209366,76.5539,80.404175
"5446",86.2227,77.117874,80.86046
"5447",86.23604,77.77951,81.43203
"5448",86.249374,78.397194,81.98032
"5449",86.26271,78.856186,82.38923
"5450",86.27605,79.080795,82.578094
"5451",86.28938,79.046616,82.51519
"5452",86.30272,78.77074,82.20952
"5453",86.316055,78.30686,81.70723
"5454",86.32939,77.71114,81.0586
"5455",86.34273,77.0544,80.33033
"5456",86.356064,76.383,79.56689
"5457",86.3694,75.74822,78.81908
"5458",86.38274,75.17204,78.11003
"5459",86.39607,74.67643,77.46355
"5460",86.40941,74.26627,76.88703
"5461",86.422745,73.934235,76.37582
"5462",86.43608,73.670555,75.922585
"5463",86.44942,73.45571,75.50995
"5464",86.46275,73.28237,75.1321
"5465",86.47609,73.16762,74.80743
"5466",86.489426,73.22377,74.65007
"5467",86.50276,73.68032,74.89487
"5468",86.5161,74.8156,75.83266
"5469",86.529434,76.81758,77.67263
"5470",86.54277,79.66674,80.42234
"5471",86.55611,83.11162,83.856804
"5472",86.56944,86.71763,87.56005
"5473",86.58278,89.9501,91.00245
"5474",86.596115,92.35493,93.718216
"5475",86.60945,93.70504,95.45442
"5476",86.62279,94.0029,96.180565
"5477",86.63612,93.39498,96.01024
"5478",86.64946,92.122986,95.15684
"5479",86.662796,90.460365,93.87306
"5480",86.67613,88.67567,92.41525
"5481",86.68947,86.959335,90.97003
"5482",86.702805,85.43099,89.659164
"5483",86.71614,84.12726,88.52515
"5484",86.72948,83.03349,87.560356
"5485",86.74281,82.10086,86.72252
"5486",86.75615,81.29763,85.98494
"5487",86.769485,80.62867,85.35653
"5488",86.78282,80.12573,84.87324
"5489",86.79616,79.84253,84.59396
"5490",86.809494,79.81079,84.557304
"5491",86.82283,80.00366,84.74426
"5492",86.83617,80.34058,85.0813
"5493",86.8495,80.71168,85.463036
"5494",86.86284,81.01686,85.79046
"5495",86.876175,81.17067,85.97604
"5496",86.88951,81.12428,85.96624
"5497",86.90285,80.85817,85.73526
"5498",86.91618,80.396736,85.300644
"5499",86.92952,79.78882,84.705124
"5500",86.942856,79.08812,83.997826
"5501",86.95619,78.35325,83.23446
"5502",86.96953,77.625694,82.455444
"5503",86.982864,76.94209,81.69765
"5504",86.9962,76.3122,80.9722
"5505",87.00954,75.74578,80.290535
"5506",87.02287,75.2404,79.652214
"5507",87.03621,74.80339,79.06647
"5508",87.049545,74.42741,78.52809
"5509",87.06288,74.10269,78.029236
"5510",87.07622,73.82193,77.564186
"5511",87.089554,73.58999,77.13918
"5512",87.10289,73.44839,76.79727
"5513",87.11623,73.52163,76.66578
"5514",87.12956,74.04166,76.98336
"5515",87.1429,75.264824,78.02033
"5516",87.156235,77.330284,79.93782
"5517",87.16957,80.16235,82.68646
"5518",87.18291,83.44366,85.97284
"5519",87.19624,86.70054,89.33733
"5520",87.20958,89.41787,92.26405
"5521",87.222916,91.21477,94.35526
"5522",87.23625,91.964294,95.45525
"5523",87.24959,91.74212,95.606964
"5524",87.262924,90.76311,94.994896
"5525",87.27626,89.28603,93.85417
"5526",87.2896,87.569695,92.428024
"5527",87.30293,85.83627,90.93115
"5528",87.31627,84.23956,89.51682
"5529",87.329605,82.86748,88.27722
"5530",87.34294,81.72488,87.22423
"5531",87.35628,80.7776,86.33086
"5532",87.36961,79.96216,85.53971
"5533",87.38295,79.237045,84.813416
"5534",87.396286,78.61448,84.16701
"5535",87.40962,78.14572,83.65495
"5536",87.42296,77.891815,83.3431
"5537",87.436295,77.88449,83.2699
"5538",87.44963,78.101776,83.421074
"5539",87.46297,78.46311,83.72309
"5540",87.4763,78.86351,84.07546
"5541",87.48964,79.18822,84.364655
"5542",87.502975,79.35912,84.51019
"5543",87.51631,79.32494,84.455986
"5544",87.52965,79.07591,84.18586
"5545",87.542984,78.63889,83.71996
"5546",87.55632,78.06027,83.09881
"5547",87.56966,77.39132,82.36924
"5548",87.58299,76.6955,81.5919
"5549",87.59633,76.0119,80.80504
"5550",87.609665,75.37957,80.04808
"5551",87.623,74.82536,79.34949
"5552",87.63634,74.36149,78.72391
"5553",87.64967,73.98306,78.16928
"5554",87.66301,73.69009,77.68828
"5555",87.676346,73.46792,77.26893
"5556",87.68968,73.29458,76.891464
"5557",87.70302,73.16518,76.55252
"5558",87.716354,73.077286,76.251045
"5559",87.72969,73.043106,76.000534
"5560",87.74303,73.11879,75.85882
"5561",87.75636,73.46792,75.99291
"5562",87.7697,74.34684,76.66771
"5563",87.783035,75.97772,78.12193
"5564",87.79637,78.44602,80.46454
"5565",87.80971,81.59548,83.56544
"5566",87.823044,85.04768,87.0675
"5567",87.83638,88.28748,90.465034
"5568",87.84972,90.83391,93.27045
"5569",87.86305,92.38911,95.16421
"5570",87.87639,92.89693,96.05919
"5571",87.889725,92.49409,96.05938
"5572",87.90306,91.41009,95.36582
"5573",87.9164,89.90372,94.21602
"5574",87.92973,88.21912,92.84091
"5575",87.94307,86.56626,91.4449
"5576",87.956406,85.084305,90.16814
"5577",87.96974,83.83673,89.079445
"5578",87.98308,82.82109,88.1837
"5579",87.996414,81.97879,87.42956
"5580",88.00975,81.23903,86.75163
"5581",88.02309,80.57984,86.131165
"5582",88.03642,80.025635,85.59508
"5583",88.04976,79.64233,85.21257
"5584",88.063095,79.48852,85.047585
"5585",88.07643,79.588615,85.1317
"5586",88.08977,79.89624,85.42647
"5587",88.1031,80.323494,85.85048
"5588",88.11644,80.75319,86.29028
"5589",88.129776,81.08766,86.64829
"5590",88.14311,81.23903,86.83365
"5591",88.15645,81.17067,86.80401
"5592",88.169785,80.87526,86.54518
"5593",88.18312,80.377205,86.07448
"5594",88.19646,79.73022,85.43928
"5595",88.20979,79.00023,84.70086
"5596",88.22313,78.24826,83.91765
"5597",88.236465,77.51827,83.13292
"5598",88.2498,76.841995,82.37909
"5599",88.26314,76.241394,81.6798
"5600",88.276474,75.718925,81.03988
"5601",88.28981,75.27459,80.46176
"5602",88.30315,74.90837,79.947876
"5603",88.31648,74.61295,79.49335
"5604",88.32982,74.373695,79.08575
"5605",88.343155,74.18082,78.71705
"5606",88.35649,74.03189,78.38628
"5607",88.36983,73.92691,78.094795
"5608",88.38316,73.919586,77.89769
"5609",88.3965,74.16617,77.95426
"5610",88.409836,74.91325,78.51904
"5611",88.42317,76.404976,79.85181
"5612",88.43651,78.73655,82.07104
"5613",88.449844,81.78592,85.080925
"5614",88.46318,85.19173,88.54254
"5615",88.47652,88.448616,91.96167
"5616",88.48985,91.05852,94.83559
"5617",88.50319,92.69184,96.81449
"5618",88.516525,93.25826,97.777534
"5619",88.52986,92.86519,97.79878
"5620",88.5432,91.74212,97.07775
"5621",88.55653,90.15274,95.855316
"5622",88.56987,88.360725,94.38058
"5623",88.583206,86.573586,92.854706
"5624",88.59654,84.947586,91.43413
"5625",88.60988,83.5584,90.199554
"5626",88.623215,82.39872,89.15107
"5627",88.63655,81.42458,88.25189
"5628",88.64989,80.57984,87.45167
"5629",88.66322,79.84009,86.730034
"5630",88.67656,79.24193,86.12688
"5631",88.689896,78.84642,85.70768
"5632",88.70323,78.71946,85.54467
"5633",88.71657,78.8806,85.665794
"5634",88.729904,79.290764,86.04098
"5635",88.74324,79.84497,86.57302
"5636",88.75658,80.413826,87.13703
"5637",88.76991,80.86549,87.60163
"5638",88.78325,81.10231,87.86549
"5639",88.796585,81.075455,87.873085
"5640",88.80992,80.77272,87.60396
"5641",88.82326,80.22827,87.08366
"5642",88.83659,79.50805,86.37057
"5643",88.84993,78.68528,85.532425
"5644",88.863266,77.821014,84.627075
"5645",88.8766,76.978714,83.71668
"5646",88.88994,76.19989,82.843445
"5647",88.903275,75.508965,82.03377
"5648",88.91661,74.915695,81.300156
"5649",88.92995,74.42252,80.6481
"5650",88.94328,74.022125,80.07341
"5651",88.95662,73.69253,79.55701
"5652",88.969955,73.42397,79.09135
"5653",88.98329,73.22133,78.683205
"5654",88.99663,73.13588,78.385925
"5655",89.009964,73.31411,78.349655
"5656",89.0233,74.002594,78.82921
"5657",89.03664,75.45525,80.09445
"5658",89.04997,77.78439,82.28157
"5659",89.06331,80.88258,85.310524
"5660",89.076645,84.41779,88.873314
"5661",89.08998,87.887085,92.48066
"5662",89.10332,90.77287,95.612915
"5663",89.11665,92.70649,97.88319
"5664",89.12999,93.558556,99.13233
"5665",89.143326,93.40719,99.40467
"5666",89.15666,92.45258,98.86904
"5667",89.17,90.9633,97.768906
"5668",89.183334,89.20058,96.348785
"5669",89.19667,87.38903,94.82475
"5670",89.21001,85.680016,93.34665
"5671",89.22334,84.16876,92.01289
"5672",89.23668,82.87236,90.84676
"5673",89.250015,81.74685,89.81101
"5674",89.26335,80.75563,88.87438
"5675",89.27669,79.886475,88.02884
"5676",89.29002,79.168686,87.3075
"5677",89.30336,78.65354,86.76638
"5678",89.316696,78.40696,86.47772
"5679",89.33003,78.46067,86.48165
"5680",89.34337,78.77318,86.746056
"5681",89.356705,79.259026,87.193565
"5682",89.37004,79.7937,87.705086
"5683",89.38338,80.257576,88.16251
"5684",89.39671,80.55543,88.468414
"5685",89.41005,80.62623,88.55657
"5686",89.423386,80.448006,88.39792
"5687",89.43672,80.04028,88.004196
"5688",89.45006,79.4519,87.41707
"5689",89.463394,78.73899,86.687035
"5690",89.47673,77.962616,85.871254
"5691",89.49007,77.17647,85.02144
"5692",89.5034,76.422066,84.1788
"5693",89.51674,75.72869,83.37362
"5694",89.530075,75.11833,82.62978
"5695",89.54341,74.600746,81.95965
"5696",89.55675,74.161285,81.35146
"5697",89.57008,73.79263,80.800354
"5698",89.58342,73.47036,80.2841
"5699",89.596756,73.18471,79.7944
"5700",89.61009,72.935684,79.332405
"5701",89.62343,72.7892,78.965164
"5702",89.636765,72.91127,78.8619
"5703",89.6501,73.57778,79.30689
"5704",89.66344,75.07927,80.60769
"5705",89.67677,77.55245,82.9271
"5706",89.69011,80.88747,86.18563
"5707",89.703445,84.72541,90.05131
"5708",89.71678,88.50965,93.983215
"5709",89.73012,91.666435,97.40593
"5710",89.743454,93.785614,99.88969
"5711",89.75679,94.72556,101.26044
"5712",89.77013,94.574196,101.569244
"5713",89.78346,93.55367,101.004166
"5714",89.7968,91.96185,99.8359
"5715",89.810135,90.08682,98.33468
"5716",89.82347,88.17761,96.740685
"5717",89.83681,86.41245,95.23108
"5718",89.85014,84.89632,93.91533
"5719",89.86348,83.648735,92.820755
"5720",89.876816,82.63065,91.916695
"5721",89.89015,81.75662,91.12487
"5722",89.90349,80.96315,90.38629
"5723",89.916824,80.218506,89.671745
"5724",89.93016,79.53002,88.99009
"5725",89.9435,78.95384,88.39922
"5726",89.95683,78.553444,87.96613
"5727",89.97017,78.363014,87.7305
"5728",89.983505,78.37522,87.69155
"5729",89.99684,78.53391,87.79947
"5730",90.01018,78.74387,87.963615
"5731",90.02351,78.89525,88.07574
"5732",90.03685,78.89281,88.03877
"5733",90.050186,78.69016,87.80153
"5734",90.06352,78.28489,87.35532
"5735",90.07686,77.70138,86.718216
"5736",90.090195,77.00069,85.945694
"5737",90.10353,76.24628,85.09756
"5738",90.11687,75.47967,84.213646
"5739",90.1302,74.73014,83.32286
"5740",90.14354,74.0148,82.44284
"5741",90.156876,73.34585,81.58685
"5742",90.17021,72.72816,80.76122
"5743",90.18355,72.166626,79.97244
"5744",90.196884,71.66613,79.22716
"5745",90.21022,71.22911,78.52971
"5746",90.22356,70.855576,77.88208
"5747",90.23689,70.55772,77.29846
"5748",90.25023,70.381935,76.82761
"5749",90.263565,70.45762,76.60272
"5750",90.2769,71.03624,76.88314
"5751",90.29024,72.393684,77.960464
"5752",90.30357,74.68864,80.017715
"5753",90.31691,77.8674,83.0305
"5754",90.330246,81.617455,86.71391
"5755",90.34358,85.41634,90.56335
"5756",90.35692,88.690315,94.00658
"5757",90.370255,90.99016,96.57799
"5758",90.38359,92.120544,98.05182
"5759",90.39693,92.1181,98.42815
"5760",90.41026,91.175705,97.86444
"5761",90.4236,89.58633,96.624306
"5762",90.436935,87.640495,94.97805
"5763",90.45027,85.592125,93.16844
"5764",90.46361,83.64141,91.39248
"5765",90.476944,81.92508,89.78994
"5766",90.49028,80.48707,88.41209
"5767",90.50362,79.310295,87.250534
"5768",90.51695,78.33616,86.254845
"5769",90.53029,77.51339,85.38008
"5770",90.543625,76.822464,84.61145
"5771",90.55696,76.27558,83.96527
"5772",90.5703,75.92645,83.499756
"5773",90.58363,75.81903,83.26504
"5774",90.59697,75.965515,83.28087
"5775",90.610306,76.32197,83.511246
"5776",90.62364,76.80293,83.87727
"5777",90.63698,77.30343,84.27786
"5778",90.650314,77.72579,84.61596
"5779",90.66365,77.98459,84.80369
"5780",90.67699,78.03586,84.79198
"5781",90.69032,77.874725,84.569466
"5782",90.70366,77.52804,84.156364
"5783",90.716995,77.03731,83.58839
"5784",90.73033,76.456245,82.91474
"5785",90.74367,75.83612,82.183876
"5786",90.757,75.21843,81.436066
"5787",90.77034,74.634926,80.70314
"5788",90.783676,74.09781,79.99837
"5789",90.79701,73.62173,79.337845
"5790",90.81035,73.199356,78.716156
"5791",90.823685,72.833145,78.13743
"5792",90.83702,72.518196,77.59852
"5793",90.85036,72.254524,77.10104
"5794",90.86369,72.03723,76.64171
"5795",90.87703,71.86633,76.22197
"5796",90.890366,71.73937,75.840836
"5797",90.9037,71.68322,75.526535
"5798",90.91704,71.783325,75.366745
"5799",90.930374,72.256966,75.58362
"5800",90.94371,73.40444,76.48912
"5801",90.95705,75.46014,78.33871
"5802",90.97038,78.46067,81.19737
"5803",90.98372,82.176544,84.86514
"5804",90.997055,86.12192,88.87853
"5805",91.01039,89.69131,92.63923
"5806",91.02373,92.352486,95.603264
"5807",91.03706,93.81003,97.44682
"5808",91.0504,94.0444,98.11276
"5809",91.063736,93.21919,97.72644
"5810",91.07707,91.612724,96.53307
"5811",91.09041,89.52529,94.80854
"5812",91.103745,87.235214,92.81613
"5813",91.11708,84.96712,90.77413
"5814",91.13042,82.89433,88.85657
"5815",91.14375,81.10719,87.159874
"5816",91.15709,79.62524,85.71252
"5817",91.170425,78.42405,84.49962
"5818",91.18376,77.469444,83.495766
"5819",91.1971,76.71992,82.66716
"5820",91.210434,76.1828,82.02754
"5821",91.22377,75.897156,81.62261
"5822",91.23711,75.8996,81.49684
"5823",91.25044,76.19989,81.669
"5824",91.26378,76.749214,82.09957
"5825",91.277115,77.44503,82.6938
"5826",91.29045,78.16525,83.33418
"5827",91.30379,78.77562,83.887215
"5828",91.31712,79.18089,84.25423
"5829",91.33046,79.3225,84.37024
"5830",91.343796,79.19554,84.22211
"5831",91.35713,78.82201,83.82343
"5832",91.37047,78.260475,83.22509
"5833",91.383804,77.574425,82.48468
"5834",91.39714,76.82002,81.65448
"5835",91.41048,76.050964,80.78605
"5836",91.42381,75.30877,79.92045
"5837",91.43715,74.615395,79.080475
"5838",91.450485,73.99527,78.29208
"5839",91.46382,73.463036,77.572205
"5840",91.47716,73.023575,76.92847
"5841",91.49049,72.672005,76.35889
"5842",91.50383,72.40101,75.85889
"5843",91.517166,72.215454,75.43587
"5844",91.5305,72.183716,75.16086
"5845",91.54384,72.47425,75.20714
"5846",91.557175,73.35561,75.85332
"5847",91.57051,75.07927,77.36934
"5848",91.58385,77.72335,79.85965
"5849",91.59718,81.109634,83.17479
"5850",91.61052,84.81575,86.91558
"5851",91.623856,88.26795,90.51827
"5852",91.63719,90.916916,93.42561
"5853",91.65053,92.42817,95.27802
"5854",91.663864,92.733345,95.97158
"5855",91.6772,91.97894,95.6151
"5856",91.69054,90.423744,94.43424
"5857",91.70387,88.38514,92.72138
"5858",91.71721,86.14145,90.73973
"5859",91.730545,83.914856,88.705055
"5860",91.74388,81.8616,86.77414
"5861",91.75722,80.0647,85.03541
"5862",91.77055,78.54368,83.51641
"5863",91.78389,77.279015,82.20624
"5864",91.797226,76.25605,81.09824
"5865",91.81056,75.48455,80.20975
"5866",91.8239,75.00847,79.59256
"5867",91.837234,74.88396,79.312065
"5868",91.85057,75.14519,79.41342
"5869",91.86391,75.76288,79.8794
"5870",91.87724,76.65156,80.63567
"5871",91.89058,77.6672,81.54668
"5872",91.903915,78.643776,82.450356
"5873",91.91725,79.43725,83.20145
"5874",91.93059,79.94995,83.69656
"5875",91.943924,80.14526,83.89031
"5876",91.95726,80.03296,83.78255
"5877",91.9706,79.67162,83.42224
"5878",91.98393,79.114975,82.85533
"5879",91.99727,78.42405,82.13675
"5880",92.010605,77.645226,81.30868
"5881",92.02394,76.822464,80.41233
"5882",92.03728,75.98749,79.47806
"5883",92.05061,75.194016,78.5592
"5884",92.06395,74.47135,77.68635
"5885",92.077286,73.8439,76.88613
"5886",92.09062,73.31411,76.16396
"5887",92.10396,72.87465,75.51557
"5888",92.117294,72.54017,74.95843
"5889",92.13063,72.40589,74.591034
"5890",92.14397,72.69886,74.64668
"5891",92.1573,73.72915,75.44881
"5892",92.17064,75.718925,77.24262
"5893",92.183975,78.67063,80.06055
"5894",92.19731,82.31083,83.6592
"5895",92.21065,86.1268,87.547386
"5896",92.22398,89.50088,91.11292
"5897",92.23732,91.91547,93.82442
"5898",92.250656,93.12154,95.40285
"5899",92.26399,93.1313,95.82266
"5900",92.27733,92.140076,95.24179
"5901",92.290665,90.43351,93.914604
"5902",92.304,88.31434,92.12148
"5903",92.31734,86.05112,90.11809
"5904",92.33067,83.85626,88.11233
"5905",92.34401,81.8616,86.238174
"5906",92.357346,80.130615,84.56536
"5907",92.37068,78.66819,83.10702
"5908",92.38402,77.46456,81.86177
"5909",92.397354,76.51728,80.83526
"5910",92.41069,75.85321,80.062355
"5911",92.42403,75.51385,79.59341
"5912",92.43736,75.543144,79.48251
"5913",92.4507,75.93866,79.738754
"5914",92.464035,76.63935,80.31253
"5915",92.47737,77.523155,81.09132
"5916",92.49071,78.44846,81.939224
"5917",92.50404,79.256584,82.69886
"5918",92.51738,79.83032,83.24937
"5919",92.530716,80.09888,83.51262
"5920",92.54405,80.059814,83.47665
"5921",92.55739,79.7522,83.1709
"5922",92.570724,79.234604,82.64556
"5923",92.58406,78.590065,81.977104
"5924",92.5974,77.88449,81.22747
"5925",92.61073,77.16426,80.44113
"5926",92.62407,76.46845,79.65671
"5927",92.637405,75.83124,78.909134
"5928",92.65074,75.26971,78.21733
"5929",92.66408,74.77409,77.5739
"5930",92.677414,74.339516,76.97601
"5931",92.69075,73.95621,76.41582
"5932",92.70409,73.616844,75.88759
"5933",92.71742,73.35317,75.424446
"5934",92.73076,73.30923,75.17279
"5935",92.744095,73.75845,75.41293
"5936",92.75743,75.00847,76.4679
"5937",92.77077,77.239944,78.543396
"5938",92.7841,80.38697,81.60417
"5939",92.79744,84.11261,85.3419
"5940",92.810776,87.86023,89.21804
"5941",92.82411,91.00969,92.61313
"5942",92.83745,93.09956,95.04706
"5943",92.850784,93.94675,96.303604
"5944",92.86412,93.61227,96.40496
"5945",92.87746,92.33051,95.54859
"5946",92.89079,90.40177,94.00518
"5947",92.90413,88.14099,92.06946
"5948",92.917465,85.821625,90.0045
"5949",92.9308,83.64141,88.00621
"5950",92.94414,81.72488,86.20347
"5951",92.95747,80.1062,84.638695
"5952",92.97081,78.7805,83.316315
"5953",92.984146,77.71603,82.21373
"5954",92.99748,76.89815,81.32448
"5955",93.01082,76.34638,80.67578
"5956",93.024155,76.09979,80.31502
"5957",93.03749,76.192566,80.28591
"5958",93.05083,76.610054,80.58442
"5959",93.06416,77.28878,81.15721
"5960",93.0775,78.11154,81.89525
"5961",93.090836,78.92699,82.65168
"5962",93.10417,79.59838,83.28954
"5963",93.11751,80.03296,83.71157
"5964",93.130844,80.17944,83.859085
"5965",93.14418,80.0354,83.72065
"5966",93.15752,79.64965,83.336006
"5967",93.17085,79.08812,82.76353
"5968",93.18419,78.42405,82.07096
"5969",93.197525,77.72091,81.31857
"5970",93.21086,77.02998,80.55643
"5971",93.2242,76.387886,79.82152
"5972",93.23753,75.81415,79.1349
"5973",93.25087,75.31365,78.5036
"5974",93.264206,74.89372,77.937225
"5975",93.27754,74.54948,77.43341
"5976",93.29088,74.26627,76.97988
"5977",93.304214,74.056305,76.59074
"5978",93.31755,73.968414,76.31711
"5979",93.33089,74.1564,76.31661
"5980",93.34422,74.88396,76.86156
"5981",93.35756,76.41718,78.23491
"5982",93.370895,78.8806,80.586365
"5983",93.38423,82.13748,83.808266
"5984",93.39757,85.80209,87.53967
"5985",93.410904,89.31289,91.23178
"5986",93.42424,92.105896,94.31582
"5987",93.43758,93.79294,96.38117
"5988",93.45091,94.259254,97.27852
"5989",93.46425,93.62936,97.09422
"5990",93.477585,92.154724,96.04551
"5991",93.49092,90.142975,94.4136
"5992",93.50426,87.88953,92.47712
"5993",93.51759,85.64095,90.4751
"5994",93.53093,83.56817,88.57859
"5995",93.544266,81.75662,86.87855
"5996",93.5576,80.233154,85.40997
"5997",93.57094,78.97826,84.16236
"5998",93.584274,77.97482,83.127
"5999",93.59761,77.22041,82.3093
"6000",93.61095,76.756546,81.758575
"6001",93.62428,76.61738,81.51805
"6002",93.63762,76.81758,81.61255
"6003",93.650955,77.330284,82.0258
"6004",93.66429,78.05783,82.66992
"6005",93.67763,78.86595,83.41735
"6006",93.69096,79.605705,84.121666
"6007",93.7043,80.15991,84.66355
"6008",93.717636,80.448006,84.95664
"6009",93.73097,80.43824,84.96088
"6010",93.74431,80.15503,84.69136
"6011",93.757645,79.65209,84.19327
"6012",93.77098,79.00267,83.532974
"6013",93.78432,78.27512,82.77426
"6014",93.79765,77.53292,81.97816
"6015",93.81099,76.82002,81.18816
"6016",93.824326,76.16327,80.43204
"6017",93.83766,75.579765,79.72864
"6018",93.851,75.07683,79.08757
"6019",93.864334,74.64713,78.50403
"6020",93.87767,74.288246,77.97787
"6021",93.89101,73.99283,77.50396
"6022",93.90434,73.77554,77.09895
"6023",93.91768,73.69497,76.82387
"6024",93.931015,73.919586,76.851456
"6025",93.94435,74.70817,77.45003
"6026",93.95769,76.314644,78.891136
"6027",93.97102,78.83177,81.2931
"6028",93.98436,82.1033,84.52812
"6029",93.997696,85.71664,88.207184
"6030",94.01103,89.10048,91.76967
"6031",94.02437,91.700615,94.65419
"6032",94.037704,93.16792,96.487144
"6033",94.05104,93.434044,97.164764
"6034",94.06438,92.645454,96.79599
"6035",94.07771,91.073166,95.61887
"6036",94.09105,89.024796,93.91654
"6037",94.104385,86.785995,91.95976
"6038",94.11772,84.58137,89.96719
"6039",94.13106,82.564735,88.09373
"6040",94.144394,80.816666,86.425804
"6041",94.15773,79.34692,84.981575
"6042",94.17107,78.133514,83.747765
"6043",94.1844,77.1667,82.722626
"6044",94.19774,76.46845,81.93584
"6045",94.211075,76.087585,81.44461
"6046",94.22441,76.06073,81.295494
"6047",94.23775,76.39277,81.50443
"6048",94.25108,77.02998,82.02892
"6049",94.26442,77.85031,82.75644
"6050",94.277756,78.70237,83.54132
"6051",94.29109,79.43725,84.23565
"6052",94.30443,79.94995,84.73077
"6053",94.317764,80.16724,84.94649
"6054",94.3311,80.08911,84.87359
"6055",94.34444,79.7522,84.53946
"6056",94.35777,79.219955,83.99947
"6057",94.37111,78.56809,83.323235
"6058",94.384445,77.86496,82.575356
"6059",94.39778,77.16182,81.8055
"6060",94.41112,76.48554,81.04053
"6061",94.42445,75.86786,80.31302
"6062",94.43779,75.3283,79.64433
"6063",94.451126,74.87663,79.04668
"6064",94.46446,74.50553,78.51547
"6065",94.4778,74.215,78.05324
"6066",94.491135,73.987946,77.64541
"6067",94.50447,73.82681,77.2964
"6068",94.51781,73.78287,77.05955
"6069",94.53114,74.0148,77.0972
"6070",94.54448,74.7863,77.68166
"6071",94.557816,76.35615,79.088585
"6072",94.57115,78.82689,81.44546
"6073",94.58449,82.054474,84.63638
"6074",94.597824,85.64095,88.28706
"6075",94.61116,89.01991,91.8423
"6076",94.6245,91.62737,94.73163
"6077",94.63783,93.09956,96.56718
"6078",94.65117,93.35836,97.23534
"6079",94.664505,92.542915,96.83734
"6080",94.67784,90.9218,95.60819
"6081",94.69118,88.80995,93.837654
"6082",94.70451,86.51255,91.81557
"6083",94.71785,84.25666,89.76319
"6084",94.731186,82.20828,87.84783
"6085",94.74452,80.44068,86.14924
"6086",94.75786,78.96849,84.69082
"6087",94.771194,77.769745,83.45984
"6088",94.78453,76.83711,82.45751
"6089",94.79787,76.190125,81.711685
"6090",94.8112,75.88251,81.28501
"6091",94.82454,75.95331,81.22714
"6092",94.837875,76.39765,81.54503
"6093",94.85121,77.152054,82.18686
"6094",94.86455,78.07492,83.02073
"6095",94.877884,79.00755,83.8932
"6096",94.89122,79.783936,84.63857
"6097",94.90456,80.291756,85.13964
"6098",94.91789,80.46754,85.32454
"6099",94.93123,80.32105,85.192665
"6100",94.944565,79.90845,84.79009
"6101",94.9579,79.310295,84.18908
"6102",94.97124,78.60471,83.461945
"6103",94.98457,77.86984,82.68347
"6104",94.99791,77.15938,81.90644
"6105",95.011246,76.50507,81.16337
"6106",95.02458,75.92401,80.47309
"6107",95.03792,75.43328,79.85499
"6108",95.051254,75.01579,79.29479
"6109",95.06459,74.65934,78.782585
"6110",95.07793,74.36393,78.32028
"6111",95.09126,74.161285,77.94151
"6112",95.1046,74.161285,77.759056
"6113",95.117935,74.57389,77.989204
"6114",95.13127,75.65789,78.90364
"6115",95.14461,77.58175,80.69181
"6116",95.15794,80.29908,83.33357
"6117",95.17128,83.53399,86.57783
"6118",95.184616,86.80553,89.9598
"6119",95.19795,89.55947,92.926414
"6120",95.21129,91.35882,95.0245
"6121",95.224625,92.02045,96.04109
"6122",95.23796,91.59319,95.98948
"6123",95.2513,90.29923,95.05781
"6124",95.26463,88.431526,93.511955
"6125",95.27797,86.29038,91.63429
"6126",95.291306,84.122375,89.66286
"6127",95.30464,82.1033,87.772606
"6128",95.31798,80.31861,86.05364
"6129",95.331314,78.79759,84.54258
"6130",95.34465,77.53536,83.242775
"6131",95.35799,76.544136,82.17453
"6132",95.37132,75.85565,81.37805
"6133",95.38466,75.52361,80.916504
"6134",95.397995,75.59197,80.84498
"6135",95.41133,76.053406,81.16866
"6136",95.42467,76.822464,81.81439
"6137",95.438,77.76242,82.65505
"6138",95.45134,78.70481,83.52752
"6139",95.464676,79.49584,84.278076
"6140",95.47801,80.02075,84.78723
"6141",95.49135,80.22827,84.9954
"6142",95.504684,80.12573,84.899994
"6143",95.51802,79.76196,84.54015
"6144",95.53136,79.19798,83.968735
"6145",95.54469,78.5095,83.25519
"6146",95.55803,77.77219,82.4713
"6147",95.571365,77.04463,81.674126
"6148",95.5847,76.36347,80.90061
"6149",95.59804,75.76532,80.18882
"6150",95.611374,75.26238,79.55355
"6151",95.62471,74.85466,78.99778
"6152",95.63805,74.52506,78.50739
"6153",95.65138,74.27116,78.0824
"6154",95.66472,74.124664,77.75688
"6155",95.678055,74.20767,77.65629
"6156",95.69139,74.75212,78.01973
"6157",95.70473,76.03143,79.13505
"6158",95.71806,78.204315,81.183914
"6159",95.7314,81.21706,84.14054
"6160",95.744736,84.73762,87.699135
"6161",95.75807,88.224,91.333565
"6162",95.77141,91.090256,94.45682
"6163",95.784744,92.894485,96.60762
"6164",95.79808,93.46822,97.58431
"6165",95.81142,92.90181,97.43878
"6166",95.82475,91.4638,96.40395
"6167",95.83809,89.48623,94.78463
"6168",95.851425,87.28649,92.88134
"6169",95.86476,85.12581,90.948364
"6170",95.8781,83.175095,89.15783
"6171",95.89143,81.52224,87.604195
"6172",95.90477,80.164795,86.29432
"6173",95.918106,79.063705,85.19838
"6174",95.93144,78.18967,84.29508
"6175",95.94478,77.54513,83.59397
"6176",95.958115,77.16914,83.14127
"6177",95.97145,77.0959,82.97957
"6178",95.98479,77.34005,83.132965
"6179",95.99812,77.857635,83.56743
"6180",96.01146,78.54368,84.18652
"6181",96.024796,79.259026,84.85636
"6182",96.03813,79.8645,85.43868
"6183",96.05147,80.257576,85.82752
"6184",96.064804,80.38209,85.96008
"6185",96.07814,80.22339,85.813324
"6186",96.09148,79.81323,85.41015
"6187",96.10481,79.219955,84.811035
"6188",96.11815,78.5095,84.0762
"6189",96.131485,77.7551,83.27522
"6190",96.14482,77.01289,82.46287
"6191",96.15816,76.33173,81.68836
"6192",96.17149,75.72869,80.97069
"6193",96.18483,75.21599,80.32451
"6194",96.198166,74.79607,79.75509
"6195",96.2115,74.4567,79.253105
"6196",96.22484,74.19058,78.81376
"6197",96.238174,74.00015,78.44179
"6198",96.25151,73.93179,78.185936
"6199",96.26485,74.13443,78.198944
"6200",96.27818,74.847336,78.72855
"6201",96.29152,76.32685,80.04705
"6202",96.304855,78.68528,82.290695
"6203",96.31819,81.80057,85.3649
"6204",96.33153,85.28939,88.90999
"6205",96.344864,88.5951,92.38099
"6206",96.3582,91.16106,95.215546
"6207",96.37154,92.613716,97.01699
"6208",96.38487,92.87007,97.66753
"6209",96.39821,92.07904,97.27869
"6210",96.411545,90.53361,96.110725
"6211",96.42488,88.568245,94.47454
"6212",96.43822,86.48814,92.662186
"6213",96.45155,84.5301,90.9069
"6214",96.46489,82.83086,89.34922
"6215",96.478226,81.44167,88.0485
"6216",96.49156,80.33326,86.98514
"6217",96.5049,79.44457,86.106865
"6218",96.518234,78.72434,85.36928
"6219",96.53157,78.16281,84.76788
"6220",96.54491,77.79172,84.33938
"6221",96.55824,77.65499,84.133644
"6222",96.57158,77.78439,84.189766
"6223",96.584915,78.14816,84.4843
"6224",96.59825,78.66331,84.941574
"6225",96.61159,79.20775,85.444244
"6226",96.62492,79.656975,85.86871
"6227",96.63826,79.91577,86.11679
"6228",96.651596,79.923096,86.12148
"6229",96.66493,79.676506,85.87249
"6230",96.67827,79.21019,85.396065
"6231",96.691605,78.59251,84.7537
"6232",96.70494,77.89426,84.01147
"6233",96.71828,77.17891,83.230316
"6234",96.73161,76.49287,82.456116
"6235",96.74495,75.86786,81.72151
"6236",96.758286,75.32098,81.0455
"6237",96.77162,74.85466,80.43297
"6238",96.78496,74.47135,79.88887
"6239",96.798294,74.16617,79.41092
"6240",96.81163,73.936676,78.99912
"6241",96.82497,73.77066,78.64363
"6242",96.8383,73.68276,78.36107
"6243",96.85164,73.75357,78.23447
"6244",96.864975,74.158844,78.44454
"6245",96.87831,75.157394,79.26056
"6246",96.89165,76.961624,80.91346
"6247",96.90498,79.59594,83.45283
"6248",96.91832,82.84062,86.68488
"6249",96.931656,86.24155,90.174576
"6250",96.94499,89.22255,93.350624
"6251",96.95833,91.28802,95.7043
"6252",96.971664,92.1889,96.95794
"6253",96.985,91.949646,97.09959
"6254",96.99834,90.80217,96.32554
"6255",97.01167,89.076065,94.937004
"6256",97.02501,87.10582,93.25038
"6257",97.038345,85.16243,91.529045
"6258",97.05168,83.42657,89.954506
"6259",97.06502,81.98123,88.61625
"6260",97.078354,80.82887,87.5258
"6261",97.09169,79.906006,86.62884
"6262",97.10503,79.149155,85.86905
"6263",97.11836,78.52903,85.222336
"6264",97.1317,78.05783,84.70517
"6265",97.145035,77.77951,84.36616
"6266",97.15837,77.74044,84.2577
"6267",97.17171,77.95285,84.3995
"6268",97.18504,78.35813,84.74081
"6269",97.19838,78.84642,85.17779
"6270",97.211716,79.30053,85.59585
"6271",97.22505,79.61059,85.88405
"6272",97.23839,79.70092,85.96221
"6273",97.251724,79.54955,85.8015
"6274",97.26506,79.18089,85.41876
"6275",97.2784,78.641335,84.85361
"6276",97.29173,78.00168,84.17149
"6277",97.30507,77.330284,83.43765
"6278",97.318405,76.67841,82.702354
"6279",97.33174,76.087585,82.00773
"6280",97.34508,75.57244,81.37032
"6281",97.35841,75.13542,80.794945
"6282",97.37175,74.78142,80.288925
"6283",97.385086,74.49821,79.842636
"6284",97.39842,74.27848,79.45098
"6285",97.41176,74.11734,79.111046
"6286",97.425095,74.00748,78.81735
"6287",97.43843,73.94644,78.56905
"6288",97.45177,73.934235,78.367676
"6289",97.4651,73.99527,78.23916
"6290",97.47844,74.2272,78.28345
"6291",97.491776,74.82536,78.70121
"6292",97.50511,76.03143,79.745575
"6293",97.51845,78.030975,81.6211
"6294",97.531784,80.799576,84.32817
"6295",97.54512,84.07355,87.62713
"6296",97.55846,87.36706,91.047935
"6297",97.57179,90.121,94.032104
"6298",97.58513,91.878845,96.10623
"6299",97.598465,92.45258,97.051186
"6300",97.6118,91.92035,96.9081
"6301",97.62514,90.55314,95.9134
"6302",97.63847,88.70496,94.39501
"6303",97.65181,86.70542,92.667496
"6304",97.665146,84.81087,90.98248
"6305",97.67848,83.17998,89.50193
"6306",97.69182,81.864044,88.28537
"6307",97.705154,80.8362,87.31577
"6308",97.71849,80.01099,86.51669
"6309",97.73183,79.31762,85.82367
"6310",97.74516,78.72678,85.21151
"6311",97.7585,78.27512,84.72006
"6312",97.771835,78.013885,84.40492
"6313",97.78517,77.994354,84.323326
"6314",97.79851,78.22873,84.495026
"6315",97.811844,78.6511,84.862045
"6316",97.82518,79.14427,85.313065
"6317",97.83852,79.58129,85.72334
"6318",97.85185,79.85718,85.986145
"6319",97.86519,79.906006,86.03051
"6320",97.878525,79.708244,85.82981
"6321",97.89186,79.281,85.39345
"6322",97.9052,78.675514,84.765495
"6323",97.91853,77.96994,84.01853
"6324",97.93187,77.23262,83.21777
"6325",97.945206,76.51972,82.418396
"6326",97.95854,75.880066,81.66998
"6327",97.97188,75.33318,80.994354
"6328",97.985214,74.87663,80.39197
"6329",97.99855,74.5153,79.87053
"6330",98.01189,74.23697,79.42081
"6331",98.02522,74.03189,79.03564
"6332",98.03856,73.88785,78.70509
"6333",98.051895,73.79996,78.4262
"6334",98.06523,73.760895,78.19339
"6335",98.07857,73.79996,78.03748
"6336",98.0919,74.00015,78.04393
"6337",98.10524,74.53971,78.395996
"6338",98.118576,75.650566,79.33622
"6339",98.13191,77.50851,81.05824
"6340",98.14525,80.10864,83.58052
"6341",98.158585,83.22392,86.699196
"6342",98.17192,86.40269,89.97871
"6343",98.18526,89.10292,92.87902
"6344",98.19859,90.87541,94.935974
"6345",98.21193,91.50286,95.90328
"6346",98.225266,91.03899,95.798874
"6347",98.2386,89.72549,94.830345
"6348",98.25194,87.89685,93.30563
"6349",98.265274,85.88754,91.543106
"6350",98.27861,83.966125,89.80567
"6351",98.29195,82.2913,88.25478
"6352",98.30528,80.92409,86.959175
"6353",98.31862,79.83032,85.89429
"6354",98.331955,78.93919,84.997856
"6355",98.34529,78.19943,84.224945
"6356",98.35863,77.59884,83.568085
"6357",98.37196,77.18623,83.080444
"6358",98.3853,77.02998,82.836266
"6359",98.398636,77.17403,82.8875
"6360",98.41197,77.591515,83.216675
"6361",98.42531,78.19699,83.74689
"6362",98.438644,78.8513,84.34486
"6363",98.45198,79.412834,84.87049
"6364",98.46532,79.766846,85.206154
"6365",98.47865,79.852295,85.28432
"6366",98.49199,79.65453,85.08194
"6367",98.505325,79.21507,84.63168
"6368",98.51866,78.60227,83.994354
"6369",98.532,77.891815,83.24022
"6370",98.545334,77.154495,82.43702
"6371",98.55867,76.44404,81.63764
"6372",98.57201,75.80438,80.88686
"6373",98.58534,75.24284,80.194214
"6374",98.59868,74.77409,79.576805
"6375",98.612015,74.38834,79.02775
"6376",98.62535,74.073395,78.53744
"6377",98.63869,73.812164,78.091
"6378",98.65202,73.60708,77.69255
"6379",98.66536,73.460594,77.34629
"6380",98.678696,73.38491,77.06625
"6381",98.69203,73.43618,76.910805
"6382",98.70537,73.76578,77.035286
"6383",98.718704,74.59098,77.66567
"6384",98.73204,76.13397,79.039635
"6385",98.74538,78.49241,81.27726
"6386",98.75871,81.52712,84.26486
"6387",98.77205,84.859695,87.64516
"6388",98.785385,87.94568,90.883
"6389",98.79872,90.26505,93.45068
"6390",98.81206,91.473564,94.97998
"6391",98.82539,91.52239,95.38736
"6392",98.83873,90.59464,94.81969
"6393",98.852066,89.01015,93.56628
"6394",98.8654,87.115585,91.95328
"6395",98.87874,85.20393,90.263985
"6396",98.892075,83.475395,88.69807
"6397",98.90541,82.037384,87.36866
