"","Time..s.","PPG.trace","Preprocessed.PPG"
"39763",544.05133,79.15892,138.16904
"39764",544.06464,79.00755,137.99138
"39765",544.07794,78.890366,137.84317
"39766",544.09125,78.802475,137.7206
"39767",544.10455,78.73655,137.61725
"39768",544.11786,78.69016,137.53137
"39769",544.13116,78.6511,137.45137
"39770",544.1445,78.61936,137.37747
"39771",544.1578,78.59251,137.30746
"39772",544.1711,78.5803,137.25127
"39773",544.1844,78.6096,137.23619
"39774",544.1977,78.76341,137.34656
"39775",544.211,79.13939,137.68388
"39776",544.2243,79.80835,138.32594
"39777",544.2376,80.75075,139.26236
"39778",544.2509,81.85916,140.39424
"39779",544.2642,82.93584,141.52902
"39780",544.2775,83.76837,142.45331
"39781",544.29083,84.20294,143.00565
"39782",544.30414,84.190735,143.12479
"39783",544.31744,83.80255,142.86757
"39784",544.33075,83.16289,142.34674
"39785",544.34406,82.41581,141.6985
"39786",544.35736,81.688255,141.04645
"39787",544.37067,81.06569,140.47664
"39788",544.384,80.584724,140.02898
"39789",544.3973,80.2478,139.71033
"39790",544.4106,80.028076,139.49835
"39791",544.4239,79.88403,139.3552
"39792",544.4372,79.78882,139.25635
"39793",544.4505,79.72045,139.18138
"39794",544.4638,79.70336,139.15555
"39795",544.4771,79.7522,139.19511
"39796",544.4904,79.87915,139.31433
"39797",544.5037,80.079346,139.51074
"39798",544.517,80.32838,139.76225
"39799",544.53033,80.570076,140.01422
"39800",544.54364,80.75075,140.2127
"39801",544.55695,80.82643,140.31186
"39802",544.57025,80.78981,140.30107
"39803",544.58356,80.64576,140.1817
"39804",544.59686,80.42115,139.97728
"39805",544.61017,80.15015,139.71944
"39806",544.6235,79.86694,139.44092
"39807",544.6368,79.5935,139.16331
"39808",544.6501,79.34203,138.89914
"39809",544.6634,79.12474,138.66129
"39810",544.6767,78.95384,138.46303
"39811",544.69,78.81712,138.29361
"39812",544.7033,78.712135,138.15166
"39813",544.7166,78.63401,138.03328
"39814",544.7299,78.57053,137.92711
"39815",544.7432,78.519264,137.83116
"39816",544.75653,78.47776,137.74338
"39817",544.76984,78.44846,137.6665
"39818",544.78314,78.450905,137.62045
"39819",544.79645,78.53391,137.65504
"39820",544.80975,78.79271,137.86803
"39821",544.82306,79.32006,138.35765
"39822",544.83636,80.14526,139.1616
"39823",544.8497,81.20241,140.2233
"39824",544.863,82.32548,141.38394
"39825",544.8763,83.30694,142.43808
"39826",544.8896,83.95392,143.1884
"39827",544.9029,84.16388,143.52193
"39828",544.9162,83.96124,143.44942
"39829",544.9295,83.44366,143.05562
"39830",544.9428,82.7454,142.46498
"39831",544.9561,81.99832,141.8037
"39832",544.9694,81.30251,141.17033
"39833",544.9827,80.71656,140.62509
"39834",544.99603,80.26978,140.20071
"39835",545.00934,79.95239,139.89175
"39836",545.02264,79.7351,139.67297
"39837",545.03595,79.58129,139.51088
"39838",545.04926,79.48119,139.39769
"39839",545.06256,79.43481,139.33508
"39840",545.07587,79.466545,139.34915
"39841",545.0892,79.59594,139.46187
"39842",545.1025,79.82056,139.67386
"39843",545.1158,80.113525,139.96121
"39844",545.1291,80.41627,140.2675
"39845",545.1424,80.6775,140.54175
"39846",545.1557,80.84108,140.7265
"39847",545.169,80.88991,140.80162
"39848",545.1823,80.80934,140.74887
"39849",545.1956,80.62867,140.59349
"39850",545.2089,80.37476,140.35924
"39851",545.2222,80.08179,140.07797
"39852",545.23553,79.781494,139.78024
"39853",545.24884,79.49828,139.4902
"39854",545.26215,79.24681,139.22305
"39855",545.27545,79.03685,138.98955
"39856",545.28876,78.86839,138.79099
"39857",545.30206,78.73899,138.62622
"39858",545.31537,78.63889,138.48671
"39859",545.3287,78.55833,138.3636
"39860",545.342,78.49973,138.25995
"39861",545.3553,78.467995,138.18132
"39862",545.3686,78.50706,138.1725
"39863",545.3819,78.712135,138.33092
"39864",545.3952,79.17845,138.75699
"39865",545.4085,79.96704,139.5199
"39866",545.4218,81.024185,140.57602
"39867",545.4351,82.20828,141.79213
"39868",545.4484,83.30938,142.96223
"39869",545.46173,84.11505,143.87132
"39870",545.47504,84.49348,144.37834
"39871",545.48834,84.43244,144.45773
"39872",545.50165,84.01984,144.18364
"39873",545.51495,83.38262,143.67204
"39874",545.52826,82.650185,143.04532
"39875",545.54156,81.934845,142.4128
"39876",545.5549,81.31228,141.8507
"39877",545.5682,80.81911,141.39853
"39878",545.5815,80.46021,141.06523
"39879",545.5948,80.20874,140.82814
"39880",545.6081,80.028076,140.65399
"39881",545.6214,79.89868,140.52548
"39882",545.6347,79.818115,140.44174
"39883",545.648,79.801025,140.41898
"39884",545.6613,79.871826,140.48355
"39885",545.6746,80.03784,140.64557
"39886",545.6879,80.27711,140.88602
"39887",545.70123,80.5481,141.16568
"39888",545.71454,80.797134,141.43184
"39889",545.72784,80.96803,141.62766
"39890",545.74115,81.02907,141.71895
"39891",545.75446,80.970474,141.69252
"39892",545.76776,80.80446,141.55684
"39893",545.78107,80.56519,141.34271
"39894",545.7944,80.28199,141.07718
"39895",545.8077,79.98169,140.78569
"39896",545.821,79.691154,140.49458
"39897",545.8343,79.42748,140.22125
"39898",545.8476,79.19798,139.97386
"39899",545.8609,79.00511,139.75592
"39900",545.8742,78.84886,139.56857
"39901",545.8875,78.71702,139.40076
"39902",545.9008,78.6096,139.25323
"39903",545.9141,78.519264,139.11945
"39904",545.9274,78.44358,138.99748
"39905",545.94073,78.41428,138.91954
"39906",545.95404,78.51682,138.97252
"39907",545.96735,78.85863,139.26797
"39908",545.98065,79.53246,139.90614
"39909",545.99396,80.552986,140.91205
"39910",546.00726,81.812775,142.18912
"39911",546.02057,83.11162,143.54462
"39912",546.0339,84.210266,144.74051
"39913",546.0472,84.92317,145.58499
"39914",546.0605,85.17464,145.99031
"39915",546.0738,85.00374,145.98112
"39916",546.0871,84.525215,145.65897
"39917",546.1004,83.87335,145.14851
"39918",546.1137,83.16777,144.56398
"39919",546.127,82.5037,143.9989
"39920",546.1403,81.93973,143.51317
"39921",546.1536,81.50027,143.13432
"39922",546.16693,81.18288,142.86382
"39923",546.18024,80.95094,142.66885
"39924",546.19354,80.76784,142.51547
"39925",546.20685,80.61402,142.38565
"39926",546.22015,80.48951,142.28033
"39927",546.23346,80.411385,142.21751
"39928",546.24677,80.40162,142.22061
"39929",546.2601,80.479744,142.3113
"39930",546.2734,80.62379,142.47034
"39931",546.2867,80.797134,142.66318
"39932",546.3,80.94606,142.83702
"39933",546.3133,81.024185,142.94472
"39934",546.3266,81.004654,142.9572
"39935",546.3399,80.88014,142.86409
"39936",546.3532,80.66773,142.67918
"39937",546.3665,80.38697,142.4193
"39938",546.3798,80.07446,142.11888
"39939",546.3931,79.74731,141.79405
"39940",546.40643,79.42748,141.46632
"39941",546.41974,79.12962,141.15057
"39942",546.43304,78.86107,140.85481
"39943",546.44635,78.626686,140.58484
"39944",546.45966,78.42893,140.34416
"39945",546.47296,78.260475,140.1266
"39946",546.48627,78.11398,139.92575
"39947",546.4996,77.98459,139.73741
"39948",546.5129,77.86252,139.55235
"39949",546.5262,77.77219,139.39522
"39950",546.5395,77.76486,139.31827
"39951",546.5528,77.95529,139.43884
"39952",546.5661,78.45335,139.873
"39953",546.5794,79.31518,140.6865
"39954",546.5927,80.47242,141.82233
"39955",546.606,81.76639,143.13106
"39956",546.6193,82.97002,144.3899
"39957",546.6326,83.85626,145.36896
"39958",546.64594,84.29328,145.92648
"39959",546.65924,84.27375,146.04112
"39960",546.67255,83.888,145.78893
"39961",546.68585,83.25567,145.27809
"39962",546.69916,82.511024,144.6352
"39963",546.71246,81.761505,143.96414
"39964",546.72577,81.094986,143.35268
"39965",546.7391,80.552986,142.8449
"39966",546.7524,80.14282,142.45201
"39967",546.7657,79.84009,142.15375
"39968",546.779,79.61303,141.92169
"39969",546.7923,79.42504,141.7216
"39970",546.8056,79.26147,141.54005
"39971",546.8189,79.13451,141.39001
"39972",546.8322,79.06615,141.2946
"39973",546.8455,79.07103,141.2703
"39974",546.8588,79.149155,141.31938
"39975",546.87213,79.27856,141.4222
"39976",546.88544,79.41772,141.5388
"39977",546.89874,79.51293,141.61581
"39978",546.91205,79.53979,141.62744
"39979",546.92535,79.47631,141.54958
"39980",546.93866,79.327385,141.38428
"39981",546.95197,79.10277,141.13864
"39982",546.9653,78.83421,140.84204
"39983",546.9786,78.54124,140.51263
"39984",546.9919,78.25071,140.17651
"39985",547.0052,77.97238,139.84352
"39986",547.0185,77.72335,139.53113
"39987",547.0318,77.50851,139.24513
"39988",547.0451,77.33517,138.99393
"39989",547.0584,77.196,138.77148
"39990",547.0717,77.08858,138.57643
"39991",547.085,77.00069,138.39755
"39992",547.0983,76.929886,138.23302
"39993",547.11163,76.86397,138.07115
"39994",547.12494,76.805374,137.91455
"39995",547.13824,76.75899,137.76833
"39996",547.15155,76.734566,137.64262
"39997",547.16486,76.773636,137.57965
"39998",547.17816,76.9543,137.65948
"39999",547.19147,77.39132,138.00133
"40000",547.2048,78.150604,138.6791
"40001",547.2181,79.20775,139.67844
"40002",547.2314,80.4358,140.88173
"40003",547.2447,81.62722,142.08678
"40004",547.258,82.562294,143.07271
"40005",547.2713,83.087204,143.67769
"40006",547.2846,83.17265,143.85962
"40007",547.2979,82.88945,143.67557
"40008",547.3112,82.3621,143.23851
"40009",547.3245,81.71755,142.66779
"40010",547.3378,81.06081,142.06471
"40011",547.35114,80.462654,141.49971
"40012",547.36444,79.974365,141.02588
"40013",547.37775,79.603264,140.65398
"40014",547.39105,79.344475,140.38278
"40015",547.40436,79.168686,140.18651
"40016",547.41766,79.044174,140.03601
"40017",547.43097,78.94408,139.90604
"40018",547.4443,78.873276,139.80223
"40019",547.4576,78.839096,139.73283
"40020",547.4709,78.86351,139.72096
"40021",547.4842,78.95384,139.77577
"40022",547.4975,79.10033,139.88956
"40023",547.5108,79.26879,140.0299
"40024",547.5241,79.42016,140.15842
"40025",547.5374,79.50805,140.22818
"40026",547.5507,79.51049,140.21524
"40027",547.564,79.42016,140.1096
"40028",547.57733,79.24437,139.9157
"40029",547.59064,79.012436,139.66014
"40030",547.60394,78.746315,139.36316
"40031",547.61725,78.47776,139.05542
"40032",547.63055,78.21652,138.74661
"40033",547.64386,77.979706,138.45406
"40034",547.65717,77.77219,138.1834
"40035",547.6705,77.59884,137.94043
"40036",547.6838,77.45968,137.72623
"40037",547.6971,77.347374,137.53453
"40038",547.7104,77.25948,137.36374
"40039",547.7237,77.19112,137.20973
"40040",547.737,77.137405,137.06824
"40041",547.7503,77.100784,136.94215
"40042",547.7636,77.07881,136.82957
"40043",547.7769,77.069046,136.72852
"40044",547.7902,77.06416,136.63203
"40045",547.8035,77.066605,136.54272
"40046",547.81683,77.083694,136.46814
"40047",547.83014,77.16182,136.45512
"40048",547.84344,77.40597,136.61058
"40049",547.85675,77.91135,137.0349
"40050",547.87006,78.73167,137.78995
"40051",547.88336,79.80835,138.827
"40052",547.89667,80.990005,140.00266
"40053",547.91,82.0618,141.1054
"40054",547.9233,82.81377,141.9218
"40055",547.9366,83.13115,142.32712
"40056",547.9499,83.021286,142.31511
"40057",547.9632,82.579384,141.96762
"40058",547.9765,81.934845,141.40369
"40059",547.9898,81.214615,140.74393
"40060",548.0031,80.52125,140.08852
"40061",548.0164,79.920654,139.50421
"40062",548.0297,79.44457,139.02565
"40063",548.043,79.09544,138.65916
"40064",548.05634,78.853745,138.38919
"40065",548.06964,78.692604,138.19223
"40066",548.08295,78.58518,138.04395
"40067",548.09625,78.521706,137.93625
"40068",548.10956,78.51194,137.88028
"40069",548.12286,78.57542,137.89725
"40070",548.13617,78.71702,137.99432
"40071",548.1495,78.93187,138.16908
"40072",548.1628,79.19798,138.40181
"40073",548.1761,79.46899,138.64775
"40074",548.1894,79.693596,138.85576
"40075",548.2027,79.835205,138.9878
"40076",548.216,79.87427,139.0217
"40077",548.2293,79.80835,138.95184
"40078",548.2426,79.65209,138.7896
"40079",548.2559,79.43969,138.56631
"40080",548.2692,79.20531,138.31442
"40081",548.28253,78.975815,138.06009
"40082",548.29584,78.77074,137.823
"40083",548.30914,78.59983,137.61368
"40084",548.32245,78.46555,137.43564
"40085",548.33575,78.35813,137.28026
"40086",548.34906,78.277565,137.14838
"40087",548.36237,78.221405,137.03839
"40088",548.3757,78.18967,136.95107
"40089",548.389,78.17502,136.87984
"40090",548.4023,78.17746,136.82524
"40091",548.4156,78.187225,136.77805
"40092",548.4289,78.20676,136.74092
"40093",548.4422,78.24826,136.72638
"40094",548.4555,78.37034,136.79372
"40095",548.4688,78.67063,137.04308
"40096",548.4821,79.24681,137.57771
"40097",548.4954,80.10864,138.416
"40098",548.5087,81.16823,139.47897
"40099",548.52203,82.252235,140.59949
"40100",548.53534,83.14824,141.56587
"40101",548.54865,83.68047,142.19649
"40102",548.56195,83.77814,142.40916
"40103",548.57526,83.48516,142.23425
"40104",548.58856,82.92119,141.77919
"40105",548.60187,82.20584,141.15514
"40106",548.6152,81.45876,140.47699
"40107",548.6285,80.77028,139.83409
"40108",548.6418,80.198975,139.28687
"40109",548.6551,79.766846,138.86096
"40110",548.6684,79.46166,138.5485
"40111",548.6817,79.256584,138.32658
"40112",548.695,79.11986,138.16663
"40113",548.7083,79.03929,138.05855
"40114",548.7216,79.012436,138.00166
"40115",548.7349,79.063705,138.02206
"40116",548.7482,79.21263,138.14172
"40117",548.76154,79.45678,138.36127
"40118",548.77484,79.75952,138.64703
"40119",548.78815,80.08179,138.96179
"40120",548.80145,80.35767,139.24023
"40121",548.81476,80.54078,139.43452
"40122",548.82806,80.601814,139.51247
"40123",548.8414,80.54322,139.47269
"40124",548.8547,80.38453,139.33098
"40125",548.868,80.15991,139.11838
"40126",548.8813,79.90845,138.87192
"40127",548.8946,79.66674,138.62735
"40128",548.9079,79.44457,138.39476
"40129",548.9212,79.256584,138.1894
"40130",548.9345,79.10033,138.00992
"40131",548.9478,78.98314,137.86461
"40132",548.9611,78.89769,137.74738
"40133",548.9744,78.83421,137.64944
"40134",548.98773,78.78783,137.56662
"40135",549.00104,78.75365,137.49455
"40136",549.01434,78.72434,137.4263
"40137",549.02765,78.695045,137.35713
"40138",549.04095,78.68528,137.30658
"40139",549.05426,78.751205,137.33142
"40140",549.06757,78.98558,137.52676
"40141",549.0809,79.483635,137.99312
"40142",549.0942,80.28687,138.78021
"40143",549.1075,81.32693,139.82924
"40144",549.1208,82.45487,140.99866
"40145",549.1341,83.458305,142.07881
"40146",549.1474,84.137024,142.8656
"40147",549.1607,84.38361,143.24147
"40148",549.174,84.210266,143.20511
"40149",549.1873,83.71221,142.83862
"40150",549.2006,83.018845,142.26126
"40151",549.2139,82.252235,141.58899
"40152",549.22723,81.51736,140.9245
"40153",549.24054,80.88747,140.34203
"40154",549.25385,80.394295,139.87659
"40155",549.26715,80.03784,139.53246
"40156",549.28046,79.79614,139.29193
"40157",549.29376,79.64233,139.13174
"40158",549.30707,79.53979,139.01802
"40159",549.3204,79.48852,138.95236
"40160",549.3337,79.500725,138.94858
"40161",549.347,79.588615,139.02086
"40162",549.3603,79.76196,139.18135
"40163",549.3736,80.0061,139.41806
"40164",549.3869,80.28443,139.69658
"40165",549.4002,80.54566,139.9667
"40166",549.4135,80.740974,140.17908
"40167",549.4268,80.83864,140.2999
"40168",549.4401,80.831314,140.31879
"40169",549.4534,80.723885,140.23734
"40170",549.46674,80.53834,140.07442
"40171",549.48004,80.308846,139.86176
"40172",549.49335,80.062256,139.62482
"40173",549.50665,79.82056,139.38507
"40174",549.51996,79.59838,139.15729
"40175",549.53326,79.40795,138.9543
"40176",549.5466,79.24925,138.7771
"40177",549.5599,79.11986,138.62424
"40178",549.5732,79.01732,138.49419
"40179",549.5865,78.93919,138.38535
"40180",549.5998,78.8806,138.2936
"40181",549.6131,78.83421,138.21222
"40182",549.6264,78.80003,138.1416
"40183",549.6397,78.77806,138.08212
"40184",549.653,78.768295,138.03416
"40185",549.6663,78.81712,138.0445
"40186",549.6796,79.00023,138.19063
"40187",549.69293,79.42504,138.5842
"40188",549.70624,80.15259,139.29378
"40189",549.71954,81.15602,140.30197
"40190",549.73285,82.303505,141.48558
"40191",549.74615,83.39727,142.65134
"40192",549.75946,84.22247,143.5827
"40193",549.77277,84.63264,144.12482
"40194",549.7861,84.610664,144.24762
"40195",549.7994,84.224915,144.00595
"40196",549.8127,83.59991,143.51297
"40197",549.826,82.865036,142.8906
"40198",549.8393,82.13016,142.24525
"40199",549.8526,81.478294,141.65996
"40200",549.8659,80.95094,141.1788
"40201",549.8792,80.56031,140.81789
"40202",549.8925,80.291756,140.56685
"40203",549.9058,80.10376,140.38797
"40204",549.9191,79.96704,140.25449
"40205",549.93243,79.86206,140.14847
"40206",549.94574,79.798584,140.08069
"40207",549.95905,79.78882,140.06464
"40208",549.97235,79.852295,140.12152
"40209",549.98566,79.991455,140.25607
"40210",549.99896,80.18677,140.45111
"40211",550.01227,80.39918,140.66936
"40212",550.0256,80.57984,140.8625
"40213",550.0389,80.69703,140.99782
"40214",550.0522,80.72877,141.05135
"40215",550.0655,80.672615,141.01797
"40216",550.0788,80.53834,140.90472
"40217",550.0921,80.35035,140.73357
"40218",550.1054,80.128174,140.52234
"40219",550.1187,79.888916,140.28708
"40220",550.132,79.65453,140.04922
"40221",550.1453,79.432365,139.81625
"40222",550.1586,79.23949,139.60564
"40223",550.17194,79.08568,139.42805
"40224",550.18524,78.96605,139.27985
"40225",550.19855,78.873276,139.15475
"40226",550.21185,78.80003,139.0463
"40227",550.22516,78.73899,138.94775
"40228",550.23846,78.677956,138.8473
"40229",550.2518,78.61692,138.74495
"40230",550.2651,78.553444,138.63824
"40231",550.2784,78.48997,138.52956
"40232",550.2917,78.43626,138.42865
"40233",550.305,78.416725,138.36024
"40234",550.3183,78.49973,138.39377
"40235",550.3316,78.78783,138.63498
"40236",550.3449,79.37377,139.18304
"40237",550.3582,80.272224,140.06192
"40238",550.3715,81.3904,141.18861
"40239",550.3848,82.547646,142.38931
"40240",550.39813,83.526665,143.44795
"40241",550.41144,84.14191,144.1734
"40242",550.42474,84.315254,144.47618
"40243",550.43805,84.085754,144.38153
"40244",550.45135,83.55596,143.97942
"40245",550.46466,82.85283,143.3874
"40246",550.47797,82.10086,142.7246
"40247",550.4913,81.39529,142.08467
"40248",550.5046,80.80446,141.53745
"40249",550.5179,80.360115,141.11824
"40250",550.5312,80.05737,140.82675
"40251",550.5445,79.8645,140.63568
"40252",550.5578,79.74975,140.5167
"40253",550.5711,79.674065,140.43318
"40254",550.5844,79.635,140.38393
"40255",550.5977,79.64233,140.37984
"40256",550.611,79.71801,140.44434
"40257",550.6243,79.8645,140.58202
"40258",550.63763,80.08179,140.79507
"40259",550.65094,80.33814,141.05399
"40260",550.66425,80.59449,141.3209
"40261",550.67755,80.78981,141.5348
"40262",550.69086,80.88991,141.65959
"40263",550.70416,80.87526,141.67276
"40264",550.71747,80.7483,141.57315
"40265",550.7308,80.54078,141.38902
"40266",550.7441,80.28687,141.15202
"40267",550.7574,80.01831,140.89243
"40268",550.7707,79.764404,140.6391
"40269",550.784,79.537346,140.40468
"40270",550.7973,79.34692,140.19978
"40271",550.8106,79.19554,140.028
"40272",550.8239,79.08568,139.89299
"40273",550.8372,79.00755,139.78629
"40274",550.8505,78.958725,139.70644
"40275",550.86383,78.924545,139.63971
"40276",550.87714,78.90013,139.58168
"40277",550.89044,78.8806,139.52777
"40278",550.90375,78.85863,139.47081
"40279",550.91705,78.839096,139.4156
"40280",550.93036,78.82689,139.36711
"40281",550.94366,78.873276,139.37683
"40282",550.957,79.061264,139.5296
"40283",550.9703,79.49828,139.93729
"40284",550.9836,80.23071,140.65404
"40285",550.9969,81.21706,141.64758
"40286",551.0102,82.31815,142.78671
"40287",551.0235,83.34112,143.88213
"40288",551.0368,84.08087,144.72629
"40289",551.0501,84.420235,145.19318
"40290",551.0634,84.34455,145.25563
"40291",551.0767,83.929504,144.97635
"40292",551.09,83.29717,144.46681
"40293",551.10333,82.56962,143.8423
"40294",551.11664,81.849396,143.20238
"40295",551.12994,81.20973,142.62051
"40296",551.14325,80.69215,142.14073
"40297",551.15656,80.30152,141.77174
"40298",551.16986,80.01831,141.49796
"40299",551.18317,79.815674,141.2959
"40300",551.1965,79.66674,141.1412
"40301",551.2098,79.56664,141.03069
"40302",551.2231,79.52758,140.97807
"40303",551.2364,79.56664,141.00237
"40304",551.2497,79.69604,141.11821
"40305",551.263,79.90845,141.32112
"40306",551.2763,80.17944,141.58926
"40307",551.2896,80.445564,141.861
"40308",551.3029,80.66041,142.08977
"40309",551.3162,80.77272,142.22272
"40310",551.3295,80.762955,142.2371
"40311",551.34283,80.63355,142.13155
"40312",551.35614,80.40406,141.92186
"40313",551.36945,80.111084,141.64151
"40314",551.38275,79.79614,141.33005
"40315",551.39606,79.483635,141.01117
"40316",551.40936,79.19554,140.70694
"40317",551.42267,78.93919,140.42545
"40318",551.436,78.72678,140.17989
"40319",551.4493,78.54856,139.96187
"40320",551.4626,78.40208,139.77002
"40321",551.4759,78.28001,139.598
"40322",551.4892,78.184784,139.44904
"40323",551.5025,78.11398,139.3215
"40324",551.5158,78.08713,139.2357
"40325",551.5291,78.15549,139.24428
"40326",551.5424,78.41917,139.45032
"40327",551.5557,78.95628,139.93803
"40328",551.56903,79.783936,140.73306
"40329",551.58234,80.82887,141.77124
"40330",551.59564,81.92996,142.89824
"40331",551.60895,82.89189,143.92049
"40332",551.62225,83.53887,144.65784
"40333",551.63556,83.78546,145.01501
"40334",551.64886,83.66094,145.00879
"40335",551.6622,83.25323,144.71548
"40336",551.6755,82.684364,144.24829
"40337",551.6888,82.05936,143.70717
"40338",551.7021,81.463646,143.17581
"40339",551.7154,80.94606,142.70396
"40340",551.7287,80.533455,142.32092
"40341",551.742,80.216064,142.0202
"40342",551.7553,79.971924,141.7828
"40343",551.7686,79.781494,141.59149
"40344",551.7819,79.635,141.43817
"40345",551.7952,79.54955,141.34131
"40346",551.80853,79.53979,141.31746
"40347",551.82184,79.622795,141.38608
"40348",551.83514,79.798584,141.55008
"40349",551.84845,80.0354,141.78061
"40350",551.86176,80.28443,142.03075
"40351",551.87506,80.49195,142.24716
"40352",551.88837,80.618904,142.3895
"40353",551.9017,80.638435,142.42838
"40354",551.915,80.550545,142.36044
"40355",551.9283,80.37476,142.20187
"40356",551.9416,80.1355,141.97432
"40357",551.9549,79.8645,141.70755
"40358",551.9682,79.5935,141.43231
"40359",551.9815,79.33959,141.1657
"40360",551.9948,79.11253,140.918
"40361",552.0081,78.922104,140.69983
"40362",552.0214,78.765854,140.50989
"40363",552.0347,78.63157,140.33704
"40364",552.04803,78.521706,140.1844
"40365",552.06134,78.42649,140.04298
"40366",552.07465,78.34348,139.9108
"40367",552.08795,78.28245,139.79799
"40368",552.10126,78.28977,139.75163
"40369",552.11456,78.44846,139.85687
"40370",552.12787,78.86839,140.22832
"40371",552.1412,79.61303,140.93759
"40372",552.1545,80.66285,141.97531
"40373",552.1678,81.900665,143.23384
"40374",552.1811,83.12627,144.51884
"40375",552.1944,84.122375,145.61266
"40376",552.2077,84.73762,146.35672
"40377",552.221,84.928055,146.6952
"40378",552.2343,84.74738,146.66853
"40379",552.2476,84.30305,146.37256
"40380",552.2609,83.719536,145.92352
"40381",552.27423,83.104294,145.42451
"40382",552.28754,82.533,144.95023
"40383",552.30084,82.05203,144.54842
"40384",552.31415,81.68093,144.24144
"40385",552.32745,81.40261,144.01566
"40386",552.34076,81.18532,143.8422
"40387",552.35406,81.007095,143.70102
"40388",552.3674,80.86305,143.58846
"40389",552.3807,80.762955,143.51534
"40390",552.394,80.72144,143.49767
"40391",552.4073,80.75563,143.5544
"40392",552.4206,80.86061,143.683
"40393",552.4339,81.01198,143.86127
"40394",552.4472,81.16579,144.0467
"40395",552.4605,81.2781,144.19545
"40396",552.4738,81.31472,144.27202
"40397",552.4871,81.25613,144.25452
"40398",552.5004,81.09987,144.13751
"40399",552.51373,80.86305,143.93507
"40400",552.52704,80.57252,143.67151
"40401",552.54034,80.257576,143.37447
"40402",552.55365,79.94507,143.07
"40403",552.56696,79.65209,142.77531
"40404",552.58026,79.38598,142.49832
"40405",552.59357,79.15404,142.2472
"40406",552.6069,78.9514,142.01811
"40407",552.6202,78.77318,141.80711
"40408",552.6335,78.61204,141.60764
"40409",552.6468,78.46311,141.41533
"40410",552.6601,78.32639,141.23058
"40411",552.6734,78.21408,141.06596
"40412",552.6867,78.14084,140.9369
"40413",552.7,78.16525,140.90321
"40414",552.7133,78.382545,141.06317
"40415",552.7266,78.89769,141.52777
"40416",552.7399,79.742424,142.33806
"40417",552.75323,80.85817,143.44576
"40418",552.76654,82.10574,144.72015
"40419",552.77985,83.28008,145.9603
"40420",552.79315,84.18097,146.96368
"40421",552.80646,84.69123,147.6046
"40422",552.81976,84.79866,147.85863
"40423",552.83307,84.56672,147.77664
"40424",552.8464,84.11017,147.4628
"40425",552.8597,83.54131,147.02238
"40426",552.873,82.96025,146.55199
"40427",552.8863,82.4329,146.11714
"40428",552.8996,82.003204,145.76347
"40429",552.9129,81.668724,145.4916
"40430",552.9262,81.40017,145.27519
"40431",552.9395,81.163345,145.08212
"40432",552.9528,80.938736,144.89388
"40433",552.9661,80.723885,144.70836
"40434",552.97943,80.54078,144.54788
"40435",552.99274,80.41627,144.44028
"40436",553.00604,80.36988,144.4069
"40437",553.01935,80.40162,144.45021
"40438",553.03265,80.482185,144.54333
"40439",553.04596,80.56519,144.64142
"40440",553.05927,80.61158,144.70547
"40441",553.0726,80.5774,144.69041
"40442",553.0859,80.45289,144.58395
"40443",553.0992,80.233154,144.37837
"40444",553.1125,79.937744,144.09024
"40445",553.1258,79.5935,143.74405
"40446",553.1391,79.234604,143.37245
"40447",553.1524,78.887924,143.00185
"40448",553.1657,78.56809,142.64726
"40449",553.179,78.28245,142.31686
"40450",553.1923,78.03342,142.01416
"40451",553.2056,77.823456,141.74274
"40452",553.21893,77.64034,141.49161
"40453",553.23224,77.48409,141.26161
"40454",553.24554,77.34249,141.04138
"40455",553.25885,77.21553,140.83138
"40456",553.27216,77.0959,140.62473
"40457",553.28546,76.9836,140.42166
"40458",553.29877,76.8835,140.2273
"40459",553.3121,76.805374,140.05177
"40460",553.3254,76.78096,139.92752
"40461",553.3387,76.88838,139.93434
"40462",553.352,77.23262,140.18134
"40463",553.3653,77.891815,140.75404
"40464",553.3786,78.86351,141.65985
"40465",553.3919,80.05005,142.81087
"40466",553.4052,81.26833,144.03072
"40467",553.4185,82.303505,145.10553
"40468",553.4318,82.98222,145.85623
"40469",553.4451,83.23857,146.20578
"40470",553.45844,83.106735,146.17516
"40471",553.47174,82.69413,145.85963
"40472",553.48505,82.127716,145.37741
"40473",553.49835,81.52224,144.83842
"40474",553.51166,80.96803,144.33179
"40475",553.52496,80.52125,143.91525
"40476",553.53827,80.19409,143.60439
"40477",553.5516,79.96948,143.38583
"40478",553.5649,79.801025,143.21643
"40479",553.5782,79.65453,143.06372
"40480",553.5915,79.50805,142.90643
"40481",553.6048,79.36889,142.75189
"40482",553.6181,79.26391,142.62718
"40483",553.6314,79.2224,142.56267
"40484",553.6447,79.25414,142.57011
"40485",553.658,79.344475,142.63713
"40486",553.6713,79.45922,142.73138
"40487",553.68463,79.54467,142.79993
"40488",553.69794,79.56664,142.80766
"40489",553.71124,79.50805,142.73552
"40490",553.72455,79.361565,142.57365
"40491",553.73785,79.13939,142.33153
"40492",553.75116,78.86595,142.03119
"40493",553.76447,78.56565,141.69545
"40494",553.7778,78.260475,141.34544
"40495",553.7911,77.977264,141.00787
"40496",553.8044,77.72335,140.69075
"40497",553.8177,77.51095,140.4072
"40498",553.831,77.33517,140.15363
"40499",553.8443,77.196,139.93118
"40500",553.8576,77.08125,139.7288
"40501",553.8709,76.98848,139.54482
"40502",553.8842,76.91524,139.37746
"40503",553.8975,76.86397,139.22978
"40504",553.9108,76.822464,139.09027
"40505",553.92413,76.79561,138.96411
"40506",553.93744,76.76875,138.83711
"40507",553.95074,76.73945,138.70683
"40508",553.96405,76.71015,138.57564
"40509",553.97736,76.6955,138.45818
"40510",553.99066,76.7248,138.3842
"40511",554.00397,76.876175,138.43323
"40512",554.0173,77.24483,138.70425
"40513",554.0306,77.90158,139.2749
"40514",554.0439,78.836655,140.1444
"40515",554.0572,79.94995,141.22133
"40516",554.0705,81.06813,142.33795
"40517",554.0838,81.988556,143.29176
"40518",554.0971,82.55741,143.92276
"40519",554.1104,82.720985,144.16626
"40520",554.1237,82.528114,144.05843
"40521",554.137,82.08621,143.69553
"40522",554.1503,81.514915,143.18942
"40523",554.16364,80.92897,142.65082
"40524",554.17694,80.40406,142.15494
"40525",554.19025,79.98657,141.75008
"40526",554.20355,79.69848,141.46156
"40527",554.21686,79.51049,141.26414
"40528",554.23016,79.38598,141.12433
"40529",554.24347,79.293205,141.01236
"40530",554.2568,79.21263,140.9097
"40531",554.2701,79.151596,140.82405
"40532",554.2834,79.13451,140.78044
"40533",554.2967,79.185776,140.80466
"40534",554.31,79.30541,140.89885
"40535",554.3233,79.47387,141.0456
"40536",554.3366,79.65209,141.20737
"40537",554.3499,79.79126,141.33566
"40538",554.3632,79.85718,141.39505
"40539",554.3765,79.82788,141.3613
"40540",554.38983,79.70336,141.2314
"40541",554.40314,79.49828,141.01704
"40542",554.41644,79.24193,140.74501
"40543",554.42975,78.96117,140.44055
"40544",554.44305,78.677956,140.12488
"40545",554.45636,78.41917,139.82477
"40546",554.46967,78.19699,139.55319
"40547",554.483,78.01633,139.31618
"40548",554.4963,77.87961,139.11746
"40549",554.5096,77.78439,138.95598
"40550",554.5229,77.71847,138.82082
"40551",554.5362,77.66964,138.70068
"40552",554.5495,77.63058,138.58879
"40553",554.5628,77.60128,138.48544
"40554",554.5761,77.57198,138.38118
"40555",554.5894,77.54513,138.27844
"40556",554.6027,77.5256,138.18219
"40557",554.616,77.51339,138.09265
"40558",554.62933,77.53536,138.03691
"40559",554.64264,77.645226,138.06975
"40560",554.65594,77.93576,138.2867
"40561",554.66925,78.485085,138.77151
"40562",554.68256,79.31518,139.55426
"40563",554.69586,80.35035,140.56802
"40564",554.70917,81.43923,141.66786
"40565",554.7225,82.388954,142.66257
"40566",554.7358,83.02373,143.372
"40567",554.7491,83.265434,143.70819
"40568",554.7624,83.13603,143.68083
"40569",554.7757,82.72587,143.36867
"40570",554.789,82.16678,142.89476
"40571",554.8023,81.57107,142.36676
"40572",554.8156,81.03151,141.8763
"40573",554.8289,80.59937,141.4764
"40574",554.8422,80.29664,141.1924
"40575",554.8555,80.10864,141.01367
"40576",554.86884,80.00122,140.90964
"40577",554.88214,79.923096,140.83154
"40578",554.89545,79.84985,140.75589
"40579",554.90875,79.77661,140.67795
"40580",554.92206,79.71557,140.60992
"40581",554.93536,79.70336,140.58882
"40582",554.94867,79.75708,140.63327
"40583",554.962,79.871826,140.74042
"40584",554.9753,80.02075,140.88535
"40585",554.9886,80.15991,141.02515
"40586",555.0019,80.2478,141.11804
"40587",555.0152,80.257576,141.13556
"40588",555.0285,80.17456,141.0606
"40589",555.0418,80.01099,140.90247
"40590",555.0551,79.77905,140.67087
"40591",555.0684,79.51537,140.40028
"40592",555.0817,79.24437,140.11414
"40593",555.09503,78.99046,139.83661
"40594",555.10834,78.76097,139.57556
"40595",555.12164,78.57053,139.3464
"40596",555.13495,78.416725,139.14792
"40597",555.14825,78.2971,138.9788
"40598",555.16156,78.20676,138.83525
"40599",555.17487,78.14328,138.71573
"40600",555.1882,78.09689,138.61131
"40601",555.2015,78.06271,138.51765
"40602",555.2148,78.0383,138.4327
"40603",555.2281,78.02365,138.35674
"40604",555.2414,78.01633,138.28764
"40605",555.2547,78.02121,138.23053
"40606",555.268,78.03342,138.1809
"40607",555.2813,78.05295,138.13896
"40608",555.2946,78.07492,138.10008
"40609",555.3079,78.09201,138.057
"40610",555.3212,78.099335,138.0047
"40611",555.33453,78.11398,137.95995
"40612",555.34784,78.1799,137.96692
"40613",555.36115,78.39231,138.12245
"40614",555.37445,78.853745,138.53365
"40615",555.38776,79.61303,139.25711
"40616",555.40106,80.635994,140.26797
"40617",555.41437,81.79324,141.4451
"40618",555.4277,82.88945,142.59735
"40619",555.441,83.73174,143.52994
"40620",555.4543,84.19562,144.11043
"40621",555.4676,84.27131,144.31723
"40622",555.4809,84.02472,144.20412
"40623",555.4942,83.57549,143.88066
"40624",555.5075,83.04326,143.46016
"40625",555.5208,82.52567,143.03767
"40626",555.5341,82.08865,142.67958
"40627",555.5474,81.76883,142.42503
"40628",555.5607,81.55642,142.2679
"40629",555.57404,81.43191,142.19203
"40630",555.58734,81.35378,142.15866
"40631",555.60065,81.27566,142.12285
"40632",555.61395,81.18532,142.07237
"40633",555.62726,81.08034,142.00444
"40634",555.64056,80.98512,141.943
"40635",555.6539,80.92653,141.91519
"40636",555.6672,80.921646,141.93927
"40637",555.6805,80.96559,142.01202
"40638",555.6938,81.03639,142.113
"40639",555.7071,81.094986,142.204
"40640",555.7204,81.112076,142.25531
"40641",555.7337,81.058365,142.23636
"40642",555.747,80.92653,142.1376
"40643",555.7603,80.73121,141.97124
"40644",555.7736,80.482185,141.74507
"40645",555.7869,80.2063,141.48425
"40646",555.80023,79.92798,141.21237
"40647",555.81354,79.66186,140.944
"40648",555.82684,79.42016,140.69173
"40649",555.84015,79.19798,140.45143
"40650",555.85345,79.00023,140.2286
"40651",555.86676,78.82689,140.02402
"40652",555.88007,78.67307,139.83354
"40653",555.8934,78.538795,139.65779
"40654",555.9067,78.42649,139.49982
"40655",555.92,78.33616,139.3603
"40656",555.9333,78.26536,139.2375
"40657",555.9466,78.21408,139.13202
"40658",555.9599,78.17502,139.03714
"40659",555.9732,78.150604,138.95569
"40660",555.9865,78.12619,138.87347
"40661",555.9998,78.10422,138.79294
"40662",556.0131,78.08469,138.71416
"40663",556.0264,78.06271,138.63232
"40664",556.03973,78.03586,138.54492
"40665",556.05304,77.99924,138.44691
"40666",556.06635,77.95773,138.34288
"40667",556.07965,77.91379,138.2351
"40668",556.09296,77.90158,138.1577
"40669",556.10626,77.996796,138.18733
"40670",556.11957,78.30442,138.43236
"40671",556.1329,78.90257,138.97752
"40672",556.1462,79.79614,139.83679
"40673",556.1595,80.88991,140.9242
"40674",556.1728,82.020294,142.0824
"40675",556.1861,82.98711,143.11235
"40676",556.1994,83.6292,143.8478
"40677",556.2127,83.878235,144.21024
"40678",556.226,83.76837,144.22157
"40679",556.2393,83.387505,143.95847
"40680",556.2526,82.85527,143.53209
"40681",556.2659,82.28153,143.04758
"40682",556.27924,81.74929,142.58664
"40683",556.29254,81.322044,142.21407
"40684",556.30585,81.0193,141.95264
"40685",556.31915,80.831314,141.79651
"40686",556.33246,80.72144,141.71262
"40687",556.34576,80.64576,141.65948
"40688",556.3591,80.57496,141.60887
"40689",556.3724,80.49439,141.54628
"40690",556.3857,80.42359,141.49094
"40691",556.399,80.38209,141.46268
"40692",556.4123,80.39185,141.48439
"40693",556.4256,80.46021,141.565
"40694",556.4389,80.567635,141.68681
"40695",556.4522,80.6775,141.81442
"40696",556.4655,80.7483,141.9064
"40697",556.4788,80.75319,141.93468
"40698",556.4921,80.67994,141.88496
"40699",556.50543,80.52613,141.75241
"40700",556.51874,80.31129,141.55402
"40701",556.53204,80.05737,141.30983
"40702",556.54535,79.78882,141.04306
"40703",556.55865,79.51537,140.76302
"40704",556.57196,79.259026,140.49152
"40705",556.58527,79.027084,140.23642
"40706",556.5986,78.819565,139.99849
"40707",556.6119,78.641335,139.78337
"40708",556.6252,78.49485,139.59442
"40709",556.6385,78.37278,139.42531
"40710",556.6518,78.27512,139.2768
"40711",556.6651,78.19699,139.14476
"40712",556.6784,78.135956,139.02737
"40713",556.6917,78.08957,138.92273
"40714",556.705,78.05539,138.82884
"40715",556.7183,78.03342,138.7461
"40716",556.7316,78.02365,138.67487
"40717",556.74493,78.02365,138.6131
"40718",556.75824,78.02121,138.54889
"40719",556.77155,78.011444,138.47728
"40720",556.78485,77.994354,138.39804
"40721",556.79816,77.9675,138.3085
"40722",556.81146,77.9382,138.21568
"40723",556.82477,77.91867,138.13171
"40724",556.8381,77.943085,138.09108
"40725",556.8514,78.09201,138.17572
"40726",556.8647,78.46311,138.4872
"40727",556.878,79.12962,139.10568
"40728",556.8913,80.07446,140.02332
"40729",556.9046,81.197525,141.14871
"40730",556.9179,82.320595,142.3092
"40731",556.9312,83.24101,143.30214
"40732",556.9445,83.81232,143.97473
"40733",556.9578,83.9881,144.26965
"40734",556.9711,83.81232,144.2185
"40735",556.98444,83.38506,143.91039
"40736",556.99774,82.82109,143.4522
"40737",557.01105,82.22293,142.9422
"40738",557.02435,81.671165,142.4599
"40739",557.03766,81.21706,142.05801
"40740",557.05096,80.8777,141.7567
"40741",557.0643,80.64576,141.55219
"40742",557.0776,80.48463,141.41124
"40743",557.0909,80.35279,141.29456
"40744",557.1042,80.24292,141.19571
"40745",557.1175,80.147705,141.1081
"40746",557.1308,80.09155,141.05655
"40747",557.1441,80.1062,141.07407
"40748",557.1574,80.201416,141.1726
"40749",557.1707,80.365,141.34248
"40750",557.184,80.55787,141.54677
"40751",557.1973,80.73365,141.73999
"40752",557.21063,80.848404,141.87767
"40753",557.22394,80.87282,141.9286
"40754",557.23724,80.80202,141.88509
"40755",557.25055,80.638435,141.74657
"40756",557.26385,80.40406,141.53215
"40757",557.27716,80.11841,141.25912
"40758",557.29047,79.81079,140.9552
"40759",557.3038,79.51293,140.65143
"40760",557.3171,79.234604,140.35788
"40761",557.3304,78.99046,140.08981
"40762",557.3437,78.78294,139.85074
"40763",557.357,78.60227,139.63203
"40764",557.3703,78.45335,139.43942
"40765",557.3836,78.33616,139.2739
"40766",557.3969,78.24338,139.12912
"40767",557.4102,78.17258,139.00342
"40768",557.4235,78.12131,138.89503
"40769",557.4368,78.07736,138.79237
"40770",557.45013,78.03586,138.69078
"40771",557.46344,77.99191,138.58545
"40772",557.47675,77.95285,138.48363
"40773",557.49005,77.925995,138.39279
"40774",557.50336,77.95041,138.35239
"40775",557.51666,78.10422,138.44214
"40776",557.52997,78.485085,138.76376
"40777",557.5433,79.16136,139.3927
"40778",557.5566,80.12573,140.33086
"40779",557.5699,81.2781,141.48715
"40780",557.5832,82.44999,142.69899
"40781",557.5965,83.43633,143.7619
"40782",557.6098,84.08331,144.51627
"40783",557.6231,84.332344,144.8929
"40784",557.6364,84.21759,144.91353
"40785",557.6497,83.824524,144.65227
"40786",557.663,83.267876,144.21513
"40787",557.67633,82.65507,143.70445
"40788",557.68964,82.07645,143.2088
"40789",557.70294,81.5906,142.78784
"40790",557.71625,81.2195,142.46645
"40791",557.72955,80.96315,142.24821
"40792",557.74286,80.782486,142.09766
"40793",557.75616,80.638435,141.97806
"40794",557.7695,80.50172,141.8613
"40795",557.7828,80.36988,141.74515
"40796",557.7961,80.257576,141.64441
"40797",557.8094,80.20386,141.59874
"40798",557.8227,80.22339,141.62463
"40799",557.836,80.32105,141.72928
"40800",557.8493,80.46998,141.88824
"40801",557.8626,80.62867,142.06163
"40802",557.8759,80.75319,142.2058
"40803",557.8892,80.80934,142.28549
"40804",557.9025,80.7776,142.27905
"40805",557.91583,80.65308,142.17883
"40806",557.92914,80.45045,141.99661
"40807",557.94244,80.18677,141.74701
"40808",557.95575,79.89624,141.46231
"40809",557.96906,79.603264,141.16609
"40810",557.98236,79.327385,140.8778
"40811",557.99567,79.08324,140.61264
"40812",558.009,78.870834,140.37158
"40813",558.0223,78.69749,140.16295
"40814",558.0356,78.551,139.97575
"40815",558.0489,78.4387,139.81816
"40816",558.0622,78.345924,139.67659
"40817",558.0755,78.27268,139.55165
"40818",558.0888,78.20676,139.43175
"40819",558.1021,78.14816,139.31711
"40820",558.1154,78.08713,139.1982
"40821",558.1287,78.02365,139.07494
"40822",558.142,77.962616,138.95213
"40823",558.15533,77.90646,138.8323
"40824",558.16864,77.857635,138.71805
"40825",558.18195,77.8259,138.61935
"40826",558.19525,77.85031,138.57582
"40827",558.20856,78.00656,138.66489
"40828",558.22186,78.40696,139.00299
"40829",558.23517,79.13451,139.68076
"40830",558.2485,80.19653,140.71573
"40831",558.2618,81.495384,142.02072
"40832",558.2751,82.847946,143.42001
"40833",558.2884,84.03937,144.70044
"40834",558.3017,84.893875,145.68118
"40835",558.315,85.330894,146.27113
"40836",558.3283,85.367516,146.47435
"40837",558.3416,85.08186,146.35643
"40838",558.3549,84.58381,146.01718
"40839",558.3682,83.97589,145.5525
"40840",558.38153,83.34844,145.0493
"40841",558.39484,82.76982,144.57532
"40842",558.40814,82.28886,144.18091
"40843",558.42145,81.91531,143.87889
"40844",558.43475,81.634544,143.65797
"40845",558.44806,81.42458,143.4991
"40846",558.46136,81.253685,143.37273
"40847",558.4747,81.09743,143.25565
"40848",558.488,80.95827,143.15079
"40849",558.5013,80.85817,143.08064
"40850",558.5146,80.81178,143.06108
"40851",558.5279,80.82887,143.10355
"40852",558.5412,80.90456,143.20514
"40853",558.5545,81.007095,143.33595
"40854",558.5678,81.09987,143.4602
"40855",558.5811,81.146255,143.54097
"40856",558.5944,81.1194,143.54994
"40857",558.6077,81.01198,143.47751
"40858",558.62103,80.82155,143.31871
"40859",558.63434,80.56275,143.08559
"40860",558.64764,80.255135,142.79556
"40861",558.66095,79.93042,142.47882
"40862",558.67426,79.603264,142.14949
"40863",558.68756,79.28588,141.8197
"40864",558.70087,78.99046,141.50197
"40865",558.7142,78.72434,141.2043
"40866",558.7275,78.48264,140.92273
"40867",558.7408,78.27024,140.6629
"40868",558.7541,78.08469,140.4233
"40869",558.7674,77.93088,140.20963
"40870",558.7807,77.79904,140.01312
"40871",558.794,77.68917,139.83447
"40872",558.8073,77.5964,139.66948
"40873",558.8206,77.51583,139.5138
"40874",558.8339,77.44503,139.36536
"40875",558.8472,77.39864,139.23912
"40876",558.86053,77.40353,139.1627
"40877",558.87384,77.54757,139.2256
"40878",558.88715,77.9382,139.5396
"40879",558.90045,78.658424,140.19539
"40880",558.91376,79.71313,141.20816
"40881",558.92706,81.00954,142.4956
"40882",558.94037,82.354774,143.87239
"40883",558.9537,83.526665,145.11787
"40884",558.967,84.34455,146.04597
"40885",558.9803,84.72785,146.56505
"40886",558.9936,84.701,146.68594
"40887",559.0069,84.349434,146.4813
"40888",559.0202,83.78546,146.05324
"40889",559.0335,83.123825,145.5099
"40890",559.0468,82.45487,144.93857
"40891",559.0601,81.84451,144.40492
"40892",559.0734,81.33425,143.9523
"40893",559.08673,80.921646,143.58139
"40894",559.10004,80.59205,143.2806
"40895",559.11334,80.306404,143.01346
"40896",559.12665,80.05005,142.76668
"40897",559.13995,79.818115,142.53632
"40898",559.15326,79.635,142.34752
"40899",559.16656,79.5227,142.2238
"40900",559.1799,79.51049,142.19667
"40901",559.1932,79.59106,142.26193
"40902",559.2065,79.744865,142.40295
"40903",559.2198,79.92554,142.57565
"40904",559.2331,80.08667,142.73447
"40905",559.2464,80.184326,142.83484
"40906",559.2597,80.19409,142.85037
"40907",559.273,80.10132,142.76367
"40908",559.2863,79.91333,142.57886
"40909",559.2996,79.64721,142.31003
"40910",559.3129,79.33471,141.9865
"40911",559.32623,79.00023,141.63123
"40912",559.33954,78.67063,141.27039
"40913",559.35284,78.36057,140.91878
"40914",559.36615,78.07248,140.57945
"40915",559.37946,77.81125,140.25798
"40916",559.39276,77.56954,139.94788
"40917",559.40607,77.349815,139.65219
"40918",559.4194,77.15694,139.3765
"40919",559.4327,76.995804,139.12651
"40920",559.446,76.86641,138.90323
"40921",559.4593,76.76387,138.70276
"40922",559.4726,76.68574,138.5235
"40923",559.4859,76.629585,138.36377
"40924",559.4992,76.61494,138.24379
"40925",559.5125,76.69062,138.21368
"40926",559.5258,76.95918,138.37883
"40927",559.5391,77.523155,138.84778
"40928",559.5524,78.433815,139.68103
"40929",559.56573,79.64721,140.84547
"40930",559.57904,81.024185,142.21143
"40931",559.59235,82.357216,143.57646
"40932",559.60565,83.438774,144.73169
"40933",559.61896,84.1297,145.53008
"40934",559.63226,84.386055,145.91548
"40935",559.64557,84.24933,145.91582
"40936",559.6589,83.8172,145.61649
"40937",559.6722,83.192184,145.11076
"40938",559.6855,82.4744,144.49274
"40939",559.6988,81.75174,143.8474
"40940",559.7121,81.0901,143.24051
"40941",559.7254,80.51881,142.70328
"40942",559.7387,80.045166,142.24585
"40943",559.752,79.66186,141.86395
"40944",559.7653,79.34692,141.53844
"40945",559.7786,79.097885,141.269
"40946",559.79193,78.92943,141.07234
"40947",559.80524,78.86351,140.97296
"40948",559.81854,78.91478,140.98871
"40949",559.83185,79.08324,141.12325
"40950",559.84515,79.33959,141.35095
"40951",559.85846,79.62524,141.61595
"40952",559.87177,79.886475,141.86548
"40953",559.8851,80.07446,142.04993
"40954",559.8984,80.15991,142.1377
"40955",559.9117,80.1355,142.11829
"40956",559.925,80.008545,141.99557
"40957",559.9383,79.798584,141.78589
"40958",559.9516,79.52758,141.50859
"40959",559.9649,79.22728,141.19353
"40960",559.9782,78.924545,140.86664
"40961",559.9915,78.63401,140.5425
"40962",560.0048,78.365456,140.23125
"40963",560.0181,78.12619,139.9409
"40964",560.03143,77.91379,139.66994
"40965",560.04474,77.71603,139.40698
"40966",560.05804,77.53292,139.1525
"40967",560.07135,77.366905,138.90938
"40968",560.08466,77.23018,138.69037
"40969",560.09796,77.14717,138.5208
"40970",560.11127,77.18623,138.4707
"40971",560.1246,77.44503,138.64157
"40972",560.1379,78.028534,139.14523
"40973",560.1512,78.98558,140.04066
"40974",560.1645,80.26246,141.28584
"40975",560.1778,81.71267,142.74426
"40976",560.1911,83.1165,144.20161
"40977",560.2044,84.25422,145.43672
"40978",560.2177,84.972,146.28745
"40979",560.231,85.22835,146.69917
"40980",560.2443,85.06966,146.70387
"40981",560.2576,84.6009,146.39354
"40982",560.27094,83.93927,145.87569
"40983",560.28424,83.19707,145.25659
"40984",560.29755,82.4622,144.62163
"40985",560.31085,81.80301,144.03938
"40986",560.32416,81.23659,143.52931
"40987",560.33746,80.77028,143.10165
"40988",560.35077,80.37476,142.73021
"40989",560.3641,80.03296,142.40012
"40990",560.3774,79.74731,142.1155
"40991",560.3907,79.537346,141.89763
"40992",560.404,79.429924,141.77574
"40993",560.4173,79.449455,141.77745
"40994",560.4306,79.59106,141.90184
"40995",560.4439,79.815674,142.11368
"40996",560.4572,80.062256,142.35449
"40997",560.4705,80.2649,142.55908
"40998",560.4838,80.377205,142.67967
"40999",560.49713,80.377205,142.69147
"41000",560.51044,80.257576,142.58363
"41001",560.52374,80.042725,142.37683
"41002",560.53705,79.75952,142.09497
"41003",560.55035,79.44213,141.77007
"41004",560.56366,79.11742,141.42792
"41005",560.57697,78.802475,141.08539
"41006",560.5903,78.5095,140.75499
"41007",560.6036,78.24338,140.44229
"41008",560.6169,78.00168,140.14569
"41009",560.6302,77.78439,139.86595
"41010",560.6435,77.58663,139.59895
"41011",560.6568,77.41085,139.34775
"41012",560.6701,77.25948,139.11546
"41013",560.6834,77.154495,138.92484
"41014",560.6967,77.16182,138.84323
"41015",560.71,77.39132,138.98404
"41016",560.7233,77.95773,139.46893
"41017",560.73663,78.89281,140.34018
"41018",560.74994,80.13306,141.54582
"41019",560.76324,81.514915,142.93184
"41020",560.77655,82.811325,144.27559
"41021",560.78986,83.80499,145.35712
"41022",560.80316,84.368965,146.04
"41023",560.81647,84.491035,146.2986
"41024",560.8298,84.244446,146.19235
"41025",560.8431,83.736626,145.81717
"41026",560.8564,83.09209,145.2894
"41027",560.8697,82.41337,144.7073
"41028",560.883,81.778595,144.14795
"41029",560.8963,81.234146,143.65909
"41030",560.9096,80.79469,143.25821
"41031",560.9229,80.43824,142.92659
"41032",560.9362,80.1355,142.63754
"41033",560.9495,79.86206,142.36835
"41034",560.9628,79.62524,142.12721
"41035",560.97614,79.432365,141.92262
"41036",560.98944,79.32006,141.79257
"41037",561.00275,79.30297,141.75423
"41038",561.01605,79.38354,141.813
"41039",561.02936,79.52758,141.93777
"41040",561.04266,79.691154,142.08658
"41041",561.05597,79.82056,142.20633
"41042",561.0693,79.87671,142.25687
"41043",561.0826,79.835205,142.21152
"41044",561.0959,79.68871,142.05988
"41045",561.1092,79.45678,141.8182
"41046",561.1225,79.168686,141.51314
"41047",561.1358,78.8513,141.16977
"41048",561.1491,78.53147,140.81404
"41049",561.1624,78.23605,140.47273
"41050",561.1757,77.96994,140.15149
"41051",561.189,77.733116,139.85123
"41052",561.20233,77.523155,139.57042
"41053",561.21564,77.332726,139.30258
"41054",561.22894,77.16426,139.05077
"41055",561.24225,77.00313,138.80101
"41056",561.25555,76.84932,138.55354
"41057",561.26886,76.71259,138.31836
"41058",561.28217,76.61738,138.1204
"41059",561.2955,76.6247,138.02202
"41060",561.3088,76.841995,138.13383
"41061",561.3221,77.37667,138.56982
"41062",561.3354,78.27024,139.38141
"41063",561.3487,79.466545,140.52365
"41064",561.362,80.799576,141.84001
"41065",561.3753,82.04959,143.11502
"41066",561.3886,83.004196,144.13368
"41067",561.4019,83.53643,144.7598
"41068",561.4152,83.63409,144.96797
"41069",561.4285,83.3753,144.82275
"41070",561.44183,82.879684,144.43262
"41071",561.45514,82.266884,143.9098
"41072",561.46844,81.636986,143.35075
"41073",561.48175,81.06569,142.83061
"41074",561.49506,80.59937,142.3976
"41075",561.50836,80.24048,142.05743
"41076",561.52167,79.971924,141.79639
"41077",561.535,79.76196,141.58554
"41078",561.5483,79.58129,141.39743
"41079",561.5616,79.415276,141.21832
"41080",561.5749,79.27123,141.056
"41081",561.5882,79.18089,140.94289
"41082",561.6015,79.15648,140.89287
"41083",561.6148,79.20775,140.91777
"41084",561.6281,79.31518,141.00044
"41085",561.6414,79.44213,141.10599
"41086",561.6547,79.54467,141.19109
"41087",561.668,79.58373,141.21591
"41088",561.68134,79.53979,141.15895
"41089",561.69464,79.40795,141.01273
"41090",561.70795,79.200424,140.7867
"41091",561.72125,78.93919,140.50047
"41092",561.73456,78.65354,140.18167
"41093",561.74786,78.37034,139.85638
"41094",561.76117,78.10666,139.54178
"41095",561.7745,77.88449,139.26044
"41096",561.7878,77.70382,139.01366
"41097",561.8011,77.557335,138.79541
"41098",561.8144,77.437706,138.59944
"41099",561.8277,77.330284,138.41194
"41100",561.841,77.22774,138.22597
"41101",561.8543,77.13252,138.04411
"41102",561.8676,77.03731,137.85928
"41103",561.8809,76.95186,137.68124
"41104",561.8942,76.88594,137.52007
"41105",561.90753,76.8542,137.391
"41106",561.92084,76.90059,137.33908
"41107",561.93414,77.11055,137.45218
"41108",561.94745,77.593956,137.84529
"41109",561.96075,78.39475,138.57089
"41110",561.97406,79.46166,139.58763
"41111",561.98737,80.65797,140.7671
"41112",562.0007,81.78348,141.91318
"41113",562.014,82.62821,142.81364
"41114",562.0273,83.072556,143.34012
"41115",562.0406,83.106735,143.47032
"41116",562.0539,82.80888,143.26956
"41117",562.0672,82.29862,142.84708
"41118",562.0805,81.69802,142.31831
"41119",562.0938,81.09743,141.77078
"41120",562.1071,80.570076,141.27773
"41121",562.1204,80.15015,140.87561
"41122",562.1337,79.84497,140.57513
"41123",562.14703,79.639885,140.3652
"41124",562.16034,79.50317,140.21722
"41125",562.17365,79.395744,140.09427
"41126",562.18695,79.310295,139.98993
"41127",562.20026,79.24681,139.90489
"41128",562.21356,79.22972,139.86426
"41129",562.22687,79.276115,139.88658
"41130",562.2402,79.3933,139.98114
"41131",562.2535,79.55932,140.12819
"41132",562.2668,79.73266,140.28775
"41133",562.2801,79.85962,140.40636
"41134",562.2934,79.906006,140.44836
"41135",562.3067,79.84741,140.38684
"41136",562.32,79.691154,140.22581
"41137",562.3333,79.4519,139.9769
"41138",562.3466,79.15892,139.6668
"41139",562.3599,78.84398,139.32556
"41140",562.3732,78.536354,138.98181
"41141",562.38654,78.25071,138.65042
"41142",562.39984,78.00168,138.34673
"41143",562.41315,77.78439,138.06699
"41144",562.42645,77.60616,137.81952
"41145",562.43976,77.45724,137.59578
"41146",562.45306,77.33761,137.39668
"41147",562.4664,77.239944,137.21582
"41148",562.4797,77.1667,137.05632
"41149",562.493,77.11299,136.91406
"41150",562.5063,77.07149,136.78233
"41151",562.5196,77.03975,136.65907
"41152",562.5329,77.02754,136.55435
"41153",562.5462,77.07149,136.5054
"41154",562.5595,77.24971,136.5921
"41155",562.5728,77.659874,136.91632
"41156",562.5861,78.365456,137.54877
"41157",562.5994,79.33715,138.46938
"41158",562.61273,80.445564,139.55707
"41159",562.62604,81.495384,140.62082
"41160",562.63934,82.29618,141.46835
"41161",562.65265,82.71366,141.9576
"41162",562.66595,82.718544,142.04729
"41163",562.67926,82.391396,141.8051
"41164",562.69257,81.846954,141.33539
"41165",562.7059,81.214615,140.76077
"41166",562.7192,80.59205,140.17616
"41167",562.7325,80.05737,139.65999
"41168",562.7458,79.64477,139.24918
"41169",562.7591,79.361565,138.95486
"41170",562.7724,79.1931,138.76645
"41171",562.7857,79.097885,138.64601
"41172",562.799,79.046616,138.56654
"41173",562.8123,79.01732,138.50745
"41174",562.8256,79.0222,138.48161
"41175",562.8389,79.08568,138.51453
"41176",562.85223,79.2224,138.62267
"41177",562.86554,79.429924,138.8059
"41178",562.87885,79.68871,139.04686
"41179",562.89215,79.94751,139.29593
"41180",562.90546,80.15259,139.49936
"41181",562.91876,80.26734,139.61888
"41182",562.93207,80.27711,139.63701
"41183",562.9454,80.181885,139.55045
"41184",562.9587,80.0061,139.38034
"41185",562.972,79.77417,139.14859
"41186",562.9853,79.520256,138.88762
"41187",562.9986,79.27123,138.6236
"41188",563.0119,79.046616,138.3762
"41189",563.0252,78.85863,138.15842
"41190",563.0385,78.70481,137.96893
"41191",563.0518,78.58518,137.80882
"41192",563.0651,78.485085,137.6645
"41193",563.0784,78.40696,137.53903
"41194",563.09174,78.348366,137.43065
"41195",563.10504,78.30198,137.33264
"41196",563.11835,78.2678,137.24539
"41197",563.13165,78.24582,137.16928
"41198",563.14496,78.24338,137.11201
"41199",563.15826,78.30442,137.11816
"41200",563.1716,78.5095,137.27025
"41201",563.1849,78.958725,137.6729
"41202",563.1982,79.69848,138.38011
"41203",563.2115,80.6775,139.3497
"41204",563.2248,81.75174,140.44511
"41205",563.2381,82.720985,141.4691
"41206",563.2514,83.389946,142.2231
"41207",563.2647,83.64629,142.58539
"41208",563.278,83.49981,142.55286
"41209",563.2913,83.0457,142.20811
"41210",563.3046,82.42069,141.67828
"41211",563.31793,81.75418,141.08742
"41212",563.33124,81.14137,140.52943
"41213",563.34454,80.64576,140.06949
"41214",563.35785,80.289314,139.73323
"41215",563.37115,80.062256,139.51521
"41216",563.38446,79.92798,139.38287
"41217",563.39777,79.84741,139.30005
"41218",563.4111,79.79126,139.23914
"41219",563.4244,79.75708,139.19843
"41220",563.4377,79.7522,139.18594
"41221",563.451,79.79614,139.22214
"41222",563.4643,79.906006,139.32562
"41223",563.4776,80.06958,139.48627
"41224",563.4909,80.255135,139.674
"41225",563.5042,80.42603,139.85287
"41226",563.5175,80.53834,139.9785
"41227",563.5308,80.56519,140.02219
"41228",563.5441,80.49439,139.96906
"41229",563.55743,80.3357,139.82582
"41230",563.57074,80.1062,139.60681
"41231",563.58405,79.84253,139.34647
"41232",563.59735,79.569084,139.0681
"41233",563.61066,79.31518,138.80072
"41234",563.62396,79.08812,138.55226
"41235",563.63727,78.90013,138.33577
"41236",563.6506,78.75365,138.1549
"41237",563.6639,78.64622,138.00853
"41238",563.6772,78.56809,137.88809
"41239",563.6905,78.51682,137.79207
"41240",563.7038,78.485085,137.71397
"41241",563.7171,78.46311,137.64465
"41242",563.7304,78.44846,137.58197
"41243",563.7437,78.44114,137.52615
"41244",563.757,78.43626,137.47255
"41245",563.7703,78.433815,137.42123
"41246",563.7836,78.4387,137.37717
"41247",563.79694,78.48997,137.37964
"41248",563.81024,78.66819,137.51067
"41249",563.82355,79.07591,137.87677
"41250",563.83685,79.77417,138.54614
"41251",563.85016,80.73853,139.50345
"41252",563.86346,81.846954,140.63495
"41253",563.8768,82.90654,141.75226
"41254",563.8901,83.70733,142.64388
"41255",563.9034,84.11749,143.16989
"41256",563.9167,84.11017,143.29124
"41257",563.93,83.76105,143.07057
"41258",563.9433,83.194626,142.62169
"41259",563.9566,82.54032,142.06721
"41260",563.9699,81.90555,141.51183
"41261",563.9832,81.36843,141.03426
"41262",563.9965,80.96559,140.67418
"41263",564.0098,80.706795,140.44556
"41264",564.02313,80.56519,140.32605
"41265",564.03644,80.499275,140.2778
"41266",564.04974,80.46021,140.25435
"41267",564.06305,80.42115,140.22968
"41268",564.07635,80.377205,140.1989
"41269",564.08966,80.343025,140.17651
"41270",564.10297,80.343025,140.18724
"41271",564.1163,80.39185,140.2468
"41272",564.1296,80.49195,140.35915
"41273",564.1429,80.61646,140.49904
"41274",564.1562,80.72877,140.63062
"41275",564.1695,80.799576,140.7242
"41276",564.1828,80.80446,140.75407
"41277",564.1961,80.73365,140.7084
"41278",564.2094,80.59449,140.59218
"41279",564.2227,80.396736,140.41301
"41280",564.236,80.16724,140.1959
"41281",564.2493,79.92554,139.95944
"41282",564.26263,79.68627,139.71785
"41283",564.27594,79.46899,139.49075
"41284",564.28925,79.28588,139.29105
"41285",564.30255,79.13939,139.12224
"41286",564.31586,79.029526,138.98547
"41287",564.32916,78.94896,138.87457
"41288",564.34247,78.890366,138.78313
"41289",564.3558,78.84642,138.7045
"41290",564.3691,78.8098,138.63182
"41291",564.3824,78.77806,138.56288
"41292",564.3957,78.75853,138.50516
"41293",564.409,78.751205,138.45903
"41294",564.4223,78.75609,138.42488
"41295",564.4356,78.77074,138.40065
"41296",564.4489,78.79515,138.38664
"41297",564.4622,78.82445,138.37828
"41298",564.4755,78.853745,138.37083
"41299",564.48883,78.87572,138.35698
"41300",564.50214,78.890366,138.33649
"41301",564.51544,78.890366,138.3018
"41302",564.52875,78.87816,138.25491
"41303",564.54205,78.853745,138.19543
"41304",564.55536,78.83177,138.13763
"41305",564.56866,78.870834,138.14018
"41306",564.582,79.07591,138.30997
"41307",564.5953,79.54467,138.74985
"41308",564.6086,80.323494,139.51443
"41309",564.6219,81.356224,140.55728
"41310",564.6352,82.48417,141.72762
"41311",564.6485,83.4876,142.80869
"41312",564.6618,84.16876,143.59883
"41313",564.6751,84.43,143.99034
"41314",564.6884,84.2884,143.98718
"41315",564.7017,83.8465,143.67929
"41316",564.715,83.23857,143.19157
"41317",564.72833,82.58915,142.64336
"41318",564.74164,81.988556,142.12367
"41319",564.75494,81.50027,141.69753
"41320",564.76825,81.15114,141.39528
"41321",564.78156,80.938736,141.21886
"41322",564.79486,80.8362,141.14566
"41323",564.80817,80.797134,141.13274
"41324",564.8215,80.77516,141.13568
"41325",564.8348,80.740974,141.12572
"41326",564.8481,80.69459,141.1025
"41327",564.8614,80.65064,141.08026
"41328",564.8747,80.635994,141.08595
"41329",564.888,80.67506,141.1449
"41330",564.9013,80.76051,141.25145
"41331",564.9146,80.86061,141.37532
"41332",564.9279,80.94362,141.48523
"41333",564.9412,80.9778,141.5489
"41334",564.9545,80.94362,141.54529
"41335",564.96783,80.84108,141.47224
"41336",564.98114,80.6775,141.33495
"41337",564.99445,80.47486,141.15349
"41338",565.00775,80.2478,140.94127
"41339",565.02106,80.01831,140.71951
"41340",565.03436,79.79614,140.49792
"41341",565.04767,79.60082,140.29623
"41342",565.061,79.429924,140.11285
"41343",565.0743,79.28588,139.95099
"41344",565.0876,79.166245,139.80904
"41345",565.1009,79.07347,139.6902
"41346",565.1142,79.00511,139.59288
"41347",565.1275,78.958725,139.5154
"41348",565.1408,78.92943,139.45355
"41349",565.1541,78.91234,139.403
"41350",565.1674,78.90013,139.3568
"41351",565.1807,78.890366,139.31265
"41352",565.19403,78.887924,139.27553
"41353",565.20734,78.89281,139.24565
"41354",565.22064,78.907455,139.2257
"41355",565.23395,78.92699,139.21107
"41356",565.24725,78.94896,139.19951
"41357",565.26056,78.96605,139.18375
"41358",565.27386,78.96849,139.15387
"41359",565.2872,78.95384,139.10698
"41360",565.3005,78.924545,139.04498
"41361",565.3138,78.88548,138.9723
"41362",565.3271,78.839096,138.89108
"41363",565.3404,78.80492,138.82062
"41364",565.3537,78.82933,138.80768
"41365",565.367,78.995346,138.9371
"41366",565.3803,79.40795,139.31831
"41367",565.3936,80.11597,140.00783
"41368",565.4069,81.06813,140.96362
"41369",565.4202,82.13748,142.06636
"41370",565.43353,83.123825,143.1195
"41371",565.44684,83.83917,143.93248
"41372",565.46014,84.16388,144.37717
"41373",565.47345,84.09552,144.43893
"41374",565.48676,83.71221,144.18361
"41375",565.50006,83.12871,143.71611
"41376",565.51337,82.46708,143.15225
"41377",565.5267,81.815216,142.57748
"41378",565.54,81.24635,142.06535
"41379",565.5533,80.797134,141.65509
"41380",565.5666,80.482185,141.36505
"41381",565.5799,80.27955,141.17749
"41382",565.5932,80.15503,141.0617
"41383",565.6065,80.07202,140.98355
"41384",565.6198,80.01099,140.92477
"41385",565.6331,79.96948,140.8836
"41386",565.6464,79.95972,140.8729
"41387",565.6597,79.99634,140.90826
"41388",565.67303,80.093994,141.0058
"41389",565.68634,80.24292,141.15765
"41390",565.69965,80.40894,141.33127
"41391",565.71295,80.55543,141.49054
"41392",565.72626,80.64576,141.59824
"41393",565.73956,80.66041,141.63307
"41394",565.75287,80.58961,141.58292
"41395",565.7662,80.4358,141.44754
"41396",565.7795,80.22583,141.25119
"41397",565.7928,79.97925,141.01166
"41398",565.8061,79.72289,140.75465
"41399",565.8194,79.47143,140.49452
"41400",565.8327,79.23216,140.23874
"41401",565.846,79.01976,140.00233
"41402",565.8593,78.84154,139.79347
"41403",565.8726,78.70237,139.6181
"41404",565.8859,78.607155,139.48233
"41405",565.89923,78.54856,139.3802
"41406",565.91254,78.51194,139.29822
"41407",565.92584,78.48997,139.22974
"41408",565.93915,78.467995,139.16057
"41409",565.95245,78.44846,139.09315
"41410",565.96576,78.43137,139.02757
"41411",565.97906,78.41428,138.96146
"41412",565.9924,78.399635,138.89725
"41413",566.0057,78.380104,138.8277
"41414",566.019,78.35813,138.7551
"41415",566.0323,78.3386,138.68425
"41416",566.0456,78.35325,138.64697
"41417",566.0589,78.470436,138.71269
"41418",566.0722,78.77318,138.96764
"41419",566.0855,79.327385,139.4835
"41420",566.0988,80.130615,140.26572
"41421",566.1121,81.09987,141.23904
"41422",566.1254,82.074005,142.24756
"41423",566.13873,82.8748,143.11317
"41424",566.15204,83.35577,143.68398
"41425",566.16534,83.46807,143.90115
"41426",566.17865,83.24834,143.7898
"41427",566.19196,82.78691,143.42989
"41428",566.20526,82.193634,142.9237
"41429",566.21857,81.56863,142.36725
"41430",566.2319,80.98512,141.83276
"41431",566.2452,80.49195,141.37038
"41432",566.2585,80.111084,141.00488
"41433",566.2718,79.84253,140.7398
"41434",566.2851,79.656975,140.54933
"41435",566.2984,79.517815,140.39944
"41436",566.3117,79.40795,140.2745
"41437",566.325,79.32494,140.17299
"41438",566.3383,79.28588,140.11282
"41439",566.3516,79.3225,140.12712
"41440",566.3649,79.45922,140.24266
"41441",566.37823,79.69604,140.46257
"41442",566.39154,80.00122,140.75826
"41443",566.40485,80.323494,141.08057
"41444",566.41815,80.59937,141.36656
"41445",566.43146,80.78493,141.57085
"41446",566.44476,80.85573,141.66618
"41447",566.45807,80.8069,141.6441
"41448",566.4714,80.65797,141.52039
"41449",566.4847,80.44068,141.32367
"41450",566.498,80.181885,141.07864
"41451",566.5113,79.906006,140.80844
"41452",566.5246,79.63256,140.53206
"41453",566.5379,79.37621,140.26422
"41454",566.5512,79.151596,140.02011
"41455",566.5645,78.96361,139.8056
"41456",566.5778,78.82933,139.63893
"41457",566.5911,78.73899,139.51201
"41458",566.60443,78.692604,139.42621
"41459",566.61774,78.68284,139.37558
"41460",566.63104,78.695045,139.34662
"41461",566.64435,78.71946,139.33025
"41462",566.65765,78.74387,139.31464
"41463",566.67096,78.7805,139.31201
"41464",566.68427,78.87572,139.36911
"41465",566.6976,79.12718,139.58543
"41466",566.7109,79.62768,140.05865
"41467",566.7242,80.41627,140.8356
"41468",566.7375,81.42947,141.86182
"41469",566.7508,82.530556,143.00758
"41470",566.7641,83.526665,144.08278
"41471",566.7774,84.23712,144.90344
"41472",566.7907,84.5716,145.37033
"41473",566.804,84.53498,145.47658
"41474",566.8173,84.20294,145.28625
"41475",566.8306,83.685356,144.90001
"41476",566.84393,83.09453,144.42435
"41477",566.85724,82.52323,143.94975
"41478",566.87054,82.037384,143.54276
"41479",566.88385,81.668724,143.23776
"41480",566.89716,81.41726,143.03845
"41481",566.91046,81.253685,142.91917
"41482",566.92377,81.13161,142.83627
"41483",566.9371,81.01686,142.7569
"41484",566.9504,80.89479,142.66661
"41485",566.9637,80.78493,142.58472
"41486",566.977,80.73121,142.55553
"41487",566.9903,80.77516,142.62233
"41488",567.0036,80.938736,142.81013
"41489",567.0169,81.214615,143.11536
"41490",567.0302,81.5613,143.5
"41491",567.0435,81.92264,143.91013
"41492",567.0568,82.24002,144.2876
"41493",567.0701,82.44999,144.56757
"41494",567.08344,82.52323,144.71738
"41495",567.09674,82.45487,144.72787
"41496",567.11005,82.27665,144.62637
"41497",567.12335,82.01785,144.43872
"41498",567.13666,81.71755,144.20148
"41499",567.14996,81.40505,143.94266
"41500",567.16327,81.08522,143.66673
"41501",567.1766,80.75075,143.36618
"41502",567.1899,80.39185,143.03075
"41503",567.2032,80.01099,142.66212
"41504",567.2165,79.61791,142.2694
"41505",567.2298,79.22484,141.86438
"41506",567.2431,78.84886,141.46417
"41507",567.2564,78.5095,141.08884
"41508",567.2697,78.22873,140.76149
"41509",567.283,78.04562,140.52303
"41510",567.2963,78.02121,140.43753
"41511",567.30963,78.23605,140.59053
"41512",567.32294,78.76097,141.06032
"41513",567.33624,79.58373,141.84436
"41514",567.34955,80.618904,142.86652
"41515",567.36285,81.70779,143.97475
"41516",567.37616,82.669716,144.99005
"41517",567.38947,83.353325,145.7571
"41518",567.4028,83.69024,146.1988
"41519",567.4161,83.70733,146.33122
"41520",567.4294,83.48516,146.22491
"41521",567.4427,83.13603,145.9847
"41522",567.456,82.7625,145.70917
"41523",567.4693,82.459755,145.49275
"41524",567.4826,82.269325,145.3792
"41525",567.4959,82.193634,145.37442
"41526",567.5092,82.196075,145.44542
"41527",567.5225,82.21805,145.53603
"41528",567.5358,82.196075,145.58337
"41529",567.54913,82.10086,145.5568
"41530",567.56244,81.93729,145.45888
"41531",567.57574,81.74441,145.32654
"41532",567.58905,81.55886,145.19551
"41533",567.60236,81.41726,145.10263
"41534",567.61566,81.33181,145.06148
"41535",567.62897,81.29275,145.06404
"41536",567.6423,81.26589,145.07759
"41537",567.6556,81.22194,145.0732
"41538",567.6689,81.1194,145.00885
"41539",567.6822,80.936295,144.86073
"41540",567.6955,80.66529,144.61899
"41541",567.7088,80.32105,144.29555
"41542",567.7221,79.940186,143.92471
"41543",567.7354,79.554436,143.5371
"41544",567.7487,79.1931,143.16183
"41545",567.762,78.870834,142.81435
"41546",567.7753,78.59739,142.50562
"41547",567.78864,78.3679,142.23228
"41548",567.80194,78.1799,141.99329
"41549",567.81525,78.0383,141.7948
"41550",567.82855,77.93088,141.62607
"41551",567.84186,77.85031,141.48083
"41552",567.85516,77.7966,141.35994
"41553",567.86847,77.78195,141.27643
"41554",567.8818,77.857635,141.28279
"41555",567.8951,78.11398,141.47218
"41556",567.9084,78.626686,141.92595
"41557",567.9217,79.429924,142.68626
"41558",567.935,80.465096,143.70361
"41559",567.9483,81.59548,144.84854
"41560",567.9616,82.63554,145.93846
"41561",567.9749,83.421684,146.80698
"41562",567.9882,83.85382,147.34604
"41563",568.0015,83.93439,147.54704
"41564",568.01483,83.7293,147.4649
"41565",568.02814,83.34112,147.19327
"41566",568.04144,82.865036,146.8216
"41567",568.05475,82.38651,146.4326
"41568",568.06805,81.971466,146.09213
"41569",568.08136,81.64187,145.82414
"41570",568.09467,81.40505,145.63864
"41571",568.108,81.24147,145.51897
"41572",568.1213,81.11696,145.43326
"41573",568.1346,80.99977,145.35098
"41574",568.1479,80.867935,145.2504
"41575",568.1612,80.719,145.12859
"41576",568.1745,80.567635,144.9997
"41577",568.1878,80.4358,144.8856
"41578",568.2011,80.3357,144.79913
"41579",568.2144,80.27955,144.75348
"41580",568.2277,80.26734,144.75002
"41581",568.241,80.2942,144.78523
"41582",568.25433,80.34791,144.84814
"41583",568.26764,80.41627,144.92738
"41584",568.28094,80.49683,145.02097
"41585",568.29425,80.59449,145.13416
"41586",568.30756,80.706795,145.26505
"41587",568.32086,80.831314,145.41165
"41588",568.33417,80.970474,145.5768
"41589",568.3475,81.12428,145.76094
"41590",568.3608,81.322044,145.99384
"41591",568.3741,81.5906,146.30371
"41592",568.3874,81.96658,146.7294
"41593",568.4007,82.48905,147.31332
"41594",568.414,83.20439,148.10645
"41595",568.4273,84.12482,149.12701
"41596",568.4406,85.206375,150.33748
"41597",568.4539,86.366066,151.65987
"41598",568.4672,87.56481,153.05756
"41599",568.4805,88.82216,154.5513
"41600",568.49384,90.17471,156.17955
"41601",568.50714,91.61028,157.93307
"41602",568.52045,93.01167,159.69728
"41603",568.53375,94.15671,161.24893
"41604",568.54706,94.767075,162.3017
"41605",568.56036,94.61814,162.61423
"41606",568.57367,93.66842,162.12132
"41607",568.587,92.07904,160.95908
"41608",568.6003,90.10635,159.36386
"41609",568.6136,87.98718,157.56052
"41610",568.6269,85.8851,155.70804
"41611",568.6402,83.89288,153.89973
"41612",568.6535,82.054474,152.18298
"41613",568.6668,80.4065,150.59921
"41614",568.6801,78.992905,149.19832
"41615",568.6934,77.855194,148.02913
"41616",568.7067,77.01289,147.1198
"41617",568.72003,76.43183,146.44539
"41618",568.73334,76.04364,145.9457
"41619",568.74664,75.76776,145.54617
"41620",568.75995,75.526054,145.17221
"41621",568.77325,75.27947,144.78581
"41622",568.78656,75.01335,144.37218
"41623",568.79987,74.73502,143.93802
"41624",568.8132,74.43717,143.47563
"41625",568.8265,74.1149,142.97952
"41626",568.8398,73.763336,142.44405
"41627",568.8531,73.375145,141.86096
"41628",568.8664,72.95033,141.22913
"41629",568.8797,72.51331,140.57181
"41630",568.893,72.08362,139.90816
"41631",568.9063,71.69543,139.27258
"41632",568.9196,71.36828,138.68591
"41633",568.9329,71.12413,138.17203
"41634",568.9462,70.98009,137.75061
"41635",568.95953,70.92882,137.41747
"41636",568.97284,70.95567,137.16084
"41637",568.98615,71.043564,136.9661
"41638",568.99945,71.185165,136.8278
"41639",569.01276,71.36828,136.73546
"41640",569.02606,71.57824,136.67567
"41641",569.03937,71.79797,136.63223
"41642",569.0527,72.010376,136.58832
"41643",569.066,72.24231,136.57057
"41644",569.0793,72.57679,136.66263
"41645",569.0926,73.128555,136.98242
"41646",569.1059,73.98306,137.6222
"41647",569.1192,75.13786,138.58896
"41648",569.1325,76.48554,139.7847
"41649",569.1458,77.840546,141.02988
"41650",569.1591,78.99046,142.1123
"41651",569.1724,79.77661,142.8669
"41652",569.1857,80.15259,143.2359
"41653",569.19904,80.15747,143.24554
"41654",569.21234,79.886475,142.97946
"41655",569.22565,79.4519,142.54134
"41656",569.23895,78.95384,142.02615
"41657",569.25226,78.47288,141.5125
"41658",569.26556,78.0676,141.0595
"41659",569.2789,77.7551,140.6866
"41660",569.2922,77.540245,140.4016
"41661",569.3055,77.3962,140.18068
"41662",569.3188,77.29122,139.99432
"41663",569.3321,77.19356,139.81201
"41664",569.3454,77.08858,139.61932
"41665",569.3587,76.9836,139.42336
"41666",569.372,76.90059,139.24608
"41667",569.3853,76.86885,139.11748
"41668",569.3986,76.90059,139.05136
"41669",569.4119,76.998245,139.05215
"41670",569.42523,77.134964,139.09506
"41671",569.43854,77.2839,139.15446
"41672",569.45184,77.40353,139.18921
"41673",569.46515,77.467,139.17154
"41674",569.47845,77.45724,139.08261
"41675",569.49176,77.37179,138.9177
"41676",569.50507,77.21553,138.6793
"41677",569.5184,77.01045,138.3872
"41678",569.5317,76.7834,138.06673
"41679",569.545,76.55634,137.73915
"41680",569.5583,76.334175,137.40936
"41681",569.5716,76.11688,137.07751
"41682",569.5849,75.90204,136.74132
"41683",569.5982,75.69695,136.40817
"41684",569.6115,75.48943,136.06618
"41685",569.6248,75.284355,135.72014
"41686",569.6381,75.08415,135.37257
"41687",569.6514,74.8864,135.0212
"41688",569.66473,74.683754,134.65875
"41689",569.67804,74.486,134.29486
"41690",569.69135,74.3151,133.95164
"41691",569.70465,74.25407,133.71295
"41692",569.71796,74.442055,133.72137
"41693",569.73126,75.01335,134.11899
"41694",569.74457,76.00214,134.95193
"41695",569.7579,77.32784,136.15271
"41696",569.7712,78.82933,137.5707
"41697",569.7845,80.28443,138.98921
"41698",569.7978,81.463646,140.17732
"41699",569.8111,82.230255,140.98967
"41700",569.8244,82.57694,141.40605
"41701",569.8377,82.564735,141.47438
"41702",569.851,82.27909,141.26889
"41703",569.8643,81.82498,140.886
"41704",569.8776,81.31716,140.43521
"41705",569.8909,80.84596,140.00517
"41706",569.90424,80.445564,139.63121
"41707",569.91754,80.111084,139.31065
"41708",569.93085,79.84009,139.04312
"41709",569.94415,79.60815,138.80618
"41710",569.95746,79.38842,138.5742
"41711",569.97076,79.166245,138.33292
"41712",569.9841,78.94652,138.08713
"41713",569.9974,78.75365,137.86133
"41714",570.0107,78.61448,137.68321
"41715",570.024,78.551,137.57643
"41716",570.0373,78.56565,137.54579
"41717",570.0506,78.63889,137.5742
"41718",570.0639,78.74876,137.64153
"41719",570.0772,78.8513,137.70497
"41720",570.0905,78.91234,137.7301
"41721",570.1038,78.91478,137.69855
"41722",570.1171,78.84886,137.59871
"41723",570.13043,78.712135,137.42601
"41724",570.14374,78.51682,137.19044
"41725",570.15704,78.28733,136.9146
"41726",570.17035,78.048065,136.62181
"41727",570.18365,77.823456,136.3362
"41728",570.19696,77.62325,136.06798
"41729",570.21027,77.44991,135.82036
"41730",570.2236,77.30831,135.59906
"41731",570.2369,77.19112,135.39775
"41732",570.2502,77.08858,135.20743
"41733",570.2635,76.998245,135.02611
"41734",570.2768,76.925,134.85905
"41735",570.2901,76.87129,134.70924
"41736",570.3034,76.83467,134.57484
"41737",570.3167,76.81758,134.45883
"41738",570.33,76.81758,134.35938
"41739",570.3433,76.822464,134.2648
"41740",570.3566,76.82735,134.17038
"41741",570.36993,76.83711,134.081
"41742",570.38324,76.85176,133.9968
"41743",570.39655,76.90303,133.94968
"41744",570.40985,77.051956,134.00182
"41745",570.42316,77.41085,134.26859
"41746",570.43646,78.07248,134.8493
"41747",570.44977,79.044174,135.76076
"41748",570.4631,80.22827,136.91498
"41749",570.4764,81.446556,138.1404
"41750",570.4897,82.48173,139.22078
"41751",570.503,83.15068,139.96729
"41752",570.5163,83.39239,140.30745
"41753",570.5296,83.245895,140.26697
"41754",570.5429,82.82353,139.94604
"41755",570.5562,82.23514,139.44589
"41756",570.5695,81.5906,138.8712
"41757",570.5828,80.96071,138.29102
"41758",570.5961,80.40894,137.76927
"41759",570.60944,79.96216,137.33527
"41760",570.62274,79.62524,136.99716
"41761",570.63605,79.38354,136.74374
"41762",570.64935,79.20531,136.54625
"41763",570.66266,79.061264,136.37737
"41764",570.67596,78.93675,136.22351
"41765",570.6893,78.84154,136.09506
"41766",570.7026,78.80003,136.01735
"41767",570.7159,78.83421,136.01402
"41768",570.7292,78.95384,136.09721
"41769",570.7425,79.14671,136.25739
"41770",570.7558,79.38354,136.46754
"41771",570.7691,79.61791,136.68265
"41772",570.7824,79.80591,136.8587
"41773",570.7957,79.91577,136.9625
"41774",570.809,79.9353,136.9794
"41775",570.8223,79.86206,136.90414
"41776",570.83563,79.71801,136.75578
"41777",570.84894,79.52758,136.55653
"41778",570.86224,79.31518,136.32936
"41779",570.87555,79.10765,136.10043
"41780",570.88885,78.91478,135.87967
"41781",570.90216,78.746315,135.67729
"41782",570.91547,78.60471,135.4965
"41783",570.9288,78.48997,135.33815
"41784",570.9421,78.399635,135.20062
"41785",570.9554,78.33372,135.08469
"41786",570.9687,78.28245,134.98134
"41787",570.982,78.24582,134.89104
"41788",570.9953,78.221405,134.8118
"41789",571.0086,78.2092,134.744
"41790",571.0219,78.2092,134.68803
"41791",571.0352,78.277565,134.70044
"41792",571.0485,78.51194,134.88098
"41793",571.0618,79.01732,135.33986
"41794",571.07513,79.83276,136.12459
"41795",571.08844,80.89723,137.18384
"41796",571.10175,82.05936,138.37401
"41797",571.11505,83.11162,139.49063
"41798",571.12836,83.85382,140.33008
"41799",571.14166,84.18097,140.77766
"41800",571.15497,84.11261,140.83997
"41801",571.1683,83.74151,140.59738
"41802",571.1816,83.17998,140.15277
"41803",571.1949,82.53544,139.6076
"41804",571.2082,81.898224,139.04962
"41805",571.2215,81.31472,138.52544
"41806",571.2348,80.816666,138.06847
"41807",571.2481,80.413826,137.69115
"41808",571.2614,80.093994,137.38425
"41809",571.2747,79.83765,137.13083
"41810",571.288,79.62768,136.91579
"41811",571.30133,79.447014,136.72348
"41812",571.31464,79.30541,136.56459
"41813",571.32794,79.219955,136.45743
"41814",571.34125,79.21019,136.42328
"41815",571.35455,79.28588,136.47429
"41816",571.36786,79.43969,136.60577
"41817",571.38116,79.639885,136.78845
"41818",571.3945,79.84009,136.9774
"41819",571.4078,80.00122,137.13354
"41820",571.4211,80.093994,137.22635
"41821",571.4344,80.10376,137.23904
"41822",571.4477,80.03296,137.17148
"41823",571.461,79.89136,137.03091
"41824",571.4743,79.70336,136.83952
"41825",571.4876,79.48608,136.61296
"41826",571.5009,79.26635,136.37717
"41827",571.5142,79.05638,136.14427
"41828",571.5275,78.870834,135.92923
"41829",571.54083,78.71946,135.74257
"41830",571.55414,78.59983,135.58292
"41831",571.56744,78.51438,135.4537
"41832",571.58075,78.45335,135.34624
"41833",571.59406,78.41428,135.25883
"41834",571.60736,78.38743,135.18242
"41835",571.62067,78.3679,135.11249
"41836",571.634,78.35325,135.04683
"41837",571.6473,78.3679,135.01001
"41838",571.6606,78.470436,135.06154
"41839",571.6739,78.75609,135.2994
"41840",571.6872,79.31518,135.81961
"41841",571.7005,80.15259,136.63562
"41842",571.7138,81.18288,137.67068
"41843",571.7271,82.24246,138.76724
"41844",571.7404,83.13115,139.72601
"41845",571.7537,83.69268,140.38539
"41846",571.767,83.86603,140.67413
"41847",571.78033,83.68047,140.60939
"41848",571.79364,83.23125,140.27518
"41849",571.80695,82.62333,139.76823
"41850",571.82025,81.94949,139.17638
"41851",571.83356,81.28542,138.57323
"41852",571.84686,80.69215,138.02013
"41853",571.86017,80.201416,137.55103
"41854",571.8735,79.82788,137.18378
"41855",571.8868,79.56176,136.91228
"41856",571.9001,79.37621,136.71303
"41857",571.9134,79.25414,136.57146
"41858",571.9267,79.183334,136.47734
"41859",571.94,79.16136,136.42984
"41860",571.9533,79.200424,136.44269
"41861",571.9666,79.310295,136.52757
"41862",571.9799,79.49584,136.69156
"41863",571.9932,79.73266,136.91261
"41864",572.00653,79.9939,137.1655
"41865",572.01984,80.23804,137.40945
"41866",572.03314,80.430916,137.60977
"41867",572.04645,80.54078,137.73311
"41868",572.05975,80.56519,137.77443
"41869",572.07306,80.51148,137.73839
"41870",572.08636,80.396736,137.63963
"41871",572.0997,80.24048,137.49577
"41872",572.113,80.06958,137.3324
"41873",572.1263,79.90112,137.1661
"41874",572.1396,79.742424,137.00432
"41875",572.1529,79.605705,136.85954
"41876",572.1662,79.500725,136.74223
"41877",572.1795,79.429924,136.65582
"41878",572.1928,79.3933,136.60138
"41879",572.2061,79.3933,136.58241
"41880",572.2194,79.42016,136.5903
"41881",572.2327,79.4641,136.61612
"41882",572.24603,79.51293,136.6482
"41883",572.25934,79.55688,136.67691
"41884",572.27264,79.59594,136.70212
"41885",572.28595,79.65209,136.74564
"41886",572.29926,79.80591,136.88858
"41887",572.31256,80.15747,137.23407
"41888",572.32587,80.77516,137.85669
"41889",572.3392,81.64431,138.75006
"41890",572.3525,82.65507,139.81221
"41891",572.3658,83.631645,140.87177
"41892",572.3791,84.38361,141.73723
"41893",572.3924,84.77913,142.26973
"41894",572.4057,84.791336,142.43129
"41895",572.419,84.48615,142.27583
"41896",572.4323,83.9588,141.88867
"41897",572.4456,83.31426,141.36784
"41898",572.4589,82.63554,140.7927
"41899",572.4722,81.99588,140.2354
"41900",572.48553,81.43679,139.73868
"41901",572.49884,80.97536,139.32214
"41902",572.51215,80.621346,138.99861
"41903",572.52545,80.35279,138.74948
"41904",572.53876,80.147705,138.55542
"41905",572.55206,79.991455,138.40378
"41906",572.56537,79.87915,138.2912
"41907",572.5787,79.82056,138.22882
"41908",572.592,79.83276,138.23541
"41909",572.6053,79.920654,138.31808
"41910",572.6186,80.079346,138.4743
"41911",572.6319,80.28443,138.68187
"41912",572.6452,80.499275,138.90561
"41913",572.6585,80.68726,139.1092
"41914",572.6718,80.814224,139.25764
"41915",572.6851,80.86061,139.32948
"41916",572.6984,80.82887,139.32465
"41917",572.71173,80.723885,139.24556
"41918",572.72504,80.567635,139.11194
"41919",572.73834,80.37476,138.93681
"41920",572.75165,80.17456,138.74832
"41921",572.76495,79.971924,138.55115
"41922",572.77826,79.79126,138.3696
"41923",572.79156,79.63256,138.20438
"41924",572.8049,79.50317,138.06349
"41925",572.8182,79.3933,137.9381
"41926",572.8315,79.30297,137.8288
"41927",572.8448,79.22972,137.73376
"41928",572.8581,79.17113,137.6511
"41929",572.8714,79.12474,137.5788
"41930",572.8847,79.08812,137.51482
"41931",572.898,79.063705,137.4619
"41932",572.9113,79.06615,137.43507
"41933",572.9246,79.151596,137.49133
"41934",572.9379,79.412834,137.72606
"41935",572.95123,79.93286,138.22774
"41936",572.96454,80.71656,139.00934
"41937",572.97784,81.67849,139.99367
"41938",572.99115,82.66483,141.03247
"41939",573.00446,83.48272,141.93364
"41940",573.01776,83.97833,142.53809
"41941",573.03107,84.09064,142.77472
"41942",573.0444,83.85626,142.66818
"41943",573.0577,83.36553,142.29796
"41944",573.071,82.72343,141.76103
"41945",573.0843,82.022736,141.14545
"41946",573.0976,81.341576,140.5275
"41947",573.1109,80.73853,139.96638
"41948",573.1242,80.24048,139.49141
"41949",573.1375,79.852295,139.11075
"41950",573.1508,79.5642,138.81804
"41951",573.1641,79.35668,138.5969
"41952",573.1774,79.20775,138.42786
"41953",573.19073,79.114975,138.31032
"41954",573.20404,79.08812,138.2558
"41955",573.21735,79.14183,138.281
"41956",573.23065,79.28588,138.39824
"41957",573.24396,79.51293,138.60297
"41958",573.25726,79.79614,138.87096
"41959",573.27057,80.08911,139.15756
"41960",573.2839,80.34058,139.41182
"41961",573.2972,80.5066,139.58849
"41962",573.3105,80.570076,139.6678
"41963",573.3238,80.53101,139.64656
"41964",573.3371,80.411385,139.54353
"41965",573.3504,80.23804,139.38304
"41966",573.3637,80.03296,139.1854
"41967",573.377,79.82056,138.97403
"41968",573.3903,79.61303,138.7609
"41969",573.4036,79.41772,138.55348
"41970",573.41693,79.23949,138.35706
"41971",573.43024,79.08324,138.17703
"41972",573.44354,78.94652,138.01166
"41973",573.45685,78.83421,137.86642
"41974",573.47015,78.74143,137.73721
"41975",573.48346,78.66575,137.6222
"41976",573.49677,78.6096,137.52434
"41977",573.5101,78.57542,137.4467
"41978",573.5234,78.60471,137.43147
"41979",573.5367,78.785385,137.56854
"41980",573.55,79.21019,137.95538
"41981",573.5633,79.91333,138.63383
"41982",573.5766,80.84596,139.56375
"41983",573.5899,81.87137,140.6156
"41984",573.6032,82.794235,141.59695
"41985",573.6165,83.42901,142.31905
"41986",573.6298,83.682915,142.68011
"41987",573.6431,83.563286,142.67558
"41988",573.65643,83.14824,142.37189
"41989",573.66974,82.547646,141.86967
"41990",573.68304,81.86893,141.27057
"41991",573.69635,81.19997,140.66002
"41992",573.70966,80.601814,140.09937
"41993",573.72296,80.1062,139.62256
"41994",573.73627,79.72289,139.24257
"41995",573.7496,79.43725,138.94826
"41996",573.7629,79.22484,138.71826
"41997",573.7762,79.07103,138.54022
"41998",573.7895,78.97337,138.41353
"41999",573.8028,78.94652,138.35458
"42000",573.8161,79.009995,138.38513
"42001",573.8294,79.17113,138.51532
"42002",573.8427,79.41772,138.73601
"42003",573.856,79.71313,139.01321
"42004",573.8693,80.008545,139.29967
"42005",573.8826,80.25025,139.54164
"42006",573.89594,80.4065,139.70572
"42007",573.90924,80.462654,139.77458
"42008",573.92255,80.42115,139.74754
"42009",573.93585,80.30396,139.64352
"42010",573.94916,80.1355,139.48456
"42011",573.96246,79.937744,139.29105
"42012",573.97577,79.73266,139.08401
"42013",573.9891,79.534904,138.8779
"42014",574.0024,79.364006,138.69246
"42015",574.0157,79.219955,138.52853
"42016",574.029,79.10277,138.38696
"42017",574.0423,79.01488,138.27103
"42018",574.0556,78.94896,138.17432
"42019",574.0689,78.89281,138.08531
"42020",574.0822,78.856186,138.01408
"42021",574.0955,78.870834,137.99298
"42022",574.1088,79.009995,138.09685
"42023",574.12213,79.36889,138.4248
"42024",574.13544,79.99878,139.03497
"42025",574.14874,80.8777,139.91385
"42026",574.16205,81.8909,140.95448
"42027",574.17535,82.86015,141.98283
"42028",574.18866,83.597466,142.80952
"42029",574.20197,83.98566,143.31013
"42030",574.2153,84.000305,143.44934
"42031",574.2286,83.70489,143.27893
"42032",574.2419,83.194626,142.88445
"42033",574.2552,82.5745,142.36415
"42034",574.2685,81.9324,141.8025
"42035",574.2818,81.33181,141.2623
"42036",574.2951,80.81178,140.78389
"42037",574.3084,80.38941,140.38689
"42038",574.3217,80.06714,140.07678
"42039",574.335,79.82788,139.83963
"42040",574.3483,79.65942,139.66579
"42041",574.36163,79.54955,139.54527
"42042",574.37494,79.51293,139.49457
"42043",574.38824,79.56176,139.52817
"42044",574.40155,79.708244,139.66095
"42045",574.41486,79.937744,139.88133
"42046",574.42816,80.22339,140.16504
"42047",574.44147,80.51392,140.46255
"42048",574.4548,80.762955,140.72765
"42049",574.4681,80.92897,140.91751
"42050",574.4814,80.99245,141.01003
"42051",574.4947,80.95827,141.00687
"42052",574.508,80.84352,140.92207
"42053",574.5213,80.66773,140.77264
"42054",574.5346,80.45533,140.58112
"42055",574.5479,80.233154,140.37317
"42056",574.5612,80.01831,140.16562
"42057",574.5745,79.823,139.97089
"42058",574.5878,79.65209,139.79445
"42059",574.60114,79.51049,139.64197
"42060",574.61444,79.395744,139.51192
"42061",574.62775,79.293205,139.39049
"42062",574.64105,79.20531,139.2805
"42063",574.65436,79.13695,139.1873
"42064",574.66766,79.10033,139.1237
"42065",574.68097,79.16136,139.15662
"42066",574.6943,79.42504,139.39409
"42067",574.7076,79.96948,139.92056
"42068",574.7209,80.80934,140.75946
"42069",574.7342,81.85672,141.83214
"42070",574.7475,82.948044,142.98149
"42071",574.7608,83.88556,144.01114
"42072",574.7741,84.50324,144.75024
"42073",574.7874,84.732735,145.12047
"42074",574.8007,84.60334,145.13898
"42075",574.814,84.2005,144.87999
"42076",574.82733,83.6292,144.43996
"42077",574.84064,82.98955,143.91371
"42078",574.85394,82.354774,143.37236
"42079",574.86725,81.79813,142.8893
"42080",574.88055,81.3489,142.49626
"42081",574.89386,81.00954,142.19905
"42082",574.90717,80.75075,141.97182
"42083",574.9205,80.552986,141.79752
"42084",574.9338,80.40162,141.66344
"42085",574.9471,80.29908,141.57346
"42086",574.9604,80.26246,141.54619
"42087",574.9737,80.31861,141.61055
"42088",574.987,80.462654,141.76456
"42089",575.0003,80.672615,141.98898
"42090",575.0136,80.90944,142.24683
"42091",575.0269,81.13161,142.49742
"42092",575.0402,81.290306,142.69148
"42093",575.0535,81.37087,142.81238
"42094",575.06683,81.36355,142.8479
"42095",575.08014,81.27566,142.80263
"42096",575.09344,81.11452,142.68135
"42097",575.10675,80.90944,142.51111
"42098",575.12006,80.67994,142.31003
"42099",575.13336,80.44312,142.09447
"42100",575.14667,80.21118,141.87637
"42101",575.16,80.00122,141.673
"42102",575.1733,79.818115,141.48993
"42103",575.1866,79.65942,141.32555
"42104",575.1999,79.517815,141.1733
"42105",575.2132,79.395744,141.03615
"42106",575.2265,79.290764,140.91228
"42107",575.2398,79.20531,140.80466
"42108",575.2531,79.1638,140.73831
"42109",575.2664,79.237045,140.78542
"42110",575.2797,79.52514,141.04967
"42111",575.293,80.10132,141.61101
"42112",575.30634,80.970474,142.48334
"42113",575.31964,82.04959,143.59279
"42114",575.33295,83.17265,144.7799
"42115",575.34625,84.13458,145.84099
"42116",575.35956,84.78401,146.61963
"42117",575.37286,85.050125,147.03525
"42118",575.38617,84.95979,147.10274
"42119",575.3995,84.596016,146.89395
"42120",575.4128,84.0589,146.50046
"42121",575.4261,83.44366,146.01205
"42122",575.4394,82.83086,145.50687
"42123",575.4527,82.27665,145.04112
"42124",575.466,81.81033,144.64595
"42125",575.4793,81.43191,144.3241
"42126",575.4926,81.129166,144.0661
"42127",575.5059,80.88258,143.85481
"42128",575.5192,80.67994,143.67975
"42129",575.53253,80.53101,143.55208
"42130",575.54584,80.448006,143.48567
"42131",575.55914,80.45289,143.50456
"42132",575.57245,80.550545,143.61638
"42133",575.58575,80.719,143.80205
"42134",575.59906,80.92409,144.0296
"42135",575.61237,81.112076,144.24648
"42136",575.6257,81.24147,144.41063
"42137",575.639,81.28054,144.4885
"42138",575.6523,81.22682,144.4748
"42139",575.6656,81.08278,144.3691
"42140",575.6789,80.87526,144.19542
"42141",575.6922,80.62623,143.97374
"42142",575.7055,80.35767,143.72476
"42143",575.7188,80.08667,143.46494
"42144",575.7321,79.82544,143.20642
"42145",575.7454,79.57885,142.95438
"42146",575.7587,79.35424,142.7166
"42147",575.77203,79.149155,142.49133
"42148",575.78534,78.96361,142.27919
"42149",575.79865,78.79515,142.07834
"42150",575.81195,78.643776,141.88931
"42151",575.82526,78.51194,141.71509
"42152",575.83856,78.43137,141.58801
"42153",575.85187,78.47532,141.58293
"42154",575.8652,78.74876,141.80872
"42155",575.8785,79.32983,142.35068
"42156",575.8918,80.22827,143.22818
"42157",575.9051,81.356224,144.36327
"42158",575.9184,82.54276,145.5922
"42159",575.9317,83.58282,146.71172
"42160",575.945,84.317696,147.55856
"42161",575.9583,84.65949,148.0353
"42162",575.9716,84.63752,148.15894
"42163",575.9849,84.32258,147.98892
"42164",575.9982,83.82208,147.6235
"42165",576.01154,83.23125,147.15211
"42166",576.02484,82.633095,146.65494
"42167",576.03815,82.07889,146.18301
"42168",576.05145,81.59792,145.76701
"42169",576.06476,81.19264,145.41167
"42170",576.07806,80.84596,145.10226
"42171",576.0914,80.54566,144.8284
"42172",576.1047,80.291756,144.59155
"42173",576.118,80.10376,144.41267
"42174",576.1313,80.00366,144.31583
"42175",576.1446,80.008545,144.32083
"42176",576.1579,80.11597,144.42853
"42177",576.1712,80.30152,144.6177
"42178",576.1845,80.52125,144.84686
"42179",576.1978,80.72144,145.06335
"42180",576.2111,80.84596,145.21042
"42181",576.2244,80.87282,145.26372
"42182",576.23773,80.782486,145.20067
"42183",576.25104,80.59205,145.03468
"42184",576.26434,80.3357,144.79684
"42185",576.27765,80.0354,144.50703
"42186",576.29095,79.727776,144.20052
"42187",576.30426,79.42504,143.88927
"42188",576.31757,79.13939,143.58565
"42189",576.3309,78.873276,143.29263
"42190",576.3442,78.626686,143.01083
"42191",576.3575,78.399635,142.74086
"42192",576.3708,78.18967,142.48088
"42193",576.3841,77.99924,142.23387
"42194",576.3974,77.823456,141.99556
"42195",576.4107,77.67696,141.78105
"42196",576.424,77.61593,141.64742
"42197",576.4373,77.733116,141.6901
"42198",576.4506,78.133514,142.01965
"42199",576.4639,78.87572,142.70352
"42200",576.47723,79.93286,143.72552
"42201",576.49054,81.18288,144.97345
"42202",576.50385,82.43046,146.258
"42203",576.51715,83.47295,147.37645
"42204",576.53046,84.16388,148.1759
"42205",576.54376,84.44953,148.59167
"42206",576.55707,84.36408,148.64528
"42207",576.5704,83.99298,148.41055
"42208",576.5837,83.441216,147.98357
"42209",576.597,82.80888,147.45877
"42210",576.6103,82.178986,146.91666
"42211",576.6236,81.60769,146.41345
"42212",576.6369,81.11452,145.97052
"42213",576.6502,80.69459,145.58542
"42214",576.6635,80.3357,145.24825
"42215",576.6768,80.0354,144.95844
"42216",576.6901,79.80591,144.73004
"42217",576.7034,79.66674,144.58481
"42218",576.71674,79.64721,144.55486
"42219",576.73004,79.74975,144.64636
"42220",576.74335,79.95239,144.84119
"42221",576.75665,80.21118,145.09848
"42222",576.76996,80.465096,145.359
"42223",576.78326,80.655525,145.56396
"42224",576.7966,80.740974,145.6699
"42225",576.8099,80.70435,145.65645
"42226",576.8232,80.55543,145.52954
"42227",576.8365,80.308846,145.30032
"42228",576.8498,80.00122,145.00235
"42229",576.8631,79.66674,144.66791
"42230",576.8764,79.32983,144.32057
"42231",576.8897,79.00267,143.97247
"42232",576.903,78.70237,143.641
"42233",576.9163,78.42649,143.32457
"42234",576.9296,78.1799,143.02881
"42235",576.94293,77.95529,142.74731
"42236",576.95624,77.75021,142.47833
"42237",576.96954,77.57198,142.2298
"42238",576.98285,77.44503,142.02696
"42239",576.99615,77.44015,141.94223
"42240",577.00946,77.65743,142.07951
"42241",577.02277,78.20676,142.55563
"42242",577.0361,79.114975,143.4078
"42243",577.0494,80.323494,144.58867
"42244",577.0627,81.67361,145.9489
"42245",577.076,82.95293,147.28052
"42246",577.0893,83.9588,148.37868
"42247",577.1159,84.749825,149.43613
"42248",577.1292,84.5716,149.40634
"42249",577.1425,84.13458,149.11218
"42250",577.1558,83.55108,148.65788
"42251",577.1691,82.92363,148.1414
"42252",577.18243,82.32792,147.63705
"42253",577.19574,81.79813,147.18001
"42254",577.20905,81.34402,146.78209
"42255",577.22235,80.95094,146.43102
"42256",577.23566,80.604256,146.11404
"42257",577.24896,80.30152,145.8302
"42258",577.26227,80.059814,145.59792
"42259",577.2756,79.903564,145.44354
"42260",577.2889,79.85718,145.39413
"42261",577.3022,79.920654,145.45316
"42262",577.3155,80.06958,145.59961
"42263",577.3288,80.255135,145.78734
"42264",577.3421,80.41871,145.9589
"42265",577.3554,80.51881,146.07208
"42266",577.3687,80.51881,146.0883
"42267",577.382,80.4065,145.99222
"42268",577.3953,80.18921,145.78763
"42269",577.4086,79.89136,145.4957
"42270",577.42194,79.54467,145.14561
"42271",577.43524,79.17357,144.76028
"42272",577.44855,78.81468,144.37556
"42273",577.46185,78.4802,144.00404
"42274",577.47516,78.17746,143.65381
"42275",577.48846,77.90646,143.32585
"42276",577.5018,77.6672,143.02116
"42277",577.5151,77.454796,142.73586
"42278",577.5284,77.25948,142.461
"42279",577.5417,77.086136,142.20201
"42280",577.555,76.927444,141.95226
"42281",577.5683,76.790726,141.71951
"42282",577.5816,76.68574,141.51424
"42283",577.5949,76.66621,141.39113
"42284",577.6082,76.841995,141.46274
"42285",577.6215,77.32784,141.8499
"42286",577.6348,78.19943,142.63799
"42287",577.64813,79.429924,143.81221
"42288",577.66144,80.89479,145.25926
"42289",577.67474,82.374306,146.76674
"42290",577.68805,83.64141,148.10805
"42291",577.70135,84.51789,149.09833
"42292",577.71466,84.94026,149.66188
"42293",577.72797,84.93538,149.81139
"42294",577.7413,84.60578,149.63602
"42295",577.7546,84.068665,149.24283
"42296",577.7679,83.441216,148.74252
"42297",577.7812,82.81865,148.2275
"42298",577.7945,82.266884,147.76381
"42299",577.8078,81.81033,147.3781
"42300",577.8211,81.44167,147.06601
"42301",577.8344,81.13161,146.801
"42302",577.8477,80.85817,146.56293
"42303",577.861,80.59937,146.33095
"42304",577.8743,80.36988,146.1202
"42305",577.88763,80.19165,145.95352
"42306",577.90094,80.09155,145.8594
"42307",577.91425,80.07202,145.84274
"42308",577.92755,80.113525,145.8865
"42309",577.94086,80.17456,145.95108
"42310",577.95416,80.218506,146.00049
"42311",577.96747,80.2063,145.99512
"42312",577.9808,80.11597,145.91122
"42313",577.9941,79.9353,145.73419
"42314",578.0074,79.674065,145.47093
"42315",578.0207,79.34936,145.13603
"42316",578.034,78.98314,144.74948
"42317",578.0473,78.59983,144.3344
"42318",578.0606,78.221405,143.91222
"42319",578.0739,77.86496,143.50018
"42320",578.0872,77.5378,143.10631
"42321",578.1005,77.2375,142.72906
"42322",578.11383,76.97139,142.37662
"42323",578.12714,76.734566,142.04515
"42324",578.14044,76.52949,141.73802
"42325",578.15375,76.351265,141.45134
"42326",578.16705,76.20477,141.19083
"42327",578.18036,76.085144,140.95259
"42328",578.19366,75.98016,140.72527
"42329",578.207,75.88251,140.50198
"42330",578.2203,75.79462,140.28542
"42331",578.2336,75.70916,140.06854
"42332",578.2469,75.631035,139.85632
"42333",578.2602,75.59197,139.68073
"42334",578.2735,75.65789,139.60889
"42335",578.2868,75.93866,139.75397
"42336",578.3001,76.541695,140.23009
"42337",578.3134,77.51827,141.09859
"42338",578.3267,78.82689,142.32965
"42339",578.34,80.31861,143.78471
"42340",578.35333,81.77371,145.24977
"42341",578.36664,82.967575,146.49907
"42342",578.37994,83.74883,147.37306
"42343",578.39325,84.07599,147.81737
"42344",578.40656,84.00275,147.8715
"42345",578.41986,83.63653,147.63037
"42346",578.43317,83.10185,147.20934
"42347",578.4465,82.51835,146.72276
"42348",578.4598,81.97391,146.25702
"42349",578.4731,81.5198,145.8646
"42350",578.4864,81.163345,145.55563
"42351",578.4997,80.88991,145.31856
"42352",578.513,80.66529,145.12175
"42353",578.5263,80.45533,144.93259
"42354",578.5396,80.24048,144.73196
"42355",578.5529,80.0354,144.5344
"42356",578.5662,79.86206,144.36215
"42357",578.5795,79.74731,144.24309
"42358",578.59283,79.70092,144.1888
"42359",578.60614,79.71557,144.19409
"42360",578.61945,79.75952,144.22916
"42361",578.63275,79.79614,144.25827
"42362",578.64606,79.79126,144.24701
"42363",578.65936,79.71801,144.16724
"42364",578.67267,79.5642,144.00461
"42365",578.686,79.32983,143.7566
"42366",578.6993,79.03685,143.44269
"42367",578.7126,78.70237,143.07811
"42368",578.7259,78.35813,142.69331
"42369",578.7392,78.01633,142.3002
"42370",578.7525,77.69405,141.91594
"42371",578.7658,77.401085,141.5509
"42372",578.7791,77.134964,141.20357
"42373",578.7924,76.893265,140.87233
"42374",578.8057,76.67597,140.55795
"42375",578.81903,76.48554,140.26364
"42376",578.83234,76.31953,139.9878
"42377",578.84564,76.18036,139.73361
"42378",578.85895,76.070496,139.50438
"42379",578.87225,75.98505,139.29613
"42380",578.88556,75.92645,139.11206
"42381",578.89886,75.88251,138.94081
"42382",578.9122,75.84833,138.77795
"42383",578.9255,75.826355,138.62624
"42384",578.9388,75.809265,138.47871
"42385",578.9521,75.80194,138.34042
"42386",578.9654,75.79462,138.2019
"42387",578.9787,75.78729,138.06316
"42388",578.992,75.772644,137.91685
"42389",579.0053,75.74578,137.75789
"42390",579.0186,75.7116,137.59076
"42391",579.0319,75.699394,137.44453
"42392",579.0452,75.789734,137.40048
"42393",579.05853,76.09979,137.57896
"42394",579.07184,76.74433,138.10162
"42395",579.08514,77.77707,139.03262
"42396",579.09845,79.14427,140.33035
"42397",579.11176,80.68482,141.84416
"42398",579.12506,82.176544,143.35728
"42399",579.13837,83.41192,144.66068
"42400",579.1517,84.26154,145.61693
"42401",579.165,84.69123,146.1798
"42402",579.1783,84.74006,146.37523
"42403",579.1916,84.5008,146.2841
"42404",579.2049,84.07843,146.00238
"42405",579.2182,83.57549,145.62689
"42406",579.2315,83.07988,145.24301
"42407",579.2448,82.65507,144.91444
"42408",579.2581,82.32792,144.67027
"42409",579.2714,82.08133,144.49643
"42410",579.2847,81.883575,144.36372
"42411",579.29803,81.6907,144.2297
"42412",579.31134,81.50271,144.09456
"42413",579.32465,81.324486,143.9633
"42414",579.33795,81.18532,143.86552
"42415",579.35126,81.10475,143.822
"42416",579.36456,81.094986,143.84677
"42417",579.37787,81.13649,143.9225
"42418",579.3912,81.20241,144.02394
"42419",579.4045,81.248795,144.10791
"42420",579.4178,81.24635,144.1445
"42421",579.4311,81.17067,144.10777
"42422",579.4444,81.01442,143.98811
"42423",579.4577,80.77272,143.77812
"42424",579.471,80.462654,143.4922
"42425",579.4843,80.111084,143.15509
"42426",579.4976,79.7351,142.78258
"42427",579.5109,79.35912,142.39832
"42428",579.52423,79.00511,142.02428
"42429",579.53754,78.67307,141.66115
"42430",579.55084,78.37034,141.31694
"42431",579.56415,78.101776,140.99745
"42432",579.57745,77.8674,140.70375
"42433",579.59076,77.662315,140.43202
"42434",579.60406,77.486534,140.18318
"42435",579.6174,77.34005,139.95815
"42436",579.6307,77.21797,139.75294
"42437",579.644,77.12276,139.57079
"42438",579.6573,77.04707,139.40518
"42439",579.6706,76.99092,139.25674
"42440",579.6839,76.94942,139.1212
"42441",579.6972,76.91768,138.99413
"42442",579.7105,76.89082,138.87094
"42443",579.7238,76.86641,138.74936
"42444",579.7371,76.841995,138.62701
"42445",579.7504,76.8127,138.49902
"42446",579.76373,76.76875,138.35547
"42447",579.77704,76.715034,138.20078
"42448",579.79034,76.65644,138.03952
"42449",579.80365,76.63203,137.91061
"42450",579.81696,76.72236,137.89569
"42451",579.83026,77.04219,138.1131
"42452",579.84357,77.69405,138.67253
"42453",579.8569,78.709694,139.6161
"42454",579.8702,80.03052,140.8966
"42455",579.8835,81.48562,142.35266
"42456",579.8968,82.862595,143.77606
"42457",579.9101,83.949036,144.95197
"42458",579.9234,84.62287,145.7492
"42459",579.9367,84.85481,146.12561
"42460",579.95,84.70832,146.13083
"42461",579.9633,84.28596,145.8556
"42462",579.9766,83.70733,145.41092
"42463",579.9899,83.07744,144.89688
"42464",580.00323,82.476845,144.39246
"42465",580.01654,81.95438,143.94739
"42466",580.02985,81.529564,143.58365
"42467",580.04315,81.1902,143.29208
"42468",580.05646,80.91188,143.05096
"42469",580.06976,80.66773,142.83531
"42470",580.08307,80.46021,142.64867
"42471",580.0964,80.29908,142.50192
"42472",580.1097,80.21362,142.42581
"42473",580.123,80.22827,142.44714
"42474",580.1363,80.34058,142.56659
"42475",580.1496,80.51881,142.75546
"42476",580.1629,80.709236,142.96211
"42477",580.1762,80.86305,143.13809
"42478",580.1895,80.93385,143.23587
"42479",580.2028,80.89723,143.22844
"42480",580.2161,80.7483,143.10754
"42481",580.22943,80.49683,142.87947
"42482",580.24274,80.17456,142.57272
"42483",580.25604,79.80591,142.20953
"42484",580.26935,79.42016,141.81772
"42485",580.28265,79.046616,141.42606
"42486",580.29596,78.69993,141.04958
"42487",580.30927,78.38743,140.69644
"42488",580.3226,78.116425,140.37505
"42489",580.3359,77.88205,140.0818
"42490",580.3492,77.679405,139.81297
"42491",580.3625,77.506065,139.56711
"42492",580.3758,77.35714,139.34024
"42493",580.3891,77.2375,139.13802
"42494",580.4024,77.13985,138.95403
"42495",580.4157,77.066605,138.7914
"42496",580.429,77.01045,138.64357
"42497",580.4423,76.97383,138.51352
"42498",580.4556,76.944534,138.38965
"42499",580.46893,76.91768,138.2673
"42500",580.48224,76.88838,138.14168
"42501",580.49554,76.8542,138.01025
"42502",580.50885,76.824905,137.88264
"42503",580.52216,76.86397,137.82248
"42504",580.53546,77.06172,137.92223
"42505",580.54877,77.53536,138.30405
"42506",580.5621,78.363014,139.05467
"42507",580.5754,79.534904,140.1754
"42508",580.5887,80.94362,141.56958
"42509",580.602,82.406044,143.0615
"42510",580.6153,83.69512,144.42577
"42511",580.6286,84.63508,145.4812
"42512",580.6419,85.1429,146.13387
"42513",580.6552,85.22835,146.38004
"42514",580.6685,84.964676,146.27975
"42515",580.6818,84.46418,145.9344
"42516",580.6951,83.844055,145.45378
"42517",580.70844,83.20195,144.93181
"42518",580.72174,82.60868,144.4386
"42519",580.73505,82.10086,144.0123
"42520",580.74835,81.6907,143.66779
"42521",580.76166,81.35378,143.38371
"42522",580.77496,81.058365,143.1306
"42523",580.78827,80.797134,142.90245
"42524",580.8016,80.56519,142.69542
"42525",580.8149,80.38453,142.53242
"42526",580.8282,80.291756,142.45168
"42527",580.8415,80.306404,142.47545
"42528",580.8548,80.411385,142.59001
"42529",580.8681,80.5774,142.76889
"42530",580.8814,80.75075,142.96028
"42531",580.8947,80.88747,143.12047
"42532",580.908,80.93385,143.1946
"42533",580.9213,80.87282,143.16275
"42534",580.93463,80.706795,143.024
"42535",580.94794,80.448006,142.78731
"42536",580.96124,80.12085,142.47415
"42537",580.97455,79.75708,142.11417
"42538",580.98785,79.381096,141.73059
"42539",581.00116,79.01488,141.34503
"42540",581.01447,78.66819,140.96756
"42541",581.0278,78.35325,140.611
"42542",581.0411,78.07248,140.27876
"42543",581.0544,77.83078,139.97682
"42544",581.0677,77.62325,139.7015
"42545",581.081,77.44747,139.45145
"42546",581.0943,77.30099,139.22519
"42547",581.1076,77.17891,139.01877
"42548",581.1209,77.083694,138.83539
"42549",581.1342,77.00801,138.66856
"42550",581.1475,76.95186,138.5189
"42551",581.1608,76.910355,138.38214
"42552",581.17413,76.8835,138.25873
"42553",581.18744,76.86397,138.1418
"42554",581.20074,76.84688,138.0267
"42555",581.21405,76.83223,137.91351
"42556",581.22736,76.82002,137.8023
"42557",581.24066,76.80049,137.6834
"42558",581.25397,76.77852,137.56143
"42559",581.2673,76.75899,137.44122
"42560",581.2806,76.771194,137.35214
"42561",581.2939,76.90547,137.38551
"42562",581.3072,77.28634,137.66968
"42563",581.3205,78.02609,138.32463
"42564",581.3338,79.166245,139.40309
"42565",581.3471,80.64576,140.85655
"42566",581.3604,82.2913,142.52228
"42567",581.3737,83.87335,144.17593
"42568",581.387,85.15999,145.58362
"42569",581.4003,86.014496,146.59938
"42570",581.41364,86.39536,147.1682
"42571",581.42694,86.35142,147.32411
"42572",581.44025,85.97543,147.1466
"42573",581.45355,85.39193,146.74983
"42574",581.46686,84.70832,146.23473
"42575",581.48016,84.02228,145.69582
"42576",581.49347,83.40215,145.20139
"42577",581.5068,82.87724,144.78279
"42578",581.5201,82.459755,144.45522
"42579",581.5334,82.12039,144.19272
"42580",581.5467,81.83475,143.97334
"42581",581.56,81.57595,143.77188
"42582",581.5733,81.34402,143.5892
"42583",581.5866,81.160904,143.44809
"42584",581.5999,81.0486,143.37207
"42585",581.6132,81.0193,143.37555
"42586",581.6265,81.075455,143.46356
"42587",581.63983,81.18288,143.6046
"42588",581.65314,81.29763,143.75632
"42589",581.66644,81.37087,143.87012
"42590",581.67975,81.373314,143.9154
"42591",581.69305,81.27566,143.86067
"42592",581.70636,81.077896,143.70277
"42593",581.71967,80.78981,143.44838
"42594",581.733,80.43824,143.12149
"42595",581.7463,80.045166,142.74211
"42596",581.7596,79.63744,142.3358
"42597",581.7729,79.234604,141.92163
"42598",581.7862,78.853745,141.51685
"42599",581.7995,78.49973,141.12701
"42600",581.8128,78.17746,140.75786
"42601",581.8261,77.89426,140.4177
"42602",581.8394,77.64767,140.1053
"42603",581.8527,77.435265,139.81938
"42604",581.866,77.2546,139.55856
"42605",581.87933,77.103226,139.3214
"42606",581.89264,76.978714,139.10635
"42607",581.90594,76.88106,138.91428
"42608",581.91925,76.80293,138.73868
"42609",581.93256,76.74433,138.58017
"42610",581.94586,76.70283,138.43692
"42611",581.95917,76.67353,138.30458
"42612",581.9725,76.65156,138.17865
"42613",581.9858,76.63447,138.05692
"42614",581.9991,76.61738,137.93465
"42615",582.0124,76.59785,137.8094
"42616",582.0257,76.56855,137.67378
"42617",582.039,76.53681,137.5348
"42618",582.0523,76.53681,137.42657
"42619",582.0656,76.646675,137.4282
"42620",582.0789,76.9836,137.66034
"42621",582.0922,77.6672,138.24968
"42622",582.1055,78.75853,139.26811
"42623",582.11884,80.20874,140.67952
"42624",582.13214,81.866486,142.34378
"42625",582.14545,83.50225,144.03787
"42626",582.15875,84.88167,145.52673
"42627",582.17206,85.841156,146.63878
"42628",582.18536,86.32456,147.30472
"42629",582.19867,86.35874,147.53654
"42630",582.212,86.03647,147.41298
"42631",582.2253,85.472496,147.03764
"42632",582.2386,84.77913,146.51529
"42633",582.2519,84.051575,145.93709
"42634",582.2652,83.372856,145.38498
"42635",582.2785,82.777145,144.89467
"42636",582.2918,82.28397,144.48828
"42637",582.3051,81.87381,144.14949
"42638",582.3184,81.52468,143.85892
"42639",582.3317,81.21217,143.59406
"42640",582.34503,80.936295,143.35606
"42641",582.35834,80.71168,143.1607
"42642",582.37164,80.567635,143.03891
"42643",582.38495,80.52125,143.01027
"42644",582.39825,80.57496,143.08028
"42645",582.41156,80.69947,143.22276
"42646",582.42487,80.850845,143.396
"42647",582.4382,80.9778,143.54955
"42648",582.4515,81.03639,143.6387
"42649",582.4648,80.99977,143.63448
"42650",582.4781,80.85329,143.51924
"42651",582.4914,80.60914,143.30176
"42652",582.5047,80.28199,142.99365
"42653",582.518,79.89868,142.61916
"42654",582.5313,79.48608,142.20338
"42655",582.5446,79.063705,141.76495
"42656",582.5579,78.6511,141.32309
"42657",582.5712,78.2678,140.89763
"42658",582.58453,77.91623,140.49193
"42659",582.59784,77.60616,140.11674
"42660",582.61115,77.34005,139.77582
"42661",582.62445,77.11299,139.46564
"42662",582.63776,76.92012,139.18254
"42663",582.65106,76.75899,138.92516
"42664",582.66437,76.629585,138.69447
"42665",582.6777,76.524605,138.48416
"42666",582.691,76.4416,138.29254
"42667",582.7043,76.3708,138.11053
"42668",582.7176,76.31953,137.94585
"42669",582.7309,76.27802,137.78932
"42670",582.7442,76.23895,137.63394
"42671",582.7575,76.20233,137.47978
"42672",582.7708,76.17059,137.32936
"42673",582.7841,76.1413,137.18039
"42674",582.7974,76.14862,137.06712
"42675",582.8107,76.280464,137.07861
"42676",582.82404,76.654,137.3359
"42677",582.83734,77.39132,137.96866
"42678",582.85065,78.536354,139.03217
"42679",582.86395,80.03052,140.48059
"42680",582.87726,81.71999,142.17102
"42681",582.89056,83.36309,143.86787
"42682",582.9039,84.72053,145.33041
"42683",582.9172,85.64095,146.39836
"42684",582.9305,86.07065,147.00433
"42685",582.9438,86.04379,147.16719
"42686",582.9571,85.65804,146.9703
"42687",582.9704,85.03548,146.52455
"42688",582.9837,84.283516,145.92995
"42689",582.997,83.49981,145.2801
"42690",583.0103,82.75029,144.63995
"42691",583.0236,82.07889,144.0545
"42692",583.0369,81.50271,143.54329
"42693",583.05023,81.00954,143.09708
"42694",583.06354,80.58228,142.70137
"42695",583.07684,80.218506,142.35579
"42696",583.09015,79.92554,142.06964
"42697",583.10345,79.725334,141.86711
"42698",583.11676,79.64233,141.77551
"42699",583.13007,79.691154,141.81316
"42700",583.1434,79.85962,141.97197
"42701",583.1567,80.10376,142.21173
"42702",583.17,80.365,142.47621
"42703",583.1833,80.57984,142.70247
"42704",583.1966,80.69947,142.84023
"42705",583.2099,80.689705,142.85233
"42706",583.2232,80.54322,142.7274
"42707",583.2365,80.27711,142.47827
"42708",583.2498,79.91821,142.12804
"42709",583.2631,79.50805,141.71532
"42710",583.2764,79.078354,141.27025
"42711",583.28973,78.65354,140.81664
"42712",583.30304,78.24826,140.36928
"42713",583.31635,77.874725,139.941
"42714",583.32965,77.540245,139.5401
"42715",583.34296,77.25216,139.17514
"42716",583.35626,77.00557,138.84268
"42717",583.36957,76.79805,138.54158
"42718",583.3829,76.627144,138.27061
"42719",583.3962,76.48554,138.0236
"42720",583.4095,76.36103,137.78926
"42721",583.4228,76.25361,137.56812
"42722",583.4361,76.17792,137.37535
"42723",583.4494,76.17059,137.24858
"42724",583.4627,76.314644,137.27296
"42725",583.476,76.72724,137.57039
"42726",583.4893,77.506065,138.24693
"42727",583.5026,78.67307,139.336
"42728",583.5159,80.147705,140.76917
"42729",583.52924,81.74929,142.37537
"42730",583.54254,83.24101,143.92175
"42731",583.55585,84.40559,145.1876
"42732",583.56915,85.120926,146.04062
"42733",583.58246,85.35775,146.43747
"42734",583.59576,85.17708,146.42422
"42735",583.6091,84.67902,146.08795
"42736",583.6224,83.983215,145.53836
"42737",583.6357,83.194626,144.87425
"42738",583.649,82.406044,144.1855
"42739",583.6623,81.668724,143.52338
"42740",583.6756,81.007095,142.9139
"42741",583.6889,80.42603,142.3643
"42742",583.7022,79.91577,141.86736
"42743",583.7155,79.47387,141.42282
"42744",583.7288,79.11742,141.04993
"42745",583.7421,78.873276,140.7782
"42746",583.75543,78.77318,140.64288
"42747",583.76874,78.81468,140.64604
"42748",583.78204,78.98802,140.78233
"42749",583.79535,79.24925,141.01193
"42750",583.80865,79.54223,141.28145
"42751",583.82196,79.80591,141.53082
"42752",583.83527,79.9939,141.71274
"42753",583.8486,80.08911,141.80777
"42754",583.8619,80.08179,141.80322
"42755",583.8752,79.971924,141.69592
"42756",583.8885,79.76196,141.48508
"42757",583.9018,79.47143,141.1871
"42758",583.9151,79.11986,140.81902
"42759",583.9284,78.73655,140.4082
"42760",583.9417,78.34104,139.9732
"42761",583.955,77.9675,139.54782
"42762",583.9683,77.63058,139.14738
"42763",583.9816,77.32784,138.7706
"42764",583.99493,77.066605,138.42586
"42765",584.00824,76.839554,138.10713
"42766",584.02155,76.65888,137.8277
"42767",584.03485,76.53193,137.59633
"42768",584.04816,76.53437,137.49039
"42769",584.06146,76.78096,137.62868
"42770",584.07477,77.40597,138.15309
"42771",584.0881,78.487526,139.15358
"42772",584.1014,79.98901,140.6078
"42773",584.1147,81.77127,142.38971
"42774",584.128,83.59991,144.2737
"42775",584.1413,85.21858,146.00487
"42776",584.1546,86.41001,147.35938
"42777",584.1679,87.07408,148.22375
"42778",584.1812,87.21568,148.58643
"42779",584.1945,86.91051,148.50674
"42780",584.2078,86.28062,148.0928
"42781",584.2211,85.470055,147.47852
"42782",584.23444,84.61799,146.7974
"42783",584.24774,83.824524,146.14824
"42784",584.26105,83.13115,145.57439
"42785",584.27435,82.54276,145.08385
"42786",584.28766,82.04471,144.66525
"42787",584.30096,81.600365,144.2848
"42788",584.3143,81.19264,143.9271
"42789",584.3276,80.83864,143.61037
"42790",584.3409,80.56519,143.36313
"42791",584.3542,80.394295,143.2099
"42792",584.3675,80.32838,143.15631
"42793",584.3808,80.360115,143.19832
"42794",584.3941,80.46021,143.30968
"42795",584.4074,80.59449,143.45834
"42796",584.4207,80.726326,143.60876
"42797",584.434,80.82399,143.72913
"42798",584.4473,80.86305,143.79395
"42799",584.46063,80.82155,143.77942
"42800",584.47394,80.69947,143.68301
"42801",584.48724,80.51881,143.52422
"42802",584.50055,80.31861,143.34024
"42803",584.51385,80.14038,143.17197
"42804",584.52716,80.01343,143.04941
"42805",584.54047,79.94995,142.98636
"42806",584.5538,79.940186,142.97504
"42807",584.5671,79.9646,142.99759
"42808",584.5804,79.991455,143.02335
"42809",584.5937,80.00366,143.03528
"42810",584.607,80.00366,143.0354
"42811",584.6203,80.042725,143.07458
"42812",584.6336,80.22827,143.26147
"42813",584.6469,80.66285,143.70319
"42814",584.6602,81.42947,144.49052
"42815",584.6735,82.51591,145.62164
"42816",584.6868,83.83673,147.02109
"42817",584.70013,85.22591,148.53017
"42818",584.71344,86.49302,149.96059
"42819",584.72675,87.47936,151.14984
"42820",584.74005,88.10925,152.01346
"42821",584.75336,88.3827,152.54031
"42822",584.76666,88.358284,152.77786
"42823",584.77997,88.128784,152.80956
"42824",584.7933,87.818726,152.75352
"42825",584.8066,87.55749,152.73662
"42826",584.8199,87.481804,152.89711
"42827",584.8332,87.69909,153.3482
"42828",584.8465,88.272835,154.16255
"42829",584.8598,89.18349,155.33173
"42830",584.8731,90.36027,156.79549
"42831",584.8864,91.68841,158.44739
"42832",584.8997,93.019,160.14323
"42833",584.913,94.205536,161.73662
"42834",584.92633,95.14549,163.1205
"42835",584.93964,95.802246,164.25055
"42836",584.95294,96.19287,165.135
"42837",584.96625,96.34669,165.79483
"42838",584.97955,96.307625,166.2666
"42839",584.99286,96.095215,166.56381
"42840",585.00616,95.72411,166.69568
"42841",585.0195,95.17723,166.64017
"42842",585.0328,94.432594,166.36981
"42843",585.0461,93.49508,165.88332
"42844",585.0594,92.39155,165.2015
"42845",585.0727,91.15373,164.35092
"42846",585.086,89.80118,163.34692
"42847",585.0993,88.38758,162.23961
"42848",585.1126,86.97154,161.08568
"42849",585.1259,85.592125,159.92412
"42850",585.1392,84.26887,158.77562
"42851",585.1525,83.021286,157.66144
"42852",585.16583,81.85672,156.5913
"42853",585.17914,80.79469,155.5873
"42854",585.19244,79.87427,154.69171
"42855",585.20575,79.15892,153.97244
"42856",585.21906,78.72434,153.51158
"42857",585.23236,78.63157,153.37894
"42858",585.24567,78.88304,153.58765
"42859",585.259,79.42748,154.09718
"42860",585.2723,80.128174,154.77998
"42861",585.2856,80.80446,155.46027
"42862",585.2989,81.28298,155.96393
"42863",585.3122,81.449,156.17004
"42864",585.3255,81.26101,156.02734
"42865",585.3388,80.76051,155.56625
"42866",585.3521,80.04028,154.8698
"42867",585.3654,79.21019,154.04095
"42868",585.3787,78.35081,153.15689
"42869",585.392,77.51583,152.27037
"42870",585.40533,76.7248,151.4017
"42871",585.41864,75.9704,150.54495
"42872",585.43195,75.245285,149.69391
"42873",585.44525,74.55192,148.85196
"42874",585.45856,73.90494,148.03473
"42875",585.47186,73.3312,147.27052
"42876",585.48517,72.867325,146.59825
"42877",585.4985,72.535286,146.04332
"42878",585.5118,72.33021,145.60497
"42879",585.5251,72.21301,145.2481
"42880",585.5384,72.13733,144.92906
"42881",585.5517,72.05188,144.5979
"42882",585.565,71.922485,144.22012
"42883",585.5783,71.73205,143.77727
"42884",585.5916,71.4757,143.26254
"42885",585.6049,71.168076,142.68854
"42886",585.6182,70.81651,142.06097
"42887",585.63153,70.43076,141.38824
"42888",585.64484,70.02304,140.68149
"42889",585.65814,69.610435,139.9571
"42890",585.67145,69.222244,139.24425
"42891",585.68475,68.88045,138.56564
"42892",585.69806,68.59968,137.9374
"42893",585.71136,68.38239,137.36385
"42894",585.7247,68.23346,136.85187
"42895",585.738,68.15045,136.40115
"42896",585.7513,68.13336,136.01376
"42897",585.7646,68.1944,135.70396
"42898",585.7779,68.34333,135.48398
"42899",585.7912,68.61921,135.39558
"42900",585.8045,69.102615,135.52335
"42901",585.8178,69.891205,135.97139
"42902",585.8311,71.028915,136.7932
"42903",585.8444,72.4889,137.97284
"42904",585.8577,74.15396,139.40318
"42905",585.87103,75.83612,140.90265
"42906",585.88434,77.32784,142.26425
"42907",585.89764,78.47776,143.33066
"42908",585.91095,79.22972,144.03505
"42909",585.92426,79.59838,144.37964
"42910",585.93756,79.64965,144.41835
"42911",585.95087,79.47631,144.23405
"42912",585.9642,79.183334,143.92471
"42913",585.9775,78.86107,143.57692
"42914",585.9908,78.57786,143.25812
"42915",586.0041,78.363014,142.99883
"42916",586.0174,78.2092,142.79385
"42917",586.0307,78.082245,142.61093
"42918",586.044,77.9382,142.40695
"42919",586.0573,77.75021,142.15453
"42920",586.0706,77.5256,141.8596
"42921",586.0839,77.29366,141.55034
"42922",586.0972,77.09102,141.26312
"42923",586.11053,76.964066,141.04526
"42924",586.12384,76.93477,140.92108
"42925",586.13715,76.99336,140.88388
"42926",586.15045,77.10811,140.90466
"42927",586.16376,77.2375,140.94368
"42928",586.17706,77.34005,140.9599
"42929",586.19037,77.383995,140.92072
"42930",586.2037,77.349815,140.80478
"42931",586.217,77.2375,140.60965
"42932",586.2303,77.05928,140.3451
"42933",586.2436,76.839554,140.03346
"42934",586.2569,76.60029,139.69543
"42935",586.2702,76.36103,139.34993
"42936",586.2835,76.121765,138.99695
"42937",586.2968,75.88983,138.64381
"42938",586.3101,75.665215,138.29076
"42939",586.3234,75.44549,137.93556
"42940",586.33673,75.24284,137.59059
"42941",586.35004,75.06706,137.26614
"42942",586.36334,74.92058,136.9655
"42943",586.37665,74.80583,136.69202
"42944",586.38995,74.73014,136.45401
"42945",586.40326,74.70084,136.26003
"42946",586.41656,74.77898,136.17256
"42947",586.4299,75.06462,136.29504
"42948",586.4432,75.6701,136.74629
"42949",586.4565,76.65156,137.59244
"42950",586.4698,77.98215,138.81839
"42951",586.4831,79.52758,140.30077
"42952",586.4964,81.0901,141.84853
"42953",586.5097,82.45487,143.24736
"42954",586.523,83.47051,144.33972
"42955",586.5363,84.07599,145.05365
"42956",586.5496,84.30793,145.41296
"42957",586.5629,84.23956,145.47922
"42958",586.57623,83.963684,145.33583
"42959",586.58954,83.56573,145.06174
"42960",586.60284,83.12627,144.7337
"42961",586.61615,82.70878,144.41391
"42962",586.62946,82.35233,144.14212
"42963",586.64276,82.06912,143.93242
"42964",586.65607,81.85184,143.7798
"42965",586.6694,81.668724,143.65456
"42966",586.6827,81.478294,143.51628
"42967",586.696,81.24147,143.32565
"42968",586.7093,80.953384,143.07637
"42969",586.7226,80.63111,142.78389
"42970",586.7359,80.308846,142.48135
"42971",586.7492,80.01587,142.19803
"42972",586.7625,79.77173,141.95438
"42973",586.7758,79.569084,141.7446
"42974",586.7891,79.37621,141.53825
"42975",586.8024,79.16136,141.30391
"42976",586.81573,78.90257,141.0189
