"","Time..s.","PPG.trace","Preprocessed.PPG"
"46427",619.21387,85.977875,81.64995
"46428",619.2272,84.8011,80.65998
"46429",619.2405,83.756165,79.765076
"46430",619.2538,82.83574,78.96203
"46431",619.2671,82.04959,78.264496
"46432",619.2804,81.43191,77.71086
"46433",619.2937,81.01442,77.33812
"46434",619.307,80.816666,77.172066
"46435",619.3203,80.82399,77.20491
"46436",619.3336,80.990005,77.396675
"46437",619.3469,81.22926,77.66687
"46438",619.3602,81.45632,77.93234
"46439",619.37354,81.602806,78.12434
"46440",619.38684,81.61013,78.18175
"46441",619.40015,81.449,78.07093
"46442",619.41345,81.10231,77.76952
"46443",619.42676,80.59693,77.29859
"46444",619.44006,79.974365,76.69468
"46445",619.45337,79.28588,76.005394
"46446",619.4667,78.56565,75.26285
"46447",619.48,77.855194,74.50757
"46448",619.4933,77.18135,73.7667
"46449",619.5066,76.561226,73.058495
"46450",619.5199,76.016785,72.40659
"46451",619.5332,75.56512,71.83045
"46452",619.5465,75.21355,71.340294
"46453",619.5598,74.97185,70.94902
"46454",619.5731,74.83269,70.65273
"46455",619.5864,74.7863,70.44487
"46456",619.59973,74.81804,70.31368
"46457",619.61304,74.898605,70.232315
"46458",619.62634,75.00603,70.18032
"46459",619.63965,75.11101,70.12924
"46460",619.65295,75.20378,70.06924
"46461",619.66626,75.26238,69.97796
"46462",619.67957,75.27703,69.84456
"46463",619.6929,75.24773,69.66766
"46464",619.7062,75.17204,69.443474
"46465",619.7195,75.10368,69.22424
"46466",619.7328,75.191574,69.15913
"46467",619.7461,75.716484,69.533775
"46468",619.7594,76.95674,70.640175
"46469",619.7727,79.01732,72.60565
"46470",619.786,81.78104,75.33866
"46471",619.7993,84.91829,78.53157
"46472",619.8126,87.97009,81.73707
"46473",619.8259,90.48234,84.49838
"46474",619.83923,92.18402,86.52764
"46475",619.85254,93.019,87.74337
"46476",619.86584,93.08003,88.21125
"46477",619.87915,92.51362,88.05359
"46478",619.89246,91.493095,87.42412
"46479",619.90576,90.1918,86.48199
"46480",619.91907,88.78554,85.39422
"46481",619.9324,87.40612,84.28935
"46482",619.9457,86.13901,83.25368
"46483",619.959,85.01106,82.31757
"46484",619.9723,84.02472,81.48782
"46485",619.9856,83.17021,80.75909
"46486",619.9989,82.45731,80.145256
"46487",620.0122,81.91043,79.67516
"46488",620.0255,81.549095,79.37353
"46489",620.0388,81.38308,79.25592
"46490",620.0521,81.3904,79.306465
"46491",620.0654,81.50027,79.45978
"46492",620.07874,81.63943,79.64582
"46493",620.09204,81.73464,79.79227
"46494",620.10535,81.72732,79.83915
"46495",620.11865,81.58816,79.75397
"46496",620.13196,81.29763,79.51307
"46497",620.14526,80.85817,79.11416
"46498",620.15857,80.29664,78.579445
"46499",620.1719,79.64477,77.936844
"46500",620.1852,78.94408,77.22505
"46501",620.1985,78.23117,76.47915
"46502",620.2118,77.53292,75.725624
"46503",620.2251,76.876175,74.99178
"46504",620.2384,76.28535,74.30334
"46505",620.2517,75.772644,73.67455
"46506",620.265,75.35027,73.12008
"46507",620.2783,75.02556,72.65006
"46508",620.2916,74.79118,72.26024
"46509",620.30493,74.632484,71.93877
"46510",620.31824,74.54459,71.68314
"46511",620.33154,74.510414,71.478485
"46512",620.34485,74.5153,71.31182
"46513",620.35815,74.54948,71.17461
"46514",620.37146,74.60319,71.05799
"46515",620.38477,74.6569,70.943054
"46516",620.3981,74.703285,70.82247
"46517",620.4114,74.73502,70.68869
"46518",620.4247,74.75212,70.54126
"46519",620.438,74.74235,70.36749
"46520",620.4513,74.703285,70.16413
"46521",620.4646,74.62272,69.918045
"46522",620.4779,74.49088,69.61817
"46523",620.4912,74.29801,69.25314
"46524",620.5045,74.06607,68.84302
"46525",620.5178,73.85855,68.450066
"46526",620.5311,73.85855,68.25815
"46527",620.54443,74.36637,68.57405
"46528",620.55774,75.67742,69.70905
"46529",620.57104,77.8967,71.79325
"46530",620.58435,80.87038,74.7012
"46531",620.59766,84.227356,78.08538
"46532",620.61096,87.45739,81.44752
"46533",620.62427,90.0795,84.30267
"46534",620.6376,91.80316,86.341324
"46535",620.6509,92.59174,87.49876
"46536",620.6642,92.56489,87.865395
"46537",620.6775,91.88617,87.57933
"46538",620.6908,90.74601,86.810616
"46539",620.7041,89.33242,85.73284
"46540",620.7174,87.82361,84.51567
"46541",620.7307,86.34409,83.28064
"46542",620.744,84.981766,82.11656
"46543",620.7573,83.775696,81.06617
"46544",620.7706,82.720985,80.12945
"46545",620.78394,81.8201,79.31359
"46546",620.79724,81.08034,78.63071
"46547",620.81055,80.52857,78.1127
"46548",620.82385,80.19409,77.79474
"46549",620.83716,80.07202,77.678734
"46550",620.85046,80.13306,77.74202
"46551",620.8638,80.306404,77.919525
"46552",620.8771,80.51148,78.13418
"46553",620.8904,80.66041,78.29909
"46554",620.9037,80.69703,78.356346
"46555",620.917,80.57984,78.26094
"46556",620.9303,80.29908,77.9983
"46557",620.9436,79.869385,77.57795
"46558",620.9569,79.31762,77.0221
"46559",620.9702,78.6804,76.363556
"46560",620.9835,78.00412,75.64604
"46561",620.9968,77.31808,74.89763
"46562",621.01013,76.64912,74.14486
"46563",621.02344,76.019226,73.410255
"46564",621.03674,75.46014,72.72677
"46565",621.05005,74.97673,72.101494
"46566",621.06335,74.58366,71.551445
"46567",621.07666,74.28336,71.081894
"46568",621.08997,74.075836,70.695724
"46569",621.1033,73.95621,70.39097
"46570",621.1166,73.90982,70.155716
"46571",621.1299,73.919586,69.97517
"46572",621.1432,73.9733,69.83887
"46573",621.1565,74.06363,69.74087
"46574",621.1698,74.175934,69.66766
"46575",621.1831,74.29801,69.60774
"46576",621.1964,74.41764,69.54919
"46577",621.2097,74.52262,69.47972
"46578",621.223,74.60563,69.39156
"46579",621.2363,74.66178,69.279144
"46580",621.24963,74.683754,69.1343
"46581",621.26294,74.65446,68.93887
"46582",621.27625,74.55924,68.67661
"46583",621.28955,74.3859,68.33325
"46584",621.30286,74.13443,67.90634
"46585",621.31616,73.831696,67.42031
"46586",621.32947,73.53872,66.93458
"46587",621.3428,73.39468,66.58862
"46588",621.3561,73.66567,66.653206
"46589",621.3694,74.652016,67.441605
"46590",621.3827,76.54902,69.171486
"46591",621.396,79.29809,71.81271
"46592",621.4093,82.598915,75.091606
"46593",621.4226,85.96567,78.53957
"46594",621.4359,88.885635,81.645966
"46595",621.4492,90.97063,84.00864
"46596",621.4625,92.09857,85.479416
"46597",621.4758,92.350044,86.10897
"46598",621.48914,91.90082,86.045685
"46599",621.50244,90.93645,85.45322
"46600",621.51575,89.635155,84.49369
"46601",621.52905,88.15808,83.31772
"46602",621.54236,86.641945,82.05652
"46603",621.55566,85.1844,80.80653
"46604",621.569,83.84161,79.625755
"46605",621.5823,82.63554,78.53973
"46606",621.5956,81.59548,77.58203
"46607",621.6089,80.743416,76.77982
"46608",621.6222,80.12085,76.18049
"46609",621.6355,79.75952,75.82294
"46610",621.6488,79.67895,75.73485
"46611",621.6621,79.86206,75.90793
"46612",621.6754,80.24048,76.282036
"46613",621.6887,80.70435,76.753426
"46614",621.702,81.146255,77.21734
"46615",621.71533,81.47097,77.57787
"46616",621.72864,81.602806,77.75568
"46617",621.74194,81.50759,77.71055
"46618",621.75525,81.18776,77.43783
"46619",621.76855,80.67506,76.96224
"46620",621.78186,80.03052,76.3388
"46621",621.79517,79.30297,75.612206
"46622",621.8085,78.54856,74.83601
"46623",621.8218,77.806366,74.04846
"46624",621.8351,77.100784,73.27433
"46625",621.8484,76.44892,72.53187
"46626",621.8617,75.87274,71.84472
"46627",621.875,75.386894,71.2299
"46628",621.8883,75.01335,70.7122
"46629",621.9016,74.757,70.30002
"46630",621.9149,74.61295,69.99213
"46631",621.9282,74.57145,69.78228
"46632",621.9415,74.615395,69.656586
"46633",621.95483,74.72282,69.59574
"46634",621.96814,74.87419,69.58221
"46635",621.98145,75.054855,69.60269
"46636",621.99475,75.2404,69.633705
"46637",622.00806,75.41131,69.655876
"46638",622.02136,75.54803,69.6492
"46639",622.03467,75.62859,69.590645
"46640",622.048,75.63592,69.461365
"46641",622.0613,75.56756,69.25663
"46642",622.0746,75.43328,68.98384
"46643",622.0879,75.27459,68.68244
"46644",622.1012,75.20622,68.46641
"46645",622.1145,75.47967,68.59005
"46646",622.1278,76.39033,69.35945
"46647",622.1411,78.1384,70.99472
"46648",622.1544,80.69215,73.490295
"46649",622.1677,83.79523,76.615005
"46650",622.181,87.00816,79.94654
"46651",622.19434,89.84512,83.0025
"46652",622.20764,91.93744,85.40248
"46653",622.22095,93.136185,86.97427
"46654",622.23425,93.48043,87.72903
"46655",622.24756,93.11177,87.78163
"46656",622.26086,92.18646,87.26607
"46657",622.2742,90.88274,86.34317
"46658",622.2875,89.37148,85.172005
"46659",622.3008,87.80896,83.90234
"46660",622.3141,86.30259,82.64
"46661",622.3274,84.91829,81.45265
"46662",622.3407,83.67559,80.36365
"46663",622.354,82.58427,79.387184
"46664",622.3673,81.65652,78.54019
"46665",622.3806,80.92897,77.86441
"46666",622.3939,80.4358,77.40027
"46667",622.4072,80.20874,77.18683
"46668",622.42053,80.24292,77.22753
"46669",622.43384,80.4773,77.469505
"46670",622.44714,80.81911,77.826225
"46671",622.46045,81.17067,78.203384
"46672",622.47375,81.43191,78.501205
"46673",622.48706,81.53689,78.65093
"46674",622.50037,81.44167,78.603745
"46675",622.5137,81.146255,78.35338
"46676",622.527,80.66529,77.90823
"46677",622.5403,80.03784,77.301575
"46678",622.5536,79.31274,76.57765
"46679",622.5669,78.54368,75.78712
"46680",622.5802,77.77219,74.970116
"46681",622.5935,77.04463,74.17294
"46682",622.6068,76.387886,73.42384
"46683",622.6201,75.826355,72.749435
"46684",622.6334,75.36736,72.16002
"46685",622.6467,75.018234,71.66612
"46686",622.66003,74.77409,71.266304
"46687",622.67334,74.632484,70.96139
"46688",622.68665,74.57633,70.7375
"46689",622.69995,74.58854,70.58022
"46690",622.71326,74.652016,70.474594
"46691",622.72656,74.73991,70.39536
"46692",622.73987,74.84245,70.333534
"46693",622.7532,74.949875,70.279785
"46694",622.7665,75.04997,70.22207
"46695",622.7798,75.140305,70.157715
"46696",622.7931,75.22087,70.08642
"46697",622.8064,75.28191,69.998116
"46698",622.8197,75.32098,69.88974
"46699",622.833,75.338066,69.76061
"46700",622.8463,75.32098,69.59784
"46701",622.8596,75.2575,69.388145
"46702",622.8729,75.142746,69.12519
"46703",622.8862,74.99626,68.82692
"46704",622.89954,74.90349,68.57778
"46705",622.91284,75.07927,68.5943
"46706",622.92615,75.87274,69.234
"46707",622.93945,77.576866,70.80915
"46708",622.95276,80.26246,73.41902
"46709",622.96606,83.717094,76.88186
"46710",622.9794,87.50866,80.78958
"46711",622.9927,91.073166,84.58873
"46712",623.006,93.91745,87.77905
"46713",623.0193,95.77539,90.071915
"46714",623.0326,96.63477,91.42428
"46715",623.0459,96.61768,91.927025
"46716",623.0592,95.89014,91.71878
"46717",623.0725,94.640114,90.965324
"46718",623.0858,93.06294,89.84566
"46719",623.0991,91.351494,88.54243
"46720",623.1124,89.65713,87.2028
"46721",623.12573,88.077515,85.92497
"46722",623.13904,86.661476,84.76135
"46723",623.15234,85.4139,83.72195
"46724",623.16565,84.3299,82.80713
"46725",623.17896,83.42657,82.0391
"46726",623.19226,82.73075,81.45036
"46727",623.20557,82.27421,81.079155
"46728",623.2189,82.06668,80.942696
"46729",623.2322,82.074005,81.0146
"46730",623.2455,82.22781,81.23322
"46731",623.2588,82.42802,81.503044
"46732",623.2721,82.58915,81.74005
"46733",623.2854,82.633095,81.86491
"46734",623.2987,82.51591,81.83
"46735",623.312,82.21561,81.60832
"46736",623.3253,81.7322,81.19415
"46737",623.3386,81.0901,80.606186
"46738",623.3519,80.33082,79.88097
"46739",623.36523,79.49584,79.05633
"46740",623.37854,78.63401,78.17874
"46741",623.39185,77.78439,77.28644
"46742",623.40515,76.978714,76.41152
"46743",623.41846,76.23895,75.57735
"46744",623.43176,75.59441,74.81528
"46745",623.44507,75.054855,74.13805
"46746",623.4584,74.632484,73.56114
"46747",623.4717,74.32975,73.090675
"46748",623.485,74.13687,72.720604
"46749",623.4983,74.03677,72.43729
"46750",623.5116,74.00748,72.22164
"46751",623.5249,74.02945,72.05635
"46752",623.5382,74.07828,71.9186
"46753",623.5515,74.141754,71.79703
"46754",623.5648,74.20767,71.67988
"46755",623.5781,74.26627,71.55747
"46756",623.59143,74.31022,71.42224
"46757",623.60474,74.34196,71.27618
"46758",623.61804,74.356606,71.11401
"46759",623.63135,74.3444,70.92545
"46760",623.64465,74.302895,70.707214
"46761",623.65796,74.24185,70.46814
"46762",623.67126,74.16373,70.210075
"46763",623.6846,74.073395,69.93736
"46764",623.6979,73.968414,69.64718
"46765",623.7112,73.85367,69.34395
"46766",623.7245,73.7145,69.01271
"46767",623.7378,73.55337,68.65516
"46768",623.7511,73.36538,68.26572
"46769",623.7644,73.199356,67.892365
"46770",623.7777,73.19447,67.674965
"46771",623.791,73.64614,67.91396
"46772",623.8043,74.915695,68.98496
"46773",623.8176,77.225296,71.13568
"46774",623.83093,80.516365,74.34004
"46775",623.84424,84.44953,78.289345
"46776",623.85754,88.47303,82.45189
"46777",623.87085,91.99603,86.23967
"46778",623.88416,94.5864,89.20492
"46779",623.89746,96.08057,91.15491
"46780",623.91077,96.551765,92.128624
"46781",623.9241,96.15869,92.25279
"46782",623.9374,95.09178,91.69084
"46783",623.9507,93.55123,90.62191
"46784",623.964,91.737236,89.23139
"46785",623.9773,89.830475,87.69142
"46786",623.9906,87.974976,86.14313
"46787",624.0039,86.26353,84.68089
"46788",624.0172,84.735176,83.348274
"46789",624.0305,83.39971,82.16078
"46790",624.0438,82.269325,81.136635
"46791",624.0571,81.36843,80.306656
"46792",624.07043,80.72877,79.709755
"46793",624.08374,80.37476,79.378525
"46794",624.09705,80.31129,79.32676
"46795",624.11035,80.479744,79.504944
"46796",624.12366,80.79225,79.83244
"46797",624.13696,81.129166,80.194115
"46798",624.15027,81.38796,80.4882
"46799",624.1636,81.48562,80.62923
"46800",624.1769,81.3782,80.56823
"46801",624.1902,81.05348,80.28658
"46802",624.2035,80.52369,79.78971
"46803",624.2168,79.83032,79.11271
"46804",624.2301,79.02464,78.30173
"46805",624.2434,78.15549,77.40209
"46806",624.2567,77.27169,76.460655
"46807",624.27,76.402534,75.50624
"46808",624.2833,75.577324,74.56861
"46809",624.29663,74.82048,73.67356
"46810",624.30994,74.1564,72.847626
"46811",624.32324,73.59243,72.10104
"46812",624.33655,73.145645,71.454025
"46813",624.34985,72.8185,70.91268
"46814",624.36316,72.601204,70.47097
"46815",624.37646,72.481575,70.12013
"46816",624.3898,72.444954,69.84856
"46817",624.4031,72.481575,69.64908
"46818",624.4164,72.57435,69.5069
"46819",624.4297,72.706184,69.40668
"46820",624.443,72.86244,69.33501
"46821",624.4563,73.0309,69.28042
"46822",624.4696,73.19447,69.22621
"46823",624.4829,73.338524,69.15759
"46824",624.4962,73.45571,69.06661
"46825",624.5095,73.53872,68.945114
"46826",624.5228,73.585106,68.78959
"46827",624.53613,73.585106,68.58913
"46828",624.54944,73.54116,68.34472
"46829",624.56274,73.45083,68.05255
"46830",624.57605,73.30923,67.70629
"46831",624.58936,73.12367,67.31165
"46832",624.60266,72.90639,66.879486
"46833",624.61597,72.73792,66.48935
"46834",624.6293,72.813614,66.338104
"46835",624.6426,73.45571,66.75563
"46836",624.6559,74.98894,68.08435
"46837",624.6692,77.5378,70.47662
"46838",624.6825,80.92897,73.79085
"46839",624.6958,84.74006,77.63097
"46840",624.7091,88.39979,81.43882
"46841",624.7224,91.35882,84.66034
"46842",624.7357,93.31197,86.96846
"46843",624.749,94.220184,88.29267
"46844",624.7623,94.23239,88.74926
"46845",624.77563,93.541466,88.5031
"46846",624.78894,92.34272,87.72752
"46847",624.80225,90.81438,86.58489
"46848",624.81555,89.112686,85.22115
"46849",624.82886,87.36706,83.7603
"46850",624.84216,85.66537,82.28883
"46851",624.85547,84.068665,80.86917
"46852",624.8688,82.59403,79.52168
"46853",624.8821,81.26589,78.274605
"46854",624.8954,80.12085,77.16912
"46855",624.9087,79.22484,76.276886
"46856",624.922,78.63157,75.65939
"46857",624.9353,78.380104,75.365166
"46858",624.9486,78.46067,75.39511
"46859",624.9619,78.80492,75.69125
"46860",624.9752,79.29565,76.14464
"46861",624.9885,79.81323,76.64021
"46862",625.00183,80.24048,77.06162
"46863",625.01514,80.499275,77.327934
"46864",625.02844,80.5359,77.38016
"46865",625.04175,80.33814,77.19915
"46866",625.05505,79.93286,76.804436
"46867",625.06836,79.35912,76.2286
"46868",625.08167,78.660866,75.510315
"46869",625.095,77.88693,74.694534
"46870",625.1083,77.08858,73.83015
"46871",625.1216,76.297554,72.94814
"46872",625.1349,75.55291,72.0878
"46873",625.1482,74.87419,71.27011
"46874",625.1615,74.28092,70.51666
"46875",625.1748,73.780426,69.83745
"46876",625.1881,73.38247,69.24513
"46877",625.2014,73.091934,68.7478
"46878",625.2147,72.91371,68.35371
"46879",625.228,72.850235,68.06879
"46880",625.24133,72.8893,67.88442
"46881",625.25464,73.00893,67.781845
"46882",625.26794,73.179825,67.734276
"46883",625.28125,73.37026,67.711586
"46884",625.29456,73.56069,67.69484
"46885",625.30786,73.73159,67.66451
"46886",625.32117,73.87808,67.61512
"46887",625.3345,73.98306,67.52879
"46888",625.3478,74.04654,67.40424
"46889",625.3611,74.08072,67.25238
"46890",625.3744,74.15396,67.14065
"46891",625.3877,74.45182,67.25582
"46892",625.401,75.26971,67.90033
"46893",625.4143,76.86641,69.34921
"46894",625.4276,79.31518,71.70006
"46895",625.4409,82.4329,74.79638
"46896",625.4542,85.82651,78.266014
"46897",625.4675,88.99306,81.61464
"46898",625.48083,91.490654,84.393265
"46899",625.49414,93.084915,86.34661
"46900",625.50745,93.77341,87.44401
"46901",625.52075,93.68307,87.78409
"46902",625.53406,92.9897,87.51832
"46903",625.54736,91.86664,86.801186
"46904",625.56067,90.46525,85.77063
"46905",625.574,88.92958,84.562004
"46906",625.5873,87.36706,83.278534
"46907",625.6006,85.85092,81.992615
"46908",625.6139,84.41779,80.742325
"46909",625.6272,83.09453,79.55711
"46910",625.6405,81.91287,78.47216
"46911",625.6538,80.907,77.52606
"46912",625.6671,80.130615,76.77802
"46913",625.6804,79.63256,76.28405
"46914",625.6937,79.429924,76.06993
"46915",625.70703,79.500725,76.12292
"46916",625.72034,79.77661,76.3832
"46917",625.73364,80.164795,76.764404
"46918",625.74695,80.567635,77.17239
"46919",625.76025,80.89235,77.51485
"46920",625.77356,81.06325,77.71363
"46921",625.78687,81.03639,77.72
"46922",625.8002,80.78981,77.505806
"46923",625.8135,80.343025,77.0837
"46924",625.8268,79.73754,76.48894
"46925",625.8401,79.029526,75.77272
"46926",625.8534,78.28001,74.992874
"46927",625.8667,77.53292,74.19204
"46928",625.88,76.822464,73.40449
"46929",625.8933,76.175476,72.6582
"46930",625.9066,75.60906,71.972275
"46931",625.9199,75.13054,71.35654
"46932",625.9332,74.74235,70.81618
"46933",625.94653,74.44694,70.35647
"46934",625.95984,74.23453,69.97053
"46935",625.97314,74.09781,69.65364
"46936",625.98645,74.03189,69.40328
"46937",625.99976,74.039215,69.224106
"46938",626.01306,74.11978,69.1184
"46939",626.02637,74.25895,69.073814
"46940",626.0397,74.442055,69.077515
"46941",626.053,74.63737,69.099144
"46942",626.0663,74.810715,69.10491
"46943",626.0796,74.93523,69.06726
"46944",626.0929,74.98894,68.9627
"46945",626.1062,74.984055,68.80122
"46946",626.1195,75.001144,68.66157
"46947",626.1328,75.245285,68.7495
"46948",626.1461,76.02411,69.37974
"46949",626.1594,77.61349,70.84487
"46950",626.1727,80.08911,73.24592
"46951",626.18604,83.26299,76.422585
"46952",626.19934,86.73472,79.99628
"46953",626.21265,89.99649,83.468506
"46954",626.22595,92.5893,86.37371
"46955",626.23926,94.26658,88.444405
"46956",626.25256,95.02586,89.64952
"46957",626.26587,94.99657,90.08978
"46958",626.2792,94.33982,89.90168
"46959",626.2925,93.2314,89.24138
"46960",626.3058,91.83002,88.25348
"46961",626.3191,90.287025,87.08018
"46962",626.3324,88.71473,85.82935
"46963",626.3457,87.20592,84.59288
"46964",626.359,85.79477,83.40691
"46965",626.3723,84.5008,82.29403
"46966",626.3856,83.33379,81.26767
"46967",626.3989,82.31327,80.351326
"46968",626.41223,81.48806,79.598404
"46969",626.42554,80.90456,79.0614
"46970",626.43884,80.59449,78.7796
"46971",626.45215,80.5481,78.75179
"46972",626.46545,80.72144,78.94226
"46973",626.47876,81.02174,79.26511
"46974",626.49207,81.35134,79.62663
"46975",626.5054,81.61501,79.93253
"46976",626.5187,81.739525,80.10751
"46977",626.532,81.668724,80.09107
"46978",626.5453,81.3904,79.8649
"46979",626.5586,80.91676,79.43471
"46980",626.5719,80.29908,78.84567
"46981",626.5852,79.58373,78.13967
"46982",626.5985,78.81712,77.360054
"46983",626.6118,78.03586,76.541824
"46984",626.6251,77.26681,75.711395
"46985",626.6384,76.53925,74.89843
"46986",626.65173,75.877625,74.128654
"46987",626.66504,75.301445,73.42365
"46988",626.67834,74.83513,72.81051
"46989",626.69165,74.486,72.29998
"46990",626.70496,74.24429,71.88596
"46991",626.71826,74.107574,71.56938
"46992",626.73157,74.05875,71.33642
"46993",626.7449,74.0856,71.17761
"46994",626.7582,74.178375,71.08556
"46995",626.7715,74.3151,71.04037
"46996",626.7848,74.486,71.033615
"46997",626.7981,74.666664,71.04197
"46998",626.8114,74.830246,71.03889
"46999",626.8247,74.94743,70.99452
"47000",626.838,74.99626,70.88546
"47001",626.8513,74.969406,70.70224
"47002",626.8646,74.90593,70.48156
"47003",626.8779,74.93767,70.35411
"47004",626.89124,75.31609,70.57434
"47005",626.90454,76.36103,71.47291
"47006",626.91785,78.27024,73.2684
"47007",626.93115,81.004654,75.94876
"47008",626.94446,84.283516,79.25902
"47009",626.95776,87.65514,82.7645
"47010",626.97107,90.62394,85.97252
"47011",626.9844,92.81392,88.4945
"47012",626.9977,94.07858,90.1596
"47013",627.011,94.469215,90.99019
"47014",627.0243,94.12497,91.09811
"47015",627.0376,93.206985,90.62153
"47016",627.0509,91.89349,89.72076
"47017",627.0642,90.35783,88.55676
"47018",627.0775,88.74891,87.27153
"47019",627.0908,87.17662,85.97264
"47020",627.1041,85.70199,84.722275
"47021",627.11743,84.351875,83.55035
"47022",627.13074,83.140915,82.47538
"47023",627.14404,82.08377,81.51639
"47024",627.15735,81.22438,80.722115
"47025",627.17065,80.59937,80.13537
"47026",627.18396,80.23804,79.79276
"47027",627.19727,80.13794,79.7001
"47028",627.2106,80.25269,79.81917
"47029",627.2239,80.49439,80.06876
"47030",627.2372,80.77028,80.3601
"47031",627.2505,80.98512,80.599014
"47032",627.2638,81.07057,80.71525
"47033",627.2771,80.972916,80.65105
"47034",627.2904,80.6775,80.38603
"47035",627.3037,80.20386,79.93356
"47036",627.317,79.58129,79.31737
"47037",627.3303,78.853745,78.57674
"47038",627.3436,78.07248,77.75965
"47039",627.35693,77.27413,76.90107
"47040",627.37024,76.49287,76.03462
"47041",627.38354,75.757996,75.190155
"47042",627.39685,75.09392,74.39352
"47043",627.41016,74.51774,73.664024
"47044",627.42346,74.039215,73.01418
"47045",627.43677,73.66079,72.449486
"47046",627.4501,73.38247,71.97307
"47047",627.4634,73.2018,71.5856
"47048",627.4767,73.11635,71.28771
"47049",627.49,73.12367,71.079926
"47050",627.5033,73.214005,70.955376
"47051",627.5166,73.36782,70.89713
"47052",627.5299,73.55825,70.88031
"47053",627.5432,73.74868,70.86944
"47054",627.5565,73.90738,70.83279
"47055",627.5698,74.01236,70.747375
"47056",627.5831,74.04898,70.596886
"47057",627.59644,74.01236,70.3743
"47058",627.60974,73.92203,70.096855
"47059",627.62305,73.84146,69.826355
"47060",627.63635,73.92691,69.71935
"47061",627.64966,74.459145,70.061806
"47062",627.66296,75.718925,71.14844
"47063",627.6763,77.84787,73.1436
"47064",627.6896,80.73853,75.96701
"47065",627.7029,84.0589,79.310455
"47066",627.7162,87.325554,82.70395
"47067",627.7295,90.057526,85.66484
"47068",627.7428,91.94476,87.86638
"47069",627.7561,92.91402,89.20891
"47070",627.7694,93.050735,89.74919
"47071",627.7827,92.51606,89.62235
"47072",627.796,91.48333,88.98075
"47073",627.8093,90.11124,87.967514
"47074",627.82263,88.5536,86.72585
"47075",627.83594,86.93004,85.3696
"47076",627.84924,85.330894,83.987015
"47077",627.86255,83.809875,82.63258
"47078",627.87585,82.39872,81.340485
"47079",627.88916,81.13405,80.15077
"47080",627.90247,80.062256,79.11442
"47081",627.9158,79.24437,78.29848
"47082",627.9291,78.729225,77.75972
"47083",627.9424,78.52903,77.51981
"47084",627.9557,78.6218,77.56662
"47085",627.969,78.93675,77.8385
"47086",627.9823,79.37377,78.242294
"47087",627.9956,79.82056,78.66951
"47088",628.0089,80.17944,79.02279
"47089",628.0222,80.36744,79.21639
"47090",628.0355,80.34791,79.20834
"47091",628.0488,80.10864,78.97995
"47092",628.06213,79.691154,78.56586
"47093",628.07544,79.132065,77.997116
"47094",628.08875,78.47288,77.31081
"47095",628.10205,77.7551,76.5453
"47096",628.11536,77.02266,75.742714
"47097",628.12866,76.30488,74.93189
"47098",628.14197,75.63592,74.14746
"47099",628.1553,75.04265,73.417816
"47100",628.1686,74.54948,72.76973
"47101",628.1819,74.158844,72.20877
"47102",628.1952,73.87076,71.73815
"47103",628.2085,73.70229,71.37815
"47104",628.2218,73.6437,71.12276
"47105",628.2351,73.6852,70.96563
"47106",628.2484,73.795074,70.87817
"47107",628.2617,73.936676,70.82587
"47108",628.275,74.07095,70.77067
"47109",628.2883,74.161285,70.67572
"47110",628.30164,74.20035,70.532326
"47111",628.31494,74.22476,70.3755
"47112",628.32825,74.337074,70.30734
"47113",628.34155,74.75456,70.54787
"47114",628.35486,75.72625,71.35564
"47115",628.36816,77.41573,72.91157
"47116",628.3815,79.801025,75.2161
"47117",628.3948,82.64774,78.0566
"47118",628.4081,85.57748,81.06908
"47119",628.4214,88.165405,83.8313
"47120",628.4347,90.089264,86.01033
"47121",628.448,91.20256,87.43892
"47122",628.4613,91.544365,88.130806
"47123",628.4746,91.226974,88.17418
"47124",628.4879,90.39933,87.69738
"47125",628.5012,89.20546,86.82849
"47126",628.5145,87.79675,85.70746
"47127",628.52783,86.295265,84.449615
"47128",628.54114,84.79378,83.14485
"47129",628.55444,83.346,81.84688
"47130",628.56775,81.971466,80.576904
"47131",628.58105,80.70435,79.3714
"47132",628.59436,79.5935,78.282555
"47133",628.60767,78.70237,77.37872
"47134",628.621,78.09445,76.730255
"47135",628.6343,77.81369,76.389946
"47136",628.6476,77.86496,76.372894
"47137",628.6609,78.18967,76.63088
"47138",628.6742,78.68528,77.06992
"47139",628.6875,79.22972,77.57328
"47140",628.7008,79.70092,78.02041
"47141",628.7141,79.99878,78.30892
"47142",628.7274,80.05737,78.36748
"47143",628.7407,79.869385,78.18128
"47144",628.754,79.47875,77.78657
"47145",628.76733,78.93919,77.23072
"47146",628.78064,78.30442,76.5628
"47147",628.79395,77.628136,75.83353
"47148",628.80725,76.93965,75.07092
"47149",628.82056,76.265816,74.30145
"47150",628.83386,75.63836,73.557304
"47151",628.84717,75.089035,72.87168
"47152",628.8605,74.63981,72.26899
"47153",628.8738,74.302895,71.76457
"47154",628.8871,74.07828,71.36192
"47155",628.9004,73.944,71.042595
"47156",628.9137,73.87076,70.780106
"47157",628.927,73.82681,70.544624
"47158",628.9403,73.795074,70.31998
"47159",628.9536,73.760895,70.091896
"47160",628.9669,73.73159,69.86762
"47161",628.9802,73.78775,69.7279
"47162",628.9935,74.10269,69.84871
"47163",629.00684,74.93767,70.4994
"47164",629.02014,76.50019,71.903725
"47165",629.03345,78.836655,74.13082
"47166",629.04675,81.75418,77.01199
"47167",629.06006,84.88167,80.1943
"47168",629.07336,87.76257,83.22775
"47169",629.0867,90.01358,85.721344
"47170",629.1,91.42718,87.44787
"47171",629.1133,92.000916,88.37871
"47172",629.1266,91.85199,88.60481
"47173",629.1399,91.11955,88.24275
"47174",629.1532,89.96231,87.433
"47175",629.1665,88.531624,86.31364
"47176",629.1798,86.9691,85.01773
"47177",629.1931,85.384605,83.65102
"47178",629.2064,83.85382,82.2885
"47179",629.2197,82.41825,80.97336
"47180",629.23303,81.09987,79.730545
"47181",629.24634,79.940186,78.60523
"47182",629.25964,78.99046,77.65364
"47183",629.27295,78.314186,76.945816
"47184",629.28625,77.95285,76.5318
"47185",629.29956,77.90402,76.419
"47186",629.31287,78.118866,76.568344
"47187",629.3262,78.49973,76.89043
"47188",629.3395,78.92943,77.27324
"47189",629.3528,79.29809,77.608444
"47190",629.3661,79.5227,77.81112
"47191",629.3794,79.551994,77.8255
"47192",629.3927,79.36645,77.62595
"47193",629.406,78.98314,77.22285
"47194",629.4193,78.44358,76.65151
"47195",629.4326,77.7966,75.955894
"47196",629.4459,77.08858,75.179016
"47197",629.4592,76.3708,74.370255
"47198",629.47253,75.68719,73.573235
"47199",629.48584,75.0695,72.82078
"47200",629.49915,74.53727,72.13447
"47201",629.51245,74.09781,71.5243
"47202",629.52576,73.75357,70.99562
"47203",629.53906,73.50454,70.55139
"47204",629.55237,73.34341,70.18728
"47205",629.5657,73.26528,69.90114
"47206",629.579,73.25063,69.67603
"47207",629.5923,73.27749,69.491974
"47208",629.6056,73.32632,69.33073
"47209",629.6189,73.39712,69.19298
"47210",629.6322,73.565575,69.1551
"47211",629.6455,74.04166,69.43011
"47212",629.6588,75.089035,70.29129
"47213",629.6721,76.895706,71.944496
"47214",629.6854,79.43725,74.38903
"47215",629.6987,82.48173,77.415924
"47216",629.71204,85.61654,80.62829
"47217",629.72534,88.3827,83.56996
"47218",629.73865,90.41398,85.863205
"47219",629.75195,91.55901,87.33368
"47220",629.76526,91.8642,88.000084
"47221",629.77856,91.46624,87.972885
"47222",629.7919,90.531166,87.39613
"47223",629.8052,89.24696,86.44103
"47224",629.8185,87.79187,85.2749
"47225",629.8318,86.30259,84.02911
"47226",629.8451,84.88167,82.805145
"47227",629.8584,83.58282,81.658844
"47228",629.8717,82.41825,80.60624
"47229",629.885,81.3904,79.65396
"47230",629.8983,80.51881,78.82581
"47231",629.9116,79.83765,78.160866
"47232",629.9249,79.37377,77.69192
"47233",629.93823,79.14427,77.44285
"47234",629.95154,79.13451,77.40634
"47235",629.96484,79.290764,77.53555
"47236",629.97815,79.53246,77.75509
"47237",629.99146,79.77417,77.982185
"47238",630.00476,79.937744,78.1387
"47239",630.01807,79.95972,78.15873
"47240",630.0314,79.80591,78.00366
"47241",630.0447,79.46899,77.660675
"47242",630.058,78.97093,77.14603
"47243",630.0713,78.35081,76.493744
"47244",630.0846,77.662315,75.753716
"47245",630.0979,76.9543,74.97265
"47246",630.1112,76.26826,74.19143
"47247",630.1245,75.63836,73.444916
"47248",630.1378,75.08171,72.75197
"47249",630.1511,74.61295,72.12952
"47250",630.1644,74.24429,71.592514
"47251",630.17773,73.9733,71.141655
"47252",630.19104,73.79019,70.77022
"47253",630.20435,73.69253,70.4785
"47254",630.21765,73.67544,70.264305
"47255",630.23096,73.71694,70.10817
"47256",630.24426,73.79263,69.98752
"47257",630.25757,73.87808,69.87899
"47258",630.2709,73.944,69.7536
"47259",630.2842,73.97574,69.59609
"47260",630.2975,73.985504,69.4176
"47261",630.3108,74.07095,69.3151
"47262",630.3241,74.44938,69.50825
"47263",630.3374,75.3991,70.284515
"47264",630.3507,77.103226,71.844864
"47265",630.364,79.534904,74.18602
"47266",630.3773,82.44755,77.08413
"47267",630.3906,85.435875,80.14894
"47268",630.40393,88.043335,82.92627
"47269",630.41724,89.915924,85.05022
"47270",630.43054,90.92424,86.36841
"47271",630.44385,91.121994,86.90755
"47272",630.45715,90.65324,86.786354
"47273",630.47046,89.688866,86.1549
"47274",630.48376,88.41688,85.18569
"47275",630.4971,87.01549,84.04733
"47276",630.5104,85.62142,82.8725
"47277",630.5237,84.3299,81.756645
"47278",630.537,83.1873,80.74935
"47279",630.5503,82.20584,79.86749
"47280",630.5636,81.37087,79.101456
"47281",630.5769,80.69215,78.46557
"47282",630.5902,80.184326,77.97938
"47283",630.6035,79.8645,77.66531
"47284",630.6168,79.73022,77.526794
"47285",630.6301,79.75464,77.542786
"47286",630.64343,79.88159,77.66207
"47287",630.65674,80.04761,77.82439
"47288",630.67004,80.19165,77.96992
"47289",630.68335,80.257576,78.04183
"47290",630.69666,80.21118,78.00349
"47291",630.70996,80.028076,77.82698
"47292",630.72327,79.70092,77.5007
"47293",630.7366,79.23949,77.02992
"47294",630.7499,78.675514,76.442184
"47295",630.7632,78.048065,75.773346
"47296",630.7765,77.40353,75.06781
"47297",630.7898,76.77608,74.35922
"47298",630.8031,76.19501,73.67741
"47299",630.8164,75.684746,73.04824
"47300",630.8297,75.25994,72.48859
"47301",630.843,74.92546,72.00598
"47302",630.8563,74.67643,71.59837
"47303",630.8696,74.50553,71.261116
"47304",630.88293,74.407875,70.99176
"47305",630.89624,74.38346,70.792595
"47306",630.90955,74.424965,70.658585
"47307",630.92285,74.51774,70.57714
"47308",630.93616,74.64469,70.532776
"47309",630.94946,74.7863,70.507034
"47310",630.96277,74.91325,70.47106
"47311",630.9761,75.01579,70.41464
"47312",630.9894,75.08415,70.32725
"47313",631.0027,75.10857,70.198044
"47314",631.016,75.08171,70.01833
"47315",631.0293,74.9987,69.78163
"47316",631.0426,74.85954,69.48618
"47317",631.0559,74.67643,69.14243
"47318",631.0692,74.495766,68.79541
"47319",631.0825,74.461586,68.589226
"47320",631.0958,74.844894,68.79946
"47321",631.10913,75.93622,69.72969
"47322",631.12244,77.89426,71.56074
"47323",631.13574,80.62867,74.22935
"47324",631.14905,83.809875,77.4302
"47325",631.16235,86.94957,80.68895
"47326",631.17566,89.55703,83.51358
"47327",631.18896,91.30999,85.5652
"47328",631.2023,92.13519,86.74384
"47329",631.2156,92.14252,87.130394
"47330",631.2289,91.507744,86.87508
"47331",631.2422,90.426186,86.15314
"47332",631.2555,89.08095,85.13372
"47333",631.2688,87.62829,83.96484
"47334",631.2821,86.20981,82.784744
"47335",631.2954,84.9012,81.67019
"47336",631.3087,83.73907,80.66122
"47337",631.322,82.72587,79.76486
"47338",631.3353,81.85672,78.980896
"47339",631.34863,81.143814,78.32601
"47340",631.36194,80.61402,77.83196
"47341",631.37524,80.30152,77.53865
"47342",631.38855,80.21118,77.45773
"47343",631.40186,80.30152,77.55467
"47344",631.41516,80.50416,77.76673
"47345",631.42847,80.72877,78.007095
"47346",631.4418,80.8777,78.1788
"47347",631.4551,80.89235,78.22088
"47348",631.4684,80.740974,78.09739
"47349",631.4817,80.413826,77.793396
"47350",631.495,79.9353,77.327805
"47351",631.5083,79.34692,76.7374
"47352",631.5216,78.692604,76.062675
"47353",631.5349,78.013885,75.3431
"47354",631.5482,77.330284,74.597435
"47355",631.5615,76.67109,73.85481
"47356",631.5748,76.050964,73.13066
"47357",631.58813,75.48699,72.44328
"47358",631.60144,75.003586,71.81885
"47359",631.61475,74.63004,71.28917
"47360",631.62805,74.371254,70.86257
"47361",631.64136,74.22476,70.540184
"47362",631.65466,74.17349,70.30844
"47363",631.66797,74.195465,70.14834
"47364",631.6813,74.27116,70.04264
"47365",631.6946,74.37858,69.97104
"47366",631.7079,74.50553,69.922325
"47367",631.7212,74.634926,69.88002
"47368",631.7345,74.759445,69.83688
"47369",631.7478,74.864426,69.7781
"47370",631.7611,74.94743,69.70062
"47371",631.7744,75.001144,69.59644
"47372",631.7877,75.03288,69.47197
"47373",631.801,75.035324,69.31919
"47374",631.81433,75.01335,69.142075
"47375",631.82764,74.96452,68.937416
"47376",631.84094,74.896164,68.7117
"47377",631.85425,74.79851,68.45455
"47378",631.86755,74.67643,68.16993
"47379",631.88086,74.52018,67.84732
"47380",631.89417,74.337074,67.49297
"47381",631.9075,74.178375,67.15731
"47382",631.9208,74.20035,66.99736
"47383",631.9341,74.69596,67.31174
"47384",631.9474,75.96063,68.41066
"47385",631.9607,78.12375,70.44755
"47386",631.974,81.04616,73.311325
"47387",631.9873,84.35432,76.652176
"47388",632.0006,87.53796,79.971886
"47389",632.0139,90.10147,82.770966
"47390",632.0272,91.75922,84.744385
"47391",632.0405,92.48188,85.834526
"47392",632.05383,92.41352,86.15623
"47393",632.06714,91.734795,85.865425
"47394",632.08044,90.63859,85.13593
"47395",632.09375,89.29092,84.12072
"47396",632.10706,87.850464,82.97061
"47397",632.12036,86.44419,81.80966
"47398",632.13367,85.15755,80.724396
"47399",632.147,84.03204,79.76006
"47400",632.1603,83.072556,78.926575
"47401",632.1736,82.27177,78.2218
"47402",632.1869,81.634544,77.65557
"47403",632.2002,81.18532,77.25742
"47404",632.2135,80.94118,77.05032
"47405",632.2268,80.907,77.045555
"47406",632.2401,81.05348,77.22038
"47407",632.2534,81.31228,77.5121
"47408",632.2667,81.59792,77.83875
"47409",632.28,81.832306,78.12307
"47410",632.29333,81.94461,78.29263
"47411",632.30664,81.90311,78.3119
"47412",632.31995,81.68337,78.151634
"47413",632.33325,81.307396,77.82826
"47414",632.34656,80.797134,77.35886
"47415",632.35986,80.19409,76.78072
"47416",632.37317,79.53979,76.132484
"47417",632.3865,78.87816,75.456474
"47418",632.3998,78.238495,74.78175
"47419",632.4131,77.65011,74.13832
"47420",632.4264,77.13985,73.55463
"47421",632.4397,76.734566,73.05997
"47422",632.453,76.436714,72.66007
"47423",632.4663,76.243835,72.35584
"47424",632.4796,76.1413,72.135925
"47425",632.4929,76.11444,71.98849
"47426",632.5062,76.13153,71.884155
"47427",632.51953,76.18036,71.812096
"47428",632.53284,76.243835,71.75621
"47429",632.54614,76.314644,71.70964
"47430",632.55945,76.385445,71.665276
"47431",632.57275,76.44648,71.61336
"47432",632.58606,76.49531,71.55114
"47433",632.59937,76.524605,71.47092
"47434",632.6127,76.52949,71.367195
"47435",632.626,76.50019,71.22945
"47436",632.6393,76.43427,71.05416
"47437",632.6526,76.32197,70.83043
"47438",632.6659,76.155945,70.54947
"47439",632.6792,75.93622,70.20962
"47440",632.6925,75.682304,69.82871
"47441",632.7058,75.46014,69.47162
"47442",632.7191,75.44793,69.31754
"47443",632.7324,75.92157,69.64893
"47444",632.7457,77.14717,70.747086
"47445",632.75903,79.219955,72.73072
"47446",632.77234,81.98123,75.46762
"47447",632.78564,85.06477,78.613075
"47448",632.79895,87.98474,81.691315
"47449",632.81226,90.29191,84.248
"47450",632.82556,91.72991,86.00763
"47451",632.83887,92.28901,86.93329
"47452",632.8522,92.09369,87.122
"47453",632.8655,91.3222,86.72844
"47454",632.8788,90.162506,85.92257
"47455",632.8921,88.78554,84.86318
"47456",632.9054,87.33532,83.687515
"47457",632.9187,85.926605,82.508026
"47458",632.932,84.63264,81.39926
"47459",632.9453,83.47784,80.38923
"47460",632.9586,82.46952,79.48959
"47461",632.9719,81.617455,78.7147
"47462",632.9852,80.938736,78.086525
"47463",632.99854,80.46021,77.63734
"47464",633.01184,80.21118,77.40269
"47465",633.02515,80.19409,77.3922
"47466",633.03845,80.36988,77.57405
"47467",633.05176,80.66773,77.88346
"47468",633.06506,80.99733,78.233925
"47469",633.07837,81.27322,78.54098
"47470",633.0917,81.40749,78.71504
"47471",633.105,81.36111,78.71264
"47472",633.1183,81.11452,78.50858
"47473",633.1316,80.68238,78.111275
"47474",633.1449,80.10132,77.55154
"47475",633.1582,79.429924,76.88331
"47476",633.1715,78.71702,76.15259
"47477",633.1848,78.00412,75.3996
"47478",633.1981,77.3254,74.65851
"47479",633.2114,76.697945,73.94747
"47480",633.22473,76.14374,73.29008
"47481",633.23804,75.682304,72.70814
"47482",633.25134,75.32342,72.214325
"47483",633.26465,75.0695,71.81427
"47484",633.27795,74.915695,71.506386
"47485",633.29126,74.84978,71.281586
"47486",633.30457,74.85466,71.12553
"47487",633.3179,74.90837,71.01845
"47488",633.3312,74.99138,70.942345
"47489",633.3445,75.09392,70.88837
"47490",633.3578,75.20378,70.84492
"47491",633.3711,75.301445,70.7927
"47492",633.3844,75.38445,70.72888
"47493",633.3977,75.45037,70.650566
"47494",633.411,75.49676,70.55478
"47495",633.4243,75.51873,70.43603
"47496",633.4376,75.53094,70.3082
"47497",633.4509,75.53094,70.16854
"47498",633.46423,75.51385,70.011795
"47499",633.47754,75.4699,69.82766
"47500",633.49084,75.38445,69.60065
"47501",633.50415,75.25262,69.32458
"47502",633.51746,75.07683,69.000435
"47503",633.53076,74.881516,68.651276
"47504",633.54407,74.7277,68.33751
"47505",633.5574,74.776535,68.22159
"47506",633.5707,75.335625,68.61745
"47507",633.584,76.717476,69.85354
"47508",633.5973,79.0515,72.084984
"47509",633.6106,82.193634,75.19748
"47510",633.6239,85.750824,78.82322
"47511",633.6372,89.18349,82.43559
"47512",633.6505,91.97162,85.51071
"47513",633.6638,93.802704,87.71591
"47514",633.6771,94.63767,88.982216
"47515",633.6904,94.623024,89.424995
"47516",633.70374,93.93454,89.19348
"47517",633.71704,92.76997,88.46437
"47518",633.73035,91.30999,87.40345
"47519",633.74365,89.72549,86.172386
"47520",633.75696,88.165405,84.91623
"47521",633.77026,86.73472,83.74071
"47522",633.78357,85.47738,82.693825
"47523",633.7969,84.39338,81.78099
"47524",633.8102,83.46563,80.99053
"47525",633.8235,82.69169,80.32489
"47526",633.8368,82.08621,79.80353
"47527",633.8501,81.67849,79.461
"47528",633.8634,81.478294,79.313255
"47529",633.8767,81.478294,79.35945
"47530",633.89,81.619896,79.54725
"47531",633.9033,81.82742,79.8054
"47532",633.9166,82.00809,80.04317
"47533",633.92993,82.10086,80.19869
"47534",633.94324,82.04959,80.21307
"47535",633.95654,81.832306,80.05984
"47536",633.96985,81.449,79.73379
"47537",633.98315,80.90944,79.23951
"47538",633.99646,80.25025,78.60874
"47539",634.00977,79.50805,77.87436
"47540",634.0231,78.72678,77.07772
"47541",634.0364,77.94797,76.25912
"47542",634.0497,77.205765,75.45279
"47543",634.063,76.524605,74.68431
"47544",634.0763,75.928894,73.979996
"47545",634.0896,75.43084,73.35472
"47546",634.1029,75.04021,72.821304
"47547",634.1162,74.76921,72.39532
"47548",634.1295,74.61051,72.07316
"47549",634.1428,74.54948,71.843704
"47550",634.1561,74.56657,71.69047
"47551",634.16943,74.64713,71.60124
"47552",634.18274,74.757,71.54384
"47553",634.19604,74.87663,71.499626
"47554",634.20935,74.99138,71.45427
"47555",634.22266,75.09392,71.40029
"47556",634.23596,75.174484,71.327545
"47557",634.24927,75.228195,71.23046
"47558",634.2626,75.24284,71.09599
"47559",634.2759,75.22087,70.92536
"47560",634.2892,75.1696,70.72475
"47561",634.3025,75.09392,70.498116
"47562",634.3158,74.99626,70.24715
"47563",634.3291,74.87663,69.97115
"47564",634.3424,74.73014,69.66456
"47565",634.3557,74.55192,69.321655
"47566",634.369,74.33219,68.93168
"47567",634.3823,74.09537,68.51774
"47568",634.3956,73.9147,68.15256
"47569",634.40894,73.98062,68.02831
"47570",634.42224,74.62028,68.479866
"47571",634.43555,76.1413,69.83277
"47572",634.44885,78.658424,72.22932
"47573",634.46216,81.98123,75.5102
"47574",634.47546,85.680016,79.2709
"47575",634.4888,89.18837,82.95675
"47576",634.5021,91.99115,86.04666
"47577",634.5154,93.80759,88.23782
"47578",634.5287,94.61814,89.479866
"47579",634.542,94.571754,89.8903
"47580",634.5553,93.85397,89.627884
"47581",634.5686,92.65034,88.857185
"47582",634.5819,91.1342,87.736374
"47583",634.5952,89.481346,86.431465
"47584",634.6085,87.835815,85.08223
"47585",634.6218,86.30991,83.80119
"47586",634.63513,84.95491,82.64337
"47587",634.64844,83.77814,81.62144
"47588",634.66174,82.7625,80.72386
"47589",634.67505,81.91287,79.96056
"47590",634.68835,81.24635,79.35382
"47591",634.70166,80.78737,78.933784
"47592",634.71497,80.56519,78.73621
"47593",634.7283,80.57252,78.7612
"47594",634.7416,80.76051,78.96709
"47595",634.7549,81.03395,79.26429
"47596",634.7682,81.30007,79.56272
"47597",634.7815,81.478294,79.78157
"47598",634.7948,81.512474,79.861946
"47599",634.8081,81.36843,79.76517
"47600",634.8214,81.03639,79.47589
"47601",634.8347,80.52857,79.00046
"47602",634.848,79.88159,78.369995
"47603",634.8613,79.132065,77.61677
"47604",634.87463,78.331276,76.78886
"47605",634.88794,77.523155,75.92859
"47606",634.90125,76.74433,75.072365
"47607",634.91455,76.02411,74.250404
"47608",634.92786,75.38201,73.48406
"47609",634.94116,74.83757,72.79531
"47610",634.95447,74.39811,72.19453
"47611",634.9678,74.06607,71.68743
"47612",634.9811,73.83414,71.270065
"47613",634.9944,73.69741,70.94066
"47614",635.0077,73.64858,70.69488
"47615",635.021,73.68276,70.53058
"47616",635.0343,73.7731,70.42351
"47617",635.0476,73.90494,70.360756
"47618",635.0609,74.05386,70.319214
"47619",635.0742,74.20035,70.279884
"47620",635.0875,74.32975,70.22805
"47621",635.1008,74.442055,70.16316
"47622",635.11414,74.529945,70.07737
"47623",635.12744,74.58854,69.96503
"47624",635.14075,74.60319,69.81057
"47625",635.15405,74.564125,69.60286
"47626",635.16736,74.461586,69.33045
"47627",635.18066,74.29313,68.98892
"47628",635.194,74.0856,68.60306
"47629",635.2073,73.94156,68.27419
"47630",635.2206,74.08072,68.22403
"47631",635.2339,74.83269,68.79102
"47632",635.2472,76.46113,70.25799
"47633",635.2605,79.01488,72.70115
"47634",635.2738,82.25956,75.91505
"47635",635.2871,85.748375,79.47447
"47636",635.3004,88.94667,82.8524
"47637",635.3137,91.407646,85.59296
"47638",635.327,92.90669,87.448494
"47639",635.34033,93.47799,88.42313
"47640",635.35364,93.277794,88.64412
"47641",635.36694,92.489204,88.27046
"47642",635.38025,91.28802,87.459564
"47643",635.39355,89.84512,86.36942
"47644",635.40686,88.307014,85.13898
"47645",635.42017,86.79576,83.887314
"47646",635.4335,85.37728,82.6812
"47647",635.4468,84.07843,81.550385
"47648",635.4601,82.90166,80.50106
"47649",635.4734,81.846954,79.53703
"47650",635.4867,80.9485,78.6963
"47651",635.5,80.255135,78.03257
"47652",635.5133,79.82056,77.605965
"47653",635.5266,79.67895,77.45875
"47654",635.5399,79.80835,77.57812
"47655",635.5532,80.1355,77.89928
"47656",635.5665,80.56031,78.32832
"47657",635.57983,80.970474,78.756
"47658",635.59314,81.26833,79.08418
"47659",635.60645,81.38552,79.241005
"47660",635.61975,81.287865,79.186646
"47661",635.63306,80.972916,78.91194
"47662",635.64636,80.46998,78.43941
"47663",635.65967,79.818115,77.80223
"47664",635.673,79.06615,77.04458
"47665",635.6863,78.26536,76.21461
"47666",635.6996,77.44991,75.344955
"47667",635.7129,76.654,74.46935
"47668",635.7262,75.90936,73.620155
"47669",635.7395,75.250175,72.83314
"47670",635.7528,74.6984,72.132935
"47671",635.7661,74.268715,71.537575
"47672",635.7794,73.968414,71.058174
"47673",635.7927,73.79996,70.70123
"47674",635.806,73.74868,70.45621
"47675",635.81934,73.79019,70.30237
"47676",635.83264,73.900055,70.21818
"47677",635.84595,74.05875,70.18625
"47678",635.85925,74.23697,70.17881
"47679",635.87256,74.40543,70.16718
"47680",635.88586,74.54215,70.129074
"47681",635.8992,74.617836,70.0342
"47682",635.9125,74.61051,69.85869
"47683",635.9258,74.51774,69.597496
"47684",635.9391,74.39323,69.30167
"47685",635.9524,74.36393,69.09716
"47686",635.9657,74.70817,69.265274
"47687",635.979,75.72381,70.11555
"47688",635.9923,77.58907,71.84718
"47689",636.0056,80.22827,74.41104
"47690",636.0189,83.33868,77.52858
"47691",636.0322,86.46128,80.755516
"47692",636.04553,89.11757,83.613716
"47693",636.05884,90.965744,85.74681
"47694",636.07214,91.913025,87.03677
"47695",636.08545,92.052185,87.54822
"47696",636.09875,91.53704,87.409706
"47697",636.11206,90.53849,86.77169
"47698",636.12537,89.23476,85.79729
"47699",636.1387,87.77966,84.63078
"47700",636.152,86.295265,83.389496
"47701",636.1653,84.876785,82.16774
"47702",636.1786,83.56573,81.00908
"47703",636.1919,82.38163,79.93641
"47704",636.2052,81.322044,78.95125
"47705",636.2185,80.40894,78.07946
"47706",636.2318,79.68383,77.36713
"47707",636.2451,79.185776,76.85919
"47708",636.2584,78.93431,76.58228
"47709",636.2717,78.924545,76.539215
"47710",636.28503,79.10765,76.68871
"47711",636.29834,79.398186,76.95136
"47712",636.31165,79.70092,77.23529
"47713",636.32495,79.93286,77.457886
"47714",636.33826,80.03052,77.553444
"47715",636.35156,79.94995,77.47383
"47716",636.36487,79.68139,77.203705
"47717",636.3782,79.24193,76.75429
"47718",636.3915,78.66575,76.15442
"47719",636.4048,77.996796,75.44377
"47720",636.4181,77.2839,74.668274
"47721",636.4314,76.57099,73.87049
"47722",636.4447,75.87518,73.06753
"47723",636.458,75.22575,72.2892
"47724",636.4713,74.64713,71.561386
"47725",636.4846,74.15396,70.90094
"47726",636.4979,73.75845,70.32275
"47727",636.5112,73.480125,69.84937
"47728",636.52454,73.323875,69.48938
"47729",636.53784,73.270164,69.22704
"47730",636.55115,73.29946,69.046036
"47731",636.56445,73.38979,68.92698
"47732",636.57776,73.51675,68.84737
"47733",636.59106,73.65835,68.78637
"47734",636.6044,73.80484,68.73469
"47735",636.6177,73.94644,68.68269
"47736",636.631,74.06851,68.61559
"47737",636.6443,74.141754,68.50348
"47738",636.6576,74.15152,68.33018
"47739",636.6709,74.090485,68.08638
"47740",636.6842,73.99283,67.804054
"47741",636.6975,73.9733,67.5968
"47742",636.7108,74.27604,67.71121
"47743",636.7241,75.194016,68.45032
"47744",636.7374,76.90791,70.01403
"47745",636.75073,79.361565,72.371056
"47746",636.76404,82.27909,75.26863
"47747",636.77734,85.21614,78.2769
"47748",636.79065,87.711296,80.93506
"47749",636.80396,89.43496,82.899704
"47750",636.81726,90.29923,84.05882
"47751",636.83057,90.406654,84.4881
"47752",636.8439,89.92813,84.334785
"47753",636.8572,89.024796,83.74171
"47754",636.8705,87.852905,82.85184
"47755",636.8838,86.556496,81.80083
"47756",636.8971,85.24788,80.6971
"47757",636.9104,84.01984,79.63305
"47758",636.9237,82.92607,78.6649
"47759",636.937,81.986115,77.81638
"47760",636.9503,81.18288,77.07521
"47761",636.9636,80.50904,76.43834
"47762",636.9769,79.96948,75.91469
"47763",636.99023,79.57641,75.52066
"47764",637.00354,79.3518,75.282814
"47765",637.01685,79.30541,75.21617
"47766",637.03015,79.41772,75.30677
"47767",637.04346,79.62524,75.49609
"47768",637.05676,79.85718,75.716324
"47769",637.07007,80.04028,75.894966
"47770",637.0834,80.113525,75.96947
"47771",637.0967,80.042725,75.902214
"47772",637.11,79.81079,75.671616
"47773",637.1233,79.43725,75.29216
"47774",637.1366,78.94652,74.783844
"47775",637.1499,78.380104,74.18451
"47776",637.1632,77.77951,73.533295
"47777",637.1765,77.17891,72.863304
"47778",637.1898,76.60273,72.19897
"47779",637.2031,76.07782,71.567894
"47780",637.21643,75.62127,70.98878
"47781",637.22974,75.24773,70.4784
"47782",637.24304,74.96452,70.04669
"47783",637.25635,74.77165,69.696465
"47784",637.26965,74.6569,69.41833
"47785",637.28296,74.61051,69.20497
"47786",637.29626,74.62028,69.04632
"47787",637.3096,74.67399,68.931915
"47788",637.3229,74.76189,68.85338
"47789",637.3362,74.87419,68.801994
"47790",637.3495,74.99626,68.763885
"47791",637.3628,75.10857,68.719826
"47792",637.3761,75.18669,68.645096
"47793",637.3894,75.21355,68.52154
"47794",637.4027,75.17204,68.33046
"47795",637.416,75.0695,68.07705
"47796",637.4293,74.95232,67.805786
"47797",637.4426,74.96208,67.657814
"47798",637.45593,75.3283,67.8666
"47799",637.46924,76.29267,68.68498
"47800",637.48254,77.95529,70.23175
"47801",637.49585,80.21118,72.423744
"47802",637.50916,82.760056,74.97922
"47803",637.52246,85.19661,77.50202
"47804",637.53577,87.13023,79.59804
"47805",637.5491,88.33631,81.02693
"47806",637.5624,88.79042,81.74155
"47807",637.5757,88.619514,81.84534
"47808",637.589,87.9823,81.47748
"47809",637.6023,87.047226,80.791855
"47810",637.6156,85.94858,79.91343
"47811",637.6289,84.805984,78.956726
"47812",637.6422,83.70977,78.0107
"47813",637.6555,82.72343,77.14028
"47814",637.6688,81.85184,76.3538
"47815",637.6821,81.08766,75.64749
"47816",637.69543,80.42603,75.01985
"47817",637.70874,79.86694,74.474075
"47818",637.72205,79.42504,74.028015
"47819",637.73535,79.13939,73.724396
"47820",637.74866,79.03197,73.59008
"47821",637.76196,79.097885,73.62575
"47822",637.77527,79.29809,73.79776
"47823",637.7886,79.5642,74.04194
"47824",637.8019,79.82056,74.284676
"47825",637.8152,80.0061,74.464615
"47826",637.8285,80.06714,74.52584
"47827",637.8418,79.98413,74.44493
"47828",637.8551,79.75708,74.217384
"47829",637.8684,79.40795,73.860664
"47830",637.8817,78.975815,73.41003
"47831",637.895,78.49973,72.90194
"47832",637.9083,78.011444,72.36677
"47833",637.92163,77.5378,71.830986
"47834",637.93494,77.100784,71.317024
"47835",637.94824,76.70283,70.82847
"47836",637.96155,76.35371,70.37631
"47837",637.97485,76.06317,69.97183
"47838",637.98816,75.8288,69.61443
"47839",638.00146,75.665215,69.3205
"47840",638.0148,75.57488,69.09471
"47841",638.0281,75.560234,68.94178
"47842",638.0414,75.6115,68.85431
"47843",638.0547,75.72137,68.827034
"47844",638.068,75.8703,68.84226
"47845",638.0813,76.03143,68.874344
"47846",638.0946,76.1828,68.901695
"47847",638.1079,76.297554,68.89716
"47848",638.1212,76.35371,68.837616
"47849",638.1345,76.34882,68.71879
"47850",638.1478,76.29267,68.54854
"47851",638.16113,76.23651,68.376526
"47852",638.17444,76.317085,68.33949
"47853",638.18774,76.749214,68.65653
"47854",638.20105,77.72579,69.531525
"47855",638.21436,79.31274,71.0474
"47856",638.22766,81.39529,73.108475
"47857",638.24097,83.69024,75.44703
"47858",638.2543,85.82895,77.70106
"47859",638.2676,87.467155,79.521416
"47860",638.2809,88.431526,80.71913
"47861",638.2942,88.71473,81.26582
"47862",638.3075,88.43641,81.25984
"47863",638.3208,87.75525,80.842316
"47864",638.3341,86.83238,80.161804
"47865",638.3474,85.79965,79.34258
"47866",638.3607,84.75716,78.48132
"47867",638.374,83.775696,77.64852
"47868",638.3873,82.88701,76.87782
"47869",638.40063,82.08621,76.167244
"47870",638.41394,81.36843,75.514656
"47871",638.42725,80.743416,74.9324
"47872",638.44055,80.235596,74.447815
"47873",638.45386,79.87915,74.09873
"47874",638.46716,79.7058,73.92161
"47875",638.48047,79.71801,73.92462
"47876",638.4938,79.888916,74.086716
"47877",638.5071,80.16724,74.361565
"47878",638.5204,80.479744,74.6793
"47879",638.5337,80.75075,74.965294
"47880",638.547,80.92653,75.164536
"47881",638.5603,80.95827,75.22523
"47882",638.5736,80.831314,75.12822
"47883",638.5869,80.55787,74.88075
"47884",638.6002,80.16724,74.50755
"47885",638.6135,79.69848,74.04402
"47886",638.62683,79.19554,73.53166
"47887",638.64014,78.69016,73.001144
"47888",638.65344,78.2092,72.47925
"47889",638.66675,77.77219,71.986275
"47890",638.68005,77.39376,71.53823
"47891",638.69336,77.08858,71.1516
"47892",638.70667,76.859085,70.83113
"47893",638.72,76.700386,70.57428
"47894",638.7333,76.60761,70.378395
"47895",638.7466,76.578316,70.24309
"47896",638.7599,76.60029,70.158134
"47897",638.7732,76.66865,70.120255
"47898",638.7865,76.76875,70.11626
"47899",638.7998,76.87862,70.125145
"47900",638.8131,76.97627,70.12526
"47901",638.8264,77.03731,70.091805
"47902",638.8397,77.0544,70.01631
"47903",638.853,77.051956,69.92182
"47904",638.86633,77.134964,69.912704
"47905",638.87964,77.48409,70.1723
"47906",638.89294,78.29954,70.90913
"47907",638.90625,79.68139,72.23784
"47908",638.91956,81.55886,74.105354
"47909",638.93286,83.69756,76.29277
"47910",638.94617,85.75815,78.4689
"47911",638.9595,87.40856,80.299255
"47912",638.9728,88.43397,81.55618
"47913",638.9861,88.800186,82.18596
"47914",638.9994,88.602425,82.2632
"47915",639.0127,87.9823,81.911896
"47916",639.026,87.08873,81.26778
"47917",639.0393,86.056,80.456566
"47918",639.0526,85.00374,79.59355
"47919",639.0659,84.01007,78.75625
"47920",639.0792,83.12138,77.992874
"47921",639.0925,82.34989,77.318924
"47922",639.10583,81.685814,76.72828
"47923",639.11914,81.11452,76.20966
"47924",639.13245,80.638435,75.76841
"47925",639.14575,80.291756,75.44168
"47926",639.15906,80.10132,75.26036
"47927",639.17236,80.06714,75.22935
"47928",639.18567,80.184326,75.34863
"47929",639.199,80.40894,75.57901
"47930",639.2123,80.67506,75.8579
"47931",639.2256,80.91188,76.11582
"47932",639.2389,81.06569,76.29813
"47933",639.2522,81.092545,76.358284
"47934",639.2655,80.970474,76.270355
"47935",639.2788,80.706795,76.037
"47936",639.2921,80.33326,75.685555
"47937",639.3054,79.886475,75.24918
"47938",639.3187,79.40551,74.76467
"47939",639.33203,78.922104,74.26269
"47940",639.34534,78.45823,73.76513
"47941",639.35864,78.028534,73.287254
"47942",639.37195,77.64767,72.84478
"47943",639.38525,77.332726,72.45633
"47944",639.39856,77.09102,72.13127
"47945",639.41187,76.925,71.87435
"47946",639.4252,76.83467,71.68793
"47947",639.4385,76.81026,71.5646
"47948",639.4518,76.841995,71.49666
"47949",639.4651,76.912796,71.46877
"47950",639.4784,77.01289,71.4724
"47951",639.4917,77.11543,71.48159
"47952",639.505,77.205765,71.48178
"47953",639.5183,77.27657,71.46527
"47954",639.5316,77.313194,71.41679
"47955",639.5449,77.30343,71.32306
"47956",639.5582,77.25216,71.18752
"47957",639.57153,77.18379,71.03329
"47958",639.58484,77.196,70.95749
"47959",639.59814,77.47921,71.153076
"47960",639.61145,78.24582,71.84091
"47961",639.62476,79.61791,73.15819
"47962",639.63806,81.532005,75.06034
"47963",639.65137,83.74883,77.32504
"47964",639.6647,85.907074,79.60043
"47965",639.678,87.64782,81.52577
"47966",639.6913,88.744026,82.86098
"47967",639.7046,89.15175,83.54195
"47968",639.7179,88.96376,83.63995
"47969",639.7312,88.33387,83.29018
"47970",639.7445,87.430534,82.64728
"47971",639.7578,86.39048,81.83943
"47972",639.7711,85.333336,80.98199
"47973",639.7844,84.35432,80.16963
"47974",639.7977,83.49493,79.44631
"47975",639.81104,82.760056,78.820656
"47976",639.82434,82.1326,78.27945
"47977",639.83765,81.59792,77.81142
"47978",639.85095,81.15114,77.414566
"47979",639.86426,80.81178,77.11118
"47980",639.87756,80.604256,76.92902
"47981",639.89087,80.53101,76.874664
"47982",639.9042,80.5774,76.937645
"47983",639.9175,80.706795,77.08508
"47984",639.9308,80.86549,77.26587
"47985",639.9441,80.99489,77.42231
"47986",639.9574,81.0486,77.50711
"47987",639.9707,80.99245,77.48373
"47988",639.984,80.80934,77.331635
"47989",639.9973,80.5066,77.054184
"47990",640.0106,80.10864,76.67206
"47991",640.0239,79.65209,76.2189
"47992",640.03723,79.17113,75.727066
"47993",640.05054,78.69993,75.229965
"47994",640.06384,78.25315,74.74256
"47995",640.07715,77.84543,74.28025
"47996",640.09045,77.47921,73.8467
"47997",640.10376,77.171585,73.460304
"47998",640.11707,76.91768,73.11801
"47999",640.1304,76.72968,72.833694
"48000",640.1437,76.610054,72.61187
"48001",640.157,76.5539,72.44978
"48002",640.1703,76.544136,72.33233
"48003",640.1836,76.575874,72.25607
"48004",640.1969,76.63203,72.20522
"48005",640.2102,76.697945,72.16589
"48006",640.2235,76.76631,72.13107
"48007",640.2368,76.83711,72.10082
"48008",640.2501,76.90059,72.06546
"48009",640.2634,76.95674,72.02476
"48010",640.27673,77.00069,71.9736
"48011",640.29004,77.02754,71.90673
"48012",640.30334,77.02998,71.816284
"48013",640.31665,76.998245,71.691734
"48014",640.32996,76.925,71.52469
"48015",640.34326,76.805374,71.30897
"48016",640.35657,76.646675,71.05044
"48017",640.3699,76.46357,70.76254
"48018",640.3832,76.29511,70.483574
"48019",640.3965,76.25361,70.326294
"48020",640.4098,76.541695,70.49731
"48021",640.4231,77.39376,71.2413
"48022",640.4364,78.91966,72.68576
"48023",640.4497,81.041275,74.77361
"48024",640.463,83.48272,77.2476
"48025",640.4763,85.858246,79.73196
"48026",640.4896,87.767456,81.824234
"48027",640.5029,88.9662,83.26572
"48028",640.51624,89.42031,84.000015
"48029",640.52954,89.24208,84.11617
"48030",640.54285,88.60975,83.77266
"48031",640.55615,87.68444,83.11641
"48032",640.56946,86.61021,82.28232
"48033",640.58276,85.51156,81.390236
"48034",640.59607,84.473946,80.52486
"48035",640.6094,83.55596,79.74668
"48036",640.6227,82.774704,79.076546
"48037",640.636,82.12039,78.50894
"48038",640.6493,81.566185,78.020996
"48039",640.6626,81.09987,77.60362
"48040",640.6759,80.73121,77.26933
"48041",640.6892,80.47486,77.035835
"48042",640.7025,80.35035,76.92616
"48043",640.7158,80.35279,76.93955
"48044",640.7291,80.45045,77.04823
"48045",640.74243,80.587166,77.19903
"48046",640.75574,80.706795,77.337006
"48047",640.76904,80.75319,77.40549
"48048",640.78235,80.69459,77.37042
"48049",640.79565,80.516365,77.213905
"48050",640.80896,80.22339,76.937065
"48051",640.82227,79.83032,76.55098
"48052",640.8356,79.37621,76.09157
"48053",640.8489,78.89525,75.59111
"48054",640.8622,78.42161,75.08295
"48055",640.8755,77.979706,74.59172
"48056",640.8888,77.58175,74.13063
"48057",640.9021,77.23018,73.70349
"48058",640.9154,76.93477,73.321526
"48059",640.9287,76.69062,72.98159
"48060",640.942,76.50019,72.687744
"48061",640.9553,76.368355,72.44654
"48062",640.9686,76.29267,72.25737
"48063",640.98193,76.27558,72.12443
"48064",640.99524,76.30244,72.0349
"48065",641.00854,76.35859,71.9755
"48066",641.02185,76.43183,71.93495
"48067",641.03516,76.50507,71.89669
"48068",641.04846,76.558784,71.84119
"48069",641.06177,76.59052,71.76539
"48070",641.0751,76.59785,71.66617
"48071",641.0884,76.5832,71.545204
"48072",641.1017,76.558784,71.41402
"48073",641.115,76.52705,71.27474
"48074",641.1283,76.473335,71.1125
"48075",641.1416,76.383,70.911964
"48076",641.1549,76.241394,70.657326
"48077",641.1682,76.036316,70.33479
"48078",641.1815,75.77997,69.95458
"48079",641.1948,75.51629,69.55903
"48080",641.2081,75.34539,69.24802
"48081",641.22144,75.44549,69.20266
"48082",641.23474,76.036316,69.65116
"48083",641.24805,77.264366,70.75535
"48084",641.26135,79.093,72.4985
"48085",641.27466,81.30251,74.679665
"48086",641.28796,83.55352,76.971375
"48087",641.3013,85.46029,78.98919
"48088",641.3146,86.746925,80.44646
"48089",641.3279,87.327995,81.238365
"48090",641.3412,87.28649,81.42586
"48091",641.3545,86.78111,81.14818
"48092",641.3678,85.97299,80.55196
"48093",641.3811,85.0013,79.76692
"48094",641.3944,83.980774,78.90269
"48095",641.4077,82.99687,78.04318
"48096",641.421,82.1033,77.24326
"48097",641.4343,81.31716,76.52285
"48098",641.44763,80.63111,75.87796
"48099",641.46094,80.0354,75.30197
"48100",641.47424,79.534904,74.80258
"48101",641.48755,79.14671,74.39986
"48102",641.50085,78.89769,74.12417
"48103",641.51416,78.81224,74.00427
"48104",641.52747,78.887924,74.04284
"48105",641.5408,79.093,74.213165
"48106",641.5541,79.36889,74.46071
"48107",641.5674,79.65209,74.72419
"48108",641.5807,79.88159,74.94282
"48109",641.594,80.01343,75.07095
"48110",641.6073,80.01343,75.07137
"48111",641.6206,79.87671,74.935074
"48112",641.6339,79.61547,74.66998
"48113",641.6472,79.26879,74.31129
"48114",641.6605,78.870834,73.89048
"48115",641.6738,78.45823,73.44259
"48116",641.68713,78.05295,72.98913
"48117",641.70044,77.66476,72.54009
"48118",641.71375,77.30343,72.10579
"48119",641.72705,76.98604,71.70413
"48120",641.74036,76.72724,71.35115
"48121",641.75366,76.53193,71.053566
"48122",641.76697,76.41718,70.830444
"48123",641.7803,76.36591,70.66721
"48124",641.7936,76.36591,70.55365
"48125",641.8069,76.402534,70.47671
"48126",641.8202,76.46357,70.42532
"48127",641.8335,76.53925,70.390495
"48128",641.8468,76.6247,70.3678
"48129",641.8601,76.71259,70.35021
"48130",641.8734,76.79317,70.32806
"48131",641.8867,76.85176,70.28644
"48132",641.9,76.86885,70.20515
"48133",641.9133,76.83223,70.07068
"48134",641.92664,76.73945,69.87891
"48135",641.93994,76.60273,69.6403
"48136",641.95325,76.48554,69.41695
"48137",641.96655,76.51484,69.33642
"48138",641.97986,76.88838,69.60105
"48139",641.99316,77.78195,70.397385
"48140",642.0065,79.237045,71.783165
"48141",642.0198,81.12184,73.64412
"48142",642.0331,83.16777,75.725105
"48143",642.0464,85.02571,77.68204
"48144",642.0597,86.40757,79.22095
"48145",642.073,87.15953,80.17314
"48146",642.0863,87.30114,80.53848
"48147",642.0996,86.96178,80.42728
"48148",642.1129,86.29038,79.973434
"48149",642.1262,85.42611,79.30573
"48150",642.1395,84.48371,78.5329
"48151",642.15283,83.55108,77.74038
"48152",642.16614,82.686806,76.987076
"48153",642.17944,81.92264,76.30687
"48154",642.19275,81.248795,75.69311
"48155",642.20605,80.66529,75.14863
"48156",642.21936,80.16724,74.671364
"48157",642.23267,79.764404,74.27376
"48158",642.246,79.48608,73.98807
"48159",642.2593,79.35424,73.84017
"48160",642.2726,79.36889,73.83464
"48161",642.2859,79.51293,73.95896
"48162",642.2992,79.73998,74.17079
"48163",642.3125,79.98657,74.409256
"48164",642.3258,80.19653,74.6188
"48165",642.3391,80.323494,74.7519
"48166",642.3524,80.32838,74.76689
"48167",642.3657,80.20386,74.65263
"48168",642.379,79.96216,74.417305
"48169",642.39233,79.62768,74.08164
"48170",642.40564,79.237045,73.679375
"48171",642.41895,78.819565,73.23805
"48172",642.43225,78.40208,72.783676
"48173",642.44556,78.00412,72.335785
"48174",642.45886,77.642784,71.91208
"48175",642.47217,77.3254,71.521034
"48176",642.4855,77.066605,71.17866
"48177",642.4988,76.87129,70.89168
"48178",642.5121,76.734566,70.65718
"48179",642.5254,76.65888,70.479454
"48180",642.5387,76.63203,70.34819
"48181",642.552,76.646675,70.25759
"48182",642.5653,76.69306,70.19919
"48183",642.5786,76.76143,70.164215
"48184",642.5919,76.83711,70.138695
"48185",642.6052,76.92012,70.12286
"48186",642.6185,76.998245,70.104744
"48187",642.63184,77.06416,70.07686
"48188",642.64514,77.11055,70.0315
"48189",642.65845,77.12764,69.9583
"48190",642.67175,77.10811,69.84901
"48191",642.68506,77.051956,69.702484
"48192",642.69836,76.961624,69.52003
"48193",642.7117,76.84688,69.31033
"48194",642.725,76.76875,69.133675
"48195",642.7383,76.876175,69.14012
"48196",642.7516,77.39132,69.55765
"48197",642.7649,78.487526,70.572334
"48198",642.7782,80.19165,72.229195
"48199",642.7915,82.337685,74.38122
"48200",642.8048,84.61799,76.73457
"48201",642.8181,86.65171,78.912605
"48202",642.8314,88.13367,80.602425
"48203",642.8447,88.93446,81.657394
"48204",642.85803,89.09804,82.100174
"48205",642.87134,88.75624,82.042694
"48206",642.88464,88.06531,81.6254
"48207",642.89795,87.17418,80.98631
"48208",642.91125,86.20737,80.24369
"48209",642.92456,85.2723,79.5026
"48210",642.93787,84.43,78.82506
"48211",642.9512,83.70977,78.24326
"48212",642.9645,83.09941,77.74883
"48213",642.9778,82.56962,77.315895
"48214",642.9911,82.09842,76.924995
"48215",643.0044,81.68337,76.57552
"48216",643.0177,81.34646,76.291214
"48217",643.031,81.112076,76.09891
"48218",643.0443,80.99733,76.01891
"48219",643.0576,81.00221,76.05496
"48220",643.0709,81.08522,76.16929
"48221",643.0842,81.20241,76.32039
"48222",643.09753,81.304955,76.46051
"48223",643.11084,81.34402,76.54035
"48224",643.12415,81.290306,76.52864
"48225",643.13745,81.13161,76.41026
"48226",643.15076,80.87526,76.18928
"48227",643.16406,80.5359,75.877266
"48228",643.17737,80.13794,75.496056
"48229",643.1907,79.710686,75.07311
"48230",643.204,79.27123,74.62462
"48231",643.2173,78.83421,74.164825
"48232",643.2306,78.41917,73.71335
"48233",643.2439,78.04562,73.290405
"48234",643.2572,77.72579,72.9095
"48235",643.2705,77.469444,72.582085
"48236",643.2838,77.279015,72.31258
"48237",643.2971,77.14717,72.0957
"48238",643.3104,77.07393,71.93331
"48239",643.3237,77.04707,71.81502
"48240",643.33704,77.05928,71.73495
"48241",643.35034,77.100784,71.684555
"48242",643.36365,77.15938,71.65255
"48243",643.37695,77.22041,71.62482
"48244",643.39026,77.27413,71.591675
"48245",643.40356,77.313194,71.545555
"48246",643.4169,77.332726,71.481125
"48247",643.4302,77.332726,71.39777
"48248",643.4435,77.30831,71.29001
"48249",643.4568,77.264366,71.16195
"48250",643.4701,77.196,71.008095
"48251",643.4834,77.100784,70.82526
"48252",643.4967,76.97383,70.607704
"48253",643.51,76.82735,70.36665
"48254",643.5233,76.69306,70.133224
"48255",643.5366,76.69062,70.02744
"48256",643.5499,77.02022,70.253624
"48257",643.56323,77.91135,71.051636
"48258",643.57654,79.466545,72.541565
"48259",643.58984,81.59548,74.65383
"48260",643.60315,84.01984,77.128044
"48261",643.61646,86.363625,79.59745
"48262",643.62976,88.24841,81.6811
"48263",643.64307,89.45449,83.14494
"48264",643.6564,89.94522,83.93113
"48265",643.6697,89.83536,84.13206
"48266",643.683,89.29336,83.897415
"48267",643.6963,88.465706,83.36018
"48268",643.7096,87.48913,82.64816
"48269",643.7229,86.48325,81.87633
"48270",643.7362,85.538414,81.13409
"48271",643.7495,84.698555,80.4673
"48272",643.7628,83.97101,79.88658
"48273",643.7761,83.336235,79.3759
"48274",643.7894,82.78203,78.92595
"48275",643.80273,82.29618,78.52704
"48276",643.81604,81.898224,78.200836
"48277",643.82935,81.60769,77.96962
"48278",643.84265,81.45388,77.86605
"48279",643.85596,81.42458,77.88219
"48280",643.86926,81.49294,77.99506
"48281",643.88257,81.60525,78.15402
"48282",643.8959,81.70779,78.306725
"48283",643.9092,81.75174,78.404045
"48284",643.9225,81.705345,78.41239
"48285",643.9358,81.54421,78.30455
"48286",643.9491,81.26345,78.072044
"48287",643.9624,80.88258,77.73066
"48288",643.9757,80.428474,77.30413
"48289",643.989,79.93042,76.819466
"48290",644.0023,79.42504,76.31191
"48291",644.0156,78.93919,75.8081
"48292",644.02893,78.48264,75.3184
"48293",644.04224,78.07248,74.86082
"48294",644.05554,77.70626,74.434364
"48295",644.06885,77.39376,74.050186
"48296",644.08215,77.13252,73.707504
"48297",644.09546,76.927444,73.41282
"48298",644.10876,76.78096,73.17032
"48299",644.1221,76.6955,72.98427
"48300",644.1354,76.67109,72.85659
"48301",644.1487,76.68818,72.76965
"48302",644.162,76.732124,72.710106
"48303",644.1753,76.76875,72.644615
"48304",644.1886,76.788284,72.56317
"48305",644.2019,76.773636,72.44816
"48306",644.2152,76.73701,72.31071
"48307",644.2285,76.697945,72.16968
"48308",644.2418,76.66865,72.03719
"48309",644.2551,76.65156,71.916
"48310",644.26843,76.63203,71.79183
"48311",644.28174,76.592964,71.64752
"48312",644.29504,76.51728,71.46537
"48313",644.30835,76.402534,71.24179
"48314",644.32166,76.25361,70.980446
"48315",644.33496,76.09491,70.70467
"48316",644.34827,75.95819,70.44592
"48317",644.3616,75.931335,70.29276
"48318",644.3749,76.19501,70.42929
"48319",644.3882,76.981155,71.096535
"48320",644.4015,78.43137,72.452415
"48321",644.4148,80.50904,74.481064
"48322",644.4281,82.984665,76.972595
"48323",644.4414,85.489586,79.570786
"48324",644.4547,87.620964,81.87371
"48325",644.468,89.09071,83.58162
"48326",644.4813,89.79874,84.57373
"48327",644.4946,89.83292,84.91412
"48328",644.50793,89.342186,84.730675
"48329",644.52124,88.497444,84.17788
"48330",644.53455,87.45739,83.403366
"48331",644.54785,86.3563,82.535324
"48332",644.56116,85.29916,81.67681
"48333",644.57446,84.34455,80.8878
"48334",644.58777,83.50713,80.18615
"48335",644.6011,82.777145,79.56576
"48336",644.6144,82.12039,78.99579
"48337",644.6277,81.53933,78.48099
"48338",644.641,81.05104,78.0408
"48339",644.6543,80.69459,77.71719
"48340",644.6676,80.49195,77.53626
"48341",644.6809,80.45289,77.51257
"48342",644.6942,80.53834,77.612175
"48343",644.7075,80.68238,77.77304
"48344",644.7208,80.814224,77.92621
"48345",644.73413,80.885025,78.02245
"48346",644.74744,80.85573,78.02081
"48347",644.76074,80.72144,77.91327
"48348",644.77405,80.48707,77.70144
"48349",644.78735,80.16235,77.391945
"48350",644.80066,79.76196,76.99663
"48351",644.81396,79.31274,76.53996
"48352",644.8273,78.83421,76.03996
"48353",644.8406,78.348366,75.517685
"48354",644.8539,77.87717,74.99487
"48355",644.8672,77.437706,74.489075
"48356",644.8805,77.04219,74.01349
"48357",644.8938,76.697945,73.57681
"48358",644.9071,76.40986,73.18554
"48359",644.9204,76.17792,72.84141
"48360",644.9337,76.00946,72.55351
"48361",644.947,75.90204,72.32139
"48362",644.9603,75.85077,72.14206
"48363",644.97363,75.84589,72.007515
"48364",644.98694,75.87518,71.907
"48365",645.00024,75.914246,71.81716
"48366",645.01355,75.95819,71.73343
"48367",645.02686,75.99481,71.643745
"48368",645.04016,76.02899,71.552765
"48369",645.05347,76.053406,71.45309
"48370",645.0668,76.068054,71.344406
"48371",645.0801,76.05829,71.21177
"48372",645.0934,76.019226,71.04953
"48373",645.1067,75.93378,70.83968
"48374",645.12,75.79462,70.573456
"48375",645.1333,75.60906,70.256485
"48376",645.1466,75.403984,69.91419
"48377",645.1599,75.24773,69.61431
"48378",645.1732,75.29168,69.50976
"48379",645.1865,75.7702,69.84115
"48380",645.1998,76.859085,70.79785
"48381",645.21313,78.5803,72.42091
"48382",645.22644,80.765396,74.561646
"48383",645.23975,83.09697,76.91714
"48384",645.25305,85.19173,79.10867
"48385",645.26636,86.72251,80.8017
"48386",645.27966,87.55749,81.84675
"48387",645.29297,87.745476,82.270905
"48388",645.3063,87.430534,82.19801
"48389",645.3196,86.77623,81.77591
"48390",645.3329,85.92172,81.133156
"48391",645.3462,84.97688,80.37337
"48392",645.3595,84.02716,79.57917
"48393",645.3728,83.12627,78.80412
"48394",645.3861,82.2913,78.06685
"48395",645.3994,81.54177,77.38892
"48396",645.4127,80.87038,76.76571
"48397",645.426,80.28687,76.209404
"48398",645.43933,79.81323,75.74473
"48399",645.45264,79.483635,75.409294
"48400",645.46594,79.32494,75.23447
"48401",645.47925,79.33471,75.22314
"48402",645.49255,79.48852,75.356155
"48403",645.50586,79.72289,75.57455
"48404",645.51917,79.974365,75.81736
"48405",645.5325,80.177,76.019196
"48406",645.5458,80.28443,76.13216
"48407",645.5591,80.272224,76.12884
"48408",645.5724,80.13306,75.99818
"48409",645.5857,79.86694,75.73622
"48410",645.599,79.4934,75.35852
"48411",645.6123,79.044174,74.89346
"48412",645.6256,78.551,74.37042
"48413",645.6389,78.04562,73.81976
"48414",645.6522,77.55489,73.26796
"48415",645.6655,77.10811,72.74477
"48416",645.67883,76.72968,72.27597
"48417",645.69214,76.42695,71.87104
"48418",645.70544,76.20477,71.53721
"48419",645.71875,76.05585,71.269684
"48420",645.73206,75.98016,71.07075
"48421",645.74536,75.96796,70.93292
"48422",645.75867,76.016785,70.85575
"48423",645.772,76.112,70.82649
"48424",645.7853,76.243835,70.83683
"48425",645.7986,76.39765,70.87327
"48426",645.8119,76.54902,70.91206
"48427",645.8252,76.67597,70.931175
"48428",645.8385,76.76387,70.9152
"48429",645.8518,76.79317,70.84337
"48430",645.8651,76.76143,70.71142
"48431",645.8784,76.69062,70.539406
"48432",645.8917,76.654,70.39937
"48433",645.905,76.81026,70.451065
"48434",645.91833,77.36935,70.91048
"48435",645.93164,78.47776,71.93668
"48436",645.94495,80.1355,73.54685
"48437",645.95825,82.16678,75.58237
"48438",645.97156,84.27375,77.75705
"48439",645.98486,86.10727,79.72412
"48440",645.99817,87.38903,81.19673
"48441",646.0115,88.026245,82.06485
"48442",646.0248,88.06531,82.35474
"48443",646.0381,87.638054,82.17952
"48444",646.0514,86.888535,81.668686
"48445",646.0647,85.9559,80.95132
"48446",646.078,84.95247,80.134
"48447",646.0913,83.96124,79.29754
"48448",646.1046,83.05058,78.510666
"48449",646.1179,82.24246,77.797874
"48450",646.1312,81.53933,77.16482
"48451",646.14453,80.93141,76.605
"48452",646.15784,80.42115,76.12385
"48453",646.17114,80.01587,75.73173
"48454",646.18445,79.742424,75.45878
"48455",646.19775,79.61791,75.32622
"48456",646.21106,79.64721,75.343575
"48457",646.22437,79.7937,75.47904
"48458",646.2377,80.01343,75.69232
"48459",646.251,80.24292,75.92223
"48460",646.2643,80.42603,76.11294
"48461",646.2776,80.51148,76.2117
"48462",646.2909,80.47486,76.19106
"48463",646.3042,80.30396,76.035
"48464",646.3175,80.008545,75.749084
"48465",646.3308,79.61791,75.35872
"48466",646.3441,79.17113,74.899994
"48467",646.3574,78.69993,74.40289
"48468",646.3707,78.23361,73.89595
"48469",646.38403,77.78439,73.39153
"48470",646.39734,77.37423,72.91213
"48471",646.41064,77.01289,72.46874
"48472",646.42395,76.7248,72.0873
"48473",646.43726,76.507515,71.76767
"48474",646.45056,76.36591,71.51693
"48475",646.46387,76.299995,71.33745
"48476",646.4772,76.29267,71.2145
"48477",646.4905,76.334175,71.14015
"48478",646.5038,76.402534,71.093956
"48479",646.5171,76.490425,71.06943
"48480",646.5304,76.575874,71.045204
"48481",646.5437,76.65644,71.01877
"48482",646.557,76.717476,70.97532
"48483",646.5703,76.75166,70.90693
"48484",646.5836,76.749214,70.80297
"48485",646.5969,76.697945,70.650116
"48486",646.6102,76.60761,70.4566
"48487",646.62354,76.52216,70.26514
"48488",646.63684,76.56855,70.20284
"48489",646.65015,76.9543,70.48136
"48490",646.66345,77.874725,71.30661
"48491",646.67676,79.40307,72.76854
"48492",646.69006,81.409935,74.75675
"48493",646.70337,83.62188,77.01276
"48494",646.7167,85.67513,79.17919
"48495",646.73,87.237656,80.91906
"48496",646.7433,88.128784,82.03636
"48497",646.7566,88.35584,82.51744
"48498",646.7699,88.04822,82.47093
"48499",646.7832,87.362175,82.03639
"48500",646.7965,86.451515,81.355804
"48501",646.8098,85.44808,80.55398
"48502",646.8231,84.46418,79.740326
"48503",646.8364,83.577934,78.99358
"48504",646.84973,82.82597,78.35343
"48505",646.86304,82.20584,77.82161
"48506",646.87634,81.6907,77.3754
"48507",646.88965,81.25124,76.98878
"48508",646.90295,80.88014,76.65678
"48509",646.91626,80.59205,76.39619
"48510",646.92957,80.4065,76.22914
"48511",646.9429,80.34791,76.18325
"48512",646.9562,80.394295,76.24051
"48513",646.9695,80.50416,76.36269
"48514",646.9828,80.61646,76.49075
"48515",646.9961,80.67994,76.573494
"48516",647.0094,80.65797,76.57277
"48517",647.0227,80.54078,76.47614
"48518",647.036,80.33082,76.28308
"48519",647.0493,80.03784,76.00044
"48520",647.0626,79.68139,75.64517
"48521",647.0759,79.281,75.234825
"48522",647.08923,78.856186,74.787544
"48523",647.10254,78.42405,74.319664
"48524",647.11584,78.00168,73.848045
"48525",647.12915,77.60616,73.39008
"48526",647.14246,77.25216,72.96127
"48527",647.15576,76.961624,72.58487
"48528",647.16907,76.73701,72.265305
"48529",647.1824,76.575874,72.002205
"48530",647.1957,76.47578,71.795105
"48531",647.209,76.42939,71.63859
"48532",647.2223,76.43183,71.52945
"48533",647.2356,76.47578,71.46189
"48534",647.2489,76.54902,71.425
"48535",647.2622,76.64179,71.409935
"48536",647.2755,76.73701,71.40021
"48537",647.2888,76.81758,71.378815
"48538",647.3021,76.86885,71.330635
"48539",647.3154,76.89082,71.25476
"48540",647.32874,76.87862,71.14539
"48541",647.34204,76.822464,70.9917
"48542",647.35535,76.71992,70.789856
"48543",647.36865,76.575874,70.54331
"48544",647.38196,76.436714,70.29715
"48545",647.39526,76.40986,70.15894
"48546",647.40857,76.70283,70.33972
"48547",647.4219,77.51095,71.04481
"48548",647.4352,78.907455,72.36353
"48549",647.4485,80.782486,74.20442
"48550",647.4618,82.86992,76.31631
"48551",647.4751,84.81331,78.34938
"48552",647.4884,86.28794,79.97443
"48553",647.5017,87.10826,80.99124
"48554",647.515,87.28405,81.38916
"48555",647.5283,86.942245,81.27498
"48556",647.5416,86.239105,80.78878
"48557",647.55493,85.32845,80.0731
"48558",647.56824,84.34699,79.25815
"48559",647.58154,83.39727,78.44427
"48560",647.59485,82.547646,77.700806
"48561",647.60815,81.83719,77.06996
"48562",647.62146,81.26345,76.553635
"48563",647.63477,80.79469,76.12436
"48564",647.6481,80.40406,75.75856
"48565",647.6614,80.076904,75.44403
"48566",647.6747,79.82544,75.19497
"48567",647.688,79.66918,75.03326
"48568",647.7013,79.62035,74.97409
"48569",647.7146,79.676506,75.01838
"48570",647.7279,79.80347,75.13523
"48571",647.7412,79.95239,75.278015
"48572",647.7545,80.07446,75.3986
"48573",647.7678,80.12085,75.44731
"48574",647.7811,80.06714,75.39738
"48575",647.79443,79.90845,75.24078
"48576",647.80774,79.64233,74.9718
"48577",647.82104,79.290764,74.60906
"48578",647.83435,78.89281,74.18894
"48579",647.84766,78.4802,73.74174
"48580",647.86096,78.07248,73.28652
"48581",647.87427,77.69405,72.84786
"48582",647.8876,77.34005,72.4218
"48583",647.9009,77.015335,72.01396
"48584",647.9142,76.7248,71.63016
"48585",647.9275,76.47822,71.28123
"48586",647.9408,76.282906,70.97586
"48587",647.9541,76.14862,70.72542
"48588",647.9674,76.07782,70.53426
"48589",647.9807,76.06561,70.39949
"48590",647.994,76.10712,70.31805
"48591",648.0073,76.1828,70.27208
"48592",648.0206,76.282906,70.2529
"48593",648.03394,76.39033,70.24416
"48594",648.04724,76.49775,70.238785
"48595",648.06055,76.59052,70.222115
"48596",648.07385,76.654,70.17905
"48597",648.08716,76.67841,70.0989
"48598",648.10046,76.65156,69.96825
"48599",648.1138,76.57343,69.785484
"48600",648.1271,76.44648,69.55145
"48601",648.1404,76.28779,69.281715
"48602",648.1537,76.155945,69.03387
"48603",648.167,76.16327,68.92107
"48604",648.1936,77.32052,69.84882
"48605",648.2069,78.70725,71.151825
"48606",648.2202,80.53834,72.94251
"48607",648.2335,82.545204,74.9662
"48608",648.2468,84.38361,76.88415
"48609",648.26013,85.74593,78.38345
"48610",648.27344,86.468605,79.28568
"48611",648.28674,86.5687,79.58792
"48612",648.30005,86.18051,79.405
"48613",648.31335,85.470055,78.88768
"48614",648.32666,84.58625,78.17481
"48615",648.33997,83.648735,77.380615
"48616",648.3533,82.74784,76.59374
"48617",648.3666,81.94217,75.87394
"48618",648.3799,81.25124,75.243706
"48619",648.3932,80.66285,74.69441
"48620",648.4065,80.15991,74.21219
"48621",648.4198,79.73266,73.78993
"48622",648.4331,79.39086,73.43978
"48623",648.4464,79.15648,73.18636
"48624",648.4597,79.0515,73.05502
"48625",648.473,79.093,73.06689
"48626",648.4863,79.26147,73.20701
"48627",648.49963,79.51537,73.437836
"48628",648.51294,79.78638,73.693695
"48629",648.52625,80.02075,73.921394
"48630",648.53955,80.16724,74.06853
"48631",648.55286,80.18921,74.095726
"48632",648.56616,80.08179,73.99422
"48633",648.57947,79.852295,73.76728
"48634",648.5928,79.534904,73.445274
"48635",648.6061,79.16136,73.0572
"48636",648.6194,78.768295,72.637924
"48637",648.6327,78.380104,72.21124
"48638",648.646,78.02365,71.80417
"48639",648.6593,77.7087,71.42746
"48640",648.6726,77.44991,71.09707
"48641",648.6859,77.25216,70.819626
"48642",648.6992,77.117874,70.59947
"48643",648.7125,77.04707,70.43861
"48644",648.7258,77.032425,70.33168
"48645",648.73914,77.06172,70.26824
"48646",648.75244,77.12276,70.23746
"48647",648.76575,77.19844,70.22323
"48648",648.77905,77.27657,70.21381
"48649",648.79236,77.35226,70.20439
"48650",648.80566,77.41573,70.18513
"48651",648.819,77.45724,70.145874
"48652",648.8323,77.47677,70.085945
"48653",648.8456,77.46212,69.99245
"48654",648.8589,77.41085,69.86187
"48655",648.8722,77.32784,69.69795
"48656",648.8855,77.2375,69.52411
"48657",648.8988,77.22041,69.42069
"48658",648.9121,77.43282,69.54624
"48659",648.9254,78.05295,70.08614
"48660",648.9387,79.185776,71.15813
"48661",648.952,80.78981,72.73672
"48662",648.96533,82.66483,74.63642
"48663",648.97864,84.505684,76.56055
"48664",648.99194,85.997406,78.19307
"48665",649.00525,86.91783,79.30091
"48666",649.01855,87.20836,79.80762
"48667",649.03186,86.94713,79.771645
"48668",649.04517,86.28306,79.32467
"48669",649.0585,85.367516,78.60547
"48670",649.0718,84.351875,77.75756
"48671",649.0851,83.35577,76.897446
"48672",649.0984,82.47196,76.11851
"48673",649.1117,81.74685,75.47064
"48674",649.125,81.18288,74.96126
"48675",649.1383,80.73853,74.55388
"48676",649.1516,80.36744,74.205864
"48677",649.1649,80.062256,73.91216
"48678",649.1782,79.823,73.67485
"48679",649.1915,79.67895,73.52527
"48680",649.20483,79.656975,73.49326
"48681",649.21814,79.766846,73.592415
"48682",649.23145,79.97681,73.79509
"48683",649.24475,80.22827,74.04583
"48684",649.25806,80.462654,74.287346
"48685",649.27136,80.63111,74.47026
"48686",649.28467,80.70435,74.563225
"48687",649.298,80.66529,74.54617
"48688",649.3113,80.51881,74.42048
"48689",649.3246,80.28687,74.20476
"48690",649.3379,79.98657,73.91342
"48691",649.3512,79.64721,73.57364
"48692",649.3645,79.30053,73.215935
"48693",649.3778,78.96605,72.8596
"48694",649.3911,78.660866,72.5221
"48695",649.4044,78.399635,72.219025
"48696",649.4177,78.18967,71.959045
"48697",649.431,78.028534,71.74134
"48698",649.44434,77.91379,71.56499
"48699",649.45764,77.84299,71.42899
"48700",649.47095,77.806366,71.32497
"48701",649.48425,77.80881,71.25886
"48702",649.49756,77.84299,71.22456
"48703",649.51086,77.90646,71.220634
"48704",649.5242,77.98215,71.230896
"48705",649.5375,78.05783,71.24352
"48706",649.5508,78.11398,71.23898
"48707",649.5641,78.14328,71.20934
"48708",649.5774,78.135956,71.144
"48709",649.5907,78.10422,71.05401
"48710",649.604,78.06027,70.95082
"48711",649.6173,78.009,70.838936
"48712",649.6306,77.95529,70.72301
"48713",649.6439,77.891815,70.595634
"48714",649.6572,77.806366,70.444305
"48715",649.67053,77.68917,70.25856
"48716",649.68384,77.54513,70.042305
"48717",649.69714,77.3962,69.816666
"48718",649.71045,77.33517,69.67426
"48719",649.72375,77.54757,69.80339
"48720",649.73706,78.25071,70.42989
"48721",649.75037,79.55932,71.68384
"48722",649.7637,81.4197,73.53045
"48723",649.777,83.5877,75.74281
"48724",649.7903,85.70199,77.969215
"48725",649.8036,87.38903,79.83444
"48726",649.8169,88.40467,81.08099
"48727",649.8302,88.707405,81.64638
"48728",649.8435,88.40955,81.620636
"48729",649.8568,87.68932,81.16321
"48730",649.8701,86.712746,80.426926
"48731",649.8834,85.628746,79.5527
"48732",649.8967,84.559395,78.65924
"48733",649.91003,83.595024,77.83735
"48734",649.92334,82.78935,77.14402
"48735",649.93665,82.15701,76.59885
"48736",649.94995,81.67605,76.18529
"48737",649.96326,81.304955,75.86657
"48738",649.97656,80.99977,75.602165
"48739",649.98987,80.7483,75.381935
"48740",650.0032,80.56031,75.21733
"48741",650.0165,80.448006,75.122536
"48742",650.0298,80.41627,75.1048
"48743",650.0431,80.45533,75.15687
"48744",650.0564,80.5359,75.25166
"48745",650.0697,80.60914,75.34165
"48746",650.083,80.63355,75.3851
"48747",650.0963,80.58228,75.35363
"48748",650.1096,80.448006,75.23755
"48749",650.1229,80.218506,75.02205
"48750",650.1362,79.91333,74.7237
"48751",650.14954,79.55688,74.36454
"48752",650.16284,79.17357,73.967384
"48753",650.17615,78.77806,73.54605
"48754",650.18945,78.39231,73.122116
"48755",650.20276,78.02365,72.70322
"48756",650.21606,77.679405,72.29721
"48757",650.2294,77.38155,71.92684
"48758",650.2427,77.134964,71.59843
"48759",650.256,76.94942,71.32335
"48760",650.2693,76.82735,71.10595
"48761",650.2826,76.76387,70.94333
"48762",650.2959,76.74189,70.82022
"48763",650.3092,76.756546,70.73306
"48764",650.3225,76.79561,70.67077
"48765",650.3358,76.84932,70.624344
"48766",650.3491,76.91524,70.591805
"48767",650.3624,76.98848,70.56865
"48768",650.37573,77.06172,70.54778
"48769",650.38904,77.12276,70.517
"48770",650.40234,77.171585,70.475914
"48771",650.41565,77.196,70.41194
"48772",650.42896,77.19844,70.32676
"48773",650.44226,77.17647,70.21724
"48774",650.45557,77.13985,70.092384
"48775",650.4689,77.0959,69.95906
"48776",650.4822,77.051956,69.82436
"48777",650.4955,77.00557,69.68585
"48778",650.5088,76.94942,69.536125
"48779",650.5221,76.876175,69.36755
"48780",650.5354,76.78584,69.1796
"48781",650.5487,76.69062,68.98394
"48782",650.562,76.65156,68.84146
"48783",650.5753,76.81026,68.89552
"48784",650.5886,77.38644,69.372025
"48785",650.6019,78.555885,70.4598
"48786",650.61523,80.323494,72.18228
"48787",650.62854,82.50858,74.37748
"48788",650.64185,84.77669,76.723976
"48789",650.65515,86.729836,78.82639
"48790",650.66846,88.05066,80.35752
"48791",650.68176,88.621956,81.180405
"48792",650.69507,88.52918,81.35707
"48793",650.7084,87.940796,81.03522
"48794",650.7217,87.03502,80.377594
"48795",650.735,85.97543,79.53785
"48796",650.7483,84.88167,78.63081
"48797",650.7616,83.844055,77.74575
"48798",650.7749,82.933395,76.955215
"48799",650.7882,82.178986,76.29247
"48800",650.8015,81.56863,75.750206
"48801",650.8148,81.06813,75.29873
"48802",650.8281,80.65064,74.91462
"48803",650.84143,80.31129,74.5956
"48804",650.85474,80.05737,74.35141
"48805",650.86804,79.91577,74.2116
"48806",650.88135,79.90845,74.201645
"48807",650.89465,80.02319,74.31353
"48808",650.90796,80.22095,74.51201
"48809",650.92126,80.44312,74.74109
"48810",650.9346,80.64088,74.95269
"48811",650.9479,80.762955,75.094795
"48812",650.9612,80.7776,75.133286
"48813",650.9745,80.6775,75.05748
"48814",650.9878,80.46998,74.87113
"48815",651.0011,80.16968,74.58552
"48816",651.0144,79.80835,74.22949
"48817",651.0277,79.42016,73.83531
"48818",651.041,79.0222,73.419235
"48819",651.0543,78.641335,73.00781
"48820",651.0676,78.28733,72.61135
"48821",651.08093,77.9675,72.238
"48822",651.09424,77.68917,71.89616
"48823",651.10754,77.45968,71.59445
"48824",651.12085,77.2839,71.33929
"48825",651.13416,77.171585,71.1421
"48826",651.14746,77.1252,71.007324
"48827",651.16077,77.14229,70.93458
"48828",651.1741,77.21309,70.91608
"48829",651.1874,77.315636,70.93153
"48830",651.2007,77.44015,70.97216
"48831",651.214,77.57198,71.024
"48832",651.2273,77.70626,71.082405
"48833",651.2406,77.83322,71.13769
"48834",651.2539,77.9382,71.17496
"48835",651.2672,78.00656,71.17889
"48836",651.2805,78.02365,71.13368
"48837",651.2938,77.98215,71.03042
"48838",651.3071,77.88205,70.86726
"48839",651.32043,77.75021,70.66924
"48840",651.33374,77.64034,70.48907
"48841",651.34705,77.65743,70.43242
"48842",651.36035,77.960175,70.66196
"48843",651.37366,78.71702,71.35506
"48844",651.38696,79.991455,72.5894
"48845",651.40027,81.69314,74.29082
"48846",651.4136,83.595024,76.24561
"48847",651.4269,85.382164,78.145096
"48848",651.4402,86.76402,79.695145
"48849",651.4535,87.569695,80.71219
"48850",651.4668,87.79431,81.173355
"48851",651.4801,87.54284,81.16545
"48852",651.4934,86.956894,80.815216
"48853",651.5067,86.16098,80.2367
"48854",651.52,85.26742,79.53567
"48855",651.5333,84.36164,78.794495
"48856",651.54663,83.49981,78.06896
"48857",651.55994,82.72343,77.40195
"48858",651.57324,82.04227,76.80589
"48859",651.58655,81.444115,76.27156
"48860",651.59985,80.919205,75.79178
"48861",651.61316,80.479744,75.38104
"48862",651.62646,80.15503,75.07132
"48863",651.6398,79.974365,74.8955
"48864",651.6531,79.95239,74.87273
"48865",651.6664,80.08423,75.003075
"48866",651.6797,80.32838,75.249855
"48867",651.693,80.62379,75.55553
"48868",651.7063,80.90944,75.86067
"48869",651.7196,81.13161,76.11126
"48870",651.7329,81.24391,76.25893
"48871",651.7462,81.22926,76.28315
"48872",651.7595,81.08766,76.17996
"48873",651.7728,80.831314,75.9576
"48874",651.78613,80.48707,75.639336
"48875",651.79944,80.08667,75.25416
"48876",651.81274,79.65942,74.82961
"48877",651.82605,79.22728,74.38683
"48878",651.83936,78.81224,73.94765
"48879",651.85266,78.43137,73.52966
"48880",651.86597,78.09689,73.146164
"48881",651.8793,77.81613,72.80593
"48882",651.8926,77.593956,72.51551
"48883",651.9059,77.435265,72.28163
"48884",651.9192,77.330284,72.096504
"48885",651.9325,77.27657,71.959366
"48886",651.9458,77.27169,71.86938
"48887",651.9591,77.30587,71.8183
"48888",651.9724,77.37179,71.800026
"48889",651.9857,77.45724,71.803345
"48890",651.999,77.557335,71.82398
"48891",652.0123,77.65011,71.84042
"48892",652.02563,77.71603,71.83291
"48893",652.03894,77.738,71.78351
"48894",652.05225,77.71603,71.69085
"48895",652.06555,77.65499,71.55844
"48896",652.07886,77.60372,71.43389
"48897",652.09216,77.69405,71.44934
"48898",652.10547,78.133514,71.81674
"48899",652.1188,79.093,72.7179
"48900",652.1321,80.61646,74.21302
"48901",652.1454,82.56962,76.18544
"48902",652.1587,84.67658,78.3727
"48903",652.172,86.59312,80.43538
"48904",652.1853,88.02869,82.07698
"48905",652.1986,88.84169,83.140884
"48906",652.2119,89.06874,83.64424
"48907",652.2252,88.82704,83.68594
"48908",652.2385,88.2533,83.38805
"48909",652.25183,87.47448,82.86714
"48910",652.26514,86.60288,82.229126
"48911",652.27844,85.71908,81.55166
"48912",652.29175,84.89143,80.90273
"48913",652.30505,84.15167,80.31583
"48914",652.31836,83.50225,79.79614
"48915",652.33167,82.92607,79.32941
"48916",652.345,82.41337,78.90814
"48917",652.3583,81.95926,78.52945
"48918",652.3716,81.58083,78.21225
"48919",652.3849,81.307396,77.98821
"48920",652.3982,81.15846,77.880135
"48921",652.4115,81.13649,77.89436
"48922",652.4248,81.22438,78.01777
"48923",652.4381,81.38064,78.21229
"48924",652.4514,81.55154,78.42633
"48925",652.4647,81.68337,78.60665
"48926",652.478,81.72976,78.70564
"48927",652.49133,81.654076,78.68401
"48928",652.50464,81.444115,78.52574
"48929",652.51794,81.1194,78.246155
"48930",652.53125,80.71412,77.875854
"48931",652.54456,80.2649,77.44895
"48932",652.55786,79.798584,76.99091
"48933",652.57117,79.34203,76.52807
"48934",652.5845,78.90013,76.065605
"48935",652.5978,78.48997,75.62107
"48936",652.6111,78.12131,75.20522
"48937",652.6244,77.80148,74.82669
"48938",652.6377,77.540245,74.49675
"48939",652.651,77.34493,74.22457
"48940",652.6643,77.208206,74.004875
"48941",652.6776,77.12276,73.832184
"48942",652.6909,77.08125,73.70077
"48943",652.7042,77.07637,73.604675
"48944",652.7175,77.09834,73.535286
"48945",652.73083,77.137405,73.48367
"48946",652.74414,77.18623,73.44305
"48947",652.75745,77.239944,73.40883
"48948",652.77075,77.2839,73.36653
"48949",652.78406,77.30099,73.298744
"48950",652.79736,77.279015,73.19243
"48951",652.81067,77.205765,73.03415
"48952",652.824,77.086136,72.8272
"48953",652.8373,76.95674,72.60675
"48954",652.8506,76.92012,72.47503
"48955",652.8639,77.17891,72.63757
"48956",652.8772,77.962616,73.33312
"48957",652.8905,79.38842,74.69526
"48958",652.9038,81.3904,76.67813
"48959",652.9171,83.72442,79.055595
"48960",652.9304,86.03647,81.48403
"48961",652.9437,87.96033,83.59653
"48962",652.95703,89.25674,85.14169
"48963",652.97034,89.87442,86.04865
"48964",652.98364,89.9086,86.39141
"48965",652.99695,89.49355,86.28601
"48966",653.01025,88.76845,85.85758
"48967",653.02356,87.869995,85.23314
"48968",653.03687,86.905624,84.51471
"48969",653.0502,85.96567,83.79055
"48970",653.0635,85.101395,83.1127
"48971",653.0768,84.332344,82.50307
"48972",653.0901,83.65362,81.959724
"48973",653.1034,83.04326,81.46354
"48974",653.1167,82.49149,81.006874
"48975",653.13,82.01053,80.60377
"48976",653.1433,81.62966,80.28573
"48977",653.1566,81.375755,80.08275
"48978",653.1699,81.26101,80.010994
"48979",653.1832,81.270775,80.060165
"48980",653.19653,81.36355,80.19265
"48981",653.20984,81.48318,80.35489
"48982",653.22314,81.57839,80.49645
"48983",653.23645,81.600365,80.56775
"48984",653.24976,81.52224,80.539635
"48985",653.26306,81.324486,80.38945
"48986",653.27637,81.01442,80.12077
"48987",653.2897,80.601814,79.73987
"48988",653.303,80.11841,79.27527
"48989",653.3163,79.60082,78.76138
"48990",653.3296,79.078354,78.22644
"48991",653.3429,78.56809,77.68738
"48992",653.3562,78.08469,77.159225
"48993",653.3695,77.64034,76.65503
"48994",653.3828,77.239944,76.18089
"48995",653.3961,76.88838,75.74308
"48996",653.4094,76.595406,75.35287
"48997",653.4227,76.36347,75.01454
"48998",653.43604,76.190125,74.727554
"48999",653.44934,76.07538,74.49375
"49000",653.46265,76.0119,74.30763
"49001",653.47595,75.98749,74.15859
"49002",653.48926,75.99481,74.04053
"49003",653.50256,76.019226,73.93978
"49004",653.51587,76.050964,73.84712
"49005",653.5292,76.08026,73.75301
"49006",653.5425,76.102234,73.6525
"49007",653.5558,76.10956,73.53802
"49008",653.5691,76.09003,73.39691
"49009",653.5824,76.03876,73.22346
"49010",653.5957,75.95087,73.01178
"49011",653.609,75.8288,72.763176
"49012",653.6223,75.684746,72.48878
"49013",653.6356,75.59441,72.263596
"49014",653.6489,75.72137,72.25288
"49015",653.66223,76.299995,72.6978
"49016",653.67554,77.52804,73.81022
"49017",653.68884,79.41772,75.62265
"49018",653.70215,81.795685,77.98242
"49019",653.71545,84.317696,80.56055
"49020",653.72876,86.58335,82.96113
"49021",653.74207,88.26063,84.84413
"49022",653.7554,89.22255,86.06419
"49023",653.7687,89.50332,86.63316
"49024",653.782,89.24208,86.66891
"49025",653.7953,88.59266,86.308304
"49026",653.8086,87.69909,85.68326
"49027",653.8219,86.678566,84.903336
"49028",653.8352,85.628746,84.06222
"49029",653.8485,84.613106,83.22247
"49030",653.8618,83.66827,82.42179
"49031",653.8751,82.80156,81.669716
"49032",653.8884,82.01297,80.96867
"49033",653.90173,81.307396,80.326004
"49034",653.91504,80.69703,79.75649
"49035",653.92834,80.2063,79.287544
"49036",653.94165,79.8645,78.952194
"49037",653.95496,79.68139,78.76485
"49038",653.96826,79.65453,78.728035
"49039",653.98157,79.7351,78.797806
"49040",653.9949,79.86694,78.92137
"49041",654.0082,79.991455,79.041725
"49042",654.0215,80.05493,79.104935
"49043",654.0348,80.01587,79.06759
"49044",654.0481,79.8645,78.91672
"49045",654.0614,79.603264,78.651245
"49046",654.0747,79.24681,78.282394
"49047",654.088,78.819565,77.83161
"49048",654.1013,78.34348,77.31864
"49049",654.1146,77.840546,76.76394
"49050",654.1279,77.330284,76.186195
"49051",654.14124,76.82002,75.59251
"49052",654.15454,76.32929,75.0024
"49053",654.16785,75.877625,74.43603
"49054",654.18115,75.47967,73.90925
"49055",654.19446,75.15251,73.440834
"49056",654.20776,74.898605,73.035446
"49057",654.22107,74.71305,72.690475
"49058",654.2344,74.598305,72.410515
"49059",654.2477,74.54215,72.18556
"49060",654.261,74.53239,72.00524
"49061",654.2743,74.564125,71.86612
"49062",654.2876,74.6276,71.75973
"49063",654.3009,74.70084,71.665085
"49064",654.3142,74.776535,71.57518
"49065",654.3275,74.83513,71.47054
"49066",654.3408,74.8571,71.331116
"49067",654.3541,74.83513,71.14843
"49068",654.36743,74.76921,70.92111
"49069",654.38074,74.67399,70.66243
"49070",654.39404,74.60807,70.43008
"49071",654.40735,74.69596,70.34947
"49072",654.42065,75.142746,70.63051
"49073",654.43396,76.13153,71.46751
"49074",654.44727,77.71847,72.933556
"49075",654.4606,79.77173,74.91552
"49076",654.4739,82.020294,77.15695
"49077",654.4872,84.105286,79.30508
"49078",654.5005,85.711754,81.03983
"49079",654.5138,86.6688,82.17537
"49080",654.5271,86.993515,82.70848
"49081",654.5404,86.800644,82.73415
"49082",654.5537,86.23178,82.37781
"49083",654.567,85.42855,81.76932
"49084",654.5803,84.5008,81.01121
"49085",654.5936,83.546196,80.19725
"49086",654.60693,82.62333,79.3852
"49087",654.62024,81.76883,78.61268
"49088",654.63354,80.98024,77.879364
"49089",654.64685,80.257576,77.18733
"49090",654.66016,79.61059,76.54839
"49091",654.67346,79.05394,75.979576
"49092",654.68677,78.61448,75.51055
"49093",654.7001,78.328835,75.18161
"49094",654.7134,78.21652,75.017075
"49095",654.7267,78.28001,75.024826
"49096",654.74,78.485085,75.176155
"49097",654.7533,78.77806,75.42179
"49098",654.7666,79.08812,75.693665
"49099",654.7799,79.34936,75.92641
"49100",654.7932,79.49584,76.05256
"49101",654.8065,79.500725,76.04169
"49102",654.8198,79.35668,75.88204
"49103",654.8331,79.08568,75.590935
"49104",654.84644,78.7219,75.198586
"49105",654.85974,78.29954,74.73628
"49106",654.87305,77.855194,74.2388
"49107",654.88635,77.40841,73.72499
"49108",654.89966,76.97383,73.20943
"49109",654.91296,76.56855,72.70958
"49110",654.9263,76.209656,72.243454
"49111",654.9396,75.90204,71.81739
"49112",654.9529,75.65301,71.4403
"49113",654.9662,75.474785,71.126236
"49114",654.9795,75.36248,70.87252
"49115",654.9928,75.30389,70.66901
"49116",655.0061,75.29412,70.51249
"49117",655.0194,75.32586,70.39717
"49118",655.0327,75.37469,70.299934
"49119",655.046,75.43084,70.21155
"49120",655.0593,75.47723,70.11515
"49121",655.07263,75.51385,70.01044
"49122",655.08594,75.562675,69.919075
"49123",655.09924,75.72381,69.94154
"49124",655.11255,76.173035,70.25714
"49125",655.12585,77.09346,71.057976
"49126",655.13916,78.55833,72.432014
"49127",655.15247,80.4773,74.30594
"49128",655.1658,82.6038,76.44735
"49129",655.1791,84.613106,78.538025
"49130",655.1924,86.187836,80.25691
"49131",655.2057,87.14732,81.40977
"49132",655.219,87.484245,81.97004
"49133",655.2323,87.30602,82.025696
"49134",655.2456,86.746925,81.694916
"49135",655.2589,85.94858,81.10741
"49136",655.2722,85.02327,80.36799
"49137",655.2855,84.05646,79.55815
"49138",655.2988,83.12138,78.74984
"49139",655.31213,82.25468,77.980675
"49140",655.32544,81.47097,77.267426
"49141",655.33875,80.76784,76.61026
"49142",655.35205,80.14038,76.0068
"49143",655.36536,79.603264,75.47407
"49144",655.37866,79.18089,75.0393
"49145",655.39197,78.90013,74.73294
"49146",655.4053,78.79027,74.58871
"49147",655.4186,78.8513,74.61194
"49148",655.4319,79.0515,74.77624
"49149",655.4452,79.33715,75.03225
"49150",655.4585,79.64233,75.31671
"49151",655.4718,79.903564,75.56677
"49152",655.4851,80.062256,75.72245
"49153",655.4984,80.08667,75.74881
"49154",655.5117,79.971924,75.63677
"49155",655.525,79.73266,75.39663
"49156",655.5383,79.39086,75.04648
"49157",655.55164,78.98558,74.62216
"49158",655.56494,78.54612,74.151
"49159",655.57825,78.09689,73.65634
"49160",655.59155,77.659874,73.15985
"49161",655.60486,77.2546,72.68145
"49162",655.61816,76.893265,72.23432
"49163",655.6315,76.59052,71.834496
"49164",655.6448,76.34638,71.48381
"49165",655.6581,76.16327,71.18652
"49166",655.6714,76.036316,70.939674
"49167",655.6847,75.96796,70.74745
"49168",655.698,75.948425,70.60192
"49169",655.7113,75.95819,70.48508
"49170",655.7246,75.982605,70.38319
"49171",655.7379,76.00702,70.28206
"49172",655.7512,76.016785,70.167046
"49173",655.7645,76.02899,70.05478
"49174",655.77783,76.11932,70.02102
"49175",655.79114,76.44892,70.22935
"49176",655.80444,77.222855,70.89231
"49177",655.81775,78.555885,72.13856
"49178",655.83105,80.413826,73.95137
"49179",655.84436,82.58671,76.137184
"49180",655.85767,84.75716,78.388466
"49181",655.871,86.57847,80.35844
"49182",655.8843,87.8114,81.79694
"49183",655.8976,88.39246,82.622116
"49184",655.9109,88.40223,82.89415
"49185",655.9242,87.974976,82.72946
"49186",655.9375,87.25231,82.25601
"49187",655.9508,86.36118,81.59152
"49188",655.9641,85.40902,80.83814
"49189",655.9774,84.46662,80.06477
"49190",655.9907,83.58526,79.32299
"49191",656.004,82.794235,78.644005
"49192",656.01733,82.08377,78.02086
"49193",656.03064,81.444115,77.44632
"49194",656.04395,80.88014,76.927475
"49195",656.05725,80.4065,76.48134
"49196",656.07056,80.05737,76.14491
"49197",656.08386,79.85718,75.94651
"49198",656.09717,79.81079,75.89566
"49199",656.1105,79.89868,75.97764
"49200",656.1238,80.06714,76.14293
"49201",656.1371,80.26002,76.337906
"49202",656.1504,80.41871,76.50472
"49203",656.1637,80.49439,76.59349
"49204",656.177,80.46754,76.582085
"49205",656.1903,80.32105,76.45021
"49206",656.2036,80.059814,76.199005
"49207",656.2169,79.7058,75.84686
"49208",656.2302,79.29565,75.42751
"49209",656.2435,78.8513,74.96116
"49210",656.25684,78.399635,74.473595
"49211",656.27014,77.95529,73.97924
"49212",656.28345,77.5378,73.497856
"49213",656.29675,77.16426,73.04737
"49214",656.31006,76.84932,72.643814
"49215",656.32336,76.60761,72.30365
"49216",656.3367,76.44404,72.034065
"49217",656.35,76.34638,71.82529
"49218",656.3633,76.30732,71.67205
"49219",656.3766,76.314644,71.56398
"49220",656.3899,76.35859,71.49276
"49221",656.4032,76.422066,71.442444
"49222",656.4165,76.49775,71.40632
"49223",656.4298,76.56855,71.367676
"49224",656.4431,76.612495,71.30439
"49225",656.4564,76.6247,71.21074
"49226",656.4697,76.612495,71.093056
"49227",656.48303,76.61738,70.99208
"49228",656.49634,76.749214,71.01821
"49229",656.50964,77.208206,71.37562
"49230",656.52295,78.17502,72.25519
"49231",656.53625,79.71801,73.74115
"49232",656.54956,81.71999,75.73432
"49233",656.56287,83.91974,77.987816
"49234",656.5762,85.96567,80.156235
"49235",656.5895,87.535515,81.912506
"49236",656.6028,88.46082,83.0733
"49237",656.6161,88.75136,83.628235
"49238",656.6294,88.52186,83.67221
"49239",656.6427,87.921265,83.33792
"49240",656.656,87.09361,82.75781
"49241",656.6693,86.16098,82.04685
"49242",656.6826,85.20882,81.28722
"49243",656.6959,84.30549,80.54666
"49244",656.7092,83.492485,79.8682
"49245",656.72253,82.77226,79.25712
"49246",656.73584,82.13504,78.70653
"49247",656.74915,81.56374,78.20195
"49248",656.76245,81.06569,77.75276
"49249",656.77576,80.66529,77.385666
"49250",656.78906,80.38209,77.12325
"49251",656.80237,80.24048,76.99358
"49252",656.8157,80.23804,76.99866
"49253",656.829,80.343025,77.111084
"49254",656.8423,80.49439,77.27317
"49255",656.8556,80.63355,77.42778
"49256",656.8689,80.71412,77.528145
"49257",656.8822,80.71168,77.54802
"49258",656.8955,80.60914,77.46772
"49259",656.9088,80.40162,77.279236
"49260",656.9221,80.10376,76.99393
"49261",656.9354,79.73266,76.62607
"49262",656.9487,79.31274,76.19779
"49263",656.96204,78.86839,75.73197
"49264",656.97534,78.42405,75.252266
"49265",656.98865,77.996796,74.775764
"49266",657.00195,77.60372,74.32009
"49267",657.01526,77.25704,73.89853
"49268",657.02856,76.961624,73.517395
"49269",657.0419,76.72724,73.188065
"49270",657.0552,76.558784,72.917336
"49271",657.0685,76.45136,72.70238
"49272",657.0818,76.39277,72.53289
"49273",657.0951,76.37568,72.403076
"49274",657.1084,76.38056,72.2947
"49275",657.1217,76.39521,72.19624
"49276",657.135,76.41474,72.10313
"49277",657.1483,76.439156,72.0155
"49278",657.1616,76.46601,71.93108
"49279",657.1749,76.48066,71.8353
"49280",657.18823,76.47578,71.720436
"49281",657.20154,76.4416,71.576126
"49282",657.21484,76.402534,71.425865
"49283",657.22815,76.44892,71.35983
"49284",657.24146,76.76631,71.56625
"49285",657.25476,77.55978,72.25867
"49286",657.26807,78.922104,73.54474
"49287",657.2814,80.780045,75.368996
"49288",657.2947,82.89433,77.50766
"49289",657.308,84.928055,79.63183
"49290",657.3213,86.54673,81.4045
"49291",657.3346,87.54528,82.607635
"49292",657.3479,87.904175,83.20232
"49293",657.3612,87.728386,83.27353
"49294",657.3745,87.16441,82.951065
"49295",657.3878,86.35874,82.36928
"49296",657.4011,85.435875,81.64512
"49297",657.4144,84.488594,80.86771
"49298",657.42773,83.59258,80.11196
"49299",657.44104,82.777145,79.40879
"49300",657.45435,82.04227,78.7607
"49301",657.46765,81.38308,78.16533
"49302",657.48096,80.79469,77.62016
"49303",657.49426,80.27711,77.12741
"49304",657.50757,79.85718,76.71614
"49305",657.5209,79.56664,76.42114
"49306",657.5342,79.42748,76.26844
"49307",657.5475,79.43725,76.260315
"49308",657.5608,79.554436,76.35992
"49309",657.5741,79.73266,76.524216
"49310",657.5874,79.91333,76.69653
"49311",657.6007,80.0354,76.815895
"49312",657.614,80.062256,76.84386
"49313",657.6273,79.971924,76.75547
"49314",657.6406,79.766846,76.549515
"49315",657.65393,79.466545,76.24193
"49316",657.66724,79.10277,75.86148
"49317",657.68054,78.69993,75.4306
"49318",657.69385,78.28489,74.97494
"49319",657.70715,77.874725,74.51118
"49320",657.72046,77.48165,74.05169
"49321",657.73376,77.117874,73.609215
"49322",657.7471,76.79317,73.19444
"49323",657.7604,76.51972,72.820786
"49324",657.7737,76.30244,72.49474
"49325",657.787,76.138855,72.215614
"49326",657.8003,76.03143,71.98753
"49327",657.8136,75.98016,71.81225
"49328",657.8269,75.98505,71.69151
"49329",657.8402,76.02899,71.60999
"49330",657.8535,76.09979,71.5567
"49331",657.8668,76.173035,71.508064
"49332",657.8801,76.226746,71.442184
"49333",657.89343,76.24628,71.3438
"49334",657.90674,76.23407,71.214294
"49335",657.92004,76.23651,71.09905
"49336",657.93335,76.368355,71.11329
"49337",657.94666,76.788284,71.41973
"49338",657.95996,77.65011,72.18119
"49339",657.97327,78.99046,73.44811
"49340",657.9866,80.69459,75.12069
"49341",657.9999,82.51591,76.963715
"49342",658.0132,84.159,78.685425
"49343",658.0265,85.367516,80.02391
"49344",658.0398,86.01938,80.843506
"49345",658.0531,86.13901,81.15124
"49346",658.0664,85.838715,81.042786
"49347",658.0797,85.24544,80.631966
"49348",658.093,84.48127,80.031715
"49349",658.1063,83.63409,79.32457
"49350",658.1196,82.78447,78.58852
"49351",658.13293,81.97635,77.86741
"49352",658.14624,81.24147,77.19429
"49353",658.15955,80.5774,76.569016
"49354",658.17285,79.98901,75.99867
"49355",658.18616,79.47387,75.483185
"49356",658.19946,79.05638,75.049255
"49357",658.21277,78.76097,74.72436
"49358",658.2261,78.60471,74.52938
"49359",658.2394,78.59983,74.480896
"49360",658.2527,78.73411,74.57142
"49361",658.266,78.96849,74.76624
"49362",658.2793,79.25414,75.01966
"49363",658.2926,79.520256,75.26247
"49364",658.3059,79.71313,75.440346
"49365",658.3192,79.7937,75.511955
"49366",658.3325,79.73998,75.45179
"49367",658.3458,79.55688,75.26056
"49368",658.35913,79.276115,74.96595
"49369",658.37244,78.93675,74.603966
"49370",658.38574,78.572975,74.20696
"49371",658.39905,78.21164,73.80103
"49372",658.41235,77.86496,73.39847
"49373",658.42566,77.54269,73.009476
"49374",658.43896,77.25216,72.64216
"49375",658.4523,76.995804,72.299934
"49376",658.4656,76.77852,71.98877
"49377",658.4789,76.60761,71.71719
"49378",658.4922,76.490425,71.493996
"49379",658.5055,76.42451,71.318405
"49380",658.5188,76.40742,71.18958
"49381",658.5321,76.42451,71.094406
"49382",658.5454,76.45869,71.01685
"49383",658.5587,76.48798,70.935486
"49384",658.572,76.50019,70.837944
"49385",658.5853,76.50019,70.72858
"49386",658.59863,76.53193,70.65095
"49387",658.61194,76.697945,70.70859
"49388",658.62524,77.16914,71.0766
"49389",658.63855,78.0798,71.898796
"49390",658.65186,79.45922,73.21821
"49391",658.66516,81.18776,74.92985
"49392",658.67847,83.021286,76.80049
"49393",658.6918,84.664375,78.537994
"49394",658.7051,85.87045,79.88983
"49395",658.7184,86.51499,80.71782
"49396",658.7317,86.624855,81.03127
"49397",658.745,86.3148,80.92824
"49398",658.7583,85.70931,80.52009
"49399",658.7716,84.928055,79.917244
"49400",658.7849,84.07843,79.22162
"49401",658.7982,83.23369,78.504326
"49402",658.8115,82.44755,77.81924
"49403",658.8248,81.739525,77.1877
"49404",658.83813,81.11452,76.61705
"49405",658.85144,80.56031,76.09767
"49406",658.86475,80.076904,75.631775
"49407",658.87805,79.67895,75.23622
"49408",658.89136,79.3933,74.940544
"49409",658.90466,79.23949,74.76777
"49410",658.91797,79.2224,74.72691
"49411",658.9313,79.33471,74.814926
"49412",658.9446,79.534904,74.99433
"49413",658.9579,79.76929,75.21418
"49414",658.9712,79.97925,75.41693
"49415",658.9845,80.11597,75.553
"49416",658.9978,80.147705,75.58836
"49417",659.0111,80.059814,75.50509
"49418",659.0244,79.85962,75.30676
"49419",659.0377,79.57397,75.01672
"49420",659.051,79.237045,74.66649
"49421",659.06433,78.88548,74.291084
"49422",659.07764,78.53391,73.904686
"49423",659.09094,78.19943,73.52439
"49424",659.10425,77.88937,73.158066
"49425",659.11755,77.60616,72.8089
"49426",659.13086,77.3547,72.48263
"49427",659.14417,77.13985,72.18511
"49428",659.1575,76.978714,71.9346
"49429",659.1708,76.87129,71.732765
"49430",659.1841,76.82002,71.583725
"49431",659.1974,76.81514,71.47947
"49432",659.2107,76.84444,71.40924
"49433",659.224,76.895706,71.3619
"49434",659.2373,76.946976,71.31616
"49435",659.2506,76.9836,71.25738
"49436",659.2639,76.995804,71.17532
"49437",659.2772,76.995804,71.08144
"49438",659.2905,77.032425,71.024185
"49439",659.30383,77.2375,71.13653
"49440",659.31714,77.78195,71.59465
"49441",659.33044,78.802475,72.54586
"49442",659.34375,80.289314,73.99528
"49443",659.35706,82.09842,75.81342
"49444",659.37036,83.963684,77.74426
"49445",659.38367,85.58236,79.4868
"49446",659.397,86.710304,80.78919
"49447",659.4103,87.26696,81.55554
"49448",659.4236,87.30358,81.81926
"49449",659.4369,86.94713,81.69104
"49450",659.4502,86.329445,81.29045
"49451",659.4635,85.57259,80.73139
"49452",659.4768,84.76692,80.09986
"49453",659.4901,83.97589,79.457794
"49454",659.5034,83.23613,78.84228
"49455",659.5167,82.564735,78.27201
"49456",659.53,81.95926,77.74668
"49457",659.54333,81.41482,77.263466
"49458",659.55664,80.93141,76.82427
"49459",659.56995,80.52613,76.4481
"49460",659.58325,80.22827,76.16668
"49461",659.59656,80.059814,76.005356
"49462",659.60986,80.02319,75.970604
"49463",659.62317,80.10376,76.051895
"49464",659.6365,80.255135,76.20651
"49465",659.6498,80.430916,76.39027
"49466",659.6631,80.570076,76.54289
"49467",659.6764,80.635994,76.626625
"49468",659.6897,80.59937,76.60988
"49469",659.703,80.45777,76.48701
"49470",659.7163,80.22095,76.26449
"49471",659.7296,79.91821,75.96866
"49472",659.7429,79.57641,75.6243
"49473",659.7562,79.219955,75.25461
"49474",659.76953,78.86351,74.87379
"49475",659.78284,78.519264,74.494026
"49476",659.79614,78.19455,74.12304
"49477",659.80945,77.89426,73.76633
"49478",659.82275,77.63058,73.436844
"49479",659.83606,77.41573,73.14796
"49480",659.84937,77.2546,72.90607
"49481",659.8627,77.14473,72.7104
"49482",659.876,77.086136,72.562584
"49483",659.8893,77.066605,72.451996
"49484",659.9026,77.08125,72.37498
"49485",659.9159,77.11543,72.31795
"49486",659.9292,77.16182,72.27419
"49487",659.9425,77.205765,72.22945
"49488",659.9558,77.23262,72.16898
"49489",659.9691,77.22774,72.07762
"49490",659.9824,77.20088,71.964134
"49491",659.9957,77.18623,71.862015
"49492",660.00903,77.28878,71.87663
"49493",660.02234,77.68185,72.184975
"49494",660.03564,78.521706,72.95239
"49495",660.04895,79.84985,74.234344
"49496",660.06226,81.55886,75.93866
"49497",660.07556,83.4168,77.845314
"49498",660.08887,85.12337,79.65865
"49499",660.1022,86.414894,81.11028
"49500",660.1155,87.14488,82.04073
"49501",660.1288,87.327995,82.44712
"49502",660.1421,87.0692,82.41733
"49503",660.1554,86.502785,82.07182
"49504",660.1687,85.748375,81.52062
"49505",660.182,84.91585,80.86773
"49506",660.1953,84.09064,80.19614
"49507",660.2086,83.32891,79.56224
"49508",660.2219,82.6453,78.98266
"49509",660.2352,82.039825,78.45985
"49510",660.24854,81.50027,77.98403
"49511",660.26184,81.0193,77.54995
"49512",660.27515,80.601814,77.164314
"49513",660.28845,80.26978,76.85109
"49514",660.30176,80.04761,76.637344
"49515",660.31506,79.940186,76.53141
"49516",660.32837,79.940186,76.52954
"49517",660.3417,80.01343,76.600914
"49518",660.355,80.113525,76.70143
"49519",660.3683,80.20386,76.79531
"49520",660.3816,80.24292,76.840744
"49521",660.3949,80.198975,76.80439
"49522",660.4082,80.05737,76.66901
"49523",660.4215,79.815674,76.4291
"49524",660.4348,79.49828,76.10595
"49525",660.4481,79.132065,75.72405
"49526",660.4614,78.751205,75.31607
"49527",660.47473,78.382545,74.90839
"49528",660.48804,78.04562,74.52092
"49529",660.50134,77.74044,74.15466
"49530",660.51465,77.471886,73.8155
"49531",660.52795,77.23262,73.49723
"49532",660.54126,77.02754,73.20567
"49533",660.55457,76.859085,72.94433
"49534",660.5679,76.73945,72.72654
"49535",660.5812,76.66621,72.55141
"49536",660.5945,76.64179,72.42281
"49537",660.6078,76.65156,72.32764
"49538",660.6211,76.69062,72.26206
"49539",660.6344,76.74677,72.2148
"49540",660.6477,76.807816,72.17418
"49541",660.661,76.86641,72.13302
"49542",660.6743,76.92012,72.088806
"49543",660.6876,76.9543,72.02674
"49544",660.7009,76.95918,71.93645
"49545",660.71423,76.93233,71.81457
"49546",660.72754,76.876175,71.66255
"49547",660.74084,76.80049,71.48925
"49548",660.75415,76.76387,71.352646
"49549",660.76746,76.895706,71.383354
"49550",660.78076,77.37423,71.76487
"49551",660.79407,78.34348,72.65207
"49552",660.8074,79.80835,74.06517
"49553",660.8207,81.62478,75.87561
"49554",660.834,83.52422,77.82583
"49555",660.8473,85.19905,79.61079
"49556",660.8606,86.397804,80.97201
"49557",660.8739,87.02281,81.79694
"49558",660.8872,87.12047,82.11406
"49559",660.9005,86.803085,82.01919
"49560",660.9138,86.1976,81.6263
"49561",660.9271,85.42611,81.04848
"49562",660.9404,84.58625,80.37818
"49563",660.95374,83.76349,79.69874
"49564",660.96704,83.00664,79.059494
"49565",660.98035,82.340126,78.48694
"49566",660.99365,81.76639,77.98633
"49567",661.00696,81.27566,77.5508
"49568",661.02026,80.85329,77.16829
"49569",661.03357,80.50172,76.84338
"49570",661.0469,80.235596,76.59294
"49571",661.0602,80.076904,76.44161
"49572",661.0735,80.028076,76.39519
"49573",661.0868,80.07202,76.44001
"49574",661.1001,80.177,76.54724
"49575",661.1134,80.2942,76.66997
"49576",661.1267,80.36988,76.754845
"49577",661.14,80.37232,76.768845
"49578",661.1533,80.27955,76.687706
"49579",661.1666,80.08911,76.506004
"49580",661.17993,79.815674,76.23535
"49581",661.19324,79.47875,75.89267
"49582",661.20654,79.10277,75.5004
"49583",661.21985,78.71458,75.08417
"49584",661.23315,78.331276,74.6607
"49585",661.24646,77.97238,74.24966
"49586",661.25977,77.65011,73.86402
"49587",661.2731,77.38155,73.52203
"49588",661.2864,77.16914,73.2278
"49589",661.2997,77.00801,72.9782
"49590",661.313,76.89815,72.77484
"49591",661.3263,76.82002,72.599785
"49592",661.3396,76.77852,72.45891
"49593",661.3529,76.76143,72.34115
"49594",661.3662,76.77608,72.25459
"49595",661.3795,76.8127,72.19047
"49596",661.3928,76.87129,72.14946
"49597",661.4061,76.93721,72.11761
"49598",661.41943,77.00557,72.090256
"49599",661.43274,77.066605,72.05772
"49600",661.44604,77.11299,72.012436
"49601",661.45935,77.13252,71.94175
"49602",661.47266,77.1252,71.84482
"49603",661.48596,77.09102,71.7208
"49604",661.49927,77.032425,71.571304
"49605",661.5126,76.94209,71.38824
"49606",661.5259,76.82002,71.17061
"49607",661.5392,76.680855,70.93207
"49608",661.5525,76.57099,70.71848
"49609",661.5658,76.59785,70.63818
"49610",661.5791,76.93965,70.87367
"49611",661.5924,77.76486,71.60325
"49612",661.6057,79.11742,72.885956
"49613",661.619,80.87038,74.611336
"49614",661.6323,82.777145,76.5453
"49615",661.6456,84.51301,78.36795
"49616",661.65894,85.79477,79.79074
"49617",661.67224,86.485695,80.66275
"49618",661.68555,86.61021,80.98994
"49619",661.69885,86.2855,80.871796
"49620",661.71216,85.662926,80.44564
"49621",661.72546,84.86702,79.8267
"49622",661.7388,84.00519,79.11696
"49623",661.7521,83.15068,78.38761
"49624",661.7654,82.354774,77.69016
"49625",661.7787,81.64431,77.05328
"49626",661.792,81.01442,76.47478
"49627",661.8053,80.45045,75.942505
"49628",661.8186,79.94995,75.456085
"49629",661.8319,79.52514,75.02971
"49630",661.8452,79.1931,74.68283
"49631",661.8585,78.98314,74.447655
"49632",661.8718,78.91722,74.34996
"49633",661.88513,78.992905,74.39181
"49634",661.89844,79.17601,74.54344
"49635",661.91174,79.40795,74.74963
"49636",661.92505,79.622795,74.94598
"49637",661.93835,79.77417,75.08556
"49638",661.95166,79.82056,75.12489
"49639",661.96497,79.744865,75.043594
"49640",661.9783,79.55932,74.850075
"49641",661.9916,79.290764,74.56775
"49642",662.0049,78.96361,74.21843
"49643",662.0182,78.6096,73.83203
"49644",662.0315,78.25071,73.429695
"49645",662.0448,77.90402,73.02834
"49646",662.0581,77.58419,72.64301
"49647",662.0714,77.31075,72.29408
"49648",662.0847,77.083694,71.98299
"49649",662.098,76.90059,71.70875
"49650",662.1113,76.771194,71.4825
"49651",662.12463,76.68818,71.298584
"49652",662.13794,76.65156,71.15847
"49653",662.15125,76.65888,71.06116
"49654",662.16455,76.70527,71.003136
"49655",662.17786,76.78096,70.97587
"49656",662.19116,76.87862,70.97293
"49657",662.20447,76.9836,70.98037
"49658",662.2178,77.086136,70.98865
"49659",662.2311,77.17647,70.98792
"49660",662.2444,77.24483,70.96805
"49661",662.2577,77.281456,70.91858
"49662",662.271,77.26925,70.82142
"49663",662.2843,77.21065,70.67748
"49664",662.2976,77.10567,70.48534
"49665",662.3109,76.97383,70.263054
"49666",662.3242,76.87862,70.07327
"49667",662.3375,76.95918,70.0563
"49668",662.3508,77.39376,70.39585
"49669",662.36414,78.311745,71.23239
"49670",662.37744,79.710686,72.578575
"49671",662.39075,81.42458,74.28343
"49672",662.40405,83.177536,76.0809
"49673",662.41736,84.65949,77.662155
"49674",662.43066,85.64828,78.79655
"49675",662.444,86.065765,79.39054
"49676",662.4573,85.980316,79.494644
"49677",662.4706,85.53109,79.2323
"49678",662.4839,84.857254,78.73131
"49679",662.4972,84.06134,78.08718
"49680",662.5105,83.23613,77.388885
"49681",662.5238,82.43778,76.691666
"49682",662.5371,81.69802,76.02808
"49683",662.5504,81.02907,75.41219
"49684",662.5637,80.43336,74.84864
"49685",662.577,79.90845,74.33727
"49686",662.59033,79.46899,73.89495
"49687",662.60364,79.13451,73.54388
"49688",662.61694,78.924545,73.30687
"49689",662.63025,78.86107,73.209785
"49690",662.64355,78.941635,73.25476
"49691",662.65686,79.13939,73.41944
"49692",662.67017,79.40795,73.66111
"49693",662.6835,79.691154,73.92581
"49694",662.6968,79.92554,74.15054
"49695",662.7101,80.062256,74.284935
"49696",662.7234,80.07202,74.296646
"49697",662.7367,79.95972,74.18659
"49698",662.75,79.74731,73.97292
"49699",662.7633,79.45922,73.67694
