"","Time..s.","PPG.trace","Preprocessed.PPG"
"67249",905.36835,80.01831,72.966805
"67250",905.38165,79.500725,72.44979
"67251",905.39496,79.03685,71.970314
"67252",905.40826,78.62913,71.53249
"67253",905.4216,78.28489,71.14542
"67254",905.4349,78.00168,70.80861
"67255",905.4482,77.77951,70.523994
"67256",905.4615,77.608604,70.2837
"67257",905.4748,77.488976,70.08934
"67258",905.4881,77.40841,69.930305
"67259",905.5014,77.3547,69.79561
"67260",905.5147,77.31808,69.67632
"67261",905.528,77.28878,69.56322
"67262",905.5413,77.26925,69.45896
"67263",905.5546,77.24971,69.35409
"67264",905.56793,77.22774,69.24617
"67265",905.58124,77.19356,69.12536
"67266",905.59454,77.154495,68.9986
"67267",905.60785,77.10811,68.86329
"67268",905.62115,77.049515,68.714325
"67269",905.63446,76.978714,68.55132
"67270",905.64777,76.90303,68.381226
"67271",905.6611,76.824905,68.20632
"67272",905.6744,76.74189,68.024086
"67273",905.6877,76.65644,67.83682
"67274",905.701,76.58076,67.656654
"67275",905.7143,76.507515,67.47656
"67276",905.7276,76.42939,67.2893
"67277",905.7409,76.35615,67.10448
"67278",905.7542,76.28535,66.91981
"67279",905.7675,76.226746,66.745125
"67280",905.7808,76.18768,66.58815
"67281",905.7941,76.16815,66.449486
"67282",905.80743,76.173035,66.334625
"67283",905.82074,76.19989,66.24189
"67284",905.83405,76.23895,66.1622
"67285",905.84735,76.28779,66.093506
"67286",905.86066,76.34394,66.03365
"67287",905.87396,76.402534,65.978
"67288",905.88727,76.46113,65.92417
"67289",905.9006,76.50996,65.86241
"67290",905.9139,76.541695,65.78509
"67291",905.9272,76.558784,65.69411
"67292",905.9405,76.56611,65.593895
"67293",905.9538,76.595406,65.515884
"67294",905.9671,76.73945,65.553535
"67295",905.9804,77.17647,65.888664
"67296",905.9937,78.08957,66.71353
"67297",906.007,79.605705,68.16997
"67298",906.0203,81.705345,70.257286
"67299",906.0336,84.20538,72.810616
"67300",906.04694,86.77135,75.507996
"67301",906.06024,89.022354,77.970604
"67302",906.07355,90.663,79.8932
"67303",906.08685,91.54192,81.10535
"67304",906.10016,91.67132,81.59543
"67305",906.11346,91.17082,81.45966
"67306",906.1268,90.23575,80.87368
"67307",906.1401,89.07851,80.03631
"67308",906.1534,87.89197,79.13347
"67309",906.1667,86.82994,78.31807
"67310",906.18,85.98276,77.68432
"67311",906.1933,85.367516,77.256035
"67312",906.2066,84.9427,76.998955
"67313",906.2199,84.644844,76.85555
"67314",906.2332,84.41291,76.76877
"67315",906.2465,84.21271,76.70647
"67316",906.2598,84.04425,76.669655
"67317",906.27313,83.9173,76.66908
"67318",906.28644,83.83917,76.71337
"67319",906.29974,83.79523,76.7894
"67320",906.31305,83.75128,76.86405
"67321",906.32635,83.66094,76.89094
"67322",906.33966,83.49004,76.83444
"67323",906.35297,83.21904,76.6725
"67324",906.3663,82.84306,76.39712
"67325",906.3796,82.36698,76.00988
"67326",906.3929,81.8201,75.536964
"67327",906.4062,81.22682,75.000565
"67328",906.4195,80.618904,74.430984
"67329",906.4328,80.028076,73.8595
"67330",906.4461,79.48608,73.318375
"67331",906.4594,79.00511,72.82135
"67332",906.4727,78.59739,72.38254
"67333",906.486,78.25803,71.99935
"67334",906.4993,77.98215,71.66903
"67335",906.51263,77.75754,71.38136
"67336",906.52594,77.574425,71.128174
"67337",906.53925,77.4255,70.90345
"67338",906.55255,77.30343,70.70093
"67339",906.56586,77.19844,70.51167
"67340",906.57916,77.11055,70.336235
"67341",906.59247,77.032425,70.167816
"67342",906.6058,76.95918,70.00184
"67343",906.6191,76.88838,69.83601
"67344",906.6324,76.81758,69.66798
"67345",906.6457,76.74189,69.492836
"67346",906.659,76.654,69.30313
"67347",906.6723,76.56367,69.10824
"67348",906.6856,76.46845,68.90564
"67349",906.6989,76.36591,68.69274
"67350",906.7122,76.25605,68.469315
"67351",906.7255,76.14374,68.240005
"67352",906.73883,76.02411,67.99987
"67353",906.75214,75.90204,67.753555
"67354",906.76544,75.77997,67.503426
"67355",906.77875,75.6701,67.26168
"67356",906.79205,75.577324,67.0336
"67357",906.80536,75.50408,66.82215
"67358",906.81866,75.44793,66.6255
"67359",906.832,75.41375,66.44907
"67360",906.8453,75.3991,66.29111
"67361",906.8586,75.40154,66.14977
"67362",906.8719,75.42596,66.03049
"67363",906.8852,75.46746,65.929054
"67364",906.8985,75.52361,65.84357
"67365",906.9118,75.59441,65.77448
"67366",906.9251,75.6701,65.712494
"67367",906.9384,75.75067,65.65776
"67368",906.9517,75.8288,65.603096
"67369",906.965,75.89227,65.536224
"67370",906.97833,75.93866,65.45425
"67371",906.99164,75.96063,65.349304
"67372",907.00494,75.95575,65.21819
"67373",907.01825,75.95331,65.08937
"67374",907.03156,76.016785,65.02639
"67375",907.04486,76.27802,65.163155
"67376",907.05817,76.925,65.693825
"67377",907.0715,78.118866,66.791595
"67378",907.0848,79.923096,68.53704
"67379",907.0981,82.23514,70.84668
"67380",907.1114,84.791336,73.472725
"67381",907.1247,87.23033,76.06145
"67382",907.138,89.198135,78.255196
"67383",907.1513,90.45304,79.79755
"67384",907.1646,90.931564,80.60273
"67385",907.1779,90.70939,80.72217
"67386",907.1912,89.9501,80.297554
"67387",907.2045,88.866104,79.5245
"67388",907.21783,87.66247,78.59793
"67389",907.23114,86.519875,77.69479
"67390",907.24445,85.55062,76.92928
"67391",907.25775,84.79378,76.345894
"67392",907.27106,84.224915,75.926834
"67393",907.28436,83.80499,75.63894
"67394",907.29767,83.4876,75.44045
"67395",907.311,83.25323,75.31506
"67396",907.3243,83.09941,75.26291
"67397",907.3376,83.04814,75.308495
"67398",907.3509,83.10185,75.45746
"67399",907.3642,83.228806,75.68134
"67400",907.3775,83.36309,75.91653
"67401",907.3908,83.44366,76.10219
"67402",907.4041,83.41436,76.180504
"67403",907.4174,83.245895,76.11874
"67404",907.4307,82.930954,75.90523
"67405",907.44403,82.48661,75.552475
"67406",907.45734,81.94705,75.09062
"67407",907.47064,81.34402,74.54843
"67408",907.48395,80.726326,73.97274
"67409",907.49725,80.12085,73.38996
"67410",907.51056,79.56664,72.83953
"67411",907.52386,79.07591,72.33526
"67412",907.5372,78.66575,71.89622
"67413",907.5505,78.328835,71.51761
"67414",907.5638,78.07004,71.20659
"67415",907.5771,77.874725,70.950966
"67416",907.5904,77.74532,70.75515
"67417",907.6037,77.67208,70.61145
"67418",907.617,77.645226,70.51185
"67419",907.6303,77.64767,70.440704
"67420",907.6436,77.66476,70.384285
"67421",907.6569,77.68429,70.33084
"67422",907.6702,77.69161,70.2658
"67423",907.68353,77.67452,70.176575
"67424",907.69684,77.63302,70.0624
"67425",907.71014,77.5671,69.922516
"67426",907.72345,77.48165,69.76104
"67427",907.73676,77.37911,69.5798
"67428",907.75006,77.26925,69.38804
"67429",907.76337,77.15938,69.19283
"67430",907.7767,77.05928,69.00397
"67431",907.79,76.96651,68.8193
"67432",907.8033,76.88838,68.64638
"67433",907.8166,76.822464,68.48322
"67434",907.8299,76.76631,68.327774
"67435",907.8432,76.71259,68.173004
"67436",907.8565,76.66865,68.02633
"67437",907.8698,76.63447,67.88805
"67438",907.8831,76.60273,67.75114
"67439",907.8964,76.56367,67.60591
"67440",907.9097,76.52216,67.45702
"67441",907.92303,76.47822,67.3044
"67442",907.93634,76.436714,67.15284
"67443",907.94965,76.41718,67.02196
"67444",907.96295,76.47822,66.97103
"67445",907.97626,76.70771,67.09047
"67446",907.98956,77.239944,67.51982
"67447",908.00287,78.20676,68.40038
"67448",908.0162,79.65942,69.797005
"67449",908.0295,81.54421,71.67116
"67450",908.0428,83.67803,73.85323
"67451",908.0561,85.79233,76.082466
"67452",908.0694,87.59167,78.06281
"67453",908.0827,88.849014,79.5574
"67454",908.096,89.45937,80.44429
"67455",908.1093,89.444725,80.72525
"67456",908.1226,88.91005,80.485725
"67457",908.1359,88.01892,79.87303
"67458",908.14923,86.94957,79.054276
"67459",908.16254,85.84848,78.17036
"67460",908.17584,84.808426,77.313065
"67461",908.18915,83.87579,76.53069
"67462",908.20245,83.06279,75.838806
"67463",908.21576,82.39628,75.268005
"67464",908.22906,81.89334,74.83995
"67465",908.2424,81.58816,74.59393
"67466",908.2557,81.495384,74.55079
"67467",908.269,81.60525,74.70738
"67468",908.2823,81.86893,75.021225
"67469",908.2956,82.20584,75.41654
"67470",908.3089,82.52079,75.80042
"67471",908.3222,82.73319,76.0916
"67472",908.3355,82.78203,76.225845
"67473",908.3488,82.63798,76.16873
"67474",908.3621,82.303505,75.916695
"67475",908.3754,81.815216,75.50039
"67476",908.38873,81.21706,74.958954
"67477",908.40204,80.56519,74.34512
"67478",908.41534,79.903564,73.70116
"67479",908.42865,79.27856,73.073135
"67480",908.44196,78.71946,72.49149
"67481",908.45526,78.24094,71.97295
"67482",908.46857,77.855194,71.53224
"67483",908.4819,77.55489,71.16492
"67484",908.4952,77.330284,70.8639
"67485",908.5085,77.1667,70.61689
"67486",908.5218,77.06172,70.42337
"67487",908.5351,77.00313,70.27296
"67488",908.5484,76.97627,70.15245
"67489",908.5617,76.97627,70.05796
"67490",908.575,76.9836,69.970795
"67491",908.5883,76.981155,69.87409
"67492",908.6016,76.97139,69.76999
"67493",908.6149,76.94942,69.65337
"67494",908.62823,76.912796,69.52142
"67495",908.64154,76.86153,69.37368
"67496",908.65485,76.79561,69.20969
"67497",908.66815,76.70771,69.02165
"67498",908.68146,76.60273,68.81379
"67499",908.69476,76.47822,68.583115
"67500",908.70807,76.334175,68.32902
"67501",908.7214,76.17792,68.058205
"67502",908.7347,76.02411,67.78496
"67503",908.748,75.88495,67.52155
"67504",908.7613,75.792175,67.300186
"67505",908.7746,75.7995,67.17602
"67506",908.7879,76.00458,67.24983
"67507",908.8012,76.541695,67.662094
"67508",908.8145,77.5256,68.537926
"67509",908.8278,78.992905,69.92791
"67510",908.8411,80.87038,71.77391
"67511",908.85443,82.97002,73.90075
"67512",908.86774,85.01106,76.03461
"67513",908.88104,86.71519,77.895325
"67514",908.89435,87.87976,79.269745
"67515",908.90765,88.42176,80.05798
"67516",908.92096,88.37293,80.27234
"67517",908.93427,87.852905,80.01396
"67518",908.9476,87.01793,79.42439
"67519",908.9609,86.04135,78.66712
"67520",908.9742,85.0428,77.85736
"67521",908.9875,84.09308,77.06522
"67522",909.0008,83.2166,76.31665
"67523",909.0141,82.43046,75.63103
"67524",909.0274,81.74197,75.018486
"67525",909.0407,81.180435,74.51139
"67526",909.054,80.79225,74.160095
"67527",909.0673,80.604256,73.99686
"67528",909.0806,80.62379,74.03527
"67529",909.09393,80.799576,74.23055
"67530",909.10724,81.06081,74.51677
"67531",909.12054,81.30251,74.791626
"67532",909.13385,81.43679,74.966606
"67533",909.14716,81.40017,74.974884
"67534",909.16046,81.17311,74.79158
"67535",909.17377,80.77028,74.42541
"67536",909.1871,80.235596,73.914795
"67537",909.2004,79.62768,73.31424
"67538",909.2137,79.00511,72.68004
"67539",909.227,78.4094,72.05324
"67540",909.2403,77.86984,71.463974
"67541",909.2536,77.41085,70.938416
"67542",909.2669,77.04219,70.488846
"67543",909.2802,76.76143,70.115654
"67544",909.2935,76.56611,69.81913
"67545",909.3068,76.4416,69.58731
"67546",909.3201,76.368355,69.40287
"67547",909.33344,76.334175,69.2552
"67548",909.34674,76.32441,69.13088
"67549",909.36005,76.32441,69.01602
"67550",909.37335,76.32441,68.90116
"67551",909.38666,76.314644,68.776535
"67552",909.39996,76.28535,68.63207
"67553",909.41327,76.23651,68.467155
"67554",909.4266,76.175476,68.28851
"67555",909.4399,76.09735,68.09087
"67556",909.4532,76.0119,67.88347
"67557",909.4665,75.92401,67.67095
"67558",909.4798,75.83612,67.45569
"67559",909.4931,75.74822,67.23767
"67560",909.5064,75.66033,67.016914
"67561",909.5197,75.579765,66.800735
"67562",909.533,75.511406,66.594246
"67563",909.5463,75.45525,66.39783
"67564",909.55963,75.41375,66.2143
"67565",909.57294,75.39422,66.05145
"67566",909.58624,75.39422,65.907524
"67567",909.59955,75.41375,65.78313
"67568",909.61285,75.45037,65.67643
"67569",909.62616,75.4992,65.583084
"67570",909.63947,75.55535,65.49859
"67571",909.6528,75.62127,65.42561
"67572",909.6661,75.68963,65.35714
"67573",909.6794,75.75311,65.28593
"67574",909.6927,75.80682,65.206924
"67575",909.706,75.83856,65.10763
"67576",909.7193,75.85321,64.99223
"67577",909.7326,75.85809,64.86753
"67578",909.7459,75.90936,64.78937
"67579",909.7592,76.12665,64.87882
"67580",909.7725,76.70283,65.33396
"67581",909.7858,77.823456,66.351555
"67582",909.79913,79.59106,68.05114
"67583",909.81244,81.94461,70.391914
"67584",909.82574,84.65217,73.16024
"67585",909.83905,87.35485,76.0083
"67586",909.85236,89.671776,78.55507
"67587",909.86566,91.32708,80.51262
"67588",909.87897,92.208435,81.74795
"67589",909.8923,92.37934,82.30037
"67590",909.9056,92.018005,82.32589
"67591",909.9189,91.34905,82.0325
"67592",909.9322,90.60685,81.64496
"67593",909.9455,89.96719,81.33677
"67594",909.9588,89.51797,81.19902
"67595",909.9721,89.24696,81.22546
"67596",909.9854,89.05409,81.32155
"67597",909.9987,88.80507,81.35547
"67598",910.012,88.37293,81.19849
"67599",910.0253,87.69421,80.78142
"67600",910.03864,86.79576,80.12341
"67601",910.05194,85.785,79.32502
"67602",910.06525,84.788895,78.50969
"67603",910.07855,83.92706,77.79751
"67604",910.09186,83.26055,77.253716
"67605",910.10516,82.77959,76.87464
"67606",910.11847,82.423134,76.60505
"67607",910.1318,82.12039,76.37803
"67608",910.1451,81.7908,76.1147
"67609",910.1584,81.38308,75.76294
"67610",910.1717,80.8777,75.30078
"67611",910.185,80.289314,74.73982
"67612",910.1983,79.64477,74.10432
"67613",910.2116,78.98802,73.43647
"67614",910.2249,78.35081,72.76763
"67615",910.2382,77.76242,72.12771
"67616",910.2515,77.24483,71.54019
"67617",910.26483,76.79561,71.004875
"67618",910.27814,76.41718,70.52631
"67619",910.29144,76.102234,70.0994
"67620",910.30475,75.841,69.71637
"67621",910.31805,75.61883,69.36423
"67622",910.33136,75.43328,69.04177
"67623",910.34467,75.27215,68.73793
"67624",910.358,75.13054,68.44858
"67625",910.3713,74.99626,68.16213
"67626",910.3846,74.86931,67.878815
"67627",910.3979,74.74235,67.59152
"67628",910.4112,74.60807,67.292946
"67629",910.4245,74.47135,66.98773
"67630",910.4378,74.33463,66.678246
"67631",910.4511,74.19302,66.3596
"67632",910.4644,74.04898,66.03409
"67633",910.4777,73.91226,65.7114
"67634",910.491,73.78531,65.39421
"67635",910.50433,73.673,65.08769
"67636",910.51764,73.57534,64.79232
"67637",910.53094,73.49233,64.508545
"67638",910.54425,73.42397,64.236824
"67639",910.55756,73.37026,63.97761
"67640",910.57086,73.32876,63.728928
"67641",910.58417,73.29702,63.488712
"67642",910.5975,73.27993,63.262154
"67643",910.6108,73.27505,63.047268
"67644",910.6241,73.28237,62.844437
"67645",910.6374,73.29946,62.6516
"67646",910.6507,73.3312,62.473946
"67647",910.664,73.36782,62.302166
"67648",910.6773,73.40688,62.133972
"67649",910.6906,73.44839,61.96944
"67650",910.7039,73.48989,61.806206
"67651",910.7172,73.53628,61.64915
"67652",910.7305,73.58999,61.50087
"67653",910.74384,73.651024,61.36159
"67654",910.75714,73.71694,61.229103
"67655",910.77045,73.78775,61.103565
"67656",910.78375,73.86099,60.982674
"67657",910.79706,73.93179,60.86163
"67658",910.81036,74.00748,60.74768
"67659",910.82367,74.090485,60.64342
"67660",910.837,74.178375,60.54664
"67661",910.8503,74.27116,60.457493
"67662",910.8636,74.36393,60.37124
"67663",910.8769,74.45182,60.283
"67664",910.8902,74.529945,60.187744
"67665",910.9035,74.600746,60.087605
"67666",910.9168,74.67399,59.99212
"67667",910.9301,74.74723,59.898922
"67668",910.9434,74.82536,59.812904
"67669",910.9567,74.915695,59.741528
"67670",910.97003,75.02312,59.690063
"67671",910.98334,75.142746,59.654163
"67672",910.99664,75.267265,59.626892
"67673",911.00995,75.3991,59.610832
"67674",911.02325,75.526054,59.59401
"67675",911.03656,75.63592,59.564064
"67676",911.04987,75.72625,59.51802
"67677",911.0632,75.7995,59.457718
"67678",911.0765,75.8703,59.397255
"67679",911.0898,75.98016,59.378067
"67680",911.1031,76.241394,59.51368
"67681",911.1164,76.83467,59.989502
"67682",911.1297,77.91135,60.967262
"67683",911.143,79.52514,62.515785
"67684",911.1563,81.57351,64.54932
"67685",911.1696,83.809875,66.834854
"67686",911.1829,85.88754,69.03158
"67687",911.1962,87.48913,70.81715
"67688",911.20953,88.43397,71.99602
"67689",911.22284,88.72205,72.54767
"67690",911.23615,88.47791,72.576096
"67691",911.24945,87.91394,72.277054
"67692",911.26276,87.24254,71.85297
"67693",911.27606,86.64927,71.48602
"67694",911.28937,86.24155,71.28609
"67695",911.3027,86.063324,71.30291
"67696",911.316,86.07065,71.49971
"67697",911.3293,86.15854,71.777306
"67698",911.3426,86.204926,72.01614
"67699",911.3559,86.09018,72.0953
"67700",911.3692,85.76059,71.956024
"67701",911.3825,85.23079,71.60624
"67702",911.3958,84.58381,71.12272
"67703",911.4091,83.92462,70.60677
"67704",911.4224,83.353325,70.15812
"67705",911.4357,82.92851,69.8381
"67706",911.44904,82.65507,69.656166
"67707",911.46234,82.496376,69.580444
"67708",911.47565,82.38651,69.54859
"67709",911.48895,82.26444,69.5011
"67710",911.50226,82.08621,69.39363
"67711",911.51556,81.832306,69.20492
"67712",911.5289,81.51003,68.9399
"67713",911.5422,81.13649,68.61355
"67714",911.5555,80.74586,68.25843
"67715",911.5688,80.35767,67.893555
"67716",911.5821,79.99878,67.54584
"67717",911.5954,79.67895,67.22597
"67718",911.6087,79.412834,66.94982
"67719",911.622,79.200424,66.71906
"67720",911.6353,79.03685,66.5305
"67721",911.6486,78.9099,66.37345
"67722",911.6619,78.80492,66.234406
"67723",911.67523,78.709694,66.10184
"67724",911.68854,78.6218,65.973625
"67725",911.70184,78.53147,65.840225
"67726",911.71515,78.44114,65.704
"67727",911.72845,78.348366,65.562515
"67728",911.74176,78.25803,65.42057
"67729",911.75507,78.167694,65.275795
"67730",911.7684,78.07736,65.128204
"67731",911.7817,77.98703,64.97779
"67732",911.795,77.90402,64.83188
"67733",911.8083,77.823456,64.685814
"67734",911.8216,77.74044,64.53478
"67735",911.8349,77.659874,64.383606
"67736",911.8482,77.58175,64.23235
"67737",911.8615,77.503624,64.07866
"67738",911.8748,77.43038,63.927406
"67739",911.8881,77.37423,63.790955
"67740",911.9014,77.332726,63.667397
"67741",911.91473,77.30831,63.55963
"67742",911.92804,77.298546,63.46575
"67743",911.94135,77.298546,63.381332
"67744",911.95465,77.30587,63.304237
"67745",911.96796,77.31075,63.22493
"67746",911.98126,77.315636,63.145775
"67747",911.99457,77.31808,63.06433
"67748",912.0079,77.32052,62.982964
"67749",912.0212,77.3254,62.904114
"67750",912.0345,77.330284,62.825417
"67751",912.0478,77.33761,62.749313
"67752",912.0611,77.349815,62.67832
"67753",912.0744,77.36446,62.610153
"67754",912.0877,77.38155,62.544884
"67755",912.101,77.3962,62.477707
"67756",912.1143,77.41329,62.41343
"67757",912.1276,77.42794,62.347244
"67758",912.1409,77.44503,62.28396
"67759",912.15424,77.46212,62.221207
"67760",912.16754,77.486534,62.166313
"67761",912.18085,77.51095,62.112183
"67762",912.19415,77.5378,62.061256
"67763",912.20746,77.56222,62.008728
"67764",912.22076,77.58663,61.956963
"67765",912.2341,77.60616,61.901077
"67766",912.2474,77.625694,61.845802
"67767",912.2607,77.65255,61.798462
"67768",912.274,77.68673,61.759285
"67769",912.2873,77.730675,61.73094
"67770",912.3006,77.78439,61.713745
"67771",912.3139,77.84543,61.705544
"67772",912.3272,77.90646,61.69925
"67773",912.3405,77.9675,61.694862
"67774",912.3538,78.028534,61.692383
"67775",912.3671,78.08469,61.686928
"67776",912.38043,78.133514,61.675903
"67777",912.39374,78.167694,61.651756
"67778",912.40704,78.19455,61.621353
"67779",912.42035,78.23117,61.601555
"67780",912.43365,78.33616,61.651268
"67781",912.44696,78.624245,61.88736
"67782",912.46027,79.24437,62.464493
"67783",912.4736,80.28443,63.48094
"67784",912.4869,81.71999,64.92539
"67785",912.5002,83.39239,66.651535
"67786",912.5135,85.03792,68.403076
"67787",912.5268,86.37095,69.89354
"67788",912.5401,87.17174,70.89342
"67789",912.5534,87.396355,71.34215
"67790",912.5667,87.12291,71.299835
"67791",912.58,86.52964,70.92915
"67792",912.5933,85.804535,70.4081
"67793",912.6066,85.118484,69.903435
"67794",912.61993,84.58625,69.53115
"67795",912.63324,84.27375,69.36197
"67796",912.64655,84.16876,69.39053
"67797",912.65985,84.20538,69.55743
"67798",912.67316,84.281075,69.764534
"67799",912.68646,84.28596,69.9032
"67800",912.69977,84.14435,69.89552
"67801",912.7131,83.83673,69.717415
"67802",912.7264,83.404594,69.405174
"67803",912.7397,82.92363,69.0306
"67804",912.753,82.48905,68.687386
"67805",912.7663,82.15701,68.43313
"67806",912.7796,81.94461,68.28813
"67807",912.7929,81.83719,68.24148
"67808",912.8062,81.78592,68.24762
"67809",912.8195,81.74197,68.259476
"67810",912.8328,81.6614,68.233345
"67811",912.8461,81.51736,68.14122
"67812",912.85944,81.304955,67.976234
"67813",912.87274,81.041275,67.753334
"67814",912.88605,80.7483,67.4929
"67815",912.89935,80.45533,67.22331
"67816",912.91266,80.184326,66.96654
"67817",912.92596,79.94751,66.73548
"67818",912.9393,79.7522,66.53853
"67819",912.9526,79.59594,66.37453
"67820",912.9659,79.47631,66.24227
"67821",912.9792,79.38354,66.13313
"67822",912.9925,79.310295,66.04063
"67823",913.0058,79.2517,65.96048
"67824",913.0191,79.200424,65.88582
"67825",913.0324,79.15648,65.81689
"67826",913.0457,79.11253,65.74658
"67827",913.059,79.07347,65.67979
"67828",913.0723,79.03197,65.60933
"67829",913.08563,78.98314,65.53025
"67830",913.09894,78.924545,65.43988
"67831",913.11224,78.85863,65.340355
"67832",913.12555,78.785385,65.231445
"67833",913.13885,78.712135,65.12024
"67834",913.15216,78.63889,65.00675
"67835",913.16547,78.572975,64.8983
"67836",913.1788,78.5095,64.79023
"67837",913.1921,78.45335,64.6875
"67838",913.2054,78.4094,64.59522
"67839",913.2187,78.37278,64.508896
"67840",913.232,78.34348,64.42875
"67841",913.2453,78.31663,64.35013
"67842",913.2586,78.29954,64.28043
"67843",913.2719,78.28245,64.210205
"67844",913.2852,78.27024,64.144325
"67845",913.2985,78.26536,64.08539
"67846",913.3118,78.2678,64.03362
"67847",913.32513,78.27024,63.981934
"67848",913.33844,78.277565,63.935204
"67849",913.35175,78.28733,63.891144
"67850",913.36505,78.2971,63.84739
"67851",913.37836,78.3093,63.80638
"67852",913.39166,78.32395,63.768196
"67853",913.40497,78.33616,63.728027
"67854",913.4183,78.348366,63.68824
"67855",913.4316,78.35813,63.646393
"67856",913.4449,78.363014,63.599968
"67857",913.4582,78.37034,63.556137
"67858",913.4715,78.37766,63.512535
"67859",913.4848,78.38987,63.474045
"67860",913.4981,78.41184,63.4457
"67861",913.5114,78.433815,63.418045
"67862",913.5247,78.45335,63.388634
"67863",913.538,78.470436,63.35739
"67864",913.55133,78.485085,63.32424
"67865",913.56464,78.502174,63.29399
"67866",913.57794,78.519264,63.264275
"67867",913.59125,78.536354,63.235092
"67868",913.60455,78.55833,63.211327
"67869",913.61786,78.5803,63.188248
"67870",913.63116,78.60471,63.168297
"67871",913.6445,78.62913,63.14911
"67872",913.6578,78.660866,63.13801
"67873",913.6711,78.695045,63.13034
"67874",913.6844,78.73167,63.126183
"67875",913.6977,78.76097,63.115852
"67876",913.711,78.785385,63.101547
"67877",913.7243,78.79759,63.075798
"67878",913.7376,78.802475,63.043106
"67879",913.7509,78.80003,63.003242
"67880",913.7642,78.819565,62.985275
"67881",913.7775,78.91478,63.043602
"67882",913.79083,79.19798,63.292892
"67883",913.80414,79.79614,63.86599
"67884",913.81744,80.78493,64.848404
"67885",913.83075,82.127716,66.21572
"67886",913.84406,83.66094,67.81544
"67887",913.85736,85.120926,69.389824
"67888",913.87067,86.24643,70.675354
"67889",913.884,86.8568,71.48092
"67890",913.8973,86.91051,71.7489
"67891",913.9106,86.505226,71.55957
"67892",913.9239,85.8143,71.07193
"67893",913.9372,85.015945,70.45527
"67894",913.9505,84.263985,69.860054
"67895",913.9638,83.67559,69.40491
"67896",913.9771,83.3045,69.148674
"67897",913.9904,83.1458,69.09324
"67898",914.0037,83.13603,69.18178
"67899",914.017,83.17265,69.3164
"67900",914.03033,83.160446,69.403336
"67901",914.04364,83.04082,69.38247
"67902",914.05695,82.791794,69.22847
"67903",914.07025,82.45487,68.97879
"67904",914.08356,82.10086,68.70149
"67905",914.09686,81.795685,68.46197
"67906",914.11017,81.57595,68.29835
"67907",914.1235,81.444115,68.21576
"67908",914.1368,81.36843,68.1852
"67909",914.1501,81.31716,68.1767
"67910",914.1634,81.248795,68.14949
"67911",914.1767,81.13893,68.07865
"67912",914.19,80.9778,67.95311
"67913",914.2033,80.77516,67.78103
"67914",914.2166,80.54322,67.57331
"67915",914.2299,80.29664,67.343704
"67916",914.2432,80.05249,67.108826
"67917",914.25653,79.83276,66.89074
"67918",914.26984,79.64721,66.69996
"67919",914.28314,79.49828,66.54001
"67920",914.29645,79.39086,66.41691
"67921",914.30975,79.31518,66.32219
"67922",914.32306,79.26879,66.2544
"67923",914.33636,79.237045,66.19981
"67924",914.3497,79.21019,66.14911
"67925",914.363,79.19066,66.1049
"67926",914.3763,79.18089,66.06984
"67927",914.3896,79.168686,66.032036
"67928",914.4029,79.15404,65.99141
"67929",914.4162,79.12962,65.94056
"67930",914.4295,79.093,65.87674
"67931",914.4428,79.04173,65.79713
"67932",914.4561,78.98558,65.71103
"67933",914.4694,78.92943,65.62318
"67934",914.4827,78.87816,65.53845
"67935",914.49603,78.836655,65.46189
"67936",914.50934,78.79515,65.38403
"67937",914.52264,78.75609,65.30732
"67938",914.53595,78.71702,65.22938
"67939",914.54926,78.677956,65.15022
"67940",914.56256,78.641335,65.07229
"67941",914.57587,78.61204,65.000534
"67942",914.5892,78.58518,64.930305
"67943",914.6025,78.572975,64.873886
"67944",914.6158,78.56565,64.82197
"67945",914.6291,78.56565,64.777145
"67946",914.6424,78.572975,64.73965
"67947",914.6557,78.58274,64.70482
"67948",914.669,78.59495,64.67274
"67949",914.6823,78.61204,64.64592
"67950",914.6956,78.62913,64.61964
"67951",914.7089,78.641335,64.589005
"67952",914.7222,78.6511,64.55631
"67953",914.73553,78.658424,64.521484
"67954",914.74884,78.66331,64.48444
"67955",914.76215,78.67307,64.45244
"67956",914.77545,78.68772,64.42562
"67957",914.78876,78.70481,64.4017
"67958",914.80206,78.7219,64.37832
"67959",914.81537,78.73411,64.350586
"67960",914.8287,78.74143,64.31835
"67961",914.842,78.74876,64.28635
"67962",914.8553,78.75853,64.25702
"67963",914.8686,78.77318,64.23287
"67964",914.8819,78.78783,64.20918
"67965",914.8952,78.80003,64.18351
"67966",914.9085,78.81224,64.15822
"67967",914.9218,78.82445,64.13331
"67968",914.9351,78.83421,64.10634
"67969",914.9484,78.84886,64.08456
"67970",914.96173,78.86595,64.065674
"67971",914.97504,78.88548,64.04977
"67972",914.98834,78.90257,64.03203
"67973",915.00165,78.91966,64.014824
"67974",915.01495,78.93919,64.000595
"67975",915.02826,78.96849,63.996742
"67976",915.04156,78.99779,63.993805
"67977",915.0549,79.03197,63.996666
"67978",915.0682,79.063705,63.998154
"67979",915.0815,79.093,63.99819
"67980",915.0948,79.11253,63.98938
"67981",915.1081,79.11986,63.96897
"67982",915.1214,79.1223,63.94391
"67983",915.1347,79.14183,63.936012
"67984",915.148,79.23216,63.999527
"67985",915.1613,79.50805,64.25142
"67986",915.1746,80.10864,64.83664
"67987",915.1879,81.094986,65.82638
"67988",915.20123,82.423134,67.18874
"67989",915.21454,83.91974,68.76107
"67990",915.22784,85.32601,70.28983
"67991",915.24115,86.37339,71.50365
"67992",915.25446,86.888535,72.21796
"67993",915.26776,86.84703,72.391716
"67994",915.28107,86.346535,72.10519
"67995",915.2944,85.5433,71.500275
"67996",915.3077,84.62287,70.753075
"67997",915.321,83.74395,70.018616
"67998",915.3343,83.02373,69.41539
"67999",915.3476,82.530556,69.01671
"68000",915.3609,82.26444,68.82967
"68001",915.3742,82.18387,68.81986
"68002",915.3875,82.196075,68.900314
"68003",915.4008,82.21561,68.98847
"68004",915.4141,82.178986,69.02109
"68005",915.4274,82.07156,68.98176
"68006",915.44073,81.91043,68.88536
"68007",915.45404,81.73708,68.77171
"68008",915.46735,81.583275,68.67219
"68009",915.48065,81.463646,68.602036
"68010",915.49396,81.375755,68.55988
"68011",915.50726,81.29763,68.52475
"68012",915.52057,81.21217,68.47984
"68013",915.5339,81.09987,68.40542
"68014",915.5472,80.94606,68.28598
"68015",915.5605,80.75319,68.12267
"68016",915.5738,80.52613,67.91915
"68017",915.5871,80.27955,67.68901
"68018",915.6004,80.03296,67.45116
"68019",915.6137,79.801025,67.22025
"68020",915.627,79.60082,67.01383
"68021",915.6403,79.432365,66.8329
"68022",915.6536,79.30053,66.68333
"68023",915.66693,79.20775,66.56869
"68024",915.68024,79.14427,66.48045
"68025",915.69354,79.10033,66.40977
"68026",915.70685,79.07347,66.3548
"68027",915.72015,79.05638,66.308754
"68028",915.73346,79.044174,66.26706
"68029",915.74677,79.03441,66.227425
"68030",915.7601,79.02464,66.187485
"68031",915.7734,79.01488,66.14724
"68032",915.7867,79.00267,66.10425
"68033",915.8,78.992905,66.06332
"68034",915.8133,78.98558,66.02452
"68035",915.8266,78.9807,65.98794
"68036",915.8399,78.97337,65.94876
"68037",915.8532,78.958725,65.90203
"68038",915.8665,78.93675,65.84752
"68039",915.8798,78.907455,65.784996
"68040",915.8931,78.873276,65.716675
"68041",915.90643,78.84154,65.64973
"68042",915.91974,78.80736,65.579346
"68043",915.93304,78.78294,65.51766
"68044",915.94635,78.75853,65.455215
"68045",915.95966,78.74876,65.40665
"68046",915.97296,78.746315,65.365105
"68047",915.98627,78.74876,65.32837
"68048",915.9996,78.75609,65.2966
"68049",916.0129,78.765854,65.267494
"68050",916.0262,78.77562,65.23869
"68051",916.0395,78.78783,65.21264
"68052",916.0528,78.80003,65.186966
"68053",916.0661,78.81224,65.161674
"68054",916.0794,78.82689,65.139206
"68055",916.0927,78.836655,65.11231
"68056",916.106,78.84886,65.088165
"68057",916.1193,78.85863,65.06196
"68058",916.1326,78.870834,65.0385
"68059",916.14594,78.87572,65.008095
"68060",916.15924,78.88304,64.980286
"68061",916.17255,78.88548,64.94782
"68062",916.18585,78.887924,64.915436
"68063",916.19916,78.89525,64.88801
"68064",916.21246,78.905014,64.86325
"68065",916.22577,78.91966,64.84368
"68066",916.2391,78.93431,64.82457
"68067",916.2524,78.95384,64.8108
"68068",916.2657,78.9807,64.80496
"68069",916.279,79.012436,64.80485
"68070",916.2923,79.04173,64.80328
"68071",916.3056,79.07591,64.80752
"68072",916.3189,79.10033,64.803055
"68073",916.3322,79.11986,64.79447
"68074",916.3455,79.12962,64.77673
"68075",916.3588,79.12718,64.74709
"68076",916.37213,79.114975,64.70761
"68077",916.38544,79.10521,64.67019
"68078",916.39874,79.10521,64.64223
"68079",916.41205,79.14427,64.65333
"68080",916.42535,79.290764,64.77308
"68081",916.43866,79.64965,65.1098
"68082",916.45197,80.30152,65.750725
"68083",916.4653,81.25613,66.71475
"68084",916.4786,82.42069,67.91857
"68085",916.4919,83.60967,69.1832
"68086",916.5052,84.59846,70.28478
"68087",916.5185,85.20149,71.03152
"68088",916.5318,85.33822,71.33079
"68089",916.5451,85.03548,71.19486
"68090",916.5584,84.40559,70.72233
"68091",916.5717,83.57305,70.027466
"68092",916.585,82.6746,69.24067
"68093",916.5983,81.81033,68.459984
"68094",916.61163,81.05592,67.762146
"68095",916.62494,80.45533,67.19455
"68096",916.63824,80.01831,66.77176
"68097",916.65155,79.744865,66.498886
"68098",916.66486,79.622795,66.36884
"68099",916.67816,79.64965,66.38391
"68100",916.69147,79.81323,66.536545
"68101",916.7048,80.10132,66.818794
"68102",916.7181,80.465096,67.18574
"68103",916.7314,80.85329,67.58846
"68104",916.7447,81.197525,67.959366
"68105",916.758,81.44167,68.24094
"68106",916.7713,81.55398,68.39829
"68107",916.7846,81.52712,68.42
"68108",916.7979,81.373314,68.31391
"68109",916.8112,81.129166,68.11268
"68110",916.8245,80.82155,67.84035
"68111",916.8378,80.48707,67.53154
"68112",916.85114,80.147705,67.2074
"68113",916.86444,79.83276,66.89707
"68114",916.87775,79.554436,66.61352
"68115",916.89105,79.32494,66.3701
"68116",916.90436,79.15404,66.1781
"68117",916.91766,79.03441,66.032036
"68118",916.93097,78.96605,65.9335
"68119",916.9443,78.93675,65.871895
"68120",916.9576,78.941635,65.84355
"68121",916.9709,78.96849,65.83733
"68122",916.9842,79.009995,65.8466
"68123",916.9975,79.05638,65.86205
"68124",917.0108,79.10765,65.883835
"68125",917.0241,79.15648,65.90478
"68126",917.0374,79.20531,65.927246
"68127",917.0507,79.2517,65.94881
"68128",917.064,79.28832,65.96204
"68129",917.07733,79.310295,65.96178
"68130",917.09064,79.31274,65.942665
"68131",917.10394,79.29809,65.90654
"68132",917.11725,79.26147,65.847984
"68133",917.13055,79.217514,65.78095
"68134",917.14386,79.17113,65.71011
"68135",917.15717,79.12718,65.64027
"68136",917.1705,79.093,65.57881
"68137",917.1838,79.06859,65.526054
"68138",917.1971,79.046616,65.474976
"68139",917.2104,79.027084,65.42565
"68140",917.2237,79.009995,65.37816
"68141",917.237,78.98802,65.32525
"68142",917.2503,78.96849,65.27409
"68143",917.2636,78.9514,65.22477
"68144",917.2769,78.94408,65.18468
"68145",917.2902,78.94408,65.15168
"68146",917.3035,78.958725,65.13333
"68147",917.31683,78.9807,65.122765
"68148",917.33014,79.012436,65.12265
"68149",917.34344,79.044174,65.12353
"68150",917.35675,79.06859,65.11807
"68151",917.37006,79.08568,65.10606
"68152",917.38336,79.10033,65.09213
"68153",917.39667,79.10765,65.07134
"68154",917.41,79.11253,65.04834
"68155",917.4233,79.11742,65.02549
"68156",917.4366,79.12718,65.007675
"68157",917.4499,79.14183,64.99505
"68158",917.4632,79.16136,64.98776
"68159",917.4765,79.185776,64.98597
"68160",917.4898,79.20775,64.9825
"68161",917.5031,79.2224,64.97239
"68162",917.5164,79.22972,64.955414
"68163",917.5297,79.22972,64.93134
"68164",917.543,79.22484,64.90239
"68165",917.55634,79.219955,64.87328
"68166",917.56964,79.217514,64.846466
"68167",917.58295,79.234604,64.8391
"68168",917.59625,79.33959,64.92017
"68169",917.60956,79.64477,65.20471
"68170",917.62286,80.26734,65.816185
"68171",917.63617,81.25857,66.815765
"68172",917.6495,82.55985,68.15638
"68173",917.6628,83.99054,69.66706
"68174",917.6761,85.30404,71.10526
"68175",917.6894,86.2562,72.223175
"68176",917.7027,86.70542,72.8679
"68177",917.716,86.63462,73.00664
"68178",917.7293,86.136566,72.71591
"68179",917.7426,85.3431,72.11421
"68180",917.7559,84.41291,71.35099
"68181",917.7692,83.48516,70.56114
"68182",917.78253,82.66483,69.849724
"68183",917.79584,82.02518,69.29334
"68184",917.80914,81.59548,68.92693
"68185",917.82245,81.356224,68.73753
"68186",917.83575,81.24635,68.670044
"68187",917.84906,81.21217,68.67481
"68188",917.86237,81.214615,68.71513
"68189",917.8757,81.22926,68.76774
"68190",917.889,81.253685,68.830574
"68191",917.9023,81.29763,68.9137
"68192",917.9156,81.36355,69.020164
"68193",917.9289,81.427025,69.12625
"68194",917.9422,81.46853,69.21235
"68195",917.9555,81.46609,69.2558
"68196",917.9688,81.40505,69.24058
"68197",917.9821,81.2781,69.15753
"68198",917.9954,81.094986,69.01436
"68199",918.0087,80.867935,68.821526
"68200",918.02203,80.61646,68.597176
"68201",918.03534,80.35523,68.35521
"68202",918.04865,80.10132,68.1124
"68203",918.06195,79.86206,67.876305
"68204",918.07526,79.656975,67.66691
"68205",918.08856,79.48608,67.48529
"68206",918.10187,79.35668,67.339836
"68207",918.1152,79.26391,67.22696
"68208",918.1285,79.20775,67.1478
"68209",918.1418,79.17845,67.09374
"68210",918.1551,79.166245,67.05586
"68211",918.1684,79.166245,67.02981
"68212",918.1817,79.17601,67.01352
"68213",918.195,79.19066,67.00242
"68214",918.2083,79.20775,66.99422
"68215",918.2216,79.22728,66.98899
"68216",918.2349,79.24681,66.984375
"68217",918.2482,79.26147,66.975494
"68218",918.26154,79.26635,66.9573
"68219",918.27484,79.256584,66.92461
"68220",918.28815,79.23949,66.88428
"68221",918.30145,79.21263,66.83366
"68222",918.31476,79.18089,66.77731
"68223",918.32806,79.151596,66.72242
"68224",918.3414,79.11986,66.66417
"68225",918.3547,79.09056,66.60737
"68226",918.368,79.061264,66.54965
"68227",918.3813,79.029526,66.48858
"68228",918.3946,78.99779,66.42651
"68229",918.4079,78.97093,66.36834
"68230",918.4212,78.94408,66.309326
"68231",918.4345,78.922104,66.25436
"68232",918.4478,78.90257,66.20114
"68233",918.4611,78.890366,66.15464
"68234",918.4744,78.88304,66.11264
"68235",918.48773,78.8806,66.075294
"68236",918.50104,78.88548,66.0452
"68237",918.51434,78.89769,66.022575
"68238",918.52765,78.91478,66.00522
"68239",918.54095,78.92699,65.98351
"68240",918.55426,78.941635,65.96463
"68241",918.56757,78.95628,65.946205
"68242",918.5809,78.96849,65.9258
"68243",918.5942,78.98802,65.91309
"68244",918.6075,79.01488,65.908325
"68245",918.6208,79.044174,65.90684
"68246",918.6341,79.07103,65.903824
"68247",918.6474,79.10033,65.90409
"68248",918.6607,79.12474,65.90039
"68249",918.674,79.14671,65.89501
"68250",918.6873,79.15648,65.87811
"68251",918.7006,79.15404,65.84931
"68252",918.7139,79.14183,65.81067
"68253",918.72723,79.1223,65.76432
"68254",918.74054,79.1223,65.73689
"68255",918.75385,79.217514,65.80468
"68256",918.76715,79.52758,66.090294
"68257",918.78046,80.177,66.72495
"68258",918.79376,81.214615,67.7681
"68259",918.80707,82.579384,69.17082
"68260",918.8204,84.085754,70.7578
"68261",918.8337,85.47738,72.2771
"68262",918.847,86.50034,73.47123
"68263",918.8603,87.00572,74.17974
"68264",918.8736,86.98619,74.379135
"68265",918.8869,86.52964,74.1409
"68266",918.9002,85.785,73.60031
"68267",918.9135,84.9012,72.897285
"68268",918.9268,84.01984,72.16908
"68269",918.9401,83.243454,71.51832
"68270",918.9534,82.6453,71.02152
"68271",918.96674,82.24246,70.70135
"68272",918.98004,82.01785,70.546814
"68273",918.99335,81.92264,70.514656
"68274",919.00665,81.8909,70.543
"68275",919.01996,81.866486,70.577675
"68276",919.03326,81.82254,70.59206
"68277",919.0466,81.75662,70.58309
"68278",919.0599,81.688255,70.56962
"68279",919.0732,81.62966,70.56378
"68280",919.0865,81.58816,70.573204
"68281",919.0998,81.55886,70.59354
"68282",919.1131,81.5198,70.60319
"68283",919.1264,81.45144,70.58232
"68284",919.1397,81.339134,70.51537
"68285",919.153,81.18288,70.40096
"68286",919.1663,80.98268,70.23773
"68287",919.1796,80.75075,70.03651
"68288",919.19293,80.50416,69.81338
"68289",919.20624,80.25025,69.575226
"68290",919.21954,80.01099,69.34378
"68291",919.23285,79.79126,69.1244
"68292",919.24615,79.59106,68.91767
"68293",919.25946,79.415276,68.72911
"68294",919.27277,79.273674,68.56924
"68295",919.2861,79.1638,68.43667
"68296",919.2994,79.078354,68.32509
"68297",919.3127,79.01976,68.23769
"68298",919.326,78.98314,68.17044
"68299",919.3393,78.95628,68.11181
"68300",919.3526,78.93919,68.0621
"68301",919.3659,78.93187,68.02163
"68302",919.3792,78.92943,67.98581
"68303",919.3925,78.93431,67.95724
"68304",919.4058,78.94408,67.9337
"68305",919.4191,78.94896,67.90559
"68306",919.43243,78.9514,67.87518
"68307",919.44574,78.94408,67.83509
"68308",919.45905,78.93431,67.79233
"68309",919.47235,78.91722,67.741936
"68310",919.48566,78.89525,67.68613
"68311",919.49896,78.86351,67.619865
"68312",919.51227,78.83177,67.55261
"68313",919.5256,78.80003,67.48437
"68314",919.5389,78.765854,67.41269
"68315",919.5522,78.729225,67.337494
"68316",919.5655,78.695045,67.2636
"68317",919.5788,78.66575,67.19353
"68318",919.5921,78.63645,67.122536
"68319",919.6054,78.61204,67.05551
"68320",919.6187,78.60227,67.00237
"68321",919.632,78.59739,66.95381
"68322",919.6453,78.59983,66.91242
"68323",919.6586,78.607155,66.87599
"68324",919.67194,78.61692,66.84223
"68325",919.68524,78.624245,66.806335
"68326",919.69855,78.63401,66.77311
"68327",919.71185,78.643776,66.74019
"68328",919.72516,78.658424,66.712456
"68329",919.73846,78.67307,66.68518
"68330",919.7518,78.69016,66.660805
"68331",919.7651,78.71458,66.64429
"68332",919.7784,78.73655,66.62609
"68333",919.7917,78.75853,66.60859
"68334",919.805,78.77806,66.589325
"68335",919.8183,78.79515,66.56823
"68336",919.8316,78.8098,66.54523
"68337",919.8449,78.82689,66.52512
"68338",919.8582,78.836655,66.49823
"68339",919.8715,78.836655,66.461876
"68340",919.8848,78.84642,66.43529
"68341",919.89813,78.91478,66.4676
"68342",919.91144,79.15404,66.67294
"68343",919.92474,79.7058,67.19827
"68344",919.93805,80.66041,68.143684
"68345",919.95135,81.99344,69.49735
"68346",919.96466,83.5584,71.12461
"68347",919.97797,85.10628,72.78368
"68348",919.9913,86.37095,74.207924
"68349",920.0046,87.149765,75.18583
"68350",920.0179,87.38415,75.64364
"68351",920.0312,87.132675,75.622925
"68352",920.0445,86.5272,75.24034
"68353",920.0578,85.714195,74.63131
"68354",920.0711,84.84749,73.94317
"68355",920.0844,84.04669,73.29385
"68356",920.0977,83.387505,72.76112
"68357",920.111,82.916306,72.39578
"68358",920.1243,82.63065,72.20126
"68359",920.13763,82.48173,72.134544
"68360",920.15094,82.41093,72.1413
"68361",920.16425,82.36454,72.17025
"68362",920.17755,82.30595,72.18555
"68363",920.19086,82.22293,72.17459
"68364",920.20416,82.13504,72.156166
"68365",920.21747,82.056915,72.14476
"68366",920.2308,82.00076,72.152885
"68367",920.2441,81.96658,72.18123
"68368",920.2574,81.92996,72.20606
"68369",920.2707,81.86893,72.20534
"68370",920.284,81.75906,72.15388
"68371",920.2973,81.5906,72.04038
"68372",920.3106,81.37087,71.87036
"68373",920.3239,81.11452,71.656845
"68374",920.3372,80.831314,71.40847
"68375",920.3505,80.550545,71.15368
"68376",920.36383,80.274666,70.895004
"68377",920.37714,80.01099,70.63991
"68378",920.39044,79.76929,70.39855
"68379",920.40375,79.55932,70.18137
"68380",920.41705,79.381096,69.98938
"68381",920.43036,79.23216,69.821106
"68382",920.44366,79.114975,69.679924
"68383",920.457,79.02464,69.561935
"68384",920.4703,78.94896,69.45577
"68385",920.4836,78.89281,69.366776
"68386",920.4969,78.84886,69.28823
"68387",920.5102,78.81468,69.21808
"68388",920.5235,78.78783,69.15418
"68389",920.5368,78.76097,69.08945
"68390",920.5501,78.73655,69.026306
"68391",920.5634,78.71458,68.96485
"68392",920.5767,78.69749,68.90759
"68393",920.59,78.677956,68.84736
"68394",920.60333,78.65354,68.78163
"68395",920.61664,78.6218,68.70782
"68396",920.62994,78.57786,68.620804
"68397",920.64325,78.521706,68.52021
"68398",920.65656,78.45823,68.41054
"68399",920.66986,78.39231,68.29644
"68400",920.68317,78.32395,68.17784
"68401",920.6965,78.26536,68.06687
"68402",920.7098,78.2092,67.956505
"68403",920.7231,78.15793,67.84927
"68404",920.7364,78.1091,67.74288
"68405",920.7497,78.05783,67.63252
"68406",920.763,78.009,67.523
"68407",920.7763,77.96506,67.41684
"68408",920.7896,77.925995,67.314186
"68409",920.8029,77.89426,67.217636
"68410",920.8162,77.8674,67.12498
"68411",920.8295,77.84787,67.0388
"68412",920.84283,77.83566,66.95934
"68413",920.85614,77.83078,66.886826
"68414",920.86945,77.83566,66.82392
"68415",920.88275,77.84787,66.76849
"68416",920.89606,77.857635,66.711006
"68417",920.90936,77.8674,66.653824
"68418",920.92267,77.86984,66.58962
"68419",920.936,77.872284,66.5255
"68420",920.9493,77.874725,66.46145
"68421",920.9626,77.87717,66.39748
"68422",920.9759,77.874725,66.3287
"68423",920.9892,77.86984,66.2574
"68424",921.0025,77.86496,66.18595
"68425",921.0158,77.891815,66.14609
"68426",921.0291,78.030975,66.21937
"68427",921.0424,78.41917,66.54603
"68428",921.0557,79.1931,67.27056
"68429",921.06903,80.40162,68.453865
"68430",921.08234,81.971466,70.03626
"68431",921.09564,83.702446,71.82885
"68432",921.10895,85.313805,73.55591
"68433",921.12225,86.53452,74.94268
"68434",921.13556,87.2108,75.82316
"68435",921.14886,87.327995,76.16569
"68436",921.1622,86.97154,76.03824
"68437",921.1755,86.29282,75.57738
"68438",921.1888,85.45052,74.931725
"68439",921.2021,84.58381,74.23534
"68440",921.2154,83.79767,73.59244
"68441",921.2287,83.158005,73.07145
"68442",921.242,82.69657,72.7087
"68443",921.2553,82.39872,72.49512
"68444",921.2686,82.22781,72.39917
"68445",921.2819,82.142365,72.38334
"68446",921.2952,82.09354,72.40146
"68447",921.30853,82.06668,72.440025
"68448",921.32184,82.04471,72.482635
"68449",921.33514,82.039825,72.54165
"68450",921.34845,82.05203,72.6176
"68451",921.36176,82.07889,72.70858
"68452",921.37506,82.09598,72.790634
"68453",921.38837,82.08621,72.84637
"68454",921.4017,82.02762,72.85297
"68455",921.415,81.90555,72.79426
"68456",921.4283,81.71755,72.66581
"68457",921.4416,81.478294,72.480225
"68458",921.4549,81.19997,72.24809
"68459",921.4682,80.89967,71.9853
"68460",921.4815,80.58961,71.70335
"68461",921.4948,80.28687,71.41904
"68462",921.5081,79.99878,71.13991
"68463",921.5214,79.73754,70.87863
"68464",921.5347,79.51293,70.64582
"68465",921.54803,79.3225,70.44017
"68466",921.56134,79.17357,70.270065
"68467",921.57465,79.06615,70.13682
"68468",921.58795,78.98802,70.02951
"68469",921.60126,78.92943,69.93929
"68470",921.61456,78.890366,69.866776
"68471",921.62787,78.86839,69.81013
"68472",921.6412,78.86107,69.76744
"68473",921.6545,78.86839,69.739174
"68474",921.6678,78.88548,69.7209
"68475",921.6811,78.905014,69.705605
"68476",921.6944,78.91234,69.67871
"68477",921.7077,78.89769,69.63007
"68478",921.721,78.86351,69.56145
"68479",921.7343,78.8098,69.47222
"68480",921.7476,78.74876,69.373985
"68481",921.7609,78.6804,69.266525
"68482",921.77423,78.61204,69.15693
"68483",921.78754,78.54612,69.04764
"68484",921.80084,78.485085,68.94117
"68485",921.81415,78.42405,68.832794
"68486",921.82745,78.3679,68.727394
"68487",921.84076,78.31907,68.62756
"68488",921.85406,78.27268,68.52865
"68489",921.8674,78.23117,68.43316
"68490",921.8807,78.19699,68.343704
"68491",921.894,78.17258,68.26295
"68492",921.9073,78.15793,68.19119
"68493",921.9206,78.150604,68.126305
"68494",921.9339,78.14816,68.06607
"68495",921.9472,78.14572,68.00576
"68496",921.9605,78.14084,67.94293
"68497",921.9738,78.12619,67.870186
"68498",921.9871,78.10422,67.78966
"68499",922.0004,78.08713,67.713326
"68500",922.01373,78.0798,67.646225
"68501",922.02704,78.118866,67.62528
"68502",922.04034,78.27268,67.720314
"68503",922.05365,78.658424,68.05208
"68504",922.06696,79.37621,68.72794
"68505",922.08026,80.46021,69.79245
"68506",922.09357,81.84451,71.19113
"68507",922.1069,83.36553,72.76979
"68508",922.1202,84.791336,74.300766
"68509",922.1335,85.89975,75.55891
"68510",922.1468,86.554054,76.397575
"68511",922.1601,86.72251,76.77084
"68512",922.1734,86.468605,76.72701
"68513",922.1867,85.90219,76.36274
"68514",922.2,85.15022,75.79521
"68515",922.2133,84.32746,75.13339
"68516",922.2266,83.53399,74.47515
"68517",922.2399,82.828415,73.88001
"68518",922.25323,82.24246,73.38245
"68519",922.26654,81.778595,72.988655
"68520",922.27985,81.43923,72.70487
"68521",922.29315,81.22438,72.534996
"68522",922.30646,81.13405,72.482925
"68523",922.31976,81.16823,72.55254
"68524",922.33307,81.322044,72.74287
"68525",922.3464,81.566185,73.02832
"68526",922.3597,81.846954,73.35803
"68527",922.373,82.11063,73.67942
"68528",922.3863,82.303505,73.938255
"68529",922.3996,82.38651,74.09325
"68530",922.4129,82.34989,74.1312
"68531",922.4262,82.193634,74.04838
"68532",922.4395,81.9324,73.8557
"68533",922.4528,81.59792,73.581604
"68534",922.4661,81.21706,73.25067
"68535",922.47943,80.81178,72.88343
"68536",922.49274,80.40894,72.50596
"68537",922.50604,80.03052,72.14031
"68538",922.51935,79.69604,71.806786
"68539",922.53265,79.412834,71.514084
"68540",922.54596,79.183334,71.266235
"68541",922.55927,79.00755,71.06493
"68542",922.5726,78.86839,70.89476
"68543",922.5859,78.76341,70.75442
"68544",922.5992,78.68772,70.64008
"68545",922.6125,78.641335,70.55269
"68546",922.6258,78.61448,70.483376
"68547",922.6391,78.60471,70.43031
"68548",922.6524,78.59983,70.38183
"68549",922.6657,78.58762,70.32587
"68550",922.679,78.55833,70.25243
"68551",922.6923,78.51194,70.160995
"68552",922.7056,78.450905,70.05346
"68553",922.71893,78.37766,69.93181
"68554",922.73224,78.2971,69.800545
"68555",922.74554,78.21408,69.664314
"68556",922.75885,78.12375,69.51817
"68557",922.77216,78.030975,69.36677
"68558",922.78546,77.94064,69.214905
"68559",922.79877,77.85031,69.06022
"68560",922.8121,77.76242,68.90515
"68561",922.8254,77.679405,68.75221
"68562",922.8387,77.5964,68.59669
"68563",922.852,77.50851,68.433685
"68564",922.8653,77.41329,68.26061
"68565",922.8786,77.31808,68.084564
"68566",922.8919,77.23262,67.9153
"68567",922.9052,77.18379,67.77999
"68568",922.9185,77.22774,67.73593
"68569",922.9318,77.45724,67.8788
"68570",922.9451,77.97238,68.31448
"68571",922.95844,78.82933,69.10807
"68572",922.97174,80.01099,70.25314
"68573",922.98505,81.40505,71.64755
"68574",922.99835,82.81377,73.100174
"68575",923.01166,84.02472,74.399055
"68576",923.02496,84.8719,75.37201
"68577",923.03827,85.26742,75.91977
"68578",923.0516,85.23079,76.047745
"68579",923.0649,84.83528,75.8157
"68580",923.0782,84.19318,75.32469
"68581",923.0915,83.424126,74.686676
"68582",923.1048,82.62821,73.997765
"68583",923.1181,81.87381,73.32549
"68584",923.1314,81.197525,72.70776
"68585",923.1447,80.621346,72.16901
"68586",923.158,80.15259,71.719666
"68587",923.1713,79.81323,71.38508
"68588",923.18463,79.62768,71.19369
"68589",923.19794,79.61059,71.16496
"68590",923.21124,79.7522,71.2944
"68591",923.22455,80.02319,71.557655
"68592",923.23785,80.36256,71.89774
"68593",923.25116,80.69703,72.243546
"68594",923.26447,80.96803,72.53633
"68595",923.2778,81.126724,72.72527
"68596",923.2911,81.146255,72.780014
"68597",923.3044,81.03151,72.70109
"68598",923.3177,80.79469,72.496506
"68599",923.331,80.46998,72.196625
"68600",923.3443,80.08911,71.830444
"68601",923.3576,79.68383,71.42795
"68602",923.3709,79.28588,71.02012
"68603",923.3842,78.91234,70.62426
"68604",923.3975,78.58274,70.26067
"68605",923.4108,78.30686,69.940506
"68606",923.42413,78.08957,69.6703
"68607",923.43744,77.92355,69.44459
"68608",923.45074,77.80881,69.26495
"68609",923.46405,77.74044,69.12811
"68610",923.47736,77.71847,69.03553
"68611",923.49066,77.733116,68.97888
"68612",923.50397,77.7673,68.94223
"68613",923.5173,77.81125,68.916405
"68614",923.5306,77.85275,68.88951
"68615",923.5439,77.87717,68.846825
"68616",923.5572,77.88449,68.78781
"68617",923.5705,77.87961,68.71682
"68618",923.5838,77.86984,68.64079
"68619",923.5971,77.84787,68.55225
"68620",923.6104,77.81613,68.45326
"68621",923.6237,77.77463,68.34351
"68622",923.637,77.72579,68.225136
"68623",923.6503,77.6672,68.095474
"68624",923.66364,77.593956,67.94933
"68625",923.67694,77.51095,67.79114
"68626",923.69025,77.41573,67.61814
"68627",923.70355,77.32296,67.44461
"68628",923.71686,77.23506,67.273056
"68629",923.73016,77.18135,67.13294
"68630",923.74347,77.21797,67.08148
"68631",923.7568,77.44503,67.2216
"68632",923.7701,77.97482,67.671555
"68633",923.7834,78.890366,68.52381
"68634",923.7967,80.201416,69.800186
"68635",923.81,81.78836,71.393425
"68636",923.8233,83.455864,73.11681
"68637",923.8366,84.962234,74.73118
"68638",923.8499,86.09262,76.01663
"68639",923.8632,86.73472,76.84912
"68640",923.8765,86.88609,77.21095
"68641",923.88983,86.62241,77.16246
"68642",923.90314,86.07309,76.82008
"68643",923.91644,85.37728,76.31406
"68644",923.92975,84.65461,75.75942
"68645",923.94305,83.99542,75.24569
"68646",923.95636,83.44366,74.81878
"68647",923.96967,82.99687,74.47961
"68648",923.983,82.63065,74.20704
"68649",923.9963,82.31327,73.97186
"68650",924.0096,82.0325,73.76338
"68651",924.0229,81.79813,73.59252
"68652",924.0362,81.62966,73.48025
"68653",924.0495,81.54421,73.445724
"68654",924.0628,81.54421,73.49398
"68655",924.0761,81.59548,73.593506
"68656",924.0894,81.6614,73.70928
"68657",924.1027,81.70046,73.80026
"68658",924.116,81.67361,73.826546
"68659",924.12933,81.55642,73.76166
"68660",924.14264,81.33669,73.59057
"68661",924.15594,81.024185,73.31983
"68662",924.16925,80.638435,72.96609
"68663",924.18256,80.20874,72.55634
"68664",924.19586,79.77417,72.128296
"68665",924.20917,79.37133,71.7184
"68666",924.2225,79.009995,71.33742
"68667",924.2358,78.69993,70.996414
"68668",924.2491,78.44114,70.697
"68669",924.2624,78.23361,70.44076
"68670",924.2757,78.07736,70.22931
"68671",924.289,77.96506,70.05692
"68672",924.3023,77.891815,69.92009
"68673",924.3156,77.84787,69.810265
"68674",924.3289,77.823456,69.7186
"68675",924.3422,77.803925,69.63105
"68676",924.3555,77.77951,69.53801
"68677",924.36884,77.74532,69.43443
"68678",924.38214,77.69894,69.31759
"68679",924.39545,77.642784,69.18953
"68680",924.40875,77.57198,69.04507
"68681",924.42206,77.49142,68.888626
"68682",924.43536,77.40353,68.72234
"68683",924.44867,77.31075,68.54843
"68684",924.462,77.21309,68.36673
"68685",924.4753,77.11055,68.1771
"68686",924.4886,77.015335,67.99159
"68687",924.5019,76.927444,67.81043
"68688",924.5152,76.85176,67.63873
"68689",924.5285,76.78584,67.474434
"68690",924.5418,76.732124,67.320274
"68691",924.5551,76.69062,67.17665
"68692",924.5684,76.65644,67.039055
"68693",924.5817,76.63203,66.91016
"68694",924.59503,76.612495,66.78538
"68695",924.60834,76.59785,66.66487
"68696",924.62164,76.59052,66.55123
"68697",924.63495,76.646675,66.50084
"68698",924.64825,76.86397,66.61334
"68699",924.66156,77.38644,67.03781
"68700",924.67487,78.33372,67.90342
"68701",924.6882,79.73754,69.25517
"68702",924.7015,81.49294,71.00237
"68703",924.7148,83.389946,72.94603
"68704",924.7281,85.14534,74.80736
"68705",924.7414,86.505226,76.32803
"68706",924.7547,87.325554,77.35165
"68707",924.768,87.60143,77.856445
"68708",924.7813,87.413445,77.906006
"68709",924.7946,86.91295,77.63718
"68710",924.8079,86.26353,77.20378
"68711",924.8212,85.60677,76.74276
"68712",924.83453,85.0428,76.354
"68713",924.84784,84.62043,76.08921
"68714",924.86115,84.32746,75.94063
"68715",924.87445,84.102844,75.85124
"68716",924.88776,83.86847,75.74508
"68717",924.90106,83.57061,75.56811
"68718",924.91437,83.192184,75.30126
"68719",924.9277,82.76738,74.97621
"68720",924.941,82.34989,74.6452
"68721",924.9543,81.99832,74.367065
"68722",924.9676,81.739525,74.170715
"68723",924.9809,81.566185,74.051735
"68724",924.9942,81.44167,73.976166
"68725",925.0075,81.324486,73.90403
"68726",925.0208,81.17799,73.79893
"68727",925.0341,80.970474,73.62822
"68728",925.0474,80.68726,73.375336
"68729",925.0607,80.325935,73.035484
"68730",925.07404,79.906006,72.62574
"68731",925.08734,79.4519,72.16869
"68732",925.10065,78.99779,71.69746
"68733",925.11395,78.572975,71.241325
"68734",925.12726,78.19699,70.82075
"68735",925.14056,77.88205,70.44946
"68736",925.1539,77.62325,70.12448
"68737",925.1672,77.420616,69.84757
"68738",925.1805,77.25948,69.605835
"68739",925.1938,77.137405,69.39812
"68740",925.2071,77.04463,69.21589
"68741",925.2204,76.97139,69.05029
"68742",925.2337,76.912796,68.89706
"68743",925.247,76.859085,68.74687
"68744",925.2603,76.80049,68.590126
"68745",925.2736,76.73945,68.4291
"68746",925.2869,76.67353,68.26129
"68747",925.30023,76.59785,68.08166
"68748",925.31354,76.52216,67.89966
"68749",925.32684,76.4416,67.71041
"68750",925.34015,76.35859,67.516205
"68751",925.35345,76.27314,67.31696
"68752",925.36676,76.19501,67.12237
"68753",925.38007,76.12421,66.93266
"68754",925.3934,76.05829,66.74563
"68755",925.4067,76.00946,66.57362
"68756",925.42,75.9704,66.40986
"68757",925.4333,75.94354,66.25708
"68758",925.4466,75.928894,66.11567
"68759",925.4599,75.92645,65.98601
"68760",925.4732,75.93622,65.86848
"68761",925.4865,75.95331,65.758575
"68762",925.4998,75.97528,65.65409
"68763",925.5131,76.0119,65.56494
"68764",925.5264,76.053406,65.48182
"68765",925.53973,76.09735,65.402435
"68766",925.55304,76.14618,65.32931
"68767",925.56635,76.19501,65.257706
"68768",925.57965,76.23651,65.180305
"68769",925.59296,76.280464,65.10665
"68770",925.60626,76.317085,65.02704
"68771",925.61957,76.35371,64.94857
"68772",925.6329,76.39277,64.87369
"68773",925.6462,76.43427,64.80247
"68774",925.6595,76.4831,64.73987
"68775",925.6728,76.53925,64.68612
"68776",925.6861,76.59785,64.636566
"68777",925.6994,76.66621,64.59861
"68778",925.7127,76.73701,64.56523
"68779",925.726,76.8127,64.538956
"68780",925.7393,76.89082,64.51748
"68781",925.7526,76.97139,64.500885
"68782",925.7659,77.04707,64.481926
"68783",925.77924,77.117874,64.46045
"68784",925.79254,77.18135,64.43386
"68785",925.80585,77.264366,64.428795
"68786",925.81915,77.45724,64.53618
"68787",925.83246,77.91623,64.91571
"68788",925.84576,78.80736,65.74172
"68789",925.8591,80.235596,67.13269
"68790",925.8724,82.15457,69.05903
"68791",925.8857,84.37629,71.348076
"68792",925.899,86.59556,73.7041
"68793",925.9123,88.480354,75.795006
"68794",925.9256,89.78897,77.36864
"68795",925.9389,90.440834,78.32641
"68796",925.9522,90.48966,78.701515
"68797",925.9655,90.09659,78.636246
"68798",925.9788,89.45205,78.30723
"68799",925.9921,88.75136,77.90192
"68800",926.00543,88.1532,77.57724
"68801",926.01874,87.743034,77.42186
"68802",926.03204,87.535515,77.456314
"68803",926.04535,87.47936,77.63565
"68804",926.05865,87.464714,77.85474
"68805",926.07196,87.37682,78.00012
"68806",926.08527,87.13023,77.984055
"68807",926.0986,86.693214,77.76985
"68808",926.1119,86.099945,77.38574
"68809",926.1252,85.43343,76.90985
"68810",926.1385,84.78401,76.43022
"68811",926.1518,84.2298,76.025505
"68812",926.1651,83.80011,75.728
"68813",926.1784,83.48272,75.52936
"68814",926.1917,83.243454,75.398926
"68815",926.205,83.02861,75.28544
"68816",926.2183,82.79668,75.14815
"68817",926.2316,82.511024,74.94989
"68818",926.24493,82.159454,74.67679
"68819",926.25824,81.74685,74.331665
"68820",926.27155,81.29275,73.93215
"68821",926.28485,80.81911,73.49891
"68822",926.29816,80.35279,73.05819
"68823",926.31146,79.91577,72.632195
"68824",926.32477,79.52514,72.23893
"68825",926.3381,79.18822,71.88717
"68826",926.3514,78.90013,71.573715
"68827",926.3647,78.6511,71.29031
"68828",926.378,78.44358,71.04064
"68829",926.3913,78.27512,70.82355
"68830",926.4046,78.135956,70.63048
"68831",926.4179,78.01877,70.45504
"68832",926.4312,77.91623,70.29059
"68833",926.4445,77.81857,70.127815
"68834",926.4578,77.71603,69.9571
"68835",926.4711,77.60616,69.77586
"68836",926.48444,77.4963,69.591194
"68837",926.49774,77.383995,69.40065
"68838",926.51105,77.26681,69.20171
"68839",926.52435,77.14717,68.996666
"68840",926.53766,77.0251,68.785446
"68841",926.55096,76.90059,68.56797
"68842",926.5643,76.77852,68.349045
"68843",926.5776,76.66865,68.138504
"68844",926.5909,76.56367,67.92942
"68845",926.6042,76.46845,67.72682
"68846",926.6175,76.385445,67.533455
"68847",926.6308,76.317085,67.35214
"68848",926.6441,76.25849,67.17846
"68849",926.6574,76.2121,67.015144
"68850",926.6707,76.17792,66.862595
"68851",926.684,76.15839,66.723625
"68852",926.6973,76.14862,66.59381
"68853",926.71063,76.15106,66.4759
"68854",926.72394,76.15839,66.362946
"68855",926.73724,76.16815,66.25266
"68856",926.75055,76.18036,66.14513
"68857",926.76385,76.19745,66.042854
"68858",926.77716,76.21454,65.94112
"68859",926.79047,76.23163,65.83991
"68860",926.8038,76.25117,65.74169
"68861",926.8171,76.26826,65.64163
"68862",926.8304,76.28779,65.54455
"68863",926.8437,76.30976,65.450516
"68864",926.857,76.33173,65.35717
"68865",926.8703,76.36103,65.271835
"68866",926.8836,76.39765,65.19474
"68867",926.8969,76.436714,65.12123
"68868",926.9102,76.47822,65.051384
"68869",926.9235,76.52216,64.985275
"68870",926.9368,76.56611,64.92054
"68871",926.95013,76.60517,64.852295
"68872",926.96344,76.64179,64.78283
"68873",926.97675,76.68574,64.72183
"68874",926.99005,76.73701,64.66953
"68875",927.00336,76.80293,64.63349
"68876",927.01666,76.876175,64.60683
"68877",927.02997,76.95186,64.58489
"68878",927.0433,77.02266,64.56044
"68879",927.0566,77.08125,64.52599
"68880",927.0699,77.1252,64.47873
"68881",927.0832,77.1667,64.4304
"68882",927.0965,77.26681,64.44196
"68883",927.1098,77.54757,64.637314
"68884",927.1231,78.184784,65.19789
"68885",927.1364,79.3225,66.278885
"68886",927.1497,80.99245,67.92766
"68887",927.163,83.072556,70.03878
"68888",927.17633,85.30648,72.36872
"68889",927.18964,87.362175,74.59024
"68890",927.20294,88.94911,76.40724
"68891",927.21625,89.89639,77.634186
"68892",927.22955,90.20157,78.24863
"68893",927.24286,89.96475,78.33061
"68894",927.25616,89.359276,78.03654
"68895",927.2695,88.57801,77.54775
"68896",927.2828,87.79431,77.03212
"68897",927.2961,87.14244,76.623825
"68898",927.3094,86.695656,76.40024
"68899",927.3227,86.44663,76.36045
"68900",927.336,86.33433,76.4496
"68901",927.3493,86.258644,76.57186
"68902",927.3626,86.117035,76.62583
"68903",927.3759,85.84604,76.54599
"68904",927.3892,85.43343,76.31607
"68905",927.4025,84.92073,75.97316
"68906",927.41583,84.38117,75.58737
"68907",927.42914,83.88312,75.22623
"68908",927.44244,83.47295,74.93741
"68909",927.45575,83.15068,74.72366
"68910",927.46906,82.899216,74.570656
"68911",927.48236,82.67704,74.43908
"68912",927.49567,82.44511,74.2908
"68913",927.509,82.1741,74.09621
"68914",927.5223,81.849396,73.83944
"68915",927.5356,81.47097,73.51881
"68916",927.5489,81.04616,73.13996
"68917",927.5622,80.601814,72.72831
"68918",927.5755,80.15015,72.29545
"68919",927.5888,79.71313,71.86312
"68920",927.6021,79.31274,71.453766
"68921",927.6154,78.95628,71.075836
"68922",927.6287,78.65354,70.74048
"68923",927.642,78.397194,70.442055
"68924",927.65533,78.187225,70.182
"68925",927.66864,78.009,69.94713
"68926",927.68195,77.86008,69.735985
"68927",927.69525,77.733116,69.54215
"68928",927.70856,77.62081,69.35901
"68929",927.72186,77.51827,69.18212
"68930",927.73517,77.4255,69.011795
"68931",927.7485,77.330284,68.83613
"68932",927.7618,77.23262,68.65504
"68933",927.7751,77.12764,68.46358
"68934",927.7884,77.02266,68.26884
"68935",927.8017,76.91768,68.070816
"68936",927.815,76.82002,67.87684
"68937",927.8283,76.71992,67.67736
"68938",927.8416,76.6247,67.479645
"68939",927.8549,76.53437,67.28384
"68940",927.8682,76.44404,67.085205
"68941",927.88153,76.35859,66.88863
"68942",927.89484,76.282906,66.69916
"68943",927.90814,76.21454,66.51463
"68944",927.92145,76.1535,66.335304
"68945",927.93475,76.112,66.1736
"68946",927.94806,76.087585,66.02769
"68947",927.96136,76.07538,65.89322
"68948",927.9747,76.07538,65.77058
"68949",927.988,76.09003,65.66258
"68950",928.0013,76.10712,65.55749
"68951",928.0146,76.12665,65.45537
"68952",928.0279,76.155945,65.363625
"68953",928.0412,76.18768,65.27524
"68954",928.0545,76.21942,65.18784
"68955",928.0678,76.24872,65.099
"68956",928.0811,76.27802,65.01108
"68957",928.0944,76.30732,64.924065
"68958",928.1077,76.33906,64.84041
"68959",928.12103,76.37568,64.76263
"68960",928.13434,76.41718,64.69087
"68961",928.14764,76.456245,64.61797
"68962",928.16095,76.50507,64.55606
"68963",928.17426,76.55146,64.49323
"68964",928.18756,76.60273,64.43674
"68965",928.20087,76.654,64.38184
"68966",928.2142,76.70771,64.33099
"68967",928.2275,76.75899,64.27939
"68968",928.2408,76.8127,64.23182
"68969",928.2541,76.86641,64.18593
"68970",928.2674,76.92012,64.141716
"68971",928.2807,76.978714,64.104065
"68972",928.294,77.04219,64.07313
"68973",928.3073,77.10811,64.046616
"68974",928.3206,77.17647,64.024605
"68975",928.3339,77.242386,64.00229
"68976",928.3472,77.296104,63.969833
"68977",928.36053,77.34249,63.931725
"68978",928.37384,77.42306,63.929245
"68979",928.38715,77.64767,64.073326
"68980",928.40045,78.18967,64.54182
"68981",928.41376,79.20775,65.50333
"68982",928.42706,80.77028,67.0411
"68983",928.44037,82.79668,69.09157
"68984",928.4537,85.050125,71.43241
"68985",928.467,87.20836,73.74846
"68986",928.4803,88.94423,75.70959
"68987",928.4936,90.05997,77.10483
"68988",928.5069,90.49943,77.858665
"68989",928.5202,90.3505,78.03785
"68990",928.5335,89.759674,77.77048
"68991",928.5468,88.91737,77.23317
"68992",928.5601,88.00183,76.5963
"68993",928.5734,87.16197,76.0065
"68994",928.58673,86.49302,75.561356
"68995",928.60004,86.031586,75.302826
"68996",928.61334,85.74593,75.20566
"68997",928.62665,85.557945,75.19723
"68998",928.63995,85.38705,75.20001
"68999",928.65326,85.15999,75.1413
"69000",928.66656,84.859695,75.00225
"69001",928.6799,84.505684,74.8001
"69002",928.6932,84.14679,74.58201
"69003",928.7065,83.826965,74.39177
"69004",928.7198,83.56573,74.25012
"69005",928.7331,83.35088,74.146706
"69006",928.7464,83.16777,74.068306
"69007",928.7597,82.9749,73.97443
"69008",928.773,82.74784,73.84033
"69009",928.7863,82.46952,73.64788
"69010",928.7996,82.13016,73.38569
"69011",928.8129,81.73464,73.05674
"69012",928.82623,81.29519,72.67149
"69013",928.83954,80.82887,72.24565
"69014",928.85284,80.360115,71.802795
"69015",928.86615,79.91577,71.369705
"69016",928.87946,79.50561,70.95691
"69017",928.89276,79.14427,70.580124
"69018",928.90607,78.84154,70.25065
"69019",928.9194,78.59495,69.96786
"69020",928.9327,78.39475,69.723755
"69021",928.946,78.238495,69.517334
"69022",928.9593,78.11398,69.337776
"69023",928.9726,78.01633,69.18118
"69024",928.9859,77.93576,69.03863
"69025",928.9992,77.86496,68.90332
"69026",929.0125,77.79904,68.77068
"69027",929.0258,77.738,68.64086
"69028",929.0391,77.6672,68.499374
"69029",929.0524,77.5964,68.355675
"69030",929.06573,77.51827,68.20244
"69031",929.07904,77.43282,68.03944
"69032",929.09235,77.34005,67.86644
"69033",929.10565,77.24483,67.688095
"69034",929.11896,77.14473,67.5019
"69035",929.13226,77.049515,67.31746
"69036",929.14557,76.9543,67.13004
"69037",929.1589,76.86641,66.946976
"69038",929.1722,76.788284,66.77093
"69039",929.1855,76.7248,66.60708
"69040",929.1988,76.66865,66.44858
"69041",929.2121,76.6247,66.30053
"69042",929.2254,76.59052,66.16087
"69043",929.2387,76.56611,66.029915
"69044",929.252,76.54902,65.90552
"69045",929.2653,76.53925,65.78791
"69046",929.2786,76.53925,65.67976
"69047",929.29193,76.54658,65.57894
"69048",929.30524,76.55634,65.48079
"69049",929.31854,76.56855,65.38538
"69050",929.33185,76.5832,65.2928
"69051",929.34515,76.59785,65.200676
"69052",929.35846,76.612495,65.10901
"69053",929.37177,76.629585,65.02024
"69054",929.3851,76.65644,64.94177
"69055",929.3984,76.6833,64.86414
"69056",929.4117,76.71992,64.79712
"69057",929.425,76.754105,64.728806
"69058",929.4383,76.788284,64.66155
"69059",929.4516,76.82002,64.592926
"69060",929.4649,76.84932,64.52285
"69061",929.4782,76.87373,64.44881
"69062",929.4915,76.90059,64.37797
"69063",929.5048,76.929886,64.31041
"69064",929.5181,76.96651,64.25109
"69065",929.53143,77.00313,64.19292
"69066",929.54474,77.0544,64.150536
"69067",929.55804,77.11299,64.11708
"69068",929.57135,77.17403,64.0879
"69069",929.58466,77.23018,64.05574
"69070",929.59796,77.281456,64.02046
"69071",929.61127,77.31808,63.97213
"69072",929.6246,77.33761,63.907852
"69073",929.6379,77.36446,63.85151
"69074",929.6512,77.469444,63.87413
"69075",929.6645,77.786835,64.11244
"69076",929.6778,78.502174,64.75862
"69077",929.6911,79.73754,65.94718
"69078",929.7044,81.497826,67.699265
"69079",929.7177,83.63409,69.88233
"69080",929.731,85.86313,72.22494
"69081",929.7443,87.8407,74.38573
"69082",929.7576,89.288475,76.07852
"69083",929.77094,90.06485,77.145164
"69084",929.78424,90.18204,77.57688
"69085",929.79755,89.74258,77.45561
"69086",929.81085,88.91249,76.929985
"69087",929.82416,87.86511,76.16112
"69088",929.83746,86.76402,75.30582
"69089",929.85077,85.74105,74.49422
"69090",929.8641,84.88167,73.81424
"69091",929.8774,84.21515,73.30027
"69092",929.8907,83.73174,72.948586
"69093",929.904,83.39727,72.73073
"69094",929.9173,83.17998,72.6196
"69095",929.9306,83.04814,72.587135
"69096",929.9439,82.98711,72.62135
"69097",929.9572,82.98222,72.709816
"69098",929.9705,83.018845,72.83963
"69099",929.9838,83.06767,72.982796
"69100",929.99713,83.09453,73.105515
"69101",930.01044,83.06767,73.17536
"69102",930.02374,82.97002,73.17357
"69103",930.03705,82.77959,73.07595
"69104",930.05035,82.49149,72.87472
"69105",930.06366,82.11795,72.57903
"69106",930.07697,81.67605,72.203316
"69107",930.0903,81.19264,71.772285
"69108",930.1036,80.69215,71.30906
"69109",930.1169,80.201416,70.83996
"69110",930.1302,79.7351,70.37994
"69111",930.1435,79.31274,69.949295
"69112",930.1568,78.93675,69.551834
"69113",930.1701,78.61448,69.196335
"69114",930.1834,78.35081,68.889366
"69115",930.1967,78.14328,68.6303
"69116",930.21,77.98703,68.41603
"69117",930.2233,77.88205,68.248146
"69118",930.23663,77.81369,68.1136
"69119",930.24994,77.77219,68.00378
"69120",930.26324,77.747765,67.90974
"69121",930.27655,77.730675,67.822266
"69122",930.28986,77.71847,67.73914
"69123",930.30316,77.70626,67.65564
"69124",930.31647,77.68673,67.56443
"69125",930.3298,77.65743,67.462845
"69126",930.3431,77.61593,67.34814
"69127",930.3564,77.557335,67.21504
"69128",930.3697,77.488976,67.07035
"69129",930.383,77.40841,66.911316
"69130",930.3963,77.32784,66.74976
"69131",930.4096,77.25216,66.590576
"69132",930.4229,77.18623,66.43878
"69133",930.4362,77.12764,66.29226
"69134",930.4495,77.07881,66.15367
"69135",930.4628,77.02998,66.01356
"69136",930.47614,76.98604,65.8768
"69137",930.48944,76.946976,65.74355
"69138",930.50275,76.91768,65.61885
"69139",930.51605,76.90059,65.50544
"69140",930.52936,76.893265,65.40126
"69141",930.54266,76.893265,65.30418
"69142",930.55597,76.895706,65.20953
"69143",930.5693,76.895706,65.112526
"69144",930.5826,76.90303,65.02284
"69145",930.5959,76.92012,64.94315
"69146",930.6092,76.946976,64.873764
"69147",930.6225,76.98848,64.81986
"69148",930.6358,77.04219,64.779465
"69149",930.6491,77.10811,64.75295
"69150",930.6624,77.17891,64.73338
"69151",930.6757,77.2546,64.72092
"69152",930.689,77.32784,64.70837
"69153",930.70233,77.39376,64.69078
"69154",930.71564,77.44503,64.66061
"69155",930.72894,77.471886,64.60762
"69156",930.74225,77.471886,64.52862
"69157",930.75555,77.44503,64.42276
"69158",930.76886,77.40597,64.303856
"69159",930.78217,77.36446,64.18129
"69160",930.7955,77.33517,64.06963
"69161",930.8088,77.32296,63.97415
"69162",930.8221,77.330284,63.89782
"69163",930.8354,77.3547,63.838806
"69164",930.8487,77.39132,63.792763
"69165",930.862,77.43282,63.752747
"69166",930.8753,77.47921,63.71891
"69167",930.8886,77.53536,63.69629
"69168",930.9019,77.62081,63.70472
"69169",930.9152,77.821014,63.830574
"69170",930.9285,78.26536,64.206825
"69171",930.94183,79.11253,64.999794
"69172",930.95514,80.44068,66.30021
"69173",930.96844,82.2034,68.0767
"69174",930.98175,84.20294,70.145096
"69175",930.99506,86.14389,72.217384
"69176",931.00836,87.725945,73.99143
"69177",931.02167,88.72205,75.22897
"69178",931.035,89.06142,75.8409
"69179",931.0483,88.80751,75.87016
"69180",931.0616,88.08972,75.42761
"69181",931.0749,87.05943,74.65013
"69182",931.0882,85.86313,73.67443
"69183",931.1015,84.62531,72.619835
"69184",931.1148,83.441216,71.58028
"69185",931.1281,82.36942,70.61602
"69186",931.1414,81.45388,69.77452
"69187",931.1547,80.723885,69.08996
"69188",931.168,80.21118,68.59988
"69189",931.18134,79.940186,68.33548
"69190",931.19464,79.93286,68.32629
"69191",931.20795,80.17944,68.57077
"69192",931.22125,80.63111,69.028046
"69193",931.23456,81.19997,69.61662
"69194",931.24786,81.78104,70.23519
"69195",931.26117,82.27177,70.78158
"69196",931.2745,82.59647,71.17728
"69197",931.2878,82.71366,71.3756
"69198",931.3011,82.61845,71.36519
"69199",931.3144,82.34257,71.171135
"69200",931.3277,81.92264,70.82441
"69201",931.341,81.40749,70.36935
"69202",931.3543,80.84108,69.84692
"69203",931.3676,80.26002,69.29214
"69204",931.3809,79.691154,68.7314
"69205",931.3942,79.15892,68.189514
"69206",931.40753,78.68284,67.68715
"69207",931.42084,78.277565,67.240715
"69208",931.43414,77.95285,66.862175
"69209",931.44745,77.713585,66.55894
"69210",931.46075,77.557335,66.33124
"69211",931.47406,77.47433,66.1719
"69212",931.48737,77.452354,66.071
"69213",931.5007,77.469444,66.00848
"69214",931.514,77.52071,65.98067
"69215",931.5273,77.591515,65.97399
"69216",931.5406,77.67696,65.98418
"69217",931.5539,77.76486,65.99948
"69218",931.5672,77.84543,66.0102
"69219",931.5805,77.90646,66.00391
"69220",931.5938,77.94797,65.97999
"69221",931.6071,77.96506,65.93295
"69222",931.6204,77.962616,65.86692
"69223",931.6337,77.95041,65.791046
"69224",931.64703,77.93332,65.70991
"69225",931.66034,77.90402,65.61603
"69226",931.67365,77.86984,65.51635
"69227",931.68695,77.83078,65.41072
"69228",931.70026,77.78195,65.294106
"69229",931.71356,77.72579,65.16863
"69230",931.72687,77.67208,65.04385
"69231",931.7402,77.62081,64.91984
"69232",931.7535,77.57198,64.79666
"69233",931.7668,77.5256,64.6744
"69234",931.7801,77.48409,64.55557
"69235",931.7934,77.454796,64.447655
"69236",931.8067,77.43282,64.346146
"69237",931.82,77.4255,64.2586
"69238",931.8333,77.435265,64.18791
"69239",931.8466,77.45724,64.12974
"69240",931.8599,77.48409,64.07713
"69241",931.8732,77.51827,64.03269
"69242",931.88654,77.55245,63.98932
"69243",931.89984,77.593956,63.954338
"69244",931.91315,77.63546,63.920654
"69245",931.92645,77.68185,63.89315
"69246",931.93976,77.72823,63.867096
"69247",931.95306,77.78195,63.849823
"69248",931.9664,77.840546,63.839104
"69249",931.9797,77.8967,63.827774
"69250",931.993,77.95041,63.815758
"69251",932.0063,77.99191,63.793213
"69252",932.0196,78.011444,63.749992
"69253",932.0329,78.02365,63.700058
"69254",932.0462,78.0676,63.682243
"69255",932.0595,78.25559,63.809853
"69256",932.0728,78.74387,64.24362
"69257",932.0861,79.67895,65.13944
"69258",932.0994,81.1194,66.56986
"69259",932.11273,82.97978,68.465225
"69260",932.12604,85.030594,70.60915
"69261",932.13934,86.96178,72.69754
"69262",932.15265,88.47791,74.43123
"69263",932.16595,89.391014,75.60927
"69264",932.17926,89.654686,76.16641
"69265",932.19257,89.342186,76.155624
"69266",932.2059,88.587776,75.69316
"69267",932.2192,87.555046,74.9288
"69268",932.2325,86.3856,73.99545
"69269",932.2458,85.19417,73.00357
"69270",932.2591,84.06622,72.03794
"69271",932.2724,83.053024,71.15181
"69272",932.2857,82.18875,70.38294
"69273",932.299,81.50027,69.762856
"69274",932.3123,81.01686,69.32633
"69275",932.3256,80.77028,69.11153
"69276",932.3389,80.782486,69.147804
"69277",932.35223,81.0486,69.43837
"69278",932.36554,81.514915,69.937454
"69279",932.37885,82.08621,70.55609
"69280",932.39215,82.65507,71.19014
"69281",932.40546,83.1165,71.73454
"69282",932.41876,83.407036,72.12247
"69283",932.43207,83.492485,72.314384
"69284",932.4454,83.38018,72.31122
"69285",932.4587,83.09941,72.13608
"69286",932.472,82.69657,71.83009
"69287",932.4853,82.19852,71.416306
"69288",932.4986,81.65652,70.94301
"69289",932.5119,81.11452,70.452774
"69290",932.5252,80.59693,69.97002
"69291",932.5385,80.12573,69.51747
"69292",932.5518,79.71313,69.108795
"69293",932.5651,79.36645,68.75315
"69294",932.5784,79.078354,68.44526
"69295",932.59174,78.8513,68.18941
"69296",932.60504,78.68528,67.98749
"69297",932.61835,78.5803,67.84142
"69298",932.63165,78.52659,67.74335
"69299",932.64496,78.51438,67.6851
"69300",932.65826,78.52903,67.65332
"69301",932.6716,78.55833,67.63665
"69302",932.6849,78.58762,67.620895
"69303",932.6982,78.6096,67.59873
"69304",932.7115,78.624245,67.56993
"69305",932.7248,78.63401,67.536705
"69306",932.7381,78.63401,67.49402
"69307",932.7514,78.6218,67.439125
"69308",932.7647,78.59739,67.37164
"69309",932.778,78.555885,67.28631
"69310",932.7913,78.49729,67.18259
"69311",932.8046,78.42649,67.06483
"69312",932.81793,78.345924,66.93509
"69313",932.83124,78.26536,66.80283
"69314",932.84454,78.184784,66.66805
"69315",932.85785,78.1091,66.535645
"69316",932.87115,78.0383,66.405754
"69317",932.88446,77.977264,66.28342
"69318",932.89777,77.925995,66.16894
"69319",932.9111,77.87961,66.05774
"69320",932.9244,77.83322,65.94509
"69321",932.9377,77.79416,65.83832
"69322",932.951,77.76242,65.73765
"69323",932.9643,77.74044,65.645744
"69324",932.9776,77.730675,65.56537
"69325",932.9909,77.74532,65.5091
"69326",933.0042,77.769745,65.463066
"69327",933.0175,77.806366,65.42999
"69328",933.0308,77.84787,65.40295
"69329",933.0441,77.89426,65.38208
"69330",933.05743,77.9382,65.36022
"69331",933.07074,77.97482,65.33241
"69332",933.08405,78.00412,65.29842
"69333",933.09735,78.01633,65.24826
"69334",933.11066,78.02365,65.193596
"69335",933.12396,78.06027,65.16846
"69336",933.13727,78.22629,65.27386
"69337",933.1506,78.68772,65.67986
"69338",933.1639,79.61791,66.569046
"69339",933.1772,81.10719,68.04639
"69340",933.1905,83.089645,70.06344
"69341",933.2038,85.36019,72.430534
"69342",933.2171,87.58434,74.82219
"69343",933.2304,89.427635,76.9025
"69344",933.2437,90.64347,78.41295
"69345",933.257,91.15617,79.25826
"69346",933.2703,91.01457,79.465294
"69347",933.2836,90.36027,79.1552
"69348",933.29694,89.36172,78.48041
"69349",933.31024,88.18982,77.60107
"69350",933.32355,86.98863,76.65581
"69351",933.33685,85.86801,75.75358
"69352",933.35016,84.9012,74.97014
"69353",933.36346,84.122375,74.344475
"69354",933.3768,83.526665,73.87759
"69355",933.3901,83.104294,73.56542
"69356",933.4034,82.8333,73.39143
"69357",933.4167,82.69657,73.34325
"69358",933.43,82.67948,73.41042
"69359",933.4433,82.76738,73.582054
"69360",933.4566,82.92607,73.827225
"69361",933.4699,83.12138,74.113976
"69362",933.4832,83.29717,74.38731
"69363",933.4965,83.39483,74.588
"69364",933.5098,83.3753,74.67455
"69365",933.52313,83.228806,74.63354
"69366",933.53644,82.95293,74.45856
"69367",933.54974,82.562294,74.1602
"69368",933.56305,82.091095,73.76907
"69369",933.57635,81.57595,73.319275
"69370",933.58966,81.0486,72.84117
"69371",933.60297,80.52857,72.35391
"69372",933.6163,80.03296,71.87482
"69373",933.6296,79.58373,71.42662
"69374",933.6429,79.18822,71.0181
"69375",933.6562,78.84642,70.65093
"69376",933.6695,78.56321,70.33167
"69377",933.6828,78.34104,70.064606
"69378",933.6961,78.17258,69.8443
"69379",933.7094,78.05295,69.667564
"69380",933.7227,77.97238,69.52615
"69381",933.736,77.91867,69.40908
"69382",933.7493,77.88205,69.30742
"69383",933.76263,77.857635,69.21682
"69384",933.77594,77.83322,69.12546
"69385",933.78925,77.81369,69.038216
"69386",933.80255,77.79172,68.94792
"69387",933.81586,77.76242,68.84962
"69388",933.82916,77.72579,68.743065
"69389",933.84247,77.68185,68.62805
"69390",933.8558,77.63058,68.50434
"69391",933.8691,77.574425,68.374146
"69392",933.8824,77.51339,68.23731
"69393",933.8957,77.44747,68.09369
"69394",933.909,77.37423,67.94068
"69395",933.9223,77.298546,67.78294
"69396",933.9356,77.21797,67.61795
"69397",933.9489,77.134964,67.448006
"69398",933.9622,77.05684,67.28035
"69399",933.9755,76.978714,67.11025
"69400",933.98883,76.90791,66.94504
"69401",934.00214,76.85176,66.79226
"69402",934.01544,76.81514,66.65726
"69403",934.02875,76.79561,66.5382
"69404",934.04205,76.79317,66.43562
"69405",934.05536,76.80293,66.34518
"69406",934.06866,76.824905,66.26724
"69407",934.082,76.85176,66.19488
"69408",934.0953,76.8835,66.128235
"69409",934.1086,76.92012,66.06747
"69410",934.1219,76.95186,66.00296
"69411",934.1352,76.97627,65.93212
"69412",934.1485,76.99336,65.85472
"69413",934.1618,77.01289,65.7803
"69414",934.1751,77.10567,65.779724
"69415",934.1884,77.3962,65.97981
"69416",934.2017,78.065155,66.5674
"69417",934.215,79.26147,67.70325
"69418",934.22833,81.01442,69.43312
"69419",934.24164,83.19707,71.64747
"69420",934.25494,85.538414,74.08872
"69421",934.26825,87.68932,76.412704
"69422",934.28156,89.3373,78.30098
"69423",934.29486,90.301674,79.557144
"69424",934.30817,90.57267,80.15007
"69425",934.3215,90.245514,80.15331
"69426",934.3348,89.48867,79.716644
"69427",934.3481,88.47547,78.99997
"69428",934.3614,87.37194,78.1613
"69429",934.3747,86.31724,77.336975
"69430",934.388,85.399254,76.6164
"69431",934.4013,84.664375,76.05025
"69432",934.4146,84.11261,75.64424
"69433",934.4279,83.71465,75.3748
"69434",934.4412,83.42657,75.2028
"69435",934.4545,83.211716,75.095024
"69436",934.46783,83.05791,75.04158
"69437",934.48114,82.96269,75.04192
"69438",934.49445,82.92363,75.09544
"69439",934.50775,82.92851,75.19169
"69440",934.52106,82.9456,75.30029
"69441",934.53436,82.92607,75.37281
"69442",934.54767,82.845505,75.38368
"69443",934.561,82.67216,75.299255
"69444",934.5743,82.4036,75.114204
"69445",934.5876,82.04471,74.83042
"69446",934.6009,81.617455,74.467064
"69447",934.6142,81.14137,74.04153
"69448",934.6275,80.6482,73.58402
"69449",934.6408,80.15259,73.108665
"69450",934.6541,79.67895,72.63979
"69451",934.6674,79.24193,72.19274
"69452",934.6807,78.8513,71.77843
"69453",934.69403,78.5095,71.40073
"69454",934.70734,78.21652,71.06117
"69455",934.72064,77.96994,70.75886
"69456",934.73395,77.7673,70.49278
"69457",934.74725,77.59884,70.25455
"69458",934.76056,77.45968,70.04035
"69459",934.77386,77.35226,69.853546
"69460",934.7872,77.27169,69.69024
"69461",934.8005,77.21553,69.54882
"69462",934.8138,77.18135,69.42763
"69463",934.8271,77.16182,69.320015
"69464",934.8404,77.154495,69.224
"69465",934.8537,77.14473,69.12531
"69466",934.867,77.13008,69.02144
"69467",934.8803,77.100784,68.90246
"69468",934.8936,77.06416,68.77524
"69469",934.9069,77.015335,68.63467
"69470",934.9202,76.95674,68.4828
"69471",934.93353,76.89082,68.321785
"69472",934.94684,76.82002,68.153824
"69473",934.96014,76.74433,67.97876
"69474",934.97345,76.66132,67.794014
"69475",934.98676,76.575874,67.60423
"69476",935.00006,76.490425,67.41178
"69477",935.01337,76.40986,67.22154
"69478",935.0267,76.34394,67.043434
"69479",935.04,76.29511,66.880356
"69480",935.0533,76.263374,66.73284
"69481",935.0666,76.25117,66.60387
"69482",935.0799,76.25361,66.48916
"69483",935.0932,76.26826,66.386734
"69484",935.1065,76.297554,66.299416
"69485",935.1198,76.334175,66.22034
"69486",935.1331,76.38056,66.15217
"69487",935.1464,76.43427,66.09277
"69488",935.1597,76.47822,66.02529
"69489",935.17303,76.50507,65.94209
"69490",935.18634,76.52705,65.85485
"69491",935.19965,76.592964,65.81224
"69492",935.21295,76.82002,65.93283
"69493",935.22626,77.38888,66.40231
"69494",935.23956,78.46555,67.39739
"69495",935.25287,80.1062,68.99009
"69496",935.2662,82.22293,71.11014
"69497",935.2795,84.57404,73.530716
"69498",935.2928,86.81773,75.91734
"69499",935.3061,88.62684,77.9395
"69500",935.3194,89.78165,79.36389
"69501",935.3327,90.228424,80.11635
"69502",935.346,90.03311,80.24068
"69503",935.3593,89.35195,79.873055
"69504",935.3726,88.375374,79.18873
"69505",935.3859,87.28893,78.36401
"69506",935.39923,86.24643,77.549286
"69507",935.41254,85.35775,76.855804
"69508",935.42584,84.6717,76.33718
"69509",935.43915,84.17609,75.98756
"69510",935.45245,83.82941,75.77138
"69511",935.46576,83.57061,75.63225
"69512",935.47906,83.353325,75.52654
"69513",935.4924,83.158005,75.43601
"69514",935.5057,82.98955,75.36624
"69515",935.519,82.85771,75.32783
"69516",935.5323,82.760056,75.31947
"69517",935.5456,82.684364,75.33003
"69518",935.5589,82.598915,75.32847
"69519",935.5722,82.48173,75.292496
"69520",935.5855,82.30106,75.189384
"69521",935.5988,82.04227,75.002495
"69522",935.6121,81.69558,74.71963
"69523",935.6254,81.26833,74.34537
"69524",935.63873,80.780045,73.89671
"69525",935.65204,80.257576,73.39862
"69526",935.66534,79.725334,72.87443
"69527",935.67865,79.219955,72.360466
"69528",935.69196,78.75365,71.86978
"69529",935.70526,78.33616,71.413345
"69530",935.71857,77.96994,70.99513
"69531",935.7319,77.65743,70.61919
"69532",935.7452,77.39132,70.27987
"69533",935.7585,77.171585,69.978615
"69534",935.7718,76.98848,69.70712
"69535",935.7851,76.83223,69.456764
"69536",935.7984,76.697945,69.22349
"69537",935.8117,76.578316,69.00067
"69538",935.825,76.47578,68.79121
"69539",935.8383,76.383,68.5883
"69540",935.8516,76.299995,68.392265
"69541",935.8649,76.23163,68.208275
"69542",935.87823,76.16815,68.02704
"69543",935.89154,76.104675,67.84382
"69544",935.90485,76.0412,67.658615
"69545",935.91815,75.97284,67.466545
"69546",935.93146,75.90692,67.27478
"69547",935.94476,75.83856,67.078514
"69548",935.95807,75.775085,66.884995
"69549",935.9714,75.716484,66.69437
"69550",935.9847,75.66277,66.5068
"69551",935.998,75.613945,66.32243
"69552",936.0113,75.57488,66.14631
"69553",936.0246,75.54803,65.98117
"69554",936.0379,75.526054,65.820076
"69555",936.0512,75.51873,65.67294
"69556",936.0645,75.52117,65.53535
"69557",936.0778,75.5407,65.41492
"69558",936.0911,75.56756,65.30242
"69559",936.10443,75.60418,65.20053
"69560",936.11774,75.650566,65.10955
"69561",936.13104,75.7116,65.03467
"69562",936.14435,75.775085,64.96414
"69563",936.15765,75.84589,64.902916
"69564",936.17096,75.911804,64.83902
"69565",936.18427,75.9704,64.76986
"69566",936.1976,76.019226,64.692764
"69567",936.2109,76.06561,64.61475
"69568",936.2242,76.14862,64.574814
"69569",936.2375,76.37812,64.68396
"69570",936.2508,76.92012,65.11278
"69571",936.2641,77.94064,66.037056
"69572",936.2774,79.52758,67.55964
"69573",936.2907,81.62722,69.644516
"69574",936.304,84.0296,72.09775
"69575",936.3173,86.400246,74.594315
"69576",936.3306,88.39979,76.79386
"69577",936.34393,89.779205,78.435776
"69578",936.35724,90.43351,79.39568
"69579",936.37054,90.409096,79.69732
"69580",936.38385,89.84268,79.45619
"69581",936.39716,88.92226,78.84335
"69582",936.41046,87.84802,78.04794
"69583",936.42377,86.79576,77.24094
"69584",936.4371,85.88754,76.54508
"69585",936.4504,85.17464,76.01616
"69586",936.4637,84.647285,75.65051
"69587",936.477,84.25422,75.40267
"69588",936.4903,83.94415,75.22555
"69589",936.5036,83.682915,75.08756
"69590",936.5169,83.46075,74.980484
"69591",936.5302,83.28985,74.91773
"69592",936.5435,83.18974,74.92043
"69593",936.5568,83.16289,74.993256
"69594",936.5701,83.17265,75.10186
"69595",936.58344,83.17998,75.20833
"69596",936.59674,83.14336,75.27108
"69597",936.61005,83.021286,75.24724
"69598",936.62335,82.791794,75.11216
"69599",936.63666,82.45487,74.86248
"69600",936.64996,82.02518,74.5095
"69601",936.66327,81.51736,74.064964
"69602",936.6766,80.96315,73.558174
"69603",936.6899,80.40162,73.02674
"69604",936.7032,79.85962,72.49729
"69605",936.7165,79.35912,71.99241
"69606",936.7298,78.91478,71.52804
"69607",936.7431,78.536354,71.1157
"69608",936.7564,78.22385,70.757454
"69609",936.7697,77.96994,70.448044
"69610",936.783,77.77951,70.194176
"69611",936.7963,77.65255,69.997826
"69612",936.80963,77.58175,69.85367
"69613",936.82294,77.55245,69.7488
"69614",936.83624,77.55245,69.67232
"69615",936.84955,77.56466,69.60804
"69616",936.86285,77.58175,69.54903
"69617",936.87616,77.593956,69.485664
"69618",936.88947,77.5964,69.41292
"69619",936.9028,77.58663,69.32804
"69620",936.9161,77.56466,69.23065
"69621",936.9294,77.523155,69.113045
"69622",936.9427,77.46456,68.97705
"69623",936.956,77.38644,68.819695
"69624",936.9693,77.296104,68.64769
"69625",936.9826,77.196,68.46309
"69626",936.9959,77.09834,68.27781
"69627",937.0092,77.00069,68.08948
"69628",937.0225,76.90791,67.90298
"69629",937.0358,76.81758,67.71602
"69630",937.04913,76.73701,67.535995
"69631",937.06244,76.66865,67.36567
"69632",937.07574,76.612495,67.205414
"69633",937.08905,76.58564,67.0727
"69634",937.10236,76.578316,66.95868
"69635",937.11566,76.59052,66.86396
"69636",937.12897,76.60517,66.772064
"69637",937.1423,76.61738,66.678185
"69638",937.1556,76.6247,66.5798
"69639",937.1689,76.63203,66.48165
"69640",937.1822,76.67597,66.42035
"69641",937.1955,76.84444,66.48494
"69642",937.2088,77.281456,66.82335
"69643",937.2221,78.1384,67.59534
"69644",937.2354,79.50805,68.906815
"69645",937.2487,81.373314,70.75671
"69646",937.262,83.57061,72.99692
"69647",937.2753,85.824066,75.36195
"69648",937.28864,87.816284,77.53617
"69649",937.30194,89.28359,79.24774
"69650",937.31525,90.09659,80.35085
"69651",937.32855,90.25773,80.827515
"69652",937.34186,89.867096,80.75744
"69653",937.35516,89.08583,80.28452
"69654",937.36847,88.10681,79.58943
"69655",937.3818,87.08629,78.82225
"69656",937.3951,86.14633,78.10374
"69657",937.4084,85.34554,77.49502
"69658",937.4217,84.67902,76.995544
"69659",937.435,84.122375,76.58511
"69660",937.4483,83.65362,76.24518
"69661",937.4616,83.25323,75.95896
"69662",937.4749,82.92851,75.73591
"69663",937.4882,82.69169,75.5906
"69664",937.5015,82.54032,75.523346
"69665",937.51483,82.45487,75.51728
"69666",937.52814,82.38163,75.52075
"69667",937.54144,82.27421,75.487755
"69668",937.55475,82.08865,75.37327
"69669",937.56805,81.79324,75.14313
"69670",937.58136,81.3782,74.78412
"69671",937.59467,80.850845,74.299835
"69672",937.608,80.23804,73.713615
"69673",937.6213,79.56176,73.04478
"69674",937.6346,78.86839,72.337715
"69675",937.6479,78.187225,71.621185
"69676",937.6612,77.54757,70.92488
"69677",937.6745,76.97383,70.274506
"69678",937.6878,76.48554,69.69165
"69679",937.7011,76.087585,69.18387
"69680",937.7144,75.78729,68.761314
"69681",937.7277,75.58465,68.427025
"69682",937.741,75.46746,68.17186
"69683",937.75433,75.421074,67.98383
"69684",937.76764,75.42596,67.84563
"69685",937.78094,75.457695,67.73443
"69686",937.79425,75.494316,67.629105
"69687",937.80756,75.52117,67.51516
"69688",937.82086,75.53826,67.39229
"69689",937.83417,75.5407,67.2553
"69690",937.8475,75.53094,67.106186
"69691",937.8608,75.50652,66.942116
"69692",937.8741,75.47723,66.7724
"69693",937.8874,75.44305,66.596886
"69694",937.9007,75.40887,66.4203
"69695",937.914,75.37713,66.245094
"69696",937.9273,75.34783,66.071335
"69697",937.9406,75.32098,65.8991
"69698",937.9539,75.301445,65.73335
"69699",937.9672,75.27703,65.56211
"69700",937.9805,75.25506,65.39255
"69701",937.99384,75.228195,65.21741
"69702",938.00714,75.194016,65.03411
"69703",938.02045,75.15251,64.84242
"69704",938.03375,75.12077,64.6592
"69705",938.04706,75.11833,64.50429
"69706",938.06036,75.20134,64.434746
"69707",938.07367,75.47967,64.56312
"69708",938.087,76.09003,65.03222
"69709",938.1003,77.15938,65.979385
"69710",938.1136,78.73411,67.46535
"69711",938.1269,80.73365,69.42533
"69712",938.1402,82.96269,71.6773
"69713",938.1535,85.13069,73.93788
"69714",938.1668,86.94957,75.91709
"69715",938.1801,88.21179,77.396484
"69716",938.1934,88.834366,78.27568
"69717",938.2067,88.851456,78.56885
"69718",938.22003,88.38514,78.379135
"69719",938.23334,87.59411,77.85014
"69720",938.24664,86.64439,77.13774
"69721",938.25995,85.662926,76.363914
"69722",938.27325,84.73029,75.608246
"69723",938.28656,83.86847,74.89424
"69724",938.29987,83.089645,74.236305
"69725",938.3132,82.408485,73.651695
"69726",938.3265,81.83719,73.15566
"69727",938.3398,81.409935,72.78582
"69728",938.3531,81.160904,72.58085
"69729",938.3664,81.09743,72.55365
"69730",938.3797,81.19508,72.6856
"69731",938.393,81.39529,72.92315
"69732",938.4063,81.619896,73.19136
"69733",938.4196,81.78836,73.410446
"69734",938.4329,81.83475,73.51272
"69735",938.4462,81.71755,73.45286
"69736",938.45953,81.42947,73.218445
"69737",938.47284,80.99245,72.826096
"69738",938.48615,80.44068,72.30534
"69739",938.49945,79.823,71.70143
"69740",938.51276,79.18822,71.06112
"69741",938.52606,78.58274,70.430275
"69742",938.53937,78.03586,69.8391
"69743",938.5527,77.56466,69.306526
"69744",938.566,77.17403,68.83979
"69745",938.5793,76.86397,68.44142
"69746",938.5926,76.63447,68.11392
"69747",938.6059,76.48066,67.85494
"69748",938.6192,76.39277,67.657074
"69749",938.6325,76.36103,67.51261
"69750",938.6458,76.3708,67.40866
"69751",938.6591,76.39765,67.322105
"69752",938.6724,76.42939,67.24127
"69753",938.6857,76.456245,67.15655
"69754",938.69904,76.47578,67.06534
"69755",938.71234,76.47822,66.95765
"69756",938.72565,76.46601,66.83539
"69757",938.73895,76.439156,66.6981
"69758",938.75226,76.402534,66.5502
"69759",938.76556,76.35615,66.391396
"69760",938.7789,76.30488,66.22626
"69761",938.7922,76.24628,66.052185
"69762",938.8055,76.175476,65.86408
"69763",938.8188,76.09247,65.66156
"69764",938.8321,75.999695,65.44668
"69765",938.8454,75.90448,65.226456
"69766",938.8587,75.826355,65.02035
"69767",938.872,75.81171,64.875275
"69768",938.8853,75.93866,64.871346
"69769",938.8986,76.351265,65.157036
"69770",938.9119,77.20088,65.89263
"69771",938.92523,78.58762,67.1919
"69772",938.93854,80.499275,69.05942
"69773",938.95184,82.78691,71.362656
"69774",938.96515,85.18196,73.844795
"69775",938.97845,87.35729,76.18206
"69776",938.99176,89.04677,78.101456
"69777",939.00507,90.09659,79.43399
"69778",939.0184,90.48966,80.142586
"69779",939.0317,90.31876,80.29949
"69780",939.045,89.740135,80.04333
"69781",939.0583,88.936905,79.54448
"69782",939.0716,88.06531,78.95216
"69783",939.0849,87.22789,78.36679
"69784",939.0982,86.46372,77.82849
"69785",939.1115,85.76547,77.33223
"69786",939.1248,85.09895,76.84588
"69787",939.1381,84.44221,76.34847
"69788",939.1514,83.81232,75.8574
"69789",939.16473,83.25323,75.41744
"69790",939.17804,82.81377,75.07964
"69791",939.19135,82.530556,74.88436
"69792",939.20465,82.39628,74.82916
"69793",939.21796,82.3621,74.869865
"69794",939.23126,82.35966,74.94124
"69795",939.24457,82.31083,74.96615
"69796",939.2579,82.16922,74.89675
"69797",939.2712,81.898224,74.69354
"69798",939.2845,81.49294,74.34758
"69799",939.2978,80.970474,73.871765
"69800",939.3111,80.36744,73.29906
"69801",939.3244,79.73266,72.67576
"69802",939.3377,79.09544,72.03019
"69803",939.351,78.49241,71.39889
"69804",939.3643,77.945526,70.80489
"69805",939.3776,77.469444,70.26461
"69806",939.3909,77.07393,69.790016
"69807",939.40424,76.75899,69.38364
"69808",939.41754,76.52705,69.050415
"69809",939.43085,76.36103,68.77587
"69810",939.44415,76.25605,68.557175
"69811",939.45746,76.190125,68.37425
"69812",939.47076,76.14862,68.21369
"69813",939.4841,76.11688,68.0616
"69814",939.4974,76.087585,67.91096
"69815",939.5107,76.06073,67.76184
"69816",939.524,76.03143,67.60944
"69817",939.5373,76.00214,67.45613
"69818",939.5506,75.97284,67.3019
"69819",939.5639,75.93866,67.14188
"69820",939.5772,75.89227,66.968575
"69821",939.5905,75.83612,66.78406
"69822",939.6038,75.76532,66.58314
"69823",939.6171,75.68963,66.375114
"69824",939.63043,75.613945,66.164734
"69825",939.64374,75.55291,65.96664
"69826",939.65704,75.50164,65.7764
"69827",939.67035,75.46746,65.60165
"69828",939.68365,75.44793,65.440475
"69829",939.69696,75.43816,65.28846
"69830",939.71027,75.43328,65.14102
"69831",939.7236,75.42596,64.99099
"69832",939.7369,75.41131,64.833405
"69833",939.7502,75.386894,64.665596
"69834",939.7635,75.37469,64.50923
"69835",939.7768,75.41375,64.403755
"69836",939.7901,75.61883,64.465515
"69837",939.8034,76.18036,64.89014
"69838",939.8167,77.2839,65.87431
"69839",939.83,79.044174,67.54971
"69840",939.8433,81.41238,69.88805
"69841",939.8566,84.16876,72.68857
"69842",939.86993,86.959335,75.60941
"69843",939.88324,89.39834,78.26589
"69844",939.89655,91.192795,80.35405
"69845",939.90985,92.21576,81.72679
"69846",939.92316,92.51362,82.406395
"69847",939.93646,92.242615,82.52644
"69848",939.94977,91.62005,82.28646
"69849",939.9631,90.863205,81.892746
"69850",939.9764,90.14542,81.514435
"69851",939.9897,89.57168,81.257744
"69852",940.003,89.163956,81.14914
"69853",940.0163,88.8539,81.12546
"69854",940.0296,88.534065,81.082306
"69855",940.0429,88.10193,80.916855
"69856",940.0562,87.49157,80.55968
"69857",940.0695,86.70542,80.007645
"69858",940.0828,85.81918,79.33095
"69859",940.0961,84.93294,78.62655
"69860",940.10944,84.14923,77.996994
"69861",940.12274,83.5169,77.49432
"69862",940.13605,83.038376,77.1257
"69863",940.14935,82.67704,76.859314
"69864",940.16266,82.371864,76.637794
"69865",940.17596,82.05203,76.39208
"69866",940.1893,81.67849,76.082664
"69867",940.2026,81.22438,75.68101
"69868",940.2159,80.67994,75.17483
"69869",940.2292,80.06714,74.583275
"69870",940.2425,79.4226,73.940834
"69871",940.2558,78.78294,73.283134
"69872",940.2691,78.17502,72.63718
"69873",940.2824,77.628136,72.033264
"69874",940.2957,77.14961,71.48062
"69875",940.309,76.74677,70.98871
"69876",940.3223,76.41474,70.555016
"69877",940.33563,76.14618,70.174416
"69878",940.34894,75.93378,69.84158
"69879",940.36224,75.772644,69.55338
"69880",940.37555,75.650566,69.2992
"69881",940.38885,75.55291,69.06563
"69882",940.40216,75.46746,68.84121
"69883",940.41547,75.386894,68.619
"69884",940.4288,75.299,68.386955
"69885",940.4421,75.20134,68.14239
"69886",940.4554,75.10124,67.892334
"69887",940.4687,74.986496,67.624504
"69888",940.482,74.85954,67.34088
"69889",940.4953,74.720375,67.04108
"69890",940.5086,74.5861,66.74181
"69891",940.5219,74.459145,66.44568
"69892",940.5352,74.34684,66.160225
"69893",940.5485,74.251625,65.88835
"69894",940.5618,74.178375,65.63547
"69895",940.57513,74.11978,65.39495
"69896",940.58844,74.06607,65.157486
"69897",940.60175,74.02701,64.93299
"69898",940.61505,74.002594,64.721924
"69899",940.62836,73.99771,64.529625
"69900",940.64166,74.01236,64.356705
"69901",940.65497,74.0441,64.20133
"69902",940.6683,74.092926,64.06404
"69903",940.6816,74.15152,63.938038
"69904",940.6949,74.21988,63.82363
"69905",940.7082,74.288246,63.71137
"69906",940.7215,74.35905,63.603676
"69907",940.7348,74.43229,63.500637
"69908",940.7481,74.510414,63.40477
"69909",940.7614,74.5861,63.308903
"69910",940.7747,74.666664,63.220284
"69911",940.788,74.75212,63.139072
"69912",940.80133,74.83513,63.058083
"69913",940.81464,74.91325,62.974804
"69914",940.82794,74.99138,62.893967
"69915",940.84125,75.06706,62.81313
"69916",940.85455,75.142746,62.734657
"69917",940.86786,75.22087,62.66099
"69918",940.88116,75.30633,62.5971
"69919",940.8945,75.3991,62.543198
"69920",940.9078,75.491875,62.492195
"69921",940.9211,75.58709,62.446533
"69922",940.9344,75.682304,62.403847
"69923",940.9477,75.772644,62.35926
"69924",940.961,75.862976,62.31749
"69925",940.9743,75.95575,62.280983
"69926",940.9876,76.053406,62.25226
"69927",941.0009,76.155945,62.23147
"69928",941.0142,76.2707,62.226097
"69929",941.0275,76.39521,62.23407
"69930",941.04083,76.51972,62.245934
"69931",941.05414,76.64179,62.259247
"69932",941.06744,76.75166,62.264175
"69933",941.08075,76.841995,62.253
"69934",941.09406,76.93721,62.249527
"69935",941.10736,77.137405,62.35401
"69936",941.12067,77.65011,62.77726
"69937",941.134,78.709694,63.763412
"69938",941.1473,80.4773,65.4907
"69939",941.1606,82.95537,67.98368
"69940",941.1739,85.93149,71.052155
"69941",941.1872,89.01991,74.325935
"69942",941.2005,91.773865,77.361755
"69943",941.2138,93.82712,79.78294
"69944",941.2271,95.00633,81.39426
"69945",941.2404,95.33349,82.19036
"69946",941.2537,94.96727,82.303314
"69947",941.267,94.14206,81.94583
"69948",941.28033,93.12398,81.36969
"69949",941.29364,92.137634,80.79347
"69950",941.30695,91.33929,80.37443
"69951",941.32025,90.79729,80.18678
"69952",941.33356,90.477455,80.20437
"69953",941.34686,90.26505,80.31939
"69954",941.36017,90.020905,80.39603
"69955",941.3735,89.62295,80.311226
"69956",941.3868,89.01259,80.00159
"69957",941.4001,88.21423,79.48488
"69958",941.4134,87.31823,78.845566
"69959",941.4267,86.431984,78.18802
"69960",941.44,85.645836,77.60287
"69961",941.4533,84.998856,77.13232
"69962",941.4666,84.491035,76.78071
"69963",941.4799,84.07599,76.506004
"69964",941.4932,83.702446,76.259834
"69965",941.50653,83.31426,75.98735
"69966",941.51984,82.86992,75.646576
"69967",941.53314,82.34501,75.21135
"69968",941.54645,81.73708,74.676704
"69969",941.55975,81.07057,74.064476
"69970",941.57306,80.38453,73.41189
"69971",941.58636,79.70336,72.74274
"69972",941.5997,79.061264,72.09137
"69973",941.613,78.485085,71.485855
"69974",941.6263,77.98215,70.93558
"69975",941.6396,77.55001,70.440384
"69976",941.6529,77.18623,70.000046
"69977",941.6662,76.893265,69.61915
"69978",941.6795,76.65888,69.28768
"69979",941.6928,76.473335,68.99773
"69980",941.7061,76.32929,68.74348
"69981",941.7194,76.21698,68.51646
"69982",941.7327,76.11688,68.29814
"69983",941.74603,76.02411,68.08402
"69984",941.75934,75.928894,67.86456
"69985",941.77264,75.83124,67.63969
"69986",941.78595,75.72381,67.401985
"69987",941.79926,75.6115,67.15605
"69988",941.81256,75.49676,66.90417
"69989",941.82587,75.38445,66.65114
"69990",941.8392,75.26971,66.39216
"69991",941.8525,75.15495,66.129585
"69992",941.8658,75.04753,65.87076
"69993",941.8791,74.949875,65.61834
"69994",941.8924,74.861984,65.372635
"69995",941.9057,74.79118,65.14127
"69996",941.919,74.74235,64.929665
"69997",941.9323,74.71305,64.73607
"69998",941.9456,74.703285,64.56109
"69999",941.9589,74.70817,64.40045
"70000",941.9722,74.720375,64.24729
"70001",941.98553,74.73991,64.10184
"70002",941.99884,74.76433,63.96188
"70003",942.01215,74.79607,63.83
"70004",942.02545,74.83269,63.704
"70005",942.03876,74.87419,63.584023
"70006",942.05206,74.92302,63.472668
"70007",942.06537,74.969406,63.360397
"70008",942.0787,75.01091,63.244694
"70009",942.092,75.054855,63.13273
"70010",942.1053,75.0988,63.022137
"70011",942.1186,75.14763,62.9178
"70012",942.1319,75.20378,62.822315
"70013",942.1452,75.264824,62.733475
"70014",942.1585,75.32586,62.646538
"70015",942.1718,75.389336,62.56395
"70016",942.1851,75.45281,62.483345
"70017",942.1984,75.51629,62.404724
"70018",942.21173,75.577324,62.325645
"70019",942.22504,75.6408,62.250916
"70020",942.23834,75.70672,62.18061
"70021",942.25165,75.772644,62.112373
"70022",942.26495,75.843445,62.05107
"70023",942.27826,75.92645,62.00419
"70024",942.29156,76.02655,61.97699
"70025",942.3049,76.13397,61.960243
"70026",942.3182,76.24628,61.951736
"70027",942.3315,76.35371,61.941864
"70028",942.3448,76.44892,61.923134
"70029",942.3581,76.52949,61.89273
"70030",942.3714,76.595406,61.850197
"70031",942.3847,76.66132,61.809723
"70032",942.398,76.76143,61.805496
"70033",942.4113,77.02266,61.965523
"70034",942.4246,77.63302,62.48284
"70035",942.4379,78.78783,63.563683
"70036",942.45123,80.58228,65.32026
"70037",942.46454,82.94072,67.69689
"70038",942.47784,85.61898,70.46705
"70039",942.49115,88.236206,73.259865
"70040",942.50446,90.406654,75.6877
"70041",942.51776,91.86908,77.475334
"70042",942.53107,92.53559,78.51276
"70043",942.5444,92.48188,78.850784
"70044",942.5577,91.8764,78.63537
"70045",942.571,90.93889,78.06899
"70046",942.5843,89.8793,77.35125
"70047",942.5976,88.885635,76.66631
"70048",942.6109,88.07507,76.13342
"70049",942.6242,87.50622,75.81691
"70050",942.6375,87.14488,75.69014
"70051",942.6508,86.905624,75.67416
"70052",942.6641,86.676125,75.66045
"70053",942.6774,86.36851,75.56146
"70054",942.69073,85.943695,75.33566
"70055",942.70404,85.418785,74.99649
"70056",942.71735,84.86702,74.61406
"70057",942.73065,84.35432,74.25345
"70058",942.74396,83.9173,73.9525
"70059",942.75726,83.56573,73.72334
"70060",942.77057,83.282524,73.55157
"70061",942.7839,83.03105,73.40267
"70062",942.7972,82.76494,73.23128
"70063",942.8105,82.45731,73.010056
"70064",942.8238,82.08621,72.715744
"70065",942.8371,81.64675,72.34148
"70066",942.8504,81.15114,71.89732
"70067",942.8637,80.62379,71.405945
"70068",942.877,80.08667,70.88832
"70069",942.8903,79.5642,70.36856
"70070",942.9036,79.07591,69.86665
"70071",942.91693,78.63401,69.395874
"70072",942.93024,78.25315,68.97233
"70073",942.94354,77.93576,68.60035
"70074",942.95685,77.68185,68.28193
"70075",942.97015,77.47921,68.00685
"70076",942.98346,77.332726,67.78159
"70077",942.99677,77.22041,67.58593
"70078",943.0101,77.134964,67.41362
"70079",943.0234,77.069046,67.25817
"70080",943.0367,77.00801,67.105545
"70081",943.05,76.94209,66.94613
"70082",943.0633,76.86885,66.77733
"70083",943.0766,76.788284,66.598915
"70084",943.0899,76.70283,66.41309
"70085",943.1032,76.610054,66.217285
"70086",943.1165,76.51728,66.01858
"70087",943.1298,76.419624,65.81209
"70088",943.1431,76.32441,65.60499
"70089",943.15643,76.226746,65.39246
"70090",943.16974,76.13153,65.17934
"70091",943.18304,76.04608,64.973
"70092",943.19635,75.97284,64.7762
"70093",943.20966,75.90692,64.584435
"70094",943.22296,75.85565,64.40526
"70095",943.23627,75.82391,64.24401
"70096",943.2496,75.79706,64.086655
"70097",943.2629,75.77997,63.938225
"70098",943.2762,75.772644,63.799026
"70099",943.2895,75.78241,63.67669
"70100",943.3028,75.80682,63.569305
"70101",943.3161,75.84833,63.479774
"70102",943.3294,75.897156,63.398865
"70103",943.3427,75.95087,63.324364
"70104",943.356,76.00458,63.25154
"70105",943.3693,76.05829,63.180397
"70106",943.3826,76.112,63.11093
"70107",943.39594,76.16083,63.03826
"70108",943.40924,76.21454,62.972
"70109",943.42255,76.2707,62.909866
"70110",943.43585,76.32929,62.85192
"70111",943.44916,76.385445,62.793365
"70112",943.46246,76.439156,62.734123
"70113",943.47577,76.49287,62.67656
"70114",943.4891,76.53681,62.61091
"70115",943.5024,76.578316,62.54419
"70116",943.5157,76.61738,62.476326
"70117",943.529,76.65888,62.412125
"70118",943.5423,76.70527,62.354103
"70119",943.5556,76.754105,62.29998
"70120",943.5689,76.8127,62.25714
"70121",943.5822,76.8835,62.22834
"70122",943.5955,76.961624,62.209076
"70123",943.6088,77.03731,62.18981
"70124",943.62213,77.11299,62.172913
"70125",943.63544,77.17891,62.148613
"70126",943.64874,77.23262,62.114166
"70127",943.66205,77.26681,62.061874
"70128",943.67535,77.296104,62.00576
"70129",943.68866,77.3547,61.97986
"70130",943.70197,77.54757,62.090065
"70131",943.7153,78.05783,62.52369
"70132",943.7286,79.080795,63.485962
"70133",943.7419,80.709236,65.08568
"70134",943.7552,82.87724,67.27585
"70135",943.7685,85.350426,69.83894
"70136",943.7818,87.7699,72.42561
"70137",943.7951,89.76944,74.66797
"70138",943.8084,91.090256,76.29408
"70139",943.8217,91.649345,77.199745
"70140",943.835,91.51507,77.42951
"70141",943.8483,90.83879,77.11308
"70142",943.86163,89.813385,76.42639
"70143",943.87494,88.619514,75.53919
"70144",943.88824,87.42565,74.614685
"70145",943.90155,86.35386,73.77495
"70146",943.91486,85.47738,73.09702
"70147",943.92816,84.81575,72.60656
"70148",943.94147,84.34455,72.28585
"70149",943.9548,84.017395,72.09446
"70150",943.9681,83.79523,71.99783
"70151",943.9814,83.63897,71.960175
"70152",943.9947,83.54131,71.976234
"70153",944.008,83.50225,72.04784
"70154",944.0213,83.50225,72.15728
"70155",944.0346,83.51446,72.27893
"70156",944.0479,83.509575,72.38387
"70157",944.0612,83.45098,72.43495
"70158",944.0745,83.302055,72.39387
"70159",944.0878,83.06035,72.25535
"70160",944.10114,82.720985,72.01162
"70161",944.11444,82.2913,71.66696
"70162",944.12775,81.79813,71.24539
"70163",944.14105,81.26833,70.77179
"70164",944.15436,80.723885,70.266975
"70165",944.16766,80.19409,69.7598
"70166",944.18097,79.69848,69.270256
"70167",944.1943,79.2517,68.81406
"70168",944.2076,78.86351,68.40248
"70169",944.2209,78.54612,68.049576
"70170",944.2342,78.294655,67.75268
"70171",944.2475,78.11154,67.51627
"70172",944.2608,77.98459,67.33031
"70173",944.2741,77.908905,67.19164
"70174",944.2874,77.8674,67.08479
"70175",944.3007,77.84787,66.99862
"70176",944.314,77.838104,66.9216
"70177",944.32733,77.8259,66.841835
"70178",944.34064,77.806366,66.754364
"70179",944.35394,77.77707,66.65652
"70180",944.36725,77.738,66.54798
"70181",944.38055,77.68673,66.426025
"70182",944.39386,77.62325,66.29026
"70183",944.40717,77.55001,66.142746
"70184",944.4205,77.467,65.98318
"70185",944.4338,77.37911,65.81613
"70186",944.4471,77.29366,65.64878
"70187",944.4604,77.21065,65.48119
"70188",944.4737,77.13008,65.31346
"70189",944.487,77.051956,65.14565
"70190",944.5003,76.97383,64.9754
"70191",944.5136,76.89815,64.80515
"70192",944.5269,76.82735,64.63742
"70193",944.5402,76.77608,64.48701
"70194",944.5535,76.74677,64.35696
"70195",944.56683,76.74189,64.25041
"70196",944.58014,76.749214,64.15592
"70197",944.59344,76.771194,64.07632
"70198",944.60675,76.79561,63.999832
"70199",944.62006,76.81758,63.92167
"70200",944.63336,76.839554,63.844193
"70201",944.64667,76.86641,63.772285
"70202",944.66,76.89082,63.698776
"70203",944.6733,76.91524,63.62603
"70204",944.6866,76.94942,63.563812
"70205",944.6999,76.98604,63.505104
"70206",944.7132,77.0251,63.44998
"70207",944.7265,77.06416,63.39608
"70208",944.7398,77.100784,63.340958
"70209",944.7531,77.137405,63.28698
"70210",944.7664,77.17647,63.236588
"70211",944.7797,77.21797,63.189857
"70212",944.793,77.26681,63.151756
"70213",944.80634,77.32052,63.120056
"70214",944.81964,77.37667,63.092476
"70215",944.83295,77.43282,63.06665
"70216",944.84625,77.47921,63.032814
"70217",944.85956,77.5256,63.000427
"70218",944.87286,77.5671,62.964607
"70219",944.88617,77.60616,62.927643
"70220",944.8995,77.63302,62.879692
"70221",944.9128,77.65011,62.822815
"70222",944.9261,77.67208,62.771355
"70223",944.9394,77.752655,62.779182
"70224",944.9527,78.0383,62.9946
"70225",944.966,78.712135,63.607132
"70226",944.9793,79.92554,64.78029
"70227",944.9926,81.69802,66.550446
"70228",945.0059,83.88068,68.78616
"70229",945.0192,86.18295,71.20971
"70230",945.03253,88.24597,73.46594
"70231",945.04584,89.76456,75.24222
"70232",945.05914,90.57511,76.35792
"70233",945.07245,90.68009,76.79337
"70234",945.08575,90.18936,76.6364
"70235",945.09906,89.26162,76.02708
"70236",945.11237,88.07263,75.12752
"70237",945.1257,86.77379,74.08095
"70238",945.139,85.49935,73.01819
"70239",945.1523,84.332344,72.02303
"70240",945.1656,83.33135,71.157425
"70241",945.1789,82.528114,70.45829
"70242",945.1922,81.94217,69.95135
"70243",945.2055,81.58083,69.6507
"70244",945.2188,81.461205,69.580475
"70245",945.2321,81.57107,69.736
"70246",945.2454,81.87137,70.085396
"70247",945.2587,82.29374,70.566246
"70248",945.27203,82.74784,71.092026
"70249",945.28534,83.140915,71.57097
"70250",945.29865,83.40215,71.93036
"70251",945.31195,83.492485,72.12701
"70252",945.32526,83.39971,72.14337
"70253",945.33856,83.13847,71.98837
"70254",945.35187,82.738075,71.68605
"70255",945.3652,82.2327,71.266235
"70256",945.3785,81.6614,70.76471
"70257",945.3918,81.058365,70.21359
"70258",945.4051,80.46754,69.65584
"70259",945.4184,79.91577,69.11868
"70260",945.4317,79.42016,68.62044
"70261",945.445,78.98558,68.16774
"70262",945.4583,78.61936,67.76982
"70263",945.4716,78.31907,67.426384
"70264",945.4849,78.08469,67.13947
"70265",945.4982,77.91623,66.91116
"70266",945.51154,77.806366,66.73618
"70267",945.52484,77.74044,66.60171
"70268",945.53815,77.7087,66.49936
"70269",945.55145,77.69405,66.41311
"70270",945.56476,77.69405,66.34105
"70271",945.57806,77.7087,66.28364
"70272",945.5914,77.72823,66.23157
"70273",945.6047,77.752655,66.185
"70274",945.618,77.77707,66.13918
"70275",945.6313,77.79416,66.08681
"70276",945.6446,77.79416,66.017876
"70277",945.6579,77.77707,65.931854
"70278",945.6712,77.74044,65.82576
"70279",945.6845,77.68917,65.70388
"70280",945.6978,77.625694,65.56819
"70281",945.7111,77.55489,65.423195
"70282",945.7244,77.47921,65.2711
"70283",945.73773,77.39132,65.10444
"70284",945.75104,77.28634,64.91794
"70285",945.76434,77.16426,64.71106
"70286",945.77765,77.02754,64.485725
"70287",945.79095,76.88838,64.25368
"70288",945.80426,76.754105,64.02216
"70289",945.81757,76.63935,63.805977
"70290",945.8309,76.54902,63.610626
"70291",945.8442,76.48554,63.43931
"70292",945.8575,76.44892,63.292862
"70293",945.8708,76.439156,63.172127
"70294",945.8841,76.456245,63.07794
"70295",945.8974,76.49287,63.003822
"70296",945.9107,76.54658,62.947937
"70297",945.924,76.612495,62.905937
"70298",945.9373,76.68574,62.87332
"70299",945.9506,76.756546,62.84056
"70300",945.9639,76.822464,62.805122
"70301",945.97723,76.87373,62.757095
"70302",945.99054,76.92012,62.705788
"70303",946.00385,76.95918,62.648605
"70304",946.01715,76.9836,62.577995
"70305",946.03046,76.99092,62.49106
"70306",946.04376,76.99092,62.397026
"70307",946.05707,76.98848,62.300552
"70308",946.0704,77.04463,62.262596
"70309",946.0837,77.261925,62.387535
"70310",946.097,77.769745,62.80979
"70311",946.1103,78.67063,63.640984
"70312",946.1236,79.974365,64.903175
"70313",946.1369,81.57839,66.5064
"70314",946.1502,83.26299,68.240326
"70315",946.1635,84.78401,69.86331
"70316",946.1768,85.90463,71.13343
"70317",946.1901,86.51011,71.92342
"70318",946.2034,86.58091,72.19766
"70319",946.21674,86.19272,72.01512
"70320",946.23004,85.452965,71.46889
"70321",946.24335,84.471504,70.65783
"70322",946.25665,83.35088,69.67694
"70323",946.26996,82.16434,68.59511
"70324",946.28326,80.9778,67.476204
"70325",946.2966,79.852295,66.381256
"70326",946.3099,78.856186,65.38053
"70327",946.3232,78.06027,64.548874
"70328",946.3365,77.54513,63.973114
"70329",946.3498,77.36935,63.72062
"70330",946.3631,77.557335,63.8264
"70331",946.3764,78.08469,64.27742
"70332",946.3897,78.86595,64.99883
"70333",946.403,79.766846,65.86429
"70334",946.4163,80.65064,66.7408
"70335",946.4296,81.392845,67.503334
"70336",946.44293,81.91287,68.06689
"70337",946.45624,82.18143,68.39522
"70338",946.46954,82.210724,68.49268
"70339",946.48285,82.039825,68.39087
"70340",946.49615,81.71023,68.125015
"70341",946.50946,81.27566,67.74389
"70342",946.52277,80.780045,67.28814
"70343",946.5361,80.2649,66.79737
"70344",946.5494,79.75708,66.29783
"70345",946.5627,79.28344,65.8166
"70346",946.576,78.856186,65.36695
"70347",946.5893,78.48997,64.96499
"70348",946.6026,78.184784,64.61262
"70349",946.6159,77.945526,64.316635
"70350",946.6292,77.769745,64.07665
"70351",946.6425,77.64767,63.88488
"70352",946.6558,77.58175,63.745453
"70353",946.6691,77.5671,63.655235
"70354",946.68243,77.5964,63.608505
"70355",946.69574,77.66476,63.601753
"70356",946.70905,77.76486,63.628883
"70357",946.72235,77.88693,63.681107
"70358",946.73566,78.01877,63.74691
"70359",946.74896,78.14572,63.81195
"70360",946.76227,78.260475,63.86876
"70361",946.7756,78.35081,63.90473
"70362",946.7889,78.40696,63.909348
"70363",946.8022,78.43137,63.88398
"70364",946.8155,78.43137,63.83496
"70365",946.8288,78.416725,63.771294
"70366",946.8421,78.39231,63.697403
"70367",946.8554,78.365456,63.620308
"70368",946.8687,78.33372,63.53749
"70369",946.882,78.29221,63.443916
"70370",946.8953,78.24094,63.33927
"70371",946.9086,78.1799,63.223267
"70372",946.92194,78.116425,63.102913
"70373",946.93524,78.05051,62.978134
"70374",946.94855,77.99191,62.85862
"70375",946.96185,77.9382,62.742157
"70376",946.97516,77.89914,62.638664
"70377",946.98846,77.87717,62.55104
"70378",947.0018,77.86984,62.47738
"70379",947.0151,77.87717,62.418137
"70380",947.0284,77.90402,62.378654
"70381",947.0417,77.94797,62.3571
"70382",947.055,78.00168,62.346687
"70383",947.0683,78.07004,62.3526
"70384",947.0816,78.14328,62.365532
"70385",947.0949,78.2092,62.37343
"70386",947.1082,78.2678,62.37607
"70387",947.1215,78.32395,62.37809
"70388",947.1348,78.42161,62.42337
"70389",947.14813,78.66575,62.618187
"70390",947.16144,79.23216,63.142906
"70391",947.17474,80.28443,64.17118
"70392",947.18805,81.883575,65.77921
"70393",947.20135,83.94415,67.89865
"70394",947.21466,86.22934,70.30709
"70395",947.22797,88.40955,72.68197
"70396",947.2413,90.17227,74.70749
"70397",947.2546,91.30999,76.16309
"70398",947.2679,91.76654,76.97308
"70399",947.2812,91.61028,77.18453
"70400",947.2945,90.97063,76.9077
"70401",947.3078,89.99649,76.2764
"70402",947.3211,88.834366,75.42667
"70403",947.3344,87.603874,74.472244
"70404",947.3477,86.40513,73.51112
"70405",947.361,85.3016,72.60775
"70406",947.3743,84.334785,71.80661
"70407",947.38763,83.52178,71.12907
"70408",947.40094,82.88701,70.60435
"70409",947.41425,82.43778,70.24534
"70410",947.42755,82.19119,70.07493
"70411",947.44086,82.15213,70.10434
"70412",947.45416,82.30839,70.32785
"70413",947.46747,82.616005,70.7076
"70414",947.4808,82.99687,71.17022
"70415",947.4941,83.3753,71.642296
"70416",947.5074,83.67803,72.05051
"70417",947.5207,83.8465,72.33391
"70418",947.534,83.85138,72.45899
"70419",947.5473,83.700005,72.42797
"70420",947.5606,83.39971,72.2433
"70421",947.5739,82.9749,71.92473
"70422",947.5872,82.46464,71.50743
"70423",947.6005,81.91043,71.03024
"70424",947.61383,81.34646,70.52597
"70425",947.62714,80.81178,70.03337
"70426",947.64044,80.32105,69.56801
"70427",947.65375,79.886475,69.14346
"70428",947.66705,79.51049,68.76393
"70429",947.68036,79.19066,68.4288
"70430",947.69366,78.92699,68.13984
"70431",947.707,78.7219,67.90122
"70432",947.7203,78.57053,67.709915
"70433",947.7336,78.470436,67.56515
"70434",947.7469,78.40452,67.45143
"70435",947.7602,78.37034,67.36739
"70436",947.7735,78.35081,67.296936
"70437",947.7868,78.34348,67.238075
"70438",947.8001,78.34104,67.18387
"70439",947.8134,78.34104,67.13203
"70440",947.8267,78.33372,67.07286
"70441",947.84,78.32395,67.011024
"70442",947.85333,78.29954,66.934235
"70443",947.86664,78.2678,66.84936
"70444",947.87994,78.22385,66.751274
"70445",947.89325,78.17502,66.64694
"70446",947.90656,78.11398,66.52888
"70447",947.91986,78.04318,66.39914
"70448",947.93317,77.962616,66.25742
"70449",947.9465,77.87717,66.10831
"70450",947.9598,77.79172,65.95652
"70451",947.9731,77.70626,65.802055
"70452",947.9864,77.625694,65.64981
"70453",947.9997,77.557335,65.507256
"70454",948.013,77.49386,65.36745
"70455",948.0263,77.44015,65.23542
"70456",948.0396,77.39132,65.1066
"70457",948.0529,77.349815,64.983574
"70458",948.0662,77.315636,64.86658
"70459",948.0795,77.29366,64.76072
"70460",948.09283,77.29122,64.673706
"70461",948.10614,77.31075,64.60859
"70462",948.11945,77.349815,64.563614
"70463",948.13275,77.40353,64.53451
"70464",948.14606,77.45968,64.50952
"70465",948.15936,77.506065,64.476524
"70466",948.17267,77.5378,64.43033
"70467",948.186,77.55245,64.368034
"70468",948.1993,77.593956,64.33305
"70469",948.2126,77.752655,64.416565
"70470",948.2259,78.19455,64.78823
"70471",948.2392,79.08568,65.62294
"70472",948.2525,80.52369,67.03238
"70473",948.2658,82.46952,68.994576
"70474",948.2791,84.732735,71.33496
"70475",948.2924,87.00084,73.75096
"70476",948.3057,88.94179,75.91068
"70477",948.31903,90.31144,77.55977
"70478",948.33234,91.002365,78.57293
"70479",948.34564,91.04387,78.95826
"70480",948.35895,90.55314,78.81265
"70481",948.37225,89.686424,78.27573
"70482",948.38556,88.60731,77.49931
"70483",948.39886,87.45739,76.61838
"70484",948.4122,86.35142,75.74545
"70485",948.4255,85.37484,74.967354
"70486",948.4388,84.56672,74.327194
"70487",948.4521,83.93683,73.84001
"70488",948.4654,83.46563,73.49184
"70489",948.4787,83.12871,73.263214
"70490",948.492,82.899216,73.13149
"70491",948.5053,82.760056,73.08293
"70492",948.5186,82.70634,73.11546
"70493",948.5319,82.73319,73.22689
"70494",948.5452,82.81377,73.392876
"70495",948.55853,82.91142,73.57846
"70496",948.57184,82.98222,73.74024
"70497",948.58514,82.98711,73.83832
"70498",948.59845,82.89433,73.83889
"70499",948.61176,82.69413,73.72913
"70500",948.62506,82.391396,73.51059
"70501",948.63837,82.00809,73.20201
"70502",948.6517,81.566185,72.82286
"70503",948.665,81.094986,72.400604
"70504",948.6783,80.61646,71.9563
"70505",948.6916,80.15015,71.50925
"70506",948.7049,79.71557,71.07936
"70507",948.7182,79.3225,70.67741
"70508",948.7315,78.9807,70.31443
"70509",948.7448,78.69016,69.99204
"70510",948.7581,78.45335,69.714294
"70511",948.7714,78.26536,69.477974
"70512",948.7847,78.12131,69.27972
"70513",948.79803,78.013885,69.11359
"70514",948.81134,77.943085,68.98072
"70515",948.82465,77.8967,68.870056
"70516",948.83795,77.87717,68.7848
"70517",948.85126,77.87717,68.71846
"70518",948.86456,77.8967,68.67165
