"","Time..s.","PPG.trace","Preprocessed.PPG"
"736",21.917683,80.43824,77.08859
"737",21.931019,80.42359,77.08764
"738",21.944351,80.43336,77.11064
"739",21.957684,80.462654,77.15348
"740",21.97102,80.49195,77.197235
"741",21.984352,80.50904,77.2297
"742",21.997684,80.50172,77.23828
"743",22.011017,80.47242,77.22466
"744",22.02435,80.41871,77.185715
"745",22.037685,80.34058,77.120674
"746",22.051018,80.25269,77.04343
"747",22.06435,80.15991,76.95854
"748",22.077686,80.06714,76.870766
"749",22.091019,79.974365,76.78009
"750",22.104351,79.888916,76.69384
"751",22.117683,79.81079,76.61224
"752",22.131016,79.744865,76.540405
"753",22.144352,79.68627,76.47384
"754",22.157684,79.64477,76.42253
"755",22.171017,79.62035,76.38702
"756",22.184353,79.60815,76.362946
"757",22.197685,79.605705,76.34826
"758",22.211018,79.61303,76.34326
"759",22.22435,79.62524,76.343376
"760",22.237682,79.635,76.34143
"761",22.251019,79.64233,76.33735
"762",22.26435,79.64477,76.32861
"763",22.277683,79.64233,76.31507
"764",22.29102,79.639885,76.30145
"765",22.304352,79.635,76.28532
"766",22.317684,79.63744,76.27635
"767",22.331017,79.64233,76.269905
"768",22.344349,79.65209,76.26849
"769",22.357685,79.69848,76.30401
"770",22.371017,79.815674,76.41178
"771",22.38435,80.03784,76.62819
"772",22.397686,80.377205,76.968735
"773",22.411018,80.80934,77.41266
"774",22.42435,81.25857,77.88718
"775",22.437683,81.651634,78.31957
"776",22.451015,81.91287,78.63242
"777",22.464352,82.01053,78.789856
"778",22.477684,81.94949,78.79165
"779",22.491016,81.77615,78.67923
"780",22.504353,81.53933,78.49791
"781",22.517685,81.290306,78.29699
"782",22.531017,81.07057,78.11758
"783",22.54435,80.89967,77.98013
"784",22.557682,80.78493,77.8935
"785",22.571018,80.71412,77.84722
"786",22.58435,80.66529,77.82071
"787",22.597683,80.618904,77.79511
"788",22.61102,80.56031,77.75586
"789",22.624352,80.49439,77.70745
"790",22.637684,80.4358,77.66431
"791",22.651016,80.39918,77.641304
"792",22.664349,80.396736,77.65134
"793",22.677685,80.42359,77.69059
"794",22.691017,80.46021,77.74045
"795",22.70435,80.49439,77.78901
"796",22.717686,80.50904,77.81911
"797",22.731018,80.49683,77.82281
"798",22.74435,80.45045,77.79195
"799",22.757683,80.38209,77.73766
"800",22.771015,80.2942,77.66171
"801",22.784351,80.19409,77.5708
"802",22.797684,80.08911,77.471886
"803",22.811016,79.991455,77.377014
"804",22.824352,79.906006,77.2913
"805",22.837685,79.83276,77.21512
"806",22.851017,79.76929,77.146416
"807",22.86435,79.708244,77.07816
"808",22.877682,79.65209,77.01289
"809",22.891018,79.60815,76.95808
"810",22.90435,79.57885,76.916534
"811",22.917683,79.5642,76.888725
"812",22.931019,79.571526,76.88243
"813",22.944351,79.586174,76.88369
"814",22.957684,79.60815,76.89273
"815",22.971016,79.62768,76.90002
"816",22.984348,79.64233,76.90303
"817",22.997684,79.65209,76.90162
"818",23.011017,79.64965,76.888306
"819",23.02435,79.639885,76.86759
"820",23.037685,79.61547,76.831924
"821",23.051018,79.586174,76.79061
"822",23.06435,79.551994,76.7435
"823",23.077682,79.51293,76.69044
"824",23.091015,79.47875,76.64104
"825",23.104351,79.45434,76.600334
"826",23.117683,79.4641,76.59305
"827",23.131016,79.554436,76.66663
"828",23.144352,79.766846,76.86512
"829",23.157684,80.111084,77.20207
"830",23.171017,80.56031,77.65477
"831",23.18435,81.058365,78.170334
"832",23.197681,81.51003,78.655075
"833",23.211018,81.82498,79.01721
"834",23.22435,81.96658,79.21584
"835",23.237682,81.9324,79.24312
"836",23.251019,81.75906,79.130165
"837",23.26435,81.50271,78.92878
"838",23.277683,81.21706,78.69009
"839",23.291016,80.955826,78.46689
"840",23.304348,80.743416,78.28435
"841",23.317684,80.59937,78.163536
"842",23.331017,80.51392,78.09682
"843",23.344349,80.47242,78.07137
"844",23.357685,80.44312,78.05684
"845",23.371017,80.40894,78.03651
"846",23.38435,80.36744,78.00778
"847",23.397682,80.323494,77.97532
"848",23.411015,80.29664,77.95857
"849",23.42435,80.291756,77.96296
"850",23.437683,80.306404,77.986725
"851",23.451015,80.3357,78.0256
"852",23.464352,80.360115,78.0605
"853",23.477684,80.36256,78.074196
"854",23.491016,80.33082,78.05379
"855",23.504349,80.272224,78.00553
"856",23.517681,80.18677,77.92858
"857",23.531017,80.09155,77.8392
"858",23.54435,79.991455,77.74197
"859",23.557682,79.89136,77.6416
"860",23.571018,79.7937,77.54055
"861",23.58435,79.70092,77.44132
"862",23.597683,79.61547,77.34653
"863",23.611015,79.537346,77.256386
"864",23.624348,79.47387,77.17845
"865",23.637684,79.432365,77.12051
"866",23.651016,79.40307,77.07347
"867",23.664349,79.381096,77.032845
"868",23.677685,79.364006,76.996414
"869",23.691017,79.3518,76.96433
"870",23.70435,79.34203,76.93431
"871",23.717682,79.33959,76.91131
"872",23.731014,79.33959,76.89067
"873",23.74435,79.344475,76.874916
"874",23.757683,79.34692,76.85687
"875",23.771015,79.34936,76.838905
"876",23.784351,79.35424,76.823456
"877",23.797684,79.35424,76.803276
"878",23.811016,79.3518,76.780655
"879",23.824348,79.344475,76.753075
"880",23.83768,79.32983,76.71794
"881",23.851017,79.30785,76.675026
"882",23.86435,79.27856,76.6241
"883",23.877682,79.24925,76.57225
"884",23.891018,79.21507,76.51461
"885",23.90435,79.17845,76.45346
"886",23.917683,79.14671,76.39605
"887",23.931015,79.11986,76.34253
"888",23.944347,79.10277,76.297935
"889",23.957684,79.11009,76.27722
"890",23.971016,79.17113,76.31045
"891",23.984348,79.33959,76.45301
"892",23.997684,79.65209,76.74487
"893",24.011017,80.113525,77.195435
"894",24.02435,80.6775,77.762955
"895",24.037682,81.25124,78.35787
"896",24.051014,81.7322,78.87793
"897",24.06435,82.03494,79.2348
"898",24.077682,82.127716,79.39117
"899",24.091015,82.037384,79.367325
"900",24.104351,81.815216,79.208824
"901",24.117683,81.52468,78.97501
"902",24.131016,81.231705,78.72968
"903",24.144348,80.97536,78.511826
"904",24.15768,80.78493,78.351875
"905",24.171017,80.67017,78.26165
"906",24.18435,80.621346,78.233765
"907",24.197681,80.61646,78.2483
"908",24.211018,80.621346,78.272446
"909",24.22435,80.60914,78.279655
"910",24.237682,80.56519,78.254745
"911",24.251015,80.49683,78.20405
"912",24.264347,80.41627,78.13901
"913",24.277683,80.34058,78.07633
"914",24.291016,80.28199,78.02838
"915",24.304348,80.25269,78.0079
"916",24.317684,80.233154,77.996254
"917",24.331017,80.22095,77.99133
"918",24.344349,80.201416,77.97871
"919",24.357681,80.164795,77.94838
"920",24.371014,80.10864,77.89738
"921",24.38435,80.04028,77.83241
"922",24.397682,79.95972,77.753105
"923",24.411015,79.871826,77.663956
"924",24.42435,79.783936,77.57206
"925",24.437683,79.70092,77.48229
"926",24.451015,79.62035,77.39238
"927",24.464348,79.54955,77.309715
"928",24.47768,79.48852,77.234604
"929",24.491016,79.44213,77.17223
"930",24.504349,79.40551,77.11818
"931",24.517681,79.37621,77.070305
"932",24.531017,79.35424,77.02884
"933",24.54435,79.33715,76.99157
"934",24.557682,79.32494,76.95865
"935",24.571014,79.32006,76.93267
"936",24.584347,79.32006,76.91142
"937",24.597683,79.31762,76.88773
"938",24.611015,79.31762,76.86641
"939",24.624348,79.31762,76.845085
"940",24.637684,79.31518,76.82132
"941",24.651016,79.310295,76.79504
"942",24.664349,79.30541,76.7686
"943",24.677681,79.30053,76.74201
"944",24.691013,79.293205,76.71283
"945",24.70435,79.281,76.678535
"946",24.717682,79.26147,76.636536
"947",24.731014,79.24193,76.59392
"948",24.74435,79.217514,76.545815
"949",24.757683,79.19554,76.49939
"950",24.771015,79.17601,76.45472
"951",24.784348,79.15892,76.41188
"952",24.79768,79.14671,76.37339
"953",24.811016,79.13451,76.33452
"954",24.824348,79.11986,76.29282
"955",24.83768,79.10277,76.24823
"956",24.851017,79.08568,76.2031
"957",24.86435,79.06859,76.15744
"958",24.877682,79.06615,76.12589
"959",24.891014,79.10277,76.13333
"960",24.904346,79.22484,76.22736
"961",24.917683,79.47631,76.45461
"962",24.931015,79.87671,76.838646
"963",24.944347,80.40406,77.362144
"964",24.957684,80.98024,77.95095
"965",24.971016,81.50515,78.50649
"966",24.984348,81.883575,78.93195
"967",24.99768,82.056915,79.164154
"968",25.011013,82.02762,79.199135
"969",25.02435,81.84207,79.07695
"970",25.037682,81.5613,78.853745
"971",25.051014,81.25124,78.592476
"972",25.06435,80.96315,78.34348
"973",25.077682,80.73121,78.14164
"974",25.091015,80.570076,78.00336
"975",25.104347,80.48707,77.93816
"976",25.11768,80.465096,77.93141
"977",25.131016,80.47242,77.95327
"978",25.144348,80.4773,77.972916
"979",25.15768,80.45777,77.9683
"980",25.171017,80.411385,77.93622
"981",25.18435,80.34547,77.883156
"982",25.197681,80.27711,77.82559
"983",25.211014,80.22827,77.785416
"984",25.224346,80.20386,77.768135
"985",25.237682,80.198975,77.76962
"986",25.251015,80.201416,77.77828
"987",25.264347,80.18921,77.77237
"988",25.277683,80.164795,77.75387
"989",25.291016,80.11597,77.71019
"990",25.304348,80.05005,77.647896
"991",25.31768,79.96948,77.56889
"992",25.331013,79.886475,77.48493
"993",25.344349,79.798584,77.39349
"994",25.357681,79.71313,77.30174
"995",25.371014,79.63012,77.20977
"996",25.38435,79.55932,77.12741
"997",25.397682,79.500725,77.055046
"998",25.411015,79.449455,76.988174
"999",25.424347,79.412834,76.93435
"1000",25.43768,79.38598,76.889145
"1001",25.451015,79.361565,76.84554
"1002",25.464348,79.34203,76.80606
"1003",25.47768,79.33227,76.775734
"1004",25.491016,79.33471,76.75731
"1005",25.504349,79.34203,76.74384
"1006",25.517681,79.35912,76.74037
"1007",25.531013,79.37377,76.73499
"1008",25.544346,79.38598,76.72763
"1009",25.557682,79.39086,76.713326
"1010",25.571014,79.38842,76.69185
"1011",25.584347,79.381096,76.66541
"1012",25.597683,79.37377,76.63875
"1013",25.611015,79.361565,76.60697
"1014",25.624348,79.34936,76.574814
"1015",25.63768,79.34203,76.54716
"1016",25.651012,79.32983,76.51439
"1017",25.664349,79.31762,76.48124
"1018",25.677681,79.30541,76.44771
"1019",25.691013,79.28588,76.40647
"1020",25.70435,79.26879,76.367065
"1021",25.717682,79.24925,76.32468
"1022",25.731014,79.234604,76.28657
"1023",25.744347,79.217514,76.24556
"1024",25.757679,79.20775,76.21134
"1025",25.771015,79.200424,76.17926
"1026",25.784348,79.19798,76.15183
"1027",25.79768,79.202866,76.13165
"1028",25.811016,79.234604,76.13848
"1029",25.824348,79.33227,76.21223
"1030",25.83768,79.54467,76.40376
"1031",25.851013,79.906006,76.75087
"1032",25.864346,80.394295,77.23622
"1033",25.877682,80.9485,77.80275
"1034",25.891014,81.47097,78.35486
"1035",25.904346,81.8616,78.79146
"1036",25.917683,82.05936,79.047386
"1037",25.931015,82.04959,79.101974
"1038",25.944347,81.87869,78.995125
"1039",25.95768,81.60769,78.78283
"1040",25.971012,81.29275,78.51813
"1041",25.984348,80.987564,78.25334
"1042",25.99768,80.72877,78.025406
"1043",26.011013,80.54078,77.86019
"1044",26.02435,80.42359,77.7599
"1045",26.037682,80.37476,77.72431
"1046",26.051014,80.365,77.72626
"1047",26.064346,80.365,77.73766
"1048",26.077679,80.35523,77.7393
"1049",26.091015,80.325935,77.72111
"1050",26.104347,80.27955,77.684906
"1051",26.11768,80.235596,77.64969
"1052",26.131016,80.20874,77.630196
"1053",26.144348,80.20386,77.631836
"1054",26.15768,80.22095,77.6553
"1055",26.171013,80.24048,77.68173
"1056",26.184345,80.2478,77.69657
"1057",26.197681,80.235596,77.69211
"1058",26.211014,80.19653,77.66041
"1059",26.224346,80.13794,77.607956
"1060",26.237682,80.06714,77.541466
"1061",26.251015,79.9939,77.47032
"1062",26.264347,79.91577,77.392006
"1063",26.27768,79.84009,77.31369
"1064",26.291012,79.764404,77.23301
"1065",26.304348,79.69604,77.15728
"1066",26.31768,79.63256,77.084305
"1067",26.331013,79.57641,77.01667
"1068",26.344349,79.534904,76.96193
"1069",26.357681,79.50561,76.9181
"1070",26.371014,79.483635,76.88068
"1071",26.384346,79.47631,76.857216
"1072",26.397678,79.47387,76.83841
"1073",26.411015,79.48119,76.82929
"1074",26.424347,79.49584,76.82773
"1075",26.43768,79.51293,76.82906
"1076",26.451015,79.53246,76.833374
"1077",26.464348,79.554436,76.84074
"1078",26.47768,79.571526,76.8439
"1079",26.491013,79.58129,76.84028
"1080",26.504345,79.58373,76.829636
"1081",26.517681,79.57885,76.811745
"1082",26.531013,79.569084,76.78882
"1083",26.544346,79.551994,76.75826
"1084",26.557682,79.534904,76.72717
"1085",26.571014,79.51293,76.69067
"1086",26.584347,79.48608,76.64859
"1087",26.59768,79.46166,76.608116
"1088",26.611012,79.43969,76.56932
"1089",26.624348,79.42016,76.53228
"1090",26.63768,79.40307,76.49707
"1091",26.651012,79.395744,76.47109
"1092",26.664349,79.40551,76.461975
"1093",26.677681,79.46899,76.506874
"1094",26.691013,79.63744,76.65874
"1095",26.704346,79.940186,76.95015
"1096",26.717678,80.365,77.37309
"1097",26.731014,80.86549,77.884995
"1098",26.744347,81.35134,78.39789
"1099",26.757679,81.722435,78.81121
"1100",26.771015,81.91531,79.057915
"1101",26.784348,81.917755,79.12021
"1102",26.79768,81.761505,79.02389
"1103",26.811012,81.50027,78.817696
"1104",26.824345,81.18776,78.55207
"1105",26.83768,80.885025,78.28645
"1106",26.851013,80.621346,78.05043
"1107",26.864346,80.41871,77.86721
"1108",26.877682,80.28199,77.743576
"1109",26.891014,80.201416,77.671814
"1110",26.904346,80.15015,77.62684
"1111",26.917679,80.11597,77.59735
"1112",26.931011,80.08667,77.57168
"1113",26.944347,80.062256,77.54997
"1114",26.95768,80.05249,77.54215
"1115",26.971012,80.06958,77.56088
"1116",26.984348,80.11597,77.60944
"1117",26.99768,80.184326,77.68143
"1118",27.011013,80.255135,77.757996
"1119",27.024345,80.30396,77.8148
"1120",27.037678,80.323494,77.84383
"1121",27.051014,80.308846,77.83929
"1122",27.064346,80.255135,77.79523
"1123",27.077679,80.17456,77.722626
"1124",27.091015,80.07446,77.62798
"1125",27.104347,79.96704,77.52289
"1126",27.11768,79.85718,77.411995
"1127",27.131012,79.75708,77.307434
"1128",27.144344,79.66674,77.2095
"1129",27.15768,79.588615,77.120964
"1130",27.171013,79.53246,77.051956
"1131",27.184345,79.4934,76.99828
"1132",27.197681,79.466545,76.9556
"1133",27.211014,79.4519,76.92428
"1134",27.224346,79.447014,76.90227
"1135",27.237679,79.447014,76.88499
"1136",27.25101,79.449455,76.87015
"1137",27.264347,79.45678,76.86027
"1138",27.27768,79.47143,76.85794
"1139",27.291012,79.4934,76.863396
"1140",27.304348,79.51537,76.86954
"1141",27.31768,79.53979,76.87881
"1142",27.331013,79.55932,76.88396
"1143",27.344345,79.569084,76.87995
"1144",27.357677,79.571526,76.86893
"1145",27.371014,79.56176,76.84577
"1146",27.384346,79.54955,76.81987
"1147",27.397678,79.53246,76.788704
"1148",27.411015,79.51049,76.75212
"1149",27.424347,79.483635,76.70997
"1150",27.43768,79.45678,76.66698
"1151",27.451012,79.432365,76.62559
"1152",27.464344,79.429924,76.60541
"1153",27.47768,79.48119,76.63886
"1154",27.491013,79.64721,76.788666
"1155",27.504345,79.954834,77.085266
"1156",27.517681,80.39918,77.5282
"1157",27.531013,80.919205,78.0607
"1158",27.544346,81.427025,78.597244
"1159",27.557678,81.81766,79.03247
"1160",27.57101,82.01785,79.28947
"1161",27.584347,82.02518,79.35985
"1162",27.59768,81.87381,79.27177
"1163",27.611012,81.617455,79.07397
"1164",27.624348,81.3196,78.82666
"1165",27.63768,81.02907,78.57736
"1166",27.651012,80.7776,78.358055
"1167",27.664345,80.58961,78.19436
"1168",27.677677,80.46998,78.093155
"1169",27.691013,80.41627,78.05413
"1170",27.704346,80.4065,78.05737
"1171",27.717678,80.40894,78.07252
"1172",27.731014,80.396736,78.07309
"1173",27.744347,80.35767,78.046425
"1174",27.757679,80.30152,78.00145
"1175",27.771011,80.24048,77.94983
"1176",27.784344,80.19653,77.9134
"1177",27.79768,80.17944,77.90245
"1178",27.811012,80.18677,77.91538
"1179",27.824345,80.20386,77.93831
"1180",27.83768,80.21362,77.954445
"1181",27.851013,80.2063,77.9538
"1182",27.864346,80.177,77.93095
"1183",27.877678,80.12085,77.880325
"1184",27.89101,80.05249,77.81574
"1185",27.904346,79.96948,77.734375
"1186",27.917679,79.88403,77.64797
"1187",27.931011,79.79614,77.55646
"1188",27.944347,79.71557,77.46951
"1189",27.95768,79.635,77.38006
"1190",27.971012,79.56664,77.30029
"1191",27.984344,79.51049,77.2306
"1192",27.997677,79.4641,77.168915
"1193",28.011013,79.432365,77.12043
"1194",28.024345,79.412834,77.08316
"1195",28.037678,79.40063,77.052605
"1196",28.051014,79.395744,77.02899
"1197",28.064346,79.398186,77.01255
"1198",28.077679,79.40795,77.00351
"1199",28.091011,79.42504,77.0021
"1200",28.104343,79.4519,77.01099
"1201",28.11768,79.47875,77.02071
"1202",28.131012,79.50561,77.03128
"1203",28.144344,79.53246,77.04269
"1204",28.15768,79.54711,77.042725
"1205",28.171017,79.54955,77.03101
"1206",28.18435,79.54955,77.01694
"1207",28.197681,79.54711,77.00042
"1208",28.211018,79.54467,76.983826
"1209",28.224354,79.54223,76.967155
"1210",28.237686,79.54711,76.95773
"1211",28.251019,79.551994,76.94846
"1212",28.264355,79.54955,76.93202
"1213",28.27769,79.53979,76.90818
"1214",28.291023,79.5227,76.87671
"1215",28.304356,79.500725,76.83982
"1216",28.317692,79.47875,76.802246
"1217",28.331028,79.47387,76.781075
"1218",28.34436,79.5227,76.81346
"1219",28.357693,79.691154,76.967
"1220",28.371029,80.01099,77.27718
"1221",28.384365,80.47242,77.73896
"1222",28.397697,81.02174,78.30305
"1223",28.41103,81.56374,78.876976
"1224",28.424366,81.986115,79.34821
"1225",28.437702,82.213165,79.63733
"1226",28.451035,82.230255,79.72358
"1227",28.464367,82.08377,79.64679
"1228",28.477703,81.82254,79.450676
"1229",28.49104,81.514915,79.200005
"1230",28.504372,81.21217,78.9446
"1231",28.517704,80.953384,78.723694
"1232",28.53104,80.75563,78.55573
"1233",28.544376,80.62623,78.44994
"1234",28.557709,80.567635,78.41092
"1235",28.571041,80.55543,78.41645
"1236",28.584377,80.56031,78.43869
"1237",28.597713,80.550545,78.446434
"1238",28.611046,80.51148,78.424576
"1239",28.624378,80.44312,78.3722
"1240",28.637714,80.35767,78.3006
"1241",28.65105,80.28199,78.23609
"1242",28.664383,80.22827,78.191185
"1243",28.677715,80.198975,78.16902
"1244",28.691051,80.19165,78.167915
"1245",28.704388,80.184326,78.16658
"1246",28.71772,80.16968,78.15769
"1247",28.731052,80.14282,78.13614
"1248",28.744389,80.09888,78.09666
"1249",28.757725,80.03784,78.03871
"1250",28.771057,79.96216,77.96421
"1251",28.78439,79.88159,77.88246
"1252",28.797726,79.7937,77.79087
"1253",28.811062,79.710686,77.70141
"1254",28.824394,79.63256,77.61424
"1255",28.837727,79.569084,77.53928
"1256",28.851063,79.51537,77.47211
"1257",28.864399,79.466545,77.408134
"1258",28.877731,79.429924,77.35484
"1259",28.891064,79.40307,77.31017
"1260",28.9044,79.38598,77.27443
"1261",28.917736,79.36889,77.23815
"1262",28.931068,79.364006,77.21355
"1263",28.9444,79.35912,77.18879
"1264",28.957737,79.35668,77.16632
"1265",28.971073,79.35668,77.14622
"1266",28.984406,79.35912,77.128555
"1267",28.997738,79.361565,77.11097
"1268",29.011074,79.364006,77.09346
"1269",29.02441,79.36645,77.07603
"1270",29.037743,79.36645,77.05623
"1271",29.051075,79.36889,77.03887
"1272",29.064411,79.37377,77.02403
"1273",29.077747,79.37377,77.00446
"1274",29.09108,79.36645,76.97757
"1275",29.104412,79.35424,76.945564
"1276",29.117748,79.33959,76.910736
"1277",29.131084,79.32006,76.87057
"1278",29.144417,79.29809,76.82735
"1279",29.15775,79.27856,76.78588
"1280",29.171085,79.26391,76.74869
"1281",29.184422,79.256584,76.71836
"1282",29.197754,79.256584,76.69513
"1283",29.211086,79.259026,76.67434
"1284",29.224422,79.26147,76.653625
"1285",29.237759,79.256584,76.62566
"1286",29.251091,79.24681,76.59266
"1287",29.264423,79.237045,76.55936
"1288",29.27776,79.24681,76.54528
"1289",29.291096,79.30297,76.5779
"1290",29.304428,79.45434,76.70749
"1291",29.31776,79.7522,76.9883
"1292",29.331097,80.201416,77.42977
"1293",29.344433,80.762955,77.997604
"1294",29.357765,81.35378,78.612274
"1295",29.371098,81.85916,79.15996
"1296",29.384434,82.18631,79.545204
"1297",29.39777,82.29862,79.72584
"1298",29.411102,82.213165,79.71221
"1299",29.424435,81.986115,79.55432
"1300",29.43777,81.67849,79.30876
"1301",29.451107,81.356224,79.03895
"1302",29.46444,81.05104,78.776146
"1303",29.477772,80.80202,78.55997
"1304",29.491108,80.621346,78.40436
"1305",29.504444,80.51392,78.31635
"1306",29.517776,80.46754,78.286026
"1307",29.531109,80.46754,78.30064
"1308",29.544445,80.479744,78.32745
"1309",29.557781,80.482185,78.34489
"1310",29.571114,80.465096,78.342865
"1311",29.584446,80.430916,78.32322
"1312",29.597782,80.38697,78.29274
"1313",29.611118,80.35035,78.26821
"1314",29.62445,80.33326,78.26207
"1315",29.637783,80.33082,78.27004
"1316",29.65112,80.33326,78.28282
"1317",29.664455,80.33082,78.290794
"1318",29.677788,80.31617,78.28648
"1319",29.69112,80.27955,78.25974
"1320",29.704456,80.216064,78.204994
"1321",29.717793,80.13794,78.13362
"1322",29.731125,80.05005,78.05004
"1323",29.744457,79.957275,77.95883
"1324",29.757793,79.869385,77.869606
"1325",29.77113,79.78638,77.78252
"1326",29.784462,79.710686,77.70015
"1327",29.797794,79.64233,77.62275
"1328",29.81113,79.58373,77.55298
"1329",29.824467,79.537346,77.49358
"1330",29.8378,79.50317,77.44495
"1331",29.851131,79.47875,77.40501
"1332",29.864468,79.4641,77.37407
"1333",29.877804,79.45434,77.34756
"1334",29.891136,79.4519,77.328064
"1335",29.904469,79.45434,77.31338
"1336",29.917805,79.45922,77.30121
"1337",29.93114,79.466545,77.29163
"1338",29.944473,79.47875,77.28717
"1339",29.957806,79.4934,77.28553
"1340",29.971142,79.50317,77.279465
"1341",29.984478,79.51049,77.27126
"1342",29.99781,79.50805,77.253525
"1343",30.011143,79.49584,77.225945
"1344",30.024479,79.47875,77.1931
"1345",30.037815,79.45434,77.1524
"1346",30.051147,79.432365,77.11337
"1347",30.06448,79.41039,77.07366
"1348",30.077816,79.38842,77.033264
"1349",30.091152,79.36889,76.99462
"1350",30.104485,79.34936,76.95537
"1351",30.117817,79.32983,76.915504
"1352",30.131153,79.31518,76.87991
"1353",30.14449,79.30053,76.843864
"1354",30.157822,79.28588,76.80736
"1355",30.171154,79.26879,76.76795
"1356",30.18449,79.25414,76.73045
"1357",30.197826,79.24437,76.69737
"1358",30.211159,79.237045,76.666435
"1359",30.224491,79.237045,76.64259
"1360",30.237827,79.2517,76.63341
"1361",30.251163,79.30541,76.663734
"1362",30.264496,79.43969,76.776306
"1363",30.277828,79.708244,77.02735
"1364",30.291164,80.12085,77.43084
"1365",30.3045,80.65797,77.97173
"1366",30.317833,81.23659,78.570915
"1367",30.331165,81.761505,79.134476
"1368",30.344501,82.1326,79.560616
"1369",30.357838,82.303505,79.798164
"1370",30.37117,82.27421,79.84085
"1371",30.384502,82.08865,79.726364
"1372",30.397839,81.80301,79.50599
"1373",30.411175,81.47585,79.235176
"1374",30.424507,81.15114,78.95658
"1375",30.43784,80.86549,78.70691
"1376",30.451176,80.638435,78.5069
"1377",30.464512,80.479744,78.36816
"1378",30.477844,80.38697,78.290375
"1379",30.491177,80.34058,78.25608
"1380",30.504513,80.31861,78.24475
"1381",30.517849,80.30396,78.24006
"1382",30.531181,80.28687,78.23247
"1383",30.544514,80.26978,78.22434
"1384",30.55785,80.2649,78.22789
"1385",30.571186,80.27711,78.248375
"1386",30.584518,80.31129,78.291214
"1387",30.59785,80.35279,78.342445
"1388",30.611187,80.38697,78.38765
"1389",30.624523,80.40406,78.41683
"1390",30.637856,80.394295,78.41969
"1391",30.651188,80.35279,78.39051
"1392",30.664524,80.289314,78.33806
"1393",30.67786,80.2063,78.264084
"1394",30.691193,80.113525,78.17776
"1395",30.704525,80.01587,78.08365
"1396",30.717861,79.920654,77.98893
"1397",30.731197,79.82788,77.89368
"1398",30.74453,79.73998,77.8004
"1399",30.757862,79.65942,77.71171
"1400",30.771198,79.5935,77.63515
"1401",30.784534,79.534904,77.56385
"1402",30.797867,79.48852,77.50293
"1403",30.8112,79.449455,77.44788
"1404",30.824535,79.4226,77.403824
"1405",30.837872,79.41039,77.37357
"1406",30.851204,79.40551,77.350266
"1407",30.864536,79.41039,77.33657
"1408",30.877872,79.42504,77.332794
"1409",30.891209,79.449455,77.33924
"1410",30.904541,79.47387,77.34645
"1411",30.917873,79.49584,77.35198
"1412",30.93121,79.51537,77.35576
"1413",30.944546,79.53246,77.357704
"1414",30.957878,79.54467,77.3553
"1415",30.97121,79.54955,77.345955
"1416",30.984547,79.54711,77.32944
"1417",30.997883,79.534904,77.30308
"1418",31.011215,79.51537,77.26901
"1419",31.024548,79.4934,77.231895
"1420",31.037884,79.47143,77.19409
"1421",31.05122,79.4519,77.15804
"1422",31.064552,79.429924,77.11894
"1423",31.077885,79.40551,77.07671
"1424",31.09122,79.37621,77.02884
"1425",31.104557,79.34203,76.97517
"1426",31.11789,79.31274,76.92531
"1427",31.131222,79.310295,76.90139
"1428",31.144558,79.37133,76.94087
"1429",31.157894,79.54467,77.09457
"1430",31.171227,79.86206,77.39773
"1431",31.184559,80.31373,77.845085
"1432",31.197895,80.848404,78.389565
"1433",31.211231,81.373314,78.94099
"1434",31.224564,81.795685,79.40627
"1435",31.237896,82.04959,79.71629
"1436",31.251232,82.11795,79.8487
"1437",31.264568,82.020294,79.81723
"1438",31.2779,81.80545,79.66552
"1439",31.291233,81.52712,79.44361
"1440",31.30457,81.22926,79.193474
"1441",31.317905,80.9485,78.951126
"1442",31.331238,80.70191,78.73418
"1443",31.34457,80.50172,78.555916
"1444",31.357906,80.34791,78.417786
"1445",31.371243,80.233154,78.3139
"1446",31.384575,80.147705,78.23574
"1447",31.397907,80.08423,78.17688
"1448",31.411243,80.04761,78.14289
"1449",31.42458,80.045166,78.14194
"1450",31.437912,80.08423,78.18241
"1451",31.451244,80.16724,78.26805
"1452",31.46458,80.27955,78.38559
"1453",31.477917,80.4065,78.52128
"1454",31.49125,80.51392,78.6414
"1455",31.504581,80.587166,78.730705
"1456",31.517918,80.6067,78.768585
"1457",31.531254,80.587166,78.76801
"1458",31.544586,80.52369,78.722885
"1459",31.557919,80.43336,78.64892
"1460",31.571255,80.325935,78.55504
"1461",31.58459,80.20874,78.44803
"1462",31.597923,80.08667,78.33248
"1463",31.611256,79.971924,78.22044
"1464",31.624592,79.86206,78.1097
"1465",31.637928,79.766846,78.01018
"1466",31.65126,79.68627,77.92232
"1467",31.664593,79.61791,77.844154
"1468",31.677929,79.55932,77.77362
"1469",31.691265,79.51049,77.71102
"1470",31.704597,79.47631,77.661545
"1471",31.71793,79.447014,77.61588
"1472",31.731266,79.429924,77.58151
"1473",31.744602,79.42748,77.56126
"1474",31.757935,79.432365,77.54825
"1475",31.771267,79.44457,77.54272
"1476",31.784603,79.46166,77.54245
"1477",31.79794,79.483635,77.5476
"1478",31.811272,79.50561,77.55344
"1479",31.824604,79.520256,77.552635
"1480",31.83794,79.5227,77.540085
"1481",31.851276,79.51537,77.517845
"1482",31.864609,79.49584,77.48317
"1483",31.877941,79.4641,77.43568
"1484",31.891277,79.43481,77.38963
"1485",31.904613,79.42504,77.362206
"1486",31.917946,79.4641,77.3833
"1487",31.931278,79.59838,77.50083
"1488",31.944614,79.87427,77.76417
"1489",31.95795,80.289314,78.175285
"1490",31.971283,80.80202,78.69703
"1491",31.984615,81.341576,79.26165
"1492",31.997952,81.80545,79.76745
"1493",32.011288,82.11795,80.13637
"1494",32.02462,82.2449,80.329506
"1495",32.037952,82.20096,80.35571
"1496",32.05129,82.03006,80.25359
"1497",32.064625,81.78104,80.06801
"1498",32.077957,81.50027,79.842896
"1499",32.09129,81.22682,79.61633
"1500",32.104626,80.987564,79.41541
"1501",32.11796,80.80202,79.26073
"1502",32.131294,80.67017,79.153946
"1503",32.144627,80.587166,79.09188
"1504",32.157963,80.53101,79.05408
"1505",32.1713,80.48707,79.026726
"1506",32.18463,80.448006,79.002884
"1507",32.197964,80.41871,78.98759
"1508",32.2113,80.411385,78.99335
"1509",32.224636,80.430916,79.025734
"1510",32.23797,80.479744,79.08803
"1511",32.2513,80.5481,79.17138
"1512",32.264637,80.61402,79.254425
"1513",32.277973,80.65797,79.31756
"1514",32.291306,80.67017,79.35033
"1515",32.304638,80.64332,79.34441
"1516",32.317974,80.584724,79.30592
"1517",32.33131,80.499275,79.23875
"1518",32.344643,80.396736,79.15181
"1519",32.357975,80.28443,79.0519
"1520",32.37131,80.164795,78.941154
"1521",32.384647,80.05005,78.83156
"1522",32.39798,79.940186,78.72326
"1523",32.411312,79.83276,78.61397
"1524",32.42465,79.73266,78.50864
"1525",32.437984,79.64721,78.41483
"1526",32.451317,79.571526,78.328125
"1527",32.46465,79.51293,78.25614
"1528",32.477985,79.466545,78.194534
"1529",32.49132,79.43481,78.146126
"1530",32.504654,79.412834,78.10649
"1531",32.517986,79.40063,78.075935
"1532",32.531322,79.395744,78.05232
"1533",32.54466,79.40795,78.04565
"1534",32.55799,79.42748,78.04668
"1535",32.571323,79.447014,78.04832
"1536",32.58466,79.4641,78.04813
"1537",32.597996,79.47387,78.041145
"1538",32.61133,79.47143,78.02226
"1539",32.62466,79.45678,77.9911
"1540",32.637997,79.43481,77.95215
"1541",32.651333,79.40551,77.90519
"1542",32.664665,79.364006,77.84511
"1543",32.677998,79.31762,77.77885
"1544",32.691334,79.276115,77.71602
"1545",32.70467,79.26635,77.68363
"1546",32.718002,79.344475,77.73883
"1547",32.731335,79.55932,77.93319
"1548",32.74467,79.94263,78.30273
"1549",32.758007,80.46998,78.828285
"1550",32.77134,81.08278,79.45577
"1551",32.78467,81.67849,80.08532
"1552",32.798008,82.15213,80.61141
"1553",32.811344,82.45243,80.978966
"1554",32.824677,82.562294,81.16547
"1555",32.83801,82.50614,81.189384
"1556",32.851345,82.3328,81.09436
"1557",32.86468,82.09354,80.92799
"1558",32.878014,81.83475,80.73463
"1559",32.891346,81.59304,80.550255
"1560",32.904682,81.40261,80.40961
"1561",32.91802,81.27322,80.32404
"1562",32.93135,81.20241,80.29302
"1563",32.944683,81.17311,80.3013
"1564",32.95802,81.15846,80.32331
"1565",32.971355,81.13649,80.33754
"1566",32.984688,81.094986,80.33155
"1567",32.99802,81.03395,80.30473
"1568",33.011356,80.970474,80.27357
"1569",33.024693,80.91676,80.25018
"1570",33.038025,80.8777,80.23977
"1571",33.051357,80.85817,80.247665
"1572",33.064693,80.848404,80.26472
"1573",33.07803,80.833755,80.27658
"1574",33.091362,80.80202,80.2709
"1575",33.104694,80.75075,80.24469
"1576",33.11803,80.6775,80.1949
"1577",33.131367,80.57984,80.118416
"1578",33.1447,80.46754,80.02423
"1579",33.15803,80.34547,79.91677
"1580",33.171368,80.216064,79.798164
"1581",33.184704,80.09155,79.680405
"1582",33.198036,79.971924,79.56364
"1583",33.21137,79.85718,79.44801
"1584",33.224705,79.74731,79.33368
"1585",33.23804,79.65453,79.23301
"1586",33.251373,79.569084,79.136765
"1587",33.264706,79.4934,79.047615
"1588",33.27804,79.42504,78.963425
"1589",33.291378,79.364006,78.88442
"1590",33.30471,79.31518,78.81572
"1591",33.318043,79.27123,78.750374
"1592",33.33138,79.24681,78.70318
"1593",33.344715,79.22972,78.66255
"1594",33.358047,79.22728,78.63604
"1595",33.37138,79.22972,78.614334
"1596",33.384716,79.23216,78.592705
"1597",33.398052,79.22728,78.56383
"1598",33.411385,79.21507,78.52747
"1599",33.424717,79.19066,78.47853
"1600",33.438053,79.15648,78.41906
"1601",33.45139,79.114975,78.3512
"1602",33.46472,79.063705,78.27227
"1603",33.478054,79.009995,78.1893
"1604",33.49139,78.96117,78.109535
"1605",33.504726,78.93431,78.05022
"1606",33.51806,78.96849,78.051094
"1607",33.53139,79.11742,78.167786
"1608",33.544727,79.4226,78.44539
"1609",33.558064,79.886475,78.89122
"1610",33.571396,80.462654,79.46385
"1611",33.58473,81.077896,80.09355
"1612",33.598064,81.62966,80.679
"1613",33.6114,82.037384,81.13765
"1614",33.624733,82.262,81.425934
"1615",33.638065,82.303505,81.538124
"1616",33.6514,82.19852,81.50512
"1617",33.664738,81.99344,81.368744
"1618",33.67807,81.73708,81.17468
"1619",33.691402,81.480736,80.97262
"1620",33.70474,81.26345,80.801605
"1621",33.718075,81.10475,80.68239
"1622",33.731407,81.004654,80.61681
"1623",33.74474,80.94606,80.589615
"1624",33.758076,80.90944,80.58256
"1625",33.77141,80.86549,80.56703
"1626",33.784744,80.80202,80.5306
"1627",33.798077,80.723885,80.47753
"1628",33.811413,80.64576,80.42203
"1629",33.82475,80.5774,80.37385
"1630",33.83808,80.533455,80.347946
"1631",33.851414,80.51148,80.34264
"1632",33.86475,80.50172,80.34886
"1633",33.878086,80.49195,80.354774
"1634",33.89142,80.46754,80.34573
"1635",33.90475,80.41871,80.311516
"1636",33.918087,80.34547,80.25136
"1637",33.931423,80.25025,80.16694
"1638",33.944756,80.13306,80.05756
"1639",33.958088,79.99878,79.927444
"1640",33.971424,79.85962,79.788246
"1641",33.98476,79.71801,79.64225
"1642",33.998093,79.57885,79.49428
"1643",34.011425,79.449455,79.35172
"1644",34.02476,79.327385,79.21245
"1645",34.038097,79.21507,79.07912
"1646",34.05143,79.114975,78.95449
"1647",34.064762,79.027084,78.83894
"1648",34.0781,78.9514,78.73286
"1649",34.091434,78.890366,78.63905
"1650",34.104767,78.839096,78.55311
"1651",34.1181,78.80003,78.47777
"1652",34.131435,78.77074,78.41097
"1653",34.14477,78.75365,78.35547
"1654",34.158104,78.74143,78.304306
"1655",34.171436,78.73167,78.25521
"1656",34.184772,78.71946,78.20337
"1657",34.19811,78.70725,78.151146
"1658",34.21144,78.69016,78.09366
"1659",34.224773,78.675514,78.03808
"1660",34.23811,78.65598,77.97716
"1661",34.251446,78.63157,77.91074
"1662",34.26478,78.60227,77.838684
"1663",34.27811,78.56321,77.75594
"1664",34.291447,78.51682,77.66466
"1665",34.304783,78.467995,77.56948
"1666",34.318115,78.42161,77.47522
"1667",34.331448,78.38743,77.391716
"1668",34.344784,78.37034,77.324234
"1669",34.35812,78.41184,77.31481
"1670",34.371452,78.56565,77.41899
"1671",34.384785,78.86595,77.67447
"1672",34.39812,79.32983,78.102905
"1673",34.411457,79.93286,78.685
"1674",34.42479,80.59449,79.34453
"1675",34.43812,81.20729,79.97591
"1676",34.451458,81.68337,80.489716
"1677",34.464794,81.95682,80.815765
"1678",34.478127,82.02762,80.947716
"1679",34.49146,81.92996,80.91342
"1680",34.504795,81.722435,80.766205
"1681",34.51813,81.461205,80.5588
"1682",34.531464,81.19997,80.34322
"1683",34.544796,80.970474,80.15123
"1684",34.558132,80.797134,80.00822
"1685",34.57147,80.67994,79.91593
"1686",34.5848,80.6067,79.86394
"1687",34.598133,80.56031,79.83651
"1688",34.61147,80.51881,79.812515
"1689",34.624805,80.46754,79.77746
"1690",34.638138,80.411385,79.735916
"1691",34.65147,80.365,79.702385
"1692",34.664806,80.34058,79.68938
"1693",34.678143,80.34791,79.707344
"1694",34.691475,80.377205,79.74751
"1695",34.704807,80.40406,79.786156
"1696",34.718143,80.40894,79.803665
"1697",34.73148,80.37965,79.78715
"1698",34.744812,80.323494,79.74286
"1699",34.758144,80.23804,79.66751
"1700",34.77148,80.14038,79.57729
"1701",34.784817,80.03784,79.47914
"1702",34.79815,79.93042,79.3729
"1703",34.81148,79.82544,79.26575
"1704",34.824818,79.72045,79.155304
"1705",34.838154,79.61791,79.04403
"1706",34.851486,79.517815,78.93199
"1707",34.86482,79.42016,78.81927
"1708",34.878155,79.327385,78.708374
"1709",34.89149,79.24925,78.60922
"1710",34.904823,79.18822,78.52473
"1711",34.918156,79.151596,78.46274
"1712",34.93149,79.12962,78.41425
"1713",34.944828,79.114975,78.372406
"1714",34.95816,79.10521,78.334984
"1715",34.971493,79.097885,78.2997
"1716",34.98483,79.08324,78.25686
"1717",34.998165,79.06615,78.21112
"1718",35.011497,79.04906,78.16485
"1719",35.02483,79.029526,78.1156
"1720",35.038166,79.00511,78.06086
"1721",35.051502,78.97826,78.002914
"1722",35.064835,78.94896,77.94169
"1723",35.078167,78.91722,77.877106
"1724",35.091503,78.88304,77.80909
"1725",35.10484,78.84886,77.740005
"1726",35.11817,78.82445,77.67962
"1727",35.131504,78.82445,77.64288
"1728",35.14484,78.87572,77.65742
"1729",35.158176,79.01488,77.761444
"1730",35.17151,79.28832,78.004105
"1731",35.18484,79.70336,78.396904
"1732",35.198177,80.22827,78.912544
"1733",35.211514,80.79469,79.4861
"1734",35.224846,81.31716,80.0334
"1735",35.23818,81.705345,80.462746
"1736",35.251514,81.91531,80.726006
"1737",35.26485,81.94461,80.815155
"1738",35.278183,81.83475,80.76606
"1739",35.291515,81.63943,80.628075
"1740",35.30485,81.41726,80.45714
"1741",35.318188,81.21706,80.30122
"1742",35.33152,81.07301,80.19521
"1743",35.344852,80.99489,80.15062
"1744",35.35819,80.96559,80.15241
"1745",35.371525,80.95827,80.17526
"1746",35.384857,80.95094,80.19788
"1747",35.39819,80.919205,80.19586
"1748",35.411526,80.86305,80.168434
"1749",35.424862,80.799576,80.13193
"1750",35.438194,80.7483,80.10564
"1751",35.451527,80.719,80.099724
"1752",35.464863,80.71168,80.11487
"1753",35.4782,80.71412,80.13955
"1754",35.49153,80.70435,80.1521
"1755",35.504864,80.672615,80.14237
"1756",35.5182,80.60914,80.099915
"1757",35.531536,80.516365,80.02618
"1758",35.54487,80.396736,79.92268
"1759",35.5582,80.26246,79.800804
"1760",35.571537,80.12085,79.6674
"1761",35.584873,79.98413,79.534454
"1762",35.598206,79.852295,79.40212
"1763",35.611538,79.7351,79.28031
"1764",35.624874,79.62524,79.16217
"1765",35.63821,79.520256,79.04548
"1766",35.651543,79.412834,78.923065
"1767",35.664875,79.310295,78.80218
"1768",35.67821,79.20775,78.67808
"1769",35.691547,79.10765,78.55322
"1770",35.70488,79.012436,78.43012
"1771",35.718212,78.92943,78.31625
"1772",35.73155,78.86107,78.21444
"1773",35.744884,78.802475,78.120255
"1774",35.758217,78.75365,78.034004
"1775",35.77155,78.709694,77.9511
"1776",35.784885,78.67063,77.87172
"1777",35.79822,78.626686,77.78623
"1778",35.811554,78.57786,77.69449
"1779",35.824886,78.52903,77.60122
"1780",35.838223,78.47532,77.50154
"1781",35.85156,78.42405,77.402626
"1782",35.86489,78.37766,77.30699
"1783",35.878223,78.35081,77.22944
"1784",35.89156,78.363014,77.19011
"1785",35.904896,78.44846,77.2244
"1786",35.91823,78.64866,77.376114
"1787",35.93156,78.99046,77.67569
"1788",35.944897,79.47143,78.12511
"1789",35.958233,80.042725,78.679886
"1790",35.971565,80.62623,79.264725
"1791",35.984898,81.13161,79.78967
"1792",35.998234,81.48562,80.17905
"1793",36.01157,81.65896,80.39881
"1794",36.024902,81.671165,80.46286
"1795",36.038235,81.5613,80.40522
"1796",36.05157,81.392845,80.28555
"1797",36.064907,81.2195,80.15573
"1798",36.07824,81.08034,80.05468
"1799",36.09157,80.99489,80.00299
"1800",36.104908,80.96559,80.00478
"1801",36.118244,80.9778,80.047165
"1802",36.131577,80.99245,80.09237
"1803",36.14491,80.98268,80.11362
"1804",36.158245,80.92409,80.08573
"1805",36.17158,80.81911,80.00963
"1806",36.184914,80.689705,79.90582
"1807",36.198246,80.56031,79.79798
"1808",36.211582,80.462654,79.717834
"1809",36.22492,80.40406,79.6737
"1810",36.23825,80.38941,79.67168
"1811",36.251583,80.39185,79.68629
"1812",36.26492,80.39185,79.69853
"1813",36.278255,80.36988,79.688805
"1814",36.291588,80.31617,79.64665
"1815",36.30492,80.22583,79.56619
"1816",36.318256,80.10376,79.45118
"1817",36.331593,79.9646,79.31526
"1818",36.344925,79.815674,79.16523
"1819",36.358257,79.674065,79.01786
"1820",36.371593,79.54711,78.88072
"1821",36.38493,79.43481,78.754265
"1822",36.398262,79.33959,78.64139
"1823",36.411594,79.2517,78.53286
"1824",36.42493,79.166245,78.42402
"1825",36.438267,79.080795,78.312515
"1826",36.4516,78.995346,78.19834
"1827",36.46493,78.91234,78.08394
"1828",36.478268,78.83421,77.971825
"1829",36.491604,78.77318,77.87436
"1830",36.504936,78.72678,77.78963
"1831",36.51827,78.695045,77.7181
"1832",36.531605,78.67307,77.65535
"1833",36.54494,78.65598,77.596794
"1834",36.558273,78.63645,77.53526
"1835",36.571606,78.61448,77.47068
"1836",36.58494,78.59251,77.40541
"1837",36.598278,78.572975,77.341896
"1838",36.61161,78.553444,77.27777
"1839",36.624943,78.53391,77.213036
"1840",36.63828,78.50706,77.140366
"1841",36.651615,78.4802,77.06686
"1842",36.664948,78.44602,76.98518
"1843",36.67828,78.41428,76.904884
"1844",36.691616,78.38499,76.826035
"1845",36.704952,78.36057,76.75115
"1846",36.718285,78.3386,76.67795
"1847",36.731617,78.31663,76.60406
"1848",36.744953,78.294655,76.52948
"1849",36.75829,78.27024,76.451775
"1850",36.77162,78.25559,76.38307
"1851",36.784954,78.27512,76.34809
"1852",36.79829,78.37522,76.39429
"1853",36.811626,78.61204,76.58033
"1854",36.82496,79.029526,76.954445
"1855",36.83829,79.63012,77.52471
"1856",36.851627,80.36744,78.25047
"1857",36.864964,81.143814,79.03833
"1858",36.878296,81.85184,79.7821
"1859",36.89163,82.39872,80.38685
"1860",36.904964,82.72587,80.788956
"1861",36.9183,82.84062,80.98889
"1862",36.931633,82.78691,81.02395
"1863",36.944965,82.62333,80.94746
"1864",36.9583,82.423134,80.82924
"1865",36.971638,82.24002,80.72185
"1866",36.98497,82.11307,80.664894
"1867",36.998302,82.056915,80.674774
"1868",37.01164,82.06424,80.746376
"1869",37.024975,82.10574,80.85239
"1870",37.038307,82.14725,80.959694
"1871",37.05164,82.14969,81.029236
"1872",37.064976,82.09354,81.04026
"1873",37.078312,81.98367,80.99582
"1874",37.091644,81.83475,80.90888
"1875",37.104977,81.671165,80.802635
"1876",37.118313,81.52468,80.708374
"1877",37.13165,81.409935,80.64127
"1878",37.14498,81.31716,80.59256
"1879",37.158314,81.24147,80.55803
"1880",37.17165,81.16579,80.52114
"1881",37.184986,81.08522,80.477005
"1882",37.19832,80.98268,80.40838
"1883",37.21165,80.85573,80.31213
"1884",37.224987,80.709236,80.19238
"1885",37.238323,80.550545,80.055855
"1886",37.251656,80.38209,79.9046
"1887",37.264988,80.216064,79.75052
"1888",37.278324,80.05737,79.59858
"1889",37.29166,79.906006,79.449005
"1890",37.304993,79.75952,79.29958
"1891",37.318325,79.61791,79.15046
"1892",37.33166,79.483635,79.00424
"1893",37.344997,79.361565,78.866035
"1894",37.35833,79.24925,78.73377
"1895",37.371662,79.14671,78.60777
"1896",37.385,79.05882,78.49322
"1897",37.398335,78.98314,78.38812
"1898",37.411667,78.922104,78.29531
"1899",37.425,78.870834,78.21036
"1900",37.438335,78.82933,78.13357
"1901",37.45167,78.79515,78.062805
"1902",37.465004,78.768295,77.9983
"1903",37.478336,78.74143,77.932945
"1904",37.491673,78.712135,77.86432
"1905",37.50501,78.68284,77.79478
"1906",37.51834,78.6511,77.72188
"1907",37.531673,78.6096,77.63822
"1908",37.54501,78.56565,77.55083
"1909",37.558346,78.521706,77.46206
"1910",37.57168,78.470436,77.36459
"1911",37.58501,78.416725,77.263084
"1912",37.598347,78.363014,77.1599
"1913",37.611683,78.314186,77.05991
"1914",37.625015,78.27024,76.96329
"1915",37.638348,78.23361,76.872604
"1916",37.651684,78.20676,76.79055
"1917",37.66502,78.187225,76.71498
"1918",37.678352,78.17258,76.643684
"1919",37.691685,78.16281,76.57681
"1920",37.70502,78.16037,76.51696
"1921",37.718357,78.15549,76.45459
"1922",37.73169,78.15793,76.39939
"1923",37.74502,78.15793,76.34183
"1924",37.758358,78.16037,76.286705
"1925",37.771694,78.16037,76.22922
"1926",37.785027,78.16037,76.17173
"1927",37.79836,78.170135,76.12401
"1928",37.811695,78.21164,76.10833
"1929",37.82503,78.33616,76.17696
"1930",37.838364,78.60227,76.39108
"1931",37.851696,79.0515,76.79663
"1932",37.865032,79.68139,77.39688
"1933",37.87837,80.43824,78.143776
"1934",37.8917,81.22682,78.94605
"1935",37.905033,81.92752,79.68509
"1936",37.91837,82.44755,80.26535
"1937",37.931705,82.75273,80.64702
"1938",37.945038,82.847946,80.828255
"1939",37.95837,82.77226,80.84157
"1940",37.971706,82.58427,80.740204
"1941",37.985043,82.34501,80.5817
"1942",37.998375,82.1033,80.41328
"1943",38.011707,81.900665,80.27637
"1944",38.025043,81.75906,80.19416
"1945",38.03838,81.68337,80.17344
"1946",38.051712,81.66384,80.20651
"1947",38.065044,81.671165,80.26583
"1948",38.07838,81.668724,80.31561
"1949",38.091717,81.634544,80.33358
"1950",38.10505,81.57107,80.32118
"1951",38.11838,81.48318,80.28239
"1952",38.131718,81.38552,80.23108
"1953",38.145054,81.29763,80.186485
"1954",38.158386,81.22438,80.153786
"1955",38.17172,81.16579,80.13345
"1956",38.185055,81.112076,80.11617
"1957",38.19839,81.05104,80.08989
"1958",38.211723,80.9778,80.04949
"1959",38.225056,80.88258,79.98483
"1960",38.23839,80.76051,79.89034
"1961",38.251728,80.61402,79.76762
"1962",38.26506,80.45289,79.62567
"1963",38.278393,80.28199,79.468925
"1964",38.29173,80.10864,79.30439
"1965",38.305065,79.937744,79.13689
"1966",38.318398,79.77417,78.97137
"1967",38.33173,79.622795,78.812935
"1968",38.345066,79.48608,78.66443
"1969",38.358402,79.364006,78.5263
"1970",38.371735,79.25414,78.39656
"1971",38.385067,79.15892,78.27803
"1972",38.398403,79.07591,78.16874
"1973",38.41174,79.00267,78.06662
"1974",38.42507,78.93919,77.97198
"1975",38.438404,78.88304,77.882675
"1976",38.45174,78.836655,77.801384
"1977",38.465076,78.802475,77.73085
"1978",38.47841,78.77562,77.66657
"1979",38.49174,78.75365,77.60634
"1980",38.505077,78.73899,77.552734
"1981",38.518414,78.7219,77.49624
"1982",38.531746,78.70237,77.43677
"1983",38.54508,78.677956,77.3718
"1984",38.558414,78.64866,77.30119
"1985",38.57175,78.6096,77.2199
"1986",38.585083,78.56077,77.127625
"1987",38.598415,78.5095,77.03138
"1988",38.61175,78.45335,76.92865
"1989",38.625088,78.397194,76.824165
"1990",38.63842,78.345924,76.72281
"1991",38.651752,78.30442,76.629616
"1992",38.66509,78.27268,76.54489
"1993",38.678425,78.24582,76.46405
"1994",38.691757,78.22873,76.39214
"1995",38.70509,78.2092,76.31726
"1996",38.718426,78.19455,76.24665
"1997",38.731762,78.1799,76.17558
"1998",38.745094,78.167694,76.1065
"1999",38.758427,78.150604,76.03215
"2000",38.771763,78.1384,75.96215
"2001",38.7851,78.133514,75.89909
"2002",38.79843,78.153046,75.8603
"2003",38.811764,78.24094,75.89047
"2004",38.8251,78.450905,76.04547
"2005",38.838436,78.82689,76.37305
"2006",38.85177,79.38598,76.89548
"2007",38.8651,80.08911,77.57942
"2008",38.878437,80.848404,78.3415
"2009",38.891773,81.55398,79.073586
"2010",38.905106,82.10574,79.67391
"2011",38.918438,82.44511,80.07908
"2012",38.931774,82.56718,80.27756
"2013",38.94511,82.5037,80.294304
"2014",38.958443,82.31083,80.17967
"2015",38.971775,82.04715,79.988205
"2016",38.98511,81.761505,79.76653
"2017",38.998447,81.50027,79.56034
"2018",39.01178,81.29519,79.402145
"2019",39.025112,81.15358,79.30101
"2020",39.03845,81.07301,79.25649
"2021",39.051785,81.02663,79.24364
"2022",39.065117,80.987564,79.23666
"2023",39.07845,80.94118,79.22113
"2024",39.091785,80.8777,79.187065
"2025",39.10512,80.8069,79.14369
"2026",39.118454,80.75075,79.112755
"2027",39.131786,80.71656,79.10203
"2028",39.145123,80.70191,79.10977
"2029",39.15846,80.70191,79.13171
"2030",39.17179,80.69703,79.14876
"2031",39.185123,80.67506,79.14857
"2032",39.19846,80.63355,79.12816
"2033",39.211796,80.56275,79.077156
"2034",39.22513,80.46021,78.9922
"2035",39.23846,80.33814,78.884514
"2036",39.251797,80.19409,78.75103
"2037",39.265133,80.0354,78.598404
"2038",39.278465,79.869385,78.433495
"2039",39.291798,79.710686,78.27071
"2040",39.305134,79.55932,78.110306
"2041",39.31847,79.42016,77.957375
"2042",39.331802,79.29809,77.817184
"2043",39.345135,79.18822,77.68538
"2044",39.35847,79.08812,77.55991
"2045",39.371807,79.00023,77.44353
"2046",39.38514,78.922104,77.33416
"2047",39.39847,78.85863,77.237
"2048",39.411808,78.81468,77.15739
"2049",39.425144,78.78783,77.09349
"2050",39.438477,78.77806,77.045845
"2051",39.45181,78.77562,77.00522
"2052",39.465145,78.7805,76.97184
"2053",39.47848,78.78294,76.93617
"2054",39.491814,78.7805,76.8957
"2055",39.505146,78.77562,76.85271
"2056",39.518482,78.76097,76.7998
"2057",39.53182,78.74387,76.74398
"2058",39.54515,78.71946,76.68031
"2059",39.558483,78.68528,76.60612
"2060",39.57182,78.641335,76.52109
"2061",39.585155,78.59251,76.4298
"2062",39.598488,78.54124,76.33455
"2063",39.61182,78.48997,76.23769
"2064",39.625156,78.44114,76.14168
"2065",39.638493,78.399635,76.05146
"2066",39.651825,78.36057,75.96239
"2067",39.665157,78.3386,75.88918
"2068",39.678493,78.37278,75.871445
"2069",39.69183,78.50706,75.95487
"2070",39.705162,78.79759,76.19875
"2071",39.718494,79.25414,76.61773
"2072",39.73183,79.84253,77.18281
"2073",39.745167,80.479744,77.8151
"2074",39.7585,81.06325,78.4136
"2075",39.77183,81.51003,78.89361
"2076",39.785168,81.76395,79.19471
"2077",39.798504,81.832306,79.31819
"2078",39.811836,81.739525,79.28267
"2079",39.82517,81.53689,79.13439
"2080",39.838505,81.27322,78.91875
"2081",39.85184,80.99733,78.68265
"2082",39.865173,80.74586,78.46234
"2083",39.878506,80.5481,78.287895
"2084",39.89184,80.411385,78.168304
"2085",39.905178,80.325935,78.09571
"2086",39.91851,80.26734,78.0473
"2087",39.931843,80.22339,78.0117
"2088",39.94518,80.181885,77.97718
"2089",39.958515,80.14526,77.94624
"2090",39.971848,80.12329,77.92881
"2091",39.98518,80.130615,77.93999
"2092",39.998516,80.17212,77.98557
"2093",40.011852,80.22583,78.04466
"2094",40.025185,80.28199,78.10788
"2095",40.038517,80.31129,78.14599
"2096",40.051853,80.308846,78.153275
"2097",40.06519,80.26978,78.12386
"2098",40.07852,80.19653,78.059044
"2099",40.091854,80.096436,77.96509
"2100",40.10519,79.98169,77.853355
"2101",40.118526,79.84985,77.72095
"2102",40.13186,79.708244,77.574646
"2103",40.14519,79.571526,77.42881
"2104",40.158527,79.44213,77.286026
"2105",40.171864,79.32983,77.15629
"2106",40.185196,79.234604,77.04012
"2107",40.19853,79.15648,76.93808
"2108",40.211864,79.08812,76.84336
"2109",40.2252,79.027084,76.75383
"2110",40.238533,78.97337,76.669716
"2111",40.251865,78.92943,76.59369
"2112",40.2652,78.89769,76.528496
"2113",40.278538,78.88304,76.4794
"2114",40.29187,78.87816,76.43961
"2115",40.305202,78.8806,76.407
"2116",40.31854,78.890366,76.38178
"2117",40.331875,78.89769,76.35443
"2118",40.345207,78.905014,76.32731
"2119",40.35854,78.9099,76.29797
"2120",40.371876,78.9099,76.26391
"2121",40.385212,78.90257,76.22252
"2122",40.398544,78.890366,76.17602
"2123",40.411877,78.86839,76.11937
"2124",40.425213,78.84398,76.05959
"2125",40.43855,78.81224,75.99173
"2126",40.45188,78.785385,75.92776
"2127",40.465214,78.751205,75.85562
"2128",40.47855,78.72434,75.789734
"2129",40.491886,78.71946,75.74499
"2130",40.50522,78.785385,75.7709
"2131",40.51855,78.96849,75.916046
"2132",40.531887,79.31762,76.23294
"2133",40.545223,79.82544,76.71944
"2134",40.558556,80.45045,77.33899
"2135",40.571888,81.09987,78.00249
"2136",40.585224,81.66628,78.60327
"2137",40.59856,82.06424,79.0533
"2138",40.611893,82.25956,79.313126
"2139",40.625225,82.262,79.38618
"2140",40.63856,82.11795,79.31281
"2141",40.651897,81.88602,79.147064
"2142",40.66523,81.62478,78.94476
"2143",40.678562,81.38552,78.75628
"2144",40.6919,81.197525,78.61158
"2145",40.705235,81.075455,78.52693
"2146",40.718567,81.01198,78.49706
"2147",40.7319,80.990005,78.506714
"2148",40.745235,80.98268,78.53033
"2149",40.75857,80.96803,78.54639
"2150",40.771904,80.92897,78.537575
"2151",40.785236,80.86305,78.50069
"2152",40.798573,80.782486,78.44709
"2153",40.81191,80.70191,78.39097
"2154",40.82524,80.64088,78.35187
"2155",40.838573,80.6067,78.337715
"2156",40.85191,80.59937,78.34935
"2157",40.865246,80.59937,78.36808
"2158",40.87858,80.59205,78.379486
"2159",40.89191,80.56275,78.36869
"2160",40.905247,80.499275,78.3228
"2161",40.918583,80.40406,78.24319
"2162",40.931915,80.289314,78.14107
"2163",40.945248,80.164795,78.02559
"2164",40.958584,80.045166,77.91111
"2165",40.97192,79.9353,77.80266
"2166",40.985252,79.83032,77.695656
"2167",40.998585,79.73754,77.59757
"2168",41.01192,79.64965,77.50148
"2169",41.025257,79.56664,77.407524
"2170",41.03859,79.4934,77.32074
"2171",41.05192,79.42748,77.23899
"2172",41.065258,79.37621,77.16983
"2173",41.078594,79.33227,77.10639
"2174",41.091927,79.30053,77.05379
"2175",41.10526,79.27856,77.00996
"2176",41.118595,79.26147,76.97032
"2177",41.13193,79.24925,76.93503
"2178",41.145264,79.234604,76.89692
"2179",41.158596,79.217514,76.85591
"2180",41.171932,79.202866,76.81681
"2181",41.18527,79.19066,76.77969
"2182",41.1986,79.183334,76.74708
"2183",41.211933,79.17357,76.71179
"2184",41.22527,79.15892,76.67132
"2185",41.238605,79.13451,76.62062
"2186",41.251938,79.10277,76.56184
"2187",41.26527,79.063705,76.494736
"2188",41.278606,79.02464,76.426414
"2189",41.291943,78.99046,76.361755
"2190",41.305275,78.95384,76.29359
"2191",41.318607,78.91478,76.22183
"2192",41.331944,78.8806,76.15374
"2193",41.34528,78.85863,76.09679
"2194",41.358612,78.873276,76.07577
"2195",41.371944,78.96849,76.13577
"2196",41.38528,79.1931,76.32815
"2197",41.398617,79.57641,76.68624
"2198",41.41195,80.09888,77.19547
"2199",41.42528,80.706795,77.80648
"2200",41.438618,81.30251,78.424286
"2201",41.451954,81.78592,78.948395
"2202",41.465286,82.091095,79.30938
"2203",41.47862,82.19852,79.48215
"2204",41.491955,82.13016,79.48249
"2205",41.50529,81.94217,79.36107
"2206",41.518623,81.6907,79.17029
"2207",41.531956,81.43435,78.966774
"2208",41.54529,81.21217,78.78942
"2209",41.558628,81.05104,78.66617
"2210",41.57196,80.953384,78.60136
"2211",41.585293,80.919205,78.59697
"2212",41.59863,80.919205,78.625694
"2213",41.611965,80.92409,78.6593
"2214",41.625298,80.90456,78.66865
"2215",41.63863,80.85329,78.645645
"2216",41.651966,80.77272,78.59174
"2217",41.665302,80.6775,78.52067
"2218",41.678635,80.58961,78.45395
"2219",41.691967,80.52369,78.406456
"2220",41.705303,80.48463,78.38376
"2221",41.71864,80.462654,78.37693
"2222",41.73197,80.44312,78.37186
"2223",41.745304,80.41871,78.36129
"2224",41.75864,80.377205,78.33287
"2225",41.771976,80.31617,78.28362
"2226",41.78531,80.24048,78.21781
"2227",41.79864,80.15015,78.134995
"2228",41.811977,80.04761,78.03715
"2229",41.825314,79.94263,77.933655
"2230",41.838646,79.84009,77.82932
"2231",41.85198,79.744865,77.7291
"2232",41.865314,79.656975,77.63324
"2233",41.87865,79.57397,77.53951
"2234",41.891983,79.49584,77.448074
"2235",41.905315,79.4226,77.35908
"2236",41.91865,79.35912,77.27756
"2237",41.931988,79.310295,77.2087
"2238",41.94532,79.26879,77.145645
"2239",41.958652,79.24193,77.09593
"2240",41.97199,79.217514,77.04783
"2241",41.985325,79.200424,77.00629
"2242",41.998657,79.19066,76.971535
"2243",42.01199,79.183334,76.93892
"2244",42.025326,79.183334,76.9134
"2245",42.038662,79.185776,76.89032
"2246",42.051994,79.18822,76.86732
"2247",42.065327,79.18822,76.84195
"2248",42.078663,79.18089,76.80926
"2249",42.092,79.17113,76.773895
"2250",42.10533,79.151596,76.72846
"2251",42.118664,79.12718,76.677536
"2252",42.132,79.10033,76.623405
"2253",42.145336,79.07591,76.57088
"2254",42.15867,79.0515,76.517586
"2255",42.172,79.02464,76.46109
"2256",42.185337,78.99779,76.403755
"2257",42.198673,78.97093,76.34558
"2258",42.212006,78.94408,76.28657
"2259",42.225338,78.91966,76.22916
"2260",42.238674,78.90013,76.175865
"2261",42.25201,78.88304,76.124405
"2262",42.265343,78.8806,76.08706
"2263",42.278675,78.90013,76.07161
"2264",42.29201,78.97337,76.11048
"2265",42.305347,79.14671,76.25174
"2266",42.31868,79.466545,76.54491
"2267",42.332012,79.940186,77.00188
"2268",42.34535,80.52857,77.588394
"2269",42.358685,81.15114,78.22748
"2270",42.372017,81.70779,78.8201
"2271",42.38535,82.11307,79.27875
"2272",42.398685,82.30839,79.5401
"2273",42.41202,82.303505,79.60735
"2274",42.425354,82.142365,79.518196
"2275",42.438686,81.883575,79.326355
"2276",42.452023,81.59304,79.09468
"2277",42.46536,81.324486,78.87591
"2278",42.47869,81.10719,78.700005
"2279",42.492023,80.96803,78.59544
"2280",42.50536,80.89479,78.55245
"2281",42.518696,80.87526,78.56088
"2282",42.53203,80.8777,78.590675
"2283",42.54536,80.88014,78.620544
"2284",42.558697,80.86061,78.62852
"2285",42.572033,80.814224,78.609024
"2286",42.585365,80.75319,78.57343
"2287",42.598698,80.68726,78.531044
"2288",42.612034,80.635994,78.50125
"2289",42.62537,80.601814,78.486946
"2290",42.638702,80.584724,78.48866
"2291",42.652035,80.57252,78.49473
"2292",42.66537,80.552986,78.49309
"2293",42.678707,80.52125,78.47863
"2294",42.69204,80.47486,78.44853
"2295",42.70537,80.4065,78.39501
"2296",42.718708,80.31617,78.31738
"2297",42.732044,80.21362,78.22472
"2298",42.745377,80.10376,78.12153
"2299",42.75871,79.98657,78.00758
"2300",42.772045,79.871826,77.89242
"2301",42.78538,79.764404,77.78099
"2302",42.798714,79.66674,77.675964
"2303",42.812046,79.586174,77.584984
"2304",42.825382,79.52514,77.51102
"2305",42.83872,79.47387,77.44491
"2306",42.85205,79.43481,77.389404
"2307",42.865383,79.40551,77.342445
"2308",42.87872,79.381096,77.29945
"2309",42.892056,79.36645,77.265465
"2310",42.905388,79.35912,77.23834
"2311",42.91872,79.35424,77.21343
"2312",42.932056,79.35668,77.195694
"2313",42.945393,79.35424,77.17315
"2314",42.958725,79.34936,77.14809
"2315",42.972057,79.34692,77.12531
"2316",42.985394,79.33959,77.09758
"2317",42.99873,79.327385,77.064735
"2318",43.012062,79.31274,77.02907
"2319",43.025394,79.293205,76.98806
"2320",43.03873,79.26879,76.94156
"2321",43.052067,79.23949,76.889404
"2322",43.0654,79.21019,76.83634
"2323",43.07873,79.18089,76.782364
"2324",43.092068,79.151596,76.72747
"2325",43.105404,79.12474,76.6741
"2326",43.118736,79.10521,76.62722
"2327",43.13207,79.080795,76.574844
"2328",43.145405,79.05882,76.52415
"2329",43.15874,79.03685,76.47276
"2330",43.172073,79.01732,76.423134
"2331",43.185406,79.00267,76.37778
"2332",43.198742,78.992905,76.336845
"2333",43.21208,78.99046,76.30293
"2334",43.22541,79.00023,76.28115
"2335",43.238743,79.05882,76.3085
"2336",43.25208,79.219955,76.44022
"2337",43.265415,79.53002,76.725914
"2338",43.278748,79.99634,77.17754
"2339",43.29208,80.584724,77.765816
"2340",43.305416,81.21217,78.41154
"2341",43.318752,81.76639,79.00363
"2342",43.332085,82.15701,79.449455
"2343",43.345417,82.337685,79.69753
"2344",43.358753,82.31815,79.75105
"2345",43.37209,82.142365,79.647705
"2346",43.38542,81.87137,79.44366
"2347",43.398754,81.566185,79.19695
"2348",43.41209,81.27322,78.95293
"2349",43.425426,81.02663,78.746124
"2350",43.43876,80.84108,78.59266
"2351",43.45209,80.72877,78.50663
"2352",43.465427,80.67017,78.47081
"2353",43.478764,80.65308,78.47466
"2354",43.492096,80.64332,78.485306
"2355",43.50543,80.63111,78.4932
"2356",43.518764,80.60914,78.49095
"2357",43.5321,80.584724,78.48557
"2358",43.545433,80.567635,78.486755
"2359",43.558765,80.567635,78.50449
"2360",43.5721,80.58228,78.53688
"2361",43.585438,80.604256,78.57705
"2362",43.59877,80.61158,78.60326
"2363",43.612103,80.59937,78.61016
"2364",43.62544,80.567635,78.59715
"2365",43.638775,80.50416,78.551414
"2366",43.652107,80.42603,78.489044
"2367",43.66544,80.33326,78.409584
"2368",43.678776,80.235596,78.322334
"2369",43.692112,80.13306,78.22716
"2370",43.705444,80.03052,78.12878
"2371",43.718777,79.93286,78.032074
"2372",43.732113,79.84009,77.9372
"2373",43.74545,79.75464,77.846756
"2374",43.75878,79.67895,77.7634
"2375",43.772114,79.61791,77.69233
"2376",43.78545,79.569084,77.63156
"2377",43.798786,79.53246,77.581474
"2378",43.81212,79.50317,77.53757
"2379",43.82545,79.47875,77.49763
"2380",43.838787,79.46166,77.46425
"2381",43.852123,79.44457,77.430336
"2382",43.865456,79.43725,77.405655
"2383",43.878788,79.432365,77.38319
"2384",43.892124,79.43481,77.36789
"2385",43.90546,79.44213,77.35755
"2386",43.918793,79.45434,77.352325
"2387",43.932125,79.466545,77.34748
"2388",43.94546,79.47631,77.340576
"2389",43.958797,79.47631,77.32421
"2390",43.97213,79.4641,77.29564
"2391",43.985462,79.43725,77.25204
"2392",43.9988,79.40551,77.20271
"2393",44.012135,79.364006,77.14263
"2394",44.025467,79.3225,77.08125
"2395",44.0388,79.28588,77.02346
"2396",44.052135,79.25414,76.969406
"2397",44.06547,79.22728,76.919235
"2398",44.078804,79.202866,76.870674
"2399",44.092136,79.18089,76.82379
"2400",44.105473,79.15648,76.77378
"2401",44.11881,79.12962,76.720566
"2402",44.132137,79.10277,76.66651
"2403",44.145473,79.08324,76.61894
"2404",44.158802,79.080795,76.58785
"2405",44.17214,79.13695,76.61528
"2406",44.185467,79.29809,76.74945
"2407",44.198803,79.605705,77.03513
"2408",44.21213,80.0647,77.481804
"2409",44.225468,80.638435,78.05756
"2410",44.238796,81.248795,78.687874
"2411",44.252132,81.7908,79.268906
"2412",44.26546,82.18143,79.71549
"2413",44.278797,82.37675,79.97898
"2414",44.292126,82.38407,80.06058
"2415",44.30546,82.23514,79.986145
"2416",44.31879,81.991,79.81185
"2417",44.332127,81.69314,79.57621
"2418",44.345455,81.39773,79.33371
"2419",44.35879,81.13161,79.11127
"2420",44.37212,80.919205,78.93423
"2421",44.385456,80.77028,78.814026
"2422",44.398785,80.67506,78.742874
"2423",44.41212,80.61402,78.702934
"2424",44.42545,80.570076,78.67818
"2425",44.438786,80.533455,78.65937
"2426",44.452114,80.5066,78.649185
"2427",44.46545,80.499275,78.65769
"2428",44.47878,80.516365,78.690384
"2429",44.492115,80.56519,78.75535
"2430",44.505444,80.63355,78.84137
"2431",44.51878,80.70435,78.93197
"2432",44.53211,80.75319,79.002815
"2433",44.545444,80.76784,79.041
"2434",44.558773,80.73609,79.03325
"2435",44.57211,80.66285,78.98301
"2436",44.585438,80.56275,78.903625
"2437",44.598774,80.44068,78.79914
"2438",44.612103,80.31129,78.68352
"2439",44.62544,80.18677,78.568726
"2440",44.638767,80.07202,78.459816
"2441",44.652103,79.96704,78.357086
"2442",44.665432,79.87427,78.26328
"2443",44.67877,79.7937,78.17879
"2444",44.692097,79.71801,78.09665
"2445",44.705433,79.64721,78.01704
"2446",44.71876,79.57885,77.93765
"2447",44.732098,79.52514,77.87078
"2448",44.745426,79.48119,77.812
"2449",44.758762,79.45434,77.76893
"2450",44.77209,79.44213,77.73967
"2451",44.785427,79.44213,77.72224
"2452",44.798756,79.449455,77.71213
"2453",44.81209,79.45922,77.70469
"2454",44.82542,79.46899,77.697556
"2455",44.838757,79.47631,77.688286
"2456",44.852085,79.47631,77.67192
"2457",44.86542,79.47143,77.65067
"2458",44.87875,79.45922,77.62195
"2459",44.892086,79.44213,77.58796
"2460",44.905415,79.41772,77.54611
"2461",44.91875,79.38598,77.49618
"2462",44.93208,79.34936,77.44037
"2463",44.945415,79.31274,77.383415
"2464",44.958744,79.26879,77.31799
"2465",44.97208,79.23216,77.258514
"2466",44.98541,79.202866,77.20522
"2467",44.998745,79.202866,77.18031
"2468",45.012074,79.273674,77.22621
"2469",45.02541,79.46899,77.39883
"2470",45.03874,79.818115,77.73136
"2471",45.052074,80.308846,78.21641
"2472",45.065403,80.89235,78.80956
"2473",45.07874,81.47585,79.42095
"2474",45.092068,81.95438,79.945595
"2475",45.105404,82.262,80.31429
"2476",45.118732,82.38163,80.50461
"2477",45.13207,82.3328,80.530205
"2478",45.145397,82.159454,80.429756
"2479",45.158733,81.91531,80.2531
"2480",45.172062,81.651634,80.04927
"2481",45.1854,81.39773,79.84698
"2482",45.198727,81.1902,79.68313
"2483",45.212063,81.03639,79.56651
"2484",45.22539,80.938736,79.50124
"2485",45.238728,80.88014,79.471985
"2486",45.252056,80.84108,79.46043
"2487",45.265392,80.80446,79.45009
"2488",45.27872,80.765396,79.436165
"2489",45.292057,80.726326,79.42101
"2490",45.305386,80.70435,79.42174
"2491",45.31872,80.71412,79.453514
"2492",45.33205,80.7483,79.51001
"2493",45.345387,80.79469,79.57979
"2494",45.358715,80.833755,79.643684
"2495",45.37205,80.848404,79.68439
"2496",45.38538,80.82399,79.686485
"2497",45.398716,80.765396,79.65364
"2498",45.412045,80.6775,79.58966
"2499",45.42538,80.570076,79.50341
"2500",45.43871,80.45045,79.401596
"2501",45.452045,80.323494,79.28872
"2502",45.465374,80.19653,79.17187
"2503",45.47871,80.07446,79.05594
"2504",45.49204,79.96216,78.94596
"2505",45.505375,79.86206,78.84468
"2506",45.518703,79.77417,78.75248
"2507",45.53204,79.69604,78.66729
"2508",45.54537,79.62524,78.58699
"2509",45.558704,79.5642,78.514244
"2510",45.572033,79.517815,78.45424
"2511",45.58537,79.483635,78.40499
"2512",45.598698,79.4641,78.36932
"2513",45.612034,79.45678,78.34525
"2514",45.625362,79.46166,78.33316
"2515",45.6387,79.47387,78.328545
"2516",45.652027,79.4934,78.331635
"2517",45.665363,79.517815,78.34022
"2518",45.67869,79.54711,78.35445
"2519",45.692028,79.57641,78.36959
"2520",45.705357,79.603264,78.38321
"2521",45.718693,79.62524,78.392784
"2522",45.73202,79.639885,78.39572
"2523",45.745358,79.639885,78.38447
"2524",45.758686,79.635,78.36833
"2525",45.772022,79.62524,78.34716
"2526",45.78535,79.61791,78.328125
"2527",45.798687,79.61303,78.3113
"2528",45.812016,79.61791,78.30409
"2529",45.82535,79.635,78.30924
"2530",45.83868,79.68383,78.346664
"2531",45.852016,79.798584,78.45154
"2532",45.865345,80.028076,78.674736
"2533",45.87868,80.39918,79.046715
"2534",45.89201,80.91676,79.576775
"2535",45.905346,81.53933,80.22799
"2536",45.918674,82.20096,80.93772
"2537",45.93201,82.81377,81.61931
"2538",45.94534,83.32159,82.21506
"2539",45.958675,83.6878,82.68507
"2540",45.972004,83.90021,83.01272
"2541",45.98534,83.97345,83.20784
"2542",45.99867,83.94171,83.30027
"2543",46.012005,83.844055,83.32579
"2544",46.025333,83.72442,83.32628
"2545",46.03867,83.61944,83.337685
"2546",46.052,83.54131,83.372665
"2547",46.065334,83.49493,83.43694
"2548",46.078663,83.46563,83.51686
"2549",46.092,83.43633,83.59586
"2550",46.105328,83.389946,83.65686
"2551",46.118664,83.32159,83.694435
"2552",46.131992,83.24101,83.71766
"2553",46.14533,83.160446,83.73837
"2554",46.158657,83.104294,83.78098
"2555",46.171993,83.08232,83.85602
"2556",46.18532,83.104294,83.97431
"2557",46.198658,83.160446,84.12747
"2558",46.211987,83.228806,84.29459
"2559",46.225323,83.28985,84.456535
"2560",46.23865,83.336235,84.60573
"2561",46.251987,83.36065,84.7344
"2562",46.265316,83.35821,84.836975
"2563",46.278652,83.32891,84.91262
"2564",46.29198,83.2752,84.96294
"2565",46.305317,83.19707,84.98715
"2566",46.318645,83.09941,84.9894
"2567",46.33198,82.98955,84.976395
"2568",46.34531,82.8748,84.95507
"2569",46.358646,82.7454,84.915504
"2570",46.371975,82.598915,84.85481
"2571",46.38531,82.43534,84.77245
"2572",46.39864,82.25956,84.672775
"2573",46.411976,82.07889,84.56271
"2574",46.425304,81.90311,84.4519
"2575",46.43864,81.739525,84.347786
"2576",46.45197,81.58083,84.243454
"2577",46.465305,81.42947,84.14149
"2578",46.478634,81.2781,84.03479
"2579",46.49197,81.12428,83.92091
"2580",46.5053,80.96071,83.79247
"2581",46.518635,80.79225,83.65404
"2582",46.531963,80.621346,83.50789
"2583",46.5453,80.45289,83.35885
"2584",46.558628,80.29664,83.21675
"2585",46.571964,80.15503,83.08441
"2586",46.585293,80.03052,82.964745
"2587",46.59863,79.906006,82.84119
"2588",46.611958,79.77173,82.70397
"2589",46.625294,79.61791,82.54302
"2590",46.638622,79.447014,82.36018
"2591",46.65196,79.256584,82.15247
"2592",46.665287,79.061264,81.93392
"2593",46.678623,78.870834,81.71416
"2594",46.69195,78.695045,81.50308
"2595",46.705288,78.53391,81.30117
"2596",46.718616,78.39475,81.116196
"2597",46.731953,78.30198,80.97326
"2598",46.74528,78.28001,80.898224
"2599",46.758617,78.35813,80.9226
"2600",46.771946,78.56321,81.07637
"2601",46.785282,78.89525,81.36351
"2602",46.79861,79.3225,81.75624
"2603",46.811947,79.79126,82.20383
"2604",46.825275,80.22583,82.631874
"2605",46.83861,80.56275,82.97585
"2606",46.85194,80.76051,83.1912
"2607",46.865276,80.81911,83.27356
"2608",46.878605,80.743416,83.223465
"2609",46.89194,80.57984,83.08312
"2610",46.90527,80.35523,82.87663
"2611",46.918606,80.11597,82.64847
"2612",46.931934,79.87671,82.412834
"2613",46.94527,79.65453,82.186806
"2614",46.9586,79.44457,81.96605
"2615",46.971935,79.24925,81.75337
"2616",46.985264,79.06859,81.54925
"2617",46.9986,78.90013,81.351685
"2618",47.01193,78.74876,81.16594
"2619",47.025265,78.61936,80.997444
"2620",47.038593,78.521706,80.85664
"2621",47.05193,78.44846,80.737206
"2622",47.065258,78.38987,80.63013
"2623",47.078594,78.34348,80.533424
"2624",47.091923,78.294655,80.43283
"2625",47.10526,78.238495,80.32338
"2626",47.118587,78.167694,80.19753
"2627",47.131924,78.0798,80.05238
"2628",47.145252,77.97482,79.8874
"2629",47.15859,77.84787,79.69716
"2630",47.171917,77.69894,79.48097
"2631",47.185253,77.5378,79.24793
"2632",47.19858,77.366905,79.00009
"2633",47.211918,77.20332,78.75423
"2634",47.225246,77.05684,78.52035
"2635",47.238583,76.929886,78.30142
"2636",47.25191,76.82735,78.10294
"2637",47.265247,76.73701,77.91346
"2638",47.278576,76.65888,77.73337
"2639",47.291912,76.592964,77.56304
"2640",47.30524,76.53437,77.39798
"2641",47.318577,76.490425,77.245735
"2642",47.331905,76.45869,77.104324
"2643",47.34524,76.44648,76.98145
"2644",47.35857,76.45136,76.87529
"2645",47.371906,76.473335,76.78637
"2646",47.385235,76.50019,76.70302
"2647",47.39857,76.53437,76.62783
"2648",47.4119,76.561226,76.54639
"2649",47.425236,76.578316,76.45602
"2650",47.438564,76.5832,76.35397
"2651",47.4519,76.5832,76.2472
"2652",47.46523,76.57343,76.13066
"2653",47.478565,76.56611,76.01626
"2654",47.491894,76.56611,75.90895
"2655",47.50523,76.57099,75.806526
"2656",47.51856,76.58076,75.70914
"2657",47.531895,76.595406,75.616936
"2658",47.545223,76.612495,75.52763
"2659",47.55856,76.629585,75.438866
"2660",47.571888,76.646675,75.35063
"2661",47.585224,76.66865,75.267815
"2662",47.598553,76.697945,75.19301
"2663",47.61189,76.73945,75.131325
"2664",47.625217,76.80049,75.09048
"2665",47.638554,76.91768,75.10768
"2666",47.651882,77.1252,75.21888
"2667",47.66522,77.45724,75.46108
"2668",47.678547,77.93088,75.85526
"2669",47.691883,78.52659,76.386314
"2670",47.70521,79.168686,76.98237
"2671",47.718548,79.77417,77.561874
"2672",47.731876,80.26734,78.04799
"2673",47.745213,80.59937,78.388374
"2674",47.75854,80.75563,78.56336
"2675",47.771877,80.765396,78.59674
"2676",47.785206,80.67017,78.52544
"2677",47.798542,80.51148,78.38769
"2678",47.81187,80.31861,78.2108
"2679",47.825207,80.13306,78.0352
"2680",47.838535,79.98657,77.892876
"2681",47.85187,79.88159,77.787476
"2682",47.8652,79.82056,77.72274
"2683",47.878536,79.7937,77.69028
"2684",47.891865,79.76929,77.65942
"2685",47.9052,79.73266,77.61558
"2686",47.91853,79.68139,77.555954
"2687",47.931866,79.61791,77.48252
"2688",47.945194,79.55932,77.41199
"2689",47.95853,79.517815,77.35671
"2690",47.97186,79.50317,77.326996
"2691",47.985195,79.50805,77.31635
"2692",47.998524,79.517815,77.310745
"2693",48.01186,79.52514,77.303
"2694",48.02519,79.520256,77.28328
"2695",48.038525,79.4934,77.24143
"2696",48.051853,79.449455,77.181656
"2697",48.06519,79.38598,77.100975
"2698",48.078518,79.30785,77.00366
"2699",48.091854,79.219955,76.894135
"2700",48.105183,79.12718,76.776985
"2701",48.11852,79.03441,76.65694
"2702",48.131847,78.94408,76.53643
"2703",48.145184,78.86351,76.42287
"2704",48.158512,78.79027,76.31411
"2705",48.17185,78.729225,76.21526
"2706",48.185177,78.677956,76.12428
"2707",48.198513,78.641335,76.04635
"2708",48.21184,78.61204,75.974594
"2709",48.225178,78.590065,75.90925
"2710",48.238506,78.57786,75.85298
"2711",48.251842,78.57053,75.801216
"2712",48.26517,78.57053,75.756546
"2713",48.278507,78.57542,75.71676
"2714",48.291836,78.58518,75.68201
"2715",48.305172,78.59739,75.65
"2716",48.3185,78.6096,75.61838
"2717",48.331837,78.6218,75.587135
"2718",48.345165,78.62913,75.55139
"2719",48.3585,78.63157,75.510994
"2720",48.37183,78.63157,75.46823
"2721",48.385166,78.624245,75.418144
"2722",48.398495,78.61204,75.362946
"2723",48.41183,78.59739,75.304924
"2724",48.42516,78.58274,75.246445
"2725",48.438496,78.57053,75.18995
"2726",48.451824,78.56077,75.13551
"2727",48.46516,78.55833,75.0881
"2728",48.47849,78.56321,75.04793
"2729",48.491825,78.56809,75.00791
"2730",48.505154,78.572975,74.96805
"2731",48.51849,78.57542,74.925896
"2732",48.53182,78.5803,74.88626
"2733",48.545155,78.58762,74.84922
"2734",48.558483,78.59739,74.81485
"2735",48.57182,78.6218,74.79543
"2736",48.585148,78.692604,74.823166
"2737",48.598484,78.84398,74.933685
"2738",48.611813,79.11253,75.166115
"2739",48.62515,79.5227,75.548546
"2740",48.638477,80.05249,76.06342
"2741",48.651814,80.638435,76.65101
"2742",48.665142,81.19508,77.22761
"2743",48.67848,81.64187,77.71174
"2744",48.691807,81.92996,78.05114
"2745",48.705143,82.04227,78.223755
"2746",48.71847,82.005646,78.25095
"2747",48.731808,81.8616,78.169586
"2748",48.745136,81.6614,78.02756
"2749",48.758472,81.449,77.86707
"2750",48.7718,81.26101,77.724365
"2751",48.785137,81.112076,77.61484
"2752",48.798466,81.02174,77.55926
"2753",48.811802,80.9778,77.54724
"2754",48.82513,80.96315,77.56315
"2755",48.838467,80.95094,77.58104
"2756",48.851795,80.93141,77.591225
"2757",48.86513,80.89235,77.58127
"2758",48.87846,80.84352,77.560326
"2759",48.891796,80.79225,77.535416
"2760",48.905125,80.75319,77.52111
"2761",48.91846,80.72877,77.520226
"2762",48.93179,80.723885,77.53812
"2763",48.945126,80.723885,77.56074
"2764",48.958454,80.71656,77.576035
"2765",48.97179,80.69947,77.58134
"2766",48.98512,80.66773,77.57146
"2767",48.998455,80.61646,77.54105
"2768",49.011784,80.5481,77.49196
"2769",49.02512,80.46998,77.43096
"2770",49.03845,80.38209,77.35776
"2771",49.051785,80.28687,77.27448
"2772",49.065113,80.18921,77.18578
"2773",49.07845,80.096436,77.09892
"2774",49.091778,80.00366,77.00916
"2775",49.105114,79.923096,76.92871
"2776",49.118443,79.84985,76.853065
"2777",49.13178,79.78882,76.78734
"2778",49.145107,79.73754,76.72946
"2779",49.158443,79.69604,76.679756
"2780",49.171772,79.66674,76.64096
"2781",49.18511,79.65209,76.6159
"2782",49.198437,79.65453,76.60747
"2783",49.211773,79.6643,76.60644
"2784",49.2251,79.68383,76.61548
"2785",49.238438,79.70092,76.62269
"2786",49.251766,79.71313,76.62555
"2787",49.265102,79.71557,76.619026
"2788",49.27843,79.710686,76.605255
"2789",49.291767,79.693596,76.579124
"2790",49.305096,79.66674,76.542694
"2791",49.31843,79.64233,76.507866
"2792",49.33176,79.61303,76.46739
"2793",49.345097,79.588615,76.430885
"2794",49.358425,79.569084,76.3985
"2795",49.37176,79.54955,76.3655
"2796",49.38509,79.53002,76.331894
"2797",49.398426,79.50561,76.29279
"2798",49.411755,79.47631,76.24805
"2799",49.42509,79.449455,76.20483
"2800",49.43842,79.42016,76.158325
"2801",49.451756,79.40063,76.120674
"2802",49.465084,79.415276,76.11659
"2803",49.47842,79.49096,76.174
"2804",49.49175,79.66186,76.328995
"2805",49.505085,79.94995,76.60652
"2806",49.518414,80.34547,77.00047
"2807",49.53175,80.79225,77.45805
"2808",49.54508,81.2195,77.91006
"2809",49.558414,81.566185,78.29485
"2810",49.571743,81.778595,78.556206
"2811",49.58508,81.84451,78.677704
"2812",49.598408,81.78836,78.67919
"2813",49.611744,81.64675,78.59347
"2814",49.625072,81.463646,78.46182
"2815",49.63841,81.27322,78.31713
"2816",49.651737,81.09987,78.18357
"2817",49.665073,80.96803,78.086105
"2818",49.678402,80.885025,78.03335
"2819",49.69174,80.83864,78.01462
"2820",49.705067,80.80934,78.01153
"2821",49.718403,80.77516,78.00264
"2822",49.73173,80.73121,77.98291
"2823",49.745068,80.672615,77.94717
"2824",49.758396,80.6067,77.90227
"2825",49.771732,80.55543,77.86996
"2826",49.78506,80.53101,77.8629
"2827",49.798397,80.533455,77.881935
"2828",49.811726,80.55787,77.92302
"2829",49.82506,80.58961,77.97219
"2830",49.83839,80.60914,78.01015
"2831",49.851727,80.604256,78.0243
"2832",49.865055,80.56275,78.00168
"2833",49.87839,80.49439,77.950905
"2834",49.89172,80.4065,77.87846
"2835",49.905056,80.31129,77.79595
"2836",49.918385,80.216064,77.71046
"2837",49.93172,80.12573,77.62688
"2838",49.94505,80.04028,77.54536
"2839",49.958385,79.95239,77.458725
"2840",49.971714,79.871826,77.37667
"2841",49.98505,79.79126,77.2921
"2842",49.99838,79.71801,77.212326
"2843",50.011715,79.65209,77.137596
"2844",50.025043,79.59594,77.07057
"2845",50.03838,79.54955,77.01156
"2846",50.05171,79.51293,76.96086
"2847",50.065044,79.48119,76.9139
"2848",50.078373,79.46166,76.87816
"2849",50.09171,79.447014,76.84669
"2850",50.105038,79.43725,76.81964
"2851",50.118374,79.43481,76.799614
"2852",50.131702,79.43969,76.786835
"2853",50.14504,79.43969,76.769325
"2854",50.158367,79.43481,76.74693
"2855",50.171703,79.42016,76.71462
"2856",50.18503,79.40063,76.67697
"2857",50.198368,79.378654,76.63627
"2858",50.211697,79.35424,76.59244
"2859",50.225033,79.33227,76.550285
"2860",50.23836,79.32006,76.51721
"2861",50.251698,79.33227,76.50817
"2862",50.265026,79.40795,76.56299
"2863",50.278362,79.57885,76.715385
"2864",50.29169,79.85474,76.97811
"2865",50.305027,80.22339,77.342224
"2866",50.318356,80.638435,77.76425
"2867",50.33169,81.03151,78.17728
"2868",50.34502,81.33669,78.514694
"2869",50.358356,81.51003,78.729805
"2870",50.371685,81.55642,78.82338
"2871",50.38502,81.4905,78.8061
"2872",50.39835,81.35134,78.71352
"2873",50.411686,81.17799,78.5824
"2874",50.425014,81.007095,78.44831
"2875",50.43835,80.86061,78.3333
"2876",50.45168,80.75075,78.25033
"2877",50.465015,80.67994,78.20298
"2878",50.478344,80.64576,78.19005
"2879",50.49168,80.62623,78.1907
"2880",50.50501,80.604256,78.18829
"2881",50.518345,80.567635,78.170555
"2882",50.531673,80.5066,78.12726
"2883",50.54501,80.4358,78.07229
"2884",50.55834,80.36744,78.01755
"2885",50.571674,80.32105,77.98264
"2886",50.585003,80.30396,77.975586
"2887",50.59834,80.308846,77.98997
"2888",50.611668,80.323494,78.01427
"2889",50.625004,80.32838,78.02926
"2890",50.638332,80.31861,78.029755
"2891",50.65167,80.28687,78.00797
"2892",50.664997,80.233154,77.96322
"2893",50.678333,80.15991,77.89726
"2894",50.69166,80.07202,77.81437
"2895",50.704998,79.974365,77.71896
"2896",50.718327,79.88159,77.62539
"2897",50.731663,79.79126,77.53136
"2898",50.74499,79.708244,77.44182
"2899",50.758327,79.635,77.35946
"2900",50.771656,79.5642,77.27725
"2901",50.784992,79.49828,77.197716
"2902",50.79832,79.43481,77.11856
"2903",50.811657,79.381096,77.04719
"2904",50.824986,79.33715,76.9839
"2905",50.83832,79.30541,76.93145
"2906",50.85165,79.281,76.88533
"2907",50.864986,79.26391,76.84577
"2908",50.878315,79.25414,76.813
"2909",50.89165,79.2517,76.787254
"2910",50.90498,79.2517,76.76387
"2911",50.918316,79.2517,76.740486
"2912",50.931644,79.259026,76.72443
"2913",50.94498,79.26879,76.71104
"2914",50.95831,79.281,76.70039
"2915",50.971645,79.28832,76.68525
"2916",50.984974,79.28832,76.66301
"2917",50.99831,79.281,76.633446
"2918",51.01164,79.26391,76.59389
"2919",51.024975,79.24437,76.551346
"2920",51.038303,79.22484,76.5082
"2921",51.05164,79.21019,76.46933
"2922",51.06497,79.19798,76.43244
"2923",51.078304,79.202866,76.41226
"2924",51.091633,79.24437,76.428856
"2925",51.10497,79.35912,76.52
"2926",51.118298,79.59106,76.7319
"2927",51.131634,79.94263,77.070694
"2928",51.144962,80.39185,77.51813
"2929",51.1583,80.8777,78.01622
"2930",51.171627,81.3196,78.48555
"2931",51.184963,81.64431,78.851494
"2932",51.19829,81.81766,79.076225
"2933",51.211628,81.83963,79.155
"2934",51.224957,81.74441,79.11726
"2935",51.238293,81.57107,78.998436
"2936",51.25162,81.373314,78.84978
"2937",51.264957,81.18532,78.7047
"2938",51.278286,81.03151,78.58793
"2939",51.291622,80.92897,78.517624
"2940",51.30495,80.8777,78.495384
"2941",51.318287,80.867935,78.51305
"2942",51.331615,80.87526,78.54749
"2943",51.34495,80.87282,78.5724
"2944",51.35828,80.848404,78.575264
"2945",51.371616,80.79225,78.54562
"2946",51.384945,80.71412,78.49225
"2947",51.39828,80.62623,78.426674
"2948",51.41161,80.552986,78.373
"2949",51.424946,80.50172,78.33901
"2950",51.438274,80.47242,78.32539
"2951",51.45161,80.45777,78.32551
"2952",51.46494,80.45289,78.33493
"2953",51.478275,80.448006,78.3442
"2954",51.491604,80.43824,78.348434
"2955",51.50494,80.42115,78.34504
"2956",51.51827,80.38941,78.32646
"2957",51.531605,80.343025,78.292244
"2958",51.544933,80.28443,78.24437
"2959",51.55827,80.21118,78.18001
"2960",51.571598,80.13794,78.113365
"2961",51.584934,80.0647,78.04443
"2962",51.598263,80.00122,77.98298
"2963",51.6116,79.94751,77.929306
"2964",51.624928,79.89868,77.87884
"2965",51.638264,79.84985,77.82684
"2966",51.651592,79.80347,77.775764
"2967",51.66493,79.75708,77.723236
"2968",51.678257,79.71801,77.676575
"2969",51.691593,79.68139,77.63114
"2970",51.70492,79.65453,77.59433
"2971",51.718258,79.63744,77.566444
"2972",51.731586,79.62524,77.54291
"2973",51.744923,79.62035,77.52631
"2974",51.75825,79.62035,77.51445
"2975",51.771587,79.622795,77.50503
"2976",51.784916,79.62524,77.49568
"2977",51.798252,79.62524,77.48397
"2978",51.81158,79.62524,77.47226
"2979",51.824917,79.622795,77.45811
"2980",51.838245,79.61303,77.436554
"2981",51.85158,79.59594,77.40737
"2982",51.86491,79.571526,77.37033
"2983",51.878246,79.54467,77.330086
"2984",51.891575,79.517815,77.289
"2985",51.90491,79.49096,77.24708
"2986",51.91824,79.46899,77.2092
"2987",51.931576,79.449455,77.17307
"2988",51.944904,79.432365,77.13878
"2989",51.95824,79.42504,77.113716
"2990",51.97157,79.44213,77.11284
"2991",51.984905,79.51537,77.16865
"2992",51.998234,79.674065,77.312195
"2993",52.01157,79.94263,77.57057
"2994",52.0249,80.306404,77.932556
"2995",52.038235,80.719,78.35473
"2996",52.051563,81.112076,78.77027
"2997",52.0649,81.41238,79.10532
"2998",52.078228,81.57595,79.313034
"2999",52.091564,81.59792,79.384254
"3000",52.104893,81.50515,79.341415
"3001",52.11823,81.33669,79.21999
"3002",52.131557,81.13649,79.06156
"3003",52.144894,80.94362,78.904205
"3004",52.158222,80.782486,78.77256
"3005",52.17156,80.672615,78.68714
"3006",52.184887,80.61646,78.65201
"3007",52.198223,80.6067,78.66151
"3008",52.21155,80.62379,78.697556
"3009",52.224888,80.638435,78.7317
"3010",52.238216,80.635994,78.74921
"3011",52.251553,80.60914,78.742226
"3012",52.26488,80.56519,78.717316
"3013",52.278217,80.516365,78.68615
"3014",52.291546,80.479744,78.665665
"3015",52.304882,80.462654,78.66357
"3016",52.31821,80.46754,78.68291
"3017",52.331547,80.48951,78.71949
"3018",52.344875,80.52125,78.766525
"3019",52.35821,80.5481,78.80967
"3020",52.37154,80.56519,78.84389
"3021",52.384876,80.56519,78.86155
"3022",52.398205,80.5481,78.86212
"3023",52.41154,80.5066,78.837746
"3024",52.42487,80.44068,78.78766
"3025",52.438206,80.365,78.725746
"3026",52.451534,80.27711,78.64926
"3027",52.46487,80.17944,78.56026
"3028",52.4782,80.08423,78.47065
"3029",52.491535,79.99878,78.38783
"3030",52.504864,79.920654,78.30967
"3031",52.5182,79.84741,78.23395
"3032",52.53153,79.77905,78.16082
"3033",52.544865,79.71801,78.09287
"3034",52.558193,79.6643,78.03035
"3035",52.57153,79.622795,77.978355
"3036",52.584858,79.5935,77.93727
"3037",52.598194,79.58373,77.9148
"3038",52.611523,79.5935,77.91156
"3039",52.62486,79.61547,77.92083
"3040",52.638187,79.64233,77.93567
"3041",52.651524,79.66674,77.948906
"3042",52.664852,79.676506,77.94826
"3043",52.67819,79.66918,77.930824
"3044",52.691517,79.64721,77.89851
"3045",52.704853,79.61303,77.85331
"3046",52.71818,79.56664,77.79483
"3047",52.731518,79.51293,77.72758
"3048",52.744846,79.45922,77.658646
"3049",52.758183,79.40063,77.58315
"3050",52.77151,79.34203,77.50583
"3051",52.784847,79.29809,77.44132
"3052",52.798176,79.26635,77.38765
"3053",52.811512,79.259026,77.3574
"3054",52.82484,79.30053,77.37575
"3055",52.838177,79.40307,77.45643
"3056",52.851505,79.571526,77.60623
"3057",52.86484,79.80347,77.82478
"3058",52.87817,80.06958,78.084755
"3059",52.891506,80.33326,78.35061
"3060",52.904835,80.56031,78.58807
"3061",52.91817,80.71656,78.76183
"3062",52.9315,80.78737,78.855034
"3063",52.944836,80.77028,78.86255
"3064",52.958164,80.6775,78.79384
"3065",52.9715,80.5359,78.67341
"3066",52.98483,80.37232,78.52658
"3067",52.998165,80.21362,78.37952
"3068",53.011494,80.08423,78.2568
"3069",53.02483,79.9939,78.1691
"3070",53.03816,79.940186,78.1152
"3071",53.051495,79.91577,78.08891
"3072",53.064823,79.91089,78.0814
"3073",53.07816,79.903564,78.07129
"3074",53.091488,79.886475,78.051186
"3075",53.104824,79.85718,78.01834
"3076",53.118153,79.82056,77.97726
"3077",53.13149,79.781494,77.93259
"3078",53.144817,79.74975,77.89401
"3079",53.158154,79.73022,77.86666
"3080",53.171482,79.71801,77.84602
"3081",53.18482,79.708244,77.827446
"3082",53.198147,79.691154,77.80124
"3083",53.211483,79.67162,77.77206
"3084",53.22481,79.64233,77.7325
"3085",53.238148,79.60815,77.68714
"3086",53.251476,79.5642,77.63095
"3087",53.264812,79.51537,77.568504
"3088",53.27814,79.46166,77.49965
"3089",53.291477,79.40307,77.42423
"3090",53.304806,79.33715,77.33966
"3091",53.318142,79.27123,77.25303
"3092",53.33147,79.202866,77.16189
"3093",53.344807,79.13695,77.07106
"3094",53.358135,79.07591,76.983055
"3095",53.37147,79.0222,76.90047
"3096",53.3848,78.975815,76.823524
"3097",53.398136,78.93675,76.75246
"3098",53.411465,78.90257,76.68505
"3099",53.4248,78.87816,76.62634
"3100",53.43813,78.86351,76.57664
"3101",53.451466,78.853745,76.53136
"3102",53.464794,78.8513,76.493095
"3103",53.47813,78.84886,76.45476
"3104",53.49146,78.836655,76.40658
"3105",53.504795,78.819565,76.353134
"3106",53.518124,78.79759,76.29427
"3107",53.53146,78.77318,76.232285
"3108",53.54479,78.746315,76.16708
"3109",53.558125,78.72678,76.108376
"3110",53.571453,78.709694,76.0515
"3111",53.58479,78.695045,75.99653
"3112",53.598118,78.68772,75.948425
"3113",53.611454,78.68772,75.90742
"3114",53.624783,78.71458,75.893265
"3115",53.63812,78.78783,75.926346
"3116",53.651447,78.93431,76.03495
"3117",53.664783,79.15892,76.22626
"3118",53.678112,79.46166,76.502716
"3119",53.69145,79.818115,76.84235
"3120",53.704777,80.18677,77.205315
"3121",53.718113,80.52369,77.54807
"3122",53.73144,80.78981,77.83056
"3123",53.744778,80.96803,78.03346
"3124",53.758106,81.0486,78.14428
"3125",53.771442,81.03639,78.16484
"3126",53.78477,80.96071,78.121544
"3127",53.798107,80.85329,78.04414
"3128",53.811436,80.740974,77.958496
"3129",53.82477,80.64088,77.88155
"3130",53.8381,80.57252,77.83322
"3131",53.851437,80.53101,77.80961
"3132",53.864765,80.50172,77.796906
"3133",53.8781,80.47242,77.78329
"3134",53.89143,80.44312,77.76875
"3135",53.904766,80.411385,77.75086
"3136",53.918095,80.377205,77.72954
"3137",53.93143,80.35035,77.71447
"3138",53.94476,80.33082,77.70589
"3139",53.958096,80.323494,77.7089
"3140",53.971424,80.32105,77.71657
"3141",53.98476,80.31861,77.72416
"3142",53.99809,80.31129,77.72679
"3143",54.011425,80.29664,77.72187
"3144",54.024754,80.272224,77.706726
"3145",54.03809,80.235596,77.678604
"3146",54.05142,80.18921,77.63958
"3147",54.064754,80.1355,77.59178
"3148",54.078083,80.06714,77.52766
"3149",54.09142,79.98901,77.45163
"3150",54.104748,79.90112,77.363396
"3151",54.118084,79.81079,77.26997
"3152",54.131413,79.71557,77.16884
"3153",54.14475,79.62768,77.07206
"3154",54.158077,79.54467,76.97742
"3155",54.171413,79.47143,76.889946
"3156",54.184742,79.412834,76.814835
"3157",54.19808,79.36889,76.75254
"3158",54.211407,79.33959,76.70352
"3159",54.224743,79.32494,76.668236
"3160",54.23807,79.3225,76.6447
"3161",54.251408,79.32494,76.62597
"3162",54.264736,79.33471,76.61464
"3163",54.278072,79.344475,76.603615
"3164",54.2914,79.3518,76.590454
"3165",54.304737,79.35668,76.57508
"3166",54.318066,79.35668,76.55498
"3167",54.3314,79.344475,76.52267
"3168",54.34473,79.32494,76.48265
"3169",54.358067,79.30053,76.43714
"3170",54.371395,79.273674,76.38843
"3171",54.38473,79.26879,76.36085
"3172",54.39806,79.32006,76.38927
"3173",54.411396,79.46899,76.516945
"3174",54.424725,79.73266,76.76402
"3175",54.43806,80.10132,77.12433
"3176",54.45139,80.53101,77.55719
"3177",54.464725,80.953384,77.996155
"3178",54.478054,81.29763,78.37019
"3179",54.49139,81.512474,78.62559
"3180",54.50472,81.5906,78.75098
"3181",54.518055,81.55398,78.76406
"3182",54.531384,81.42947,78.68811
"3183",54.54472,81.248795,78.55211
"3184",54.55805,81.05348,78.39582
"3185",54.571384,80.87282,78.24808
"3186",54.584713,80.723885,78.12642
"3187",54.59805,80.618904,78.04406
"3188",54.611378,80.56031,78.00481
"3189",54.624714,80.533455,77.99546
"3190",54.638042,80.52613,78.00481
"3191",54.65138,80.51148,78.0066
"3192",54.664707,80.48951,78.00061
"3193",54.678043,80.465096,77.99149
"3194",54.691372,80.448006,77.98894
"3195",54.70471,80.45045,78.00538
"3196",54.718037,80.4773,78.04631
"3197",54.731373,80.51881,78.10273
"3198",54.7447,80.56275,78.16289
"3199",54.758038,80.601814,78.219536
"3200",54.771366,80.618904,78.25543
"3201",54.784702,80.61402,78.26989
"3202",54.79803,80.587166,78.26222
"3203",54.811367,80.54078,78.234184
"3204",54.824696,80.46998,78.18028
"3205",54.83803,80.38453,78.10952
"3206",54.85136,80.289314,78.02632
"3207",54.864697,80.18677,77.932816
"3208",54.878025,80.08179,77.83367
"3209",54.89136,79.98169,77.73613
"3210",54.90469,79.888916,77.642784
"3211",54.918026,79.80347,77.55386
"3212",54.931355,79.73022,77.47447
"3213",54.94469,79.66674,77.402565
"3214",54.95802,79.61547,77.34088
"3215",54.971355,79.569084,77.28248
"3216",54.984684,79.53002,77.22995
"3217",54.99802,79.500725,77.18597
"3218",55.01135,79.47631,77.14595
"3219",55.024685,79.45434,77.10761
"3220",55.038013,79.432365,77.06859
"3221",55.05135,79.40795,77.026436
"3222",55.06468,79.378654,76.97864
"3223",55.078014,79.344475,76.92504
"3224",55.091343,79.310295,76.87038
"3225",55.10468,79.28832,76.82685
"3226",55.118008,79.29809,76.81438
"3227",55.131344,79.38598,76.88033
"3228",55.144672,79.588615,77.06378
"3229",55.15801,79.91577,77.37808
"3230",55.171337,80.35035,77.81003
"3231",55.184673,80.83864,78.309265
"3232",55.198,81.29763,78.794464
"3233",55.211338,81.6614,79.198784
"3234",55.224667,81.88602,79.47532
"3235",55.238003,81.96658,79.61482
"3236",55.25133,81.92508,79.63477
"3237",55.264668,81.7908,79.56065
"3238",55.277996,81.602806,79.42862
"3239",55.291332,81.3904,79.266304
"3240",55.30466,81.18288,79.10223
"3241",55.317997,81.004654,78.96097
"3242",55.331326,80.867935,78.855644
"3243",55.34466,80.77516,78.78999
"3244",55.35799,80.719,78.75806
"3245",55.371326,80.68238,78.743904
"3246",55.384655,80.64332,78.726166
"3247",55.39799,80.59449,78.69744
"3248",55.41132,80.533455,78.65498
"3249",55.424656,80.47486,78.61306
"3250",55.437984,80.428474,78.58151
"3251",55.45132,80.4065,78.57293
"3252",55.46465,80.40894,78.58807
"3253",55.477985,80.42359,78.6155
"3254",55.491314,80.44068,78.64583
"3255",55.50465,80.44312,78.66204
"3256",55.51798,80.428474,78.66124
"3257",55.531315,80.38453,78.630684
"3258",55.544643,80.31861,78.57678
"3259",55.55798,80.23071,78.49884
"3260",55.57131,80.130615,78.40595
"3261",55.584644,80.01831,78.29773
"3262",55.597973,79.90112,78.181114
"3263",55.61131,79.77905,78.055954
"3264",55.624638,79.65942,77.92941
"3265",55.637974,79.53979,77.79914
"3266",55.651302,79.42016,77.66513
"3267",55.66464,79.30541,77.532265
"3268",55.677967,79.19798,77.40313
"3269",55.691303,79.10033,77.28041
"3270",55.70463,79.01976,77.17173
"3271",55.717968,78.95384,77.07518
"3272",55.731297,78.905014,76.99366
"3273",55.744633,78.86839,76.92282
"3274",55.75796,78.84154,76.8606
"3275",55.771297,78.82445,76.80731
"3276",55.784626,78.81224,76.75837
"3277",55.797962,78.802475,76.71149
"3278",55.81129,78.79515,76.66674
"3279",55.824627,78.78294,76.61688
"3280",55.837955,78.77074,76.56664
"3281",55.85129,78.75365,76.51114
"3282",55.86462,78.73655,76.45509
"3283",55.877956,78.72678,76.405846
"3284",55.891285,78.75365,76.39292
"3285",55.90462,78.85863,76.458954
"3286",55.91795,79.080795,76.645454
"3287",55.931286,79.44457,76.98051
"3288",55.944614,79.93042,77.449
"3289",55.95795,80.4773,77.993706
"3290",55.97128,80.99489,78.52621
"3291",55.984615,81.40261,78.96502
"3292",55.997944,81.654076,79.260315
"3293",56.01128,81.739525,79.39745
"3294",56.02461,81.67849,79.39078
"3295",56.037945,81.50759,79.27233
"3296",56.051273,81.2781,79.08995
"3297",56.06461,81.02907,78.88086
"3298",56.077938,80.78981,78.67376
"3299",56.091274,80.59205,78.50068
"3300",56.104603,80.448006,78.37514
"3301",56.11794,80.34791,78.28904
"3302",56.131268,80.28687,78.23888
"3303",56.144604,80.24292,78.20389
"3304",56.157932,80.20386,78.17242
"3305",56.17127,80.15503,78.12996
"3306",56.184597,80.10132,78.08109
"3307",56.197933,80.04761,78.03055
"3308",56.21126,80.00366,77.98809
"3309",56.224598,79.98169,77.96623
"3310",56.237926,79.97925,77.96322
"3311",56.251263,79.991455,77.97478
"3312",56.26459,80.00122,77.984276
"3313",56.277927,80.00122,77.984314
"3314",56.291256,79.98657,77.9697
"3315",56.304592,79.957275,77.93999
"3316",56.31792,79.91333,77.89471
"3317",56.331257,79.85962,77.83829
"3318",56.344585,79.79126,77.76554
"3319",56.35792,79.71557,77.68333
"3320",56.37125,79.63256,77.59143
"3321",56.384586,79.54467,77.49206
"3322",56.397915,79.45922,77.39238
"3323",56.41125,79.37377,77.29003
"3324",56.42458,79.28832,77.18501
"3325",56.437916,79.20775,77.0822
"3326",56.451244,79.13451,76.9842
"3327",56.46458,79.07347,76.89612
"3328",56.47791,79.029526,76.82322
"3329",56.491245,78.99779,76.761154
"3330",56.504574,78.97337,76.70542
"3331",56.51791,78.958725,76.65869
"3332",56.53124,78.95384,76.62127
"3333",56.544575,78.95628,76.59102
"3334",56.557903,78.97093,76.57305
"3335",56.57124,78.99046,76.560425
"3336",56.584568,79.00755,76.54597
"3337",56.597904,79.0222,76.5296
"3338",56.611233,79.027084,76.50393
"3339",56.62457,79.029526,76.47597
"3340",56.637897,79.02464,76.44076
"3341",56.651234,79.0222,76.40784
"3342",56.664562,79.01976,76.37484
"3343",56.6779,79.0222,76.34665
"3344",56.691227,79.061264,76.355156
"3345",56.704563,79.17357,76.438126
"3346",56.71789,79.40551,76.64424
"3347",56.731228,79.781494,77.00165
"3348",56.744556,80.28687,77.5002
"3349",56.757893,80.85573,78.07802
"3350",56.77122,81.40261,78.65164
"3351",56.784557,81.83475,79.12761
"3352",56.797886,82.09842,79.448616
"3353",56.811222,82.18387,79.59964
"3354",56.82455,82.11795,79.60197
"3355",56.837887,81.93973,79.48993
"3356",56.851215,81.7029,79.31372
"3357",56.86455,81.446556,79.11059
"3358",56.87788,81.20241,78.911644
"3359",56.891216,80.987564,78.734375
"3360",56.904545,80.82643,78.6041
"3361",56.91788,80.709236,78.51273
"3362",56.93121,80.63355,78.45921
"3363",56.944546,80.58228,78.42774
"3364",56.957874,80.54078,78.404434
"3365",56.97121,80.49683,78.37739
"3366",56.98454,80.45045,78.34653
"3367",56.997875,80.40894,78.3191
"3368",57.011204,80.38209,78.30502
"3369",57.02454,80.377205,78.31208
"3370",57.03787,80.394295,78.34096
"3371",57.051205,80.41871,78.37769
"3372",57.064533,80.44068,78.41275
"3373",57.07787,80.445564,78.431404
"3374",57.091198,80.430916,78.43068
"3375",57.104534,80.39185,78.40508
"3376",57.117863,80.33082,78.35629
"3377",57.1312,80.25269,78.288506
"3378",57.144527,80.16235,78.20606
"3379",57.157864,80.062256,78.11104
"3380",57.171192,79.957275,78.008
"3381",57.18453,79.852295,77.90169
"3382",57.197857,79.7522,77.796974
"3383",57.211193,79.656975,77.69401
"3384",57.22452,79.569084,77.5954
"3385",57.237858,79.48608,77.498924
"3386",57.251186,79.412834,77.40962
"3387",57.264523,79.34936,77.3278
"3388",57.27785,79.30053,77.25864
"3389",57.291187,79.259026,77.195274
"3390",57.304516,79.2224,77.13549
"3391",57.317852,79.19798,77.08678
"3392",57.33118,79.183334,77.047066
"3393",57.344517,79.18089,77.019104
"3394",57.357845,79.18822,77.00083
"3395",57.37118,79.20531,76.99255
"3396",57.38451,79.2224,76.98481
"3397",57.397846,79.237045,76.97516
"3398",57.411175,79.24437,76.95864
"3399",57.42451,79.237045,76.927704
"3400",57.43784,79.22484,76.891655
"3401",57.451176,79.20531,76.8479
"3402",57.464504,79.185776,76.803535
"3403",57.47784,79.17845,76.77077
"3404",57.49117,79.20775,76.77439
"3405",57.504505,79.31274,76.85462
"3406",57.517834,79.53979,77.060196
"3407",57.53117,79.90845,77.414474
"3408",57.5445,80.40162,77.904785
"3409",57.557835,80.96559,78.48131
"3410",57.571163,81.512474,79.058365
"3411",57.5845,81.951935,79.54509
"3412",57.597828,82.230255,79.88441
"3413",57.611164,82.3328,80.05665
"3414",57.624493,82.27665,80.073395
"3415",57.63783,82.10574,79.97363
"3416",57.651157,81.8616,79.795296
"3417",57.664494,81.5906,79.582466
"3418",57.677822,81.33181,79.37338
"3419",57.69116,81.10231,79.1855
"3420",57.704487,80.919205,79.03684
"3421",57.717823,80.79225,78.938614
"3422",57.73115,80.69947,78.87059
"3423",57.744488,80.62623,78.81921
"3424",57.757816,80.56031,78.77286
"3425",57.771152,80.49683,78.72689
"3426",57.78448,80.44312,78.688705
"3427",57.797817,80.40162,78.66105
"3428",57.811146,80.38453,78.65651
"3429",57.824482,80.396736,78.68073
"3430",57.83781,80.428474,78.72487
"3431",57.851147,80.465096,78.77488
"3432",57.864475,80.49683,78.82115
"3433",57.87781,80.50904,78.848885
"3434",57.89114,80.499275,78.85503
"3435",57.904476,80.45777,78.829124
"3436",57.917805,80.39918,78.784836
"3437",57.93114,80.31373,78.71186
"3438",57.94447,80.216064,78.624
"3439",57.957806,80.1062,78.52089
"3440",57.971134,79.98901,78.40702
"3441",57.98447,79.869385,78.28705
"3442",57.9978,79.75464,78.16822
"3443",58.011135,79.64233,78.04824
"3444",58.024464,79.54467,77.93941
"3445",58.0378,79.45678,77.83729
"3446",58.05113,79.378654,77.74219
"3447",58.064465,79.310295,77.65441
"3448",58.077793,79.24925,77.571815
"3449",58.09113,79.200424,77.49953
"3450",58.104458,79.16136,77.43548
"3451",58.117794,79.13695,77.38486
"3452",58.131123,79.1223,77.34324
"3453",58.14446,79.114975,77.30849
"3454",58.157787,79.11742,77.28327
"3455",58.171124,79.11986,77.25813
"3456",58.184452,79.1223,77.23307
"3457",58.19779,79.1223,77.20564
"3458",58.211117,79.1223,77.178215
"3459",58.224453,79.11742,77.145905
"3460",58.23778,79.11253,77.11344
"3461",58.251118,79.11009,77.08327
"3462",58.264446,79.13451,77.07987
"3463",58.277782,79.21507,77.13339
"3464",58.29111,79.3933,77.287094
"3465",58.304447,79.7058,77.580635
"3466",58.317776,80.15503,78.02067
"3467",58.331112,80.69459,78.56507
"3468",58.34444,81.253685,79.145874
"3469",58.357777,81.74441,79.67577
"3470",58.371105,82.08865,80.07453
"3471",58.38444,82.262,80.31315
"3472",58.39777,82.266884,80.38872
"3473",58.411106,82.13748,80.330154
"3474",58.424435,81.917755,80.17722
"3475",58.43777,81.66384,79.98324
"3476",58.4511,81.40261,79.774
"3477",58.464436,81.16823,79.58345
"3478",58.477764,80.972916,79.424644
"3479",58.4911,80.82155,79.30368
"3480",58.50443,80.70435,79.21216
"3481",58.517765,80.6067,79.13651
"3482",58.531094,80.52613,79.074905
"3483",58.54443,80.45533,79.020546
"3484",58.55776,80.39918,78.97862
"3485",58.571095,80.36256,78.954475
"3486",58.584423,80.35279,78.95604
"3487",58.59776,80.37476,78.98904
"3488",58.611088,80.41871,79.04469
"3489",58.624424,80.47242,79.11149
"3490",58.637753,80.52125,79.17508
"3491",58.65109,80.550545,79.220665
"3492",58.664417,80.552986,79.24031
"3493",58.677753,80.52125,79.22585
"3494",58.691082,80.45777,79.178665
"3495",58.70442,80.36988,79.10508
"3496",58.717747,80.26734,79.0141
"3497",58.731083,80.147705,78.90282
"3498",58.74441,80.02319,78.78292
"3499",58.757748,79.90112,78.661575
"3500",58.771076,79.78638,78.54374
"3501",58.784412,79.67895,78.429634
"3502",58.79774,79.57885,78.3195
"3503",58.811077,79.48852,78.21601
"3504",58.824406,79.412834,78.124344
"3505",58.83774,79.34203,78.035194
"3506",58.85107,79.27856,77.95116
"3507",58.864407,79.22728,77.877335
"3508",58.877735,79.19066,77.81657
"3509",58.89107,79.16136,77.76198
"3510",58.9044,79.14427,77.71868
"3511",58.917736,79.13695,77.684616
"3512",58.931065,79.13939,77.66009
"3513",58.9444,79.14427,77.63808
"3514",58.95773,79.149155,77.61622
"3515",58.971066,79.151596,77.59207
"3516",58.984394,79.151596,77.56556
"3517",58.99773,79.15648,77.54393
"3518",59.01106,79.19066,77.55175
"3519",59.024395,79.30541,77.64121
"3520",59.037724,79.537346,77.85144
"3521",59.05106,79.90845,78.208084
"3522",59.06439,80.40406,78.700836
"3523",59.077724,80.970474,79.27988
"3524",59.091053,81.514915,79.854645
"3525",59.10439,81.95682,80.34389
"3526",59.117718,82.24002,80.68824
"3527",59.131054,82.34745,80.86567
"3528",59.144382,82.29862,80.8902
"3529",59.15772,82.1326,80.796005
"3530",59.171047,81.89578,80.62583
"3531",59.184383,81.62966,80.41895
"3532",59.197712,81.37087,80.21109
"3533",59.21105,81.146255,80.02931
"3534",59.224377,80.972916,79.89179
"3535",59.237713,80.848404,79.79768
"3536",59.25104,80.75807,79.733864
"3537",59.277706,80.61158,79.63231
"3538",59.291042,80.5481,79.587944
"3539",59.30437,80.50172,79.558685
"3540",59.317707,80.482185,79.55483
"3541",59.331036,80.499275,79.58699
"3542",59.34437,80.54078,79.6441
"3543",59.3577,80.601814,79.72203
"3544",59.371037,80.65064,79.789665
"3545",59.384365,80.67506,79.83441
"3546",59.3977,80.66773,79.84818
"3547",59.41103,80.62379,79.8251
"3548",59.424366,80.54566,79.76647
"3549",59.437695,80.44312,79.680984
"3550",59.45103,80.323494,79.5752
"3551",59.46436,80.19165,79.45347
"3552",59.477695,80.05737,79.32518
"3553",59.491024,79.923096,79.192696
"3554",59.50436,79.7937,79.0609
"3555",59.51769,79.674065,78.934814
"3556",59.531025,79.5642,78.814766
"3557",59.544353,79.46899,78.70593
"3558",59.55769,79.381096,78.60145
"3559",59.57102,79.310295,78.51131
"3560",59.584354,79.256584,78.43604
"3561",59.597683,79.21507,78.3713
"3562",59.61102,79.183334,78.31503
"3563",59.624348,79.1638,78.26998
"3564",59.637684,79.16136,78.24141
"3565",59.651012,79.17845,78.23229
"3566",59.66435,79.217514,78.24568
"3567",59.677677,79.28344,78.287155
"3568",59.691013,79.37133,78.35265
"3569",59.70434,79.46899,78.430664
"3570",59.717678,79.55932,78.5044
"3571",59.731007,79.63012,78.56143
"3572",59.744343,79.676506,78.59626
"3573",59.75767,79.7058,78.61545
"3574",59.771008,79.73022,78.63067
"3575",59.784336,79.783936,78.67596
"3576",59.797672,79.90112,78.78639
"3577",59.811,80.11597,78.998146
"3578",59.824337,80.4358,79.3216
"3579",59.837666,80.833755,79.73318
"3580",59.851,81.24391,80.16939
"3581",59.86433,81.59548,80.55983
"3582",59.877666,81.832306,80.84651
"3583",59.890995,81.92508,80.996544
"3584",59.90433,81.90311,81.03473
"3585",59.91766,81.80789,80.998985
"3586",59.930996,81.7029,80.95049
"3587",59.944324,81.62722,80.928024
"3588",59.95766,81.61013,80.961784
"3589",59.97099,81.65652,81.05849
"3590",59.984325,81.76395,81.21768
"3591",59.997654,81.89334,81.4022
"3592",60.01099,81.99832,81.566345
"3593",60.02432,82.04471,81.67518
"3594",60.037655,82.03494,81.72931
"3595",60.050983,81.988556,81.74651
"3596",60.06432,81.93729,81.757385
"3597",60.07765,81.90799,81.78863
"3598",60.090984,81.9202,81.86046
"3599",60.104313,81.97391,81.974174
"3600",60.11765,82.056915,82.118866
"3601",60.130978,82.16678,82.29301
"3602",60.144314,82.30595,82.499886
"3603",60.157642,82.45487,82.72087
"3604",60.17098,82.59647,82.939186
"3605",60.184307,82.701454,83.125305
"3606",60.197643,82.75517,83.26344
"3607",60.21097,82.75029,83.34466
"3608",60.224308,82.68925,83.36956
"3609",60.237637,82.58915,83.3535
"3610",60.250973,82.45731,83.302574
"3611",60.2643,82.303505,83.225555
"3612",60.277637,82.13748,83.131516
"3613",60.290966,81.95926,83.02009
"3614",60.304302,81.78348,82.90553
"3615",60.31763,81.61257,82.79036
"3616",60.330967,81.444115,82.672295
"3617",60.344296,81.28542,82.55873
"3618",60.35763,81.146255,82.45973
"3619",60.37096,81.0193,82.3686
"3620",60.384296,80.90456,82.285706
"3621",60.397625,80.797134,82.20655
"3622",60.41096,80.689705,82.12403
"3623",60.42429,80.584724,82.0406
"3624",60.437626,80.47486,81.94901
"3625",60.450954,80.36988,81.85887
"3626",60.46429,80.27955,81.7801
"3627",60.47762,80.216064,81.72535
"3628",60.490955,80.17456,81.6906
"3629",60.504284,80.15503,81.67652
"3630",60.51762,80.14526,81.6716
"3631",60.53095,80.14282,81.6737
"3632",60.544285,80.15259,81.68793
"3633",60.557613,80.19409,81.7342
"3634",60.57095,80.289314,81.83549
"3635",60.58428,80.465096,82.02031
"3636",60.597614,80.740974,82.31072
"3637",60.610943,81.109634,82.70254
"3638",60.62428,81.54177,83.16935
"3639",60.637608,81.991,83.666756
"3640",60.650944,82.39628,84.134254
"3641",60.664272,82.7161,84.52896
"3642",60.67761,82.92607,84.82381
"3643",60.690937,83.02373,85.0129
"3644",60.704273,83.02861,85.112274
"3645",60.7176,82.9749,85.153206
"3646",60.730938,82.88701,85.15828
"3647",60.744267,82.78447,85.14596
"3648",60.757603,82.6746,85.1231
"3649",60.77093,82.562294,85.094376
"3650",60.784267,82.44511,85.05726
"3651",60.797596,82.31571,85.00427
"3652",60.810932,82.16922,84.930145
"3653",60.82426,82.01297,84.84168
"3654",60.837597,81.864044,84.75566
"3655",60.850925,81.72488,84.67474
"3656",60.86426,81.60525,84.60902
"3657",60.87759,81.50271,84.55664
"3658",60.890926,81.41482,84.51571
"3659",60.904255,81.32937,84.47447
"3660",60.91759,81.23659,84.42323
"3661",60.93092,81.129166,84.354454
"3662",60.944256,81.004654,84.26523
"3663",60.957584,80.867935,84.159904
"3664",60.97092,80.71412,84.03321
"3665",60.98425,80.552986,83.894394
"3666",60.997585,80.38453,83.74322
"3667",61.010914,80.21362,83.58433
"3668",61.02425,80.042725,83.420105
"3669",61.03758,79.85962,83.238335
"3670",61.050915,79.66674,83.04107
"3671",61.064243,79.4641,82.82802
"3672",61.07758,79.26147,82.608635
"3673",61.090908,79.061264,82.38535
"3674",61.104244,78.87572,82.17047
"3675",61.117573,78.709694,81.969315
"3676",61.13091,78.56077,81.78007
"3677",61.144238,78.43137,81.6057
"3678",61.157574,78.32151,81.446815
"3679",61.170902,78.23117,81.30402
"3680",61.18424,78.16037,81.17795
"3681",61.197567,78.10422,81.06431
"3682",61.210903,78.06027,80.96112
"3683",61.22423,78.013885,80.85412
"3684",61.237568,77.962616,80.74078
"3685",61.250896,77.91135,80.62585
"3686",61.264233,77.855194,80.504425
"3687",61.27756,77.79904,80.38125
"3688",61.290897,77.747765,80.26119
"3689",61.304226,77.696495,80.13954
"3690",61.317562,77.642784,80.01385
"3691",61.33089,77.593956,79.89136
"3692",61.344227,77.5671,79.789314
"3693",61.357555,77.58175,79.727936
"3694",61.37089,77.67452,79.74514
"3695",61.38422,77.86984,79.86779
"3696",61.397556,78.17502,80.1064
"3697",61.410885,78.57053,80.444885
"3698",61.42422,79.029526,80.85921
"3699",61.43755,79.50317,81.30252
"3700",61.450886,79.94751,81.73134
"3701",61.464214,80.325935,82.10812
"3702",61.47755,80.618904,82.41128
"3703",61.49088,80.814224,82.62594
"3704",61.504215,80.91676,82.75392
"3705",61.517544,80.94362,82.809425
"3706",61.53088,80.90944,82.80473
"3707",61.54421,80.82887,82.75259
"3708",61.557545,80.72144,82.67106
"3709",61.570873,80.6067,82.57886
"3710",61.58421,80.48951,82.48063
"3711",61.597538,80.377205,82.38362
"3712",61.610874,80.274666,82.29287
"3713",61.624203,80.19409,82.22088
"3714",61.63754,80.14282,82.175674
"3715",61.650867,80.128174,82.16549
"3716",61.664204,80.15503,82.19635
"3717",61.677532,80.218506,82.26467
"3718",61.69087,80.306404,82.3594
"3719",61.704197,80.394295,82.45686
"3720",61.717533,80.46998,82.54487
"3721",61.73086,80.51881,82.60838
"3722",61.744198,80.53101,82.6368
"3723",61.757526,80.5066,82.62898
"3724",61.770863,80.44312,82.58134
"3725",61.78419,80.34547,82.49753
"3726",61.797527,80.218506,82.38136
"3727",61.810856,80.059814,82.2295
"3728",61.824192,79.88159,82.05315
"3729",61.83752,79.693596,81.86145
"3730",61.850857,79.500725,81.659004
"3731",61.864185,79.31518,81.457855
"3732",61.87752,79.149155,81.27043
"3733",61.89085,79.00511,81.0998
"3734",61.904186,78.887924,80.95152
"3735",61.917515,78.79515,80.824
"3736",61.93085,78.73167,80.72286
"3737",61.94418,78.69993,80.65149
"3738",61.957516,78.695045,80.60598
"3739",61.970844,78.71702,80.58717
"3740",61.98418,78.76341,80.593475
"3741",61.99751,78.82933,80.62075
"3742",62.010845,78.9099,80.664734
"3743",62.024174,79.00511,80.72588
"3744",62.03751,79.11742,80.8071
"3745",62.05084,79.24193,80.90403
"3746",62.064175,79.37377,81.012184
"3747",62.077503,79.500725,81.11957
"3748",62.09084,79.62768,81.23092
"3749",62.104168,79.76196,81.35357
"3750",62.117504,79.906006,81.49017
"3751",62.130833,80.059814,81.641045
"3752",62.14417,80.22339,81.80649
"3753",62.157497,80.38209,81.97217
"3754",62.170834,80.52613,82.12815
"3755",62.184162,80.64576,82.26422
"3756",62.1975,80.743416,82.38206
"3757",62.210827,80.82399,82.48586
"3758",62.224163,80.91188,82.5995
"3759",62.23749,81.01686,82.73298
"3760",62.250828,81.160904,82.9088
"3761",62.264156,81.35378,83.137955
"3762",62.277493,81.59304,83.41952
"3763",62.29082,81.84207,83.71833
"3764",62.304157,82.05936,83.99318
"3765",62.317486,82.20828,84.20646
"3766",62.330822,82.28397,84.35116
"3767",62.34415,82.27909,84.41765
"3768",62.357487,82.193634,84.40341
"3769",62.370815,82.03006,84.30839
"3770",62.38415,81.79324,84.13501
"3771",62.39748,81.4905,83.888306
"3772",62.410816,81.13649,83.58087
"3773",62.424145,80.77516,83.25506
"3774",62.43748,80.482185,82.986305
"3775",62.45081,80.31373,82.83292
"3776",62.464146,80.30152,82.83051
"3777",62.477474,80.45289,82.9913
"3778",62.49081,80.74586,83.29842
"3779",62.50414,81.14137,83.71725
"3780",62.517475,81.600365,84.21191
"3781",62.530804,82.11795,84.7795
"3782",62.54414,82.67704,85.40478
"3783",62.55747,83.245895,86.05729
"3784",62.570805,83.775696,86.68852
"3785",62.584133,84.20294,87.23376
"3786",62.59747,84.48615,87.64831
"3787",62.610798,84.610664,87.91301
"3788",62.624134,84.613106,88.05953
"3789",62.637463,84.52766,88.11824
"3790",62.6508,84.37873,88.1108
"3791",62.664127,84.17609,88.04499
"3792",62.677464,83.931946,87.93135
"3793",62.690792,83.64629,87.76857
"3794",62.70413,83.33868,87.5749
"3795",62.717457,83.01396,87.354515
"3796",62.730793,82.68192,87.11666
"3797",62.74412,82.337685,86.85623
"3798",62.757458,81.97635,86.56795
"3799",62.770786,81.60769,86.26105
"3800",62.784122,81.253685,85.95728
"3801",62.79745,80.936295,85.67907
"3802",62.810787,80.672615,85.44465
"3803",62.824116,80.46754,85.26059
"3804",62.837452,80.308846,85.11651
"3805",62.85078,80.17456,84.991875
"3806",62.864117,80.042725,84.86549
"3807",62.877445,79.91577,84.739876
"3808",62.89078,79.79126,84.61273
"3809",62.90411,79.66918,84.48413
"3810",62.917446,79.537346,84.34196
"3811",62.930775,79.395744,84.1859
"3812",62.94411,79.23949,84.01076
"3813",62.95744,79.078354,83.82586
"3814",62.970776,78.924545,83.64325
"3815",62.984104,78.79759,83.48269
"3816",62.99744,78.71458,83.3621
"3817",63.01077,78.6804,83.28775
"3818",63.024105,78.70237,83.268486
"3819",63.037434,78.80003,83.3256
"3820",63.05077,78.99046,83.47853
"3821",63.0641,79.26635,83.72287
"3822",63.077435,79.61303,84.04662
"3823",63.090763,79.99878,84.42028
"3824",63.1041,80.36256,84.78402
"3825",63.117428,80.6482,85.08099
"3826",63.130764,80.8362,85.289246
"3827",63.144093,80.921646,85.400826
"3828",63.15743,80.902115,85.410095
"3829",63.170757,80.79469,85.330864
"3830",63.184093,80.61646,85.17747
"3831",63.197422,80.38697,84.96724
"3832",63.21076,80.12573,84.718094
"3833",63.224087,79.84009,84.43638
"3834",63.237423,79.54223,84.13352
"3835",63.25075,79.24437,83.82136
"3836",63.264088,78.95628,83.50966
"3837",63.277416,78.677956,83.198715
"3838",63.290752,78.41917,82.89861
"3839",63.30408,78.18234,82.61239
"3840",63.317417,77.979706,82.35295
"3841",63.330746,77.81857,82.128685
"3842",63.34408,77.70626,81.948204
"3843",63.35741,77.642784,81.81305
"3844",63.370747,77.61593,81.71253
"3845",63.384075,77.60128,81.62338
"3846",63.39741,77.57931,81.52645
"3847",63.41074,77.53292,81.40442
"3848",63.424076,77.467,81.261406
"3849",63.437405,77.383995,81.09924
"3850",63.45074,77.28878,80.92228
"3851",63.46407,77.18135,80.730125
"3852",63.477406,77.07393,80.53462
"3853",63.490734,76.995804,80.36506
"3854",63.50407,76.96651,80.24188
"3855",63.5174,76.998245,80.178825
"3856",63.530735,77.086136,80.17291
"3857",63.544064,77.208206,80.203926
"3858",63.5574,77.315636,80.22411
"3859",63.57073,77.37911,80.203705
"3860",63.584064,77.37179,80.11448
"3861",63.597393,77.296104,79.956665
"3862",63.61073,77.15938,79.73544
"3863",63.624058,76.978714,79.46601
"3864",63.637394,76.78584,79.17873
"3865",63.650723,76.60273,78.89517
"3866",63.66406,76.404976,78.591255
"3867",63.677387,76.17059,78.24453
"3868",63.690723,75.91669,77.87096
"3869",63.704052,75.67254,77.49921
"3870",63.71739,75.45037,77.14181
"3871",63.730717,75.245285,76.79455
"3872",63.744053,75.06218,76.46286
"3873",63.75738,74.879074,76.12545
"3874",63.770718,74.67887,75.76522
"3875",63.784046,74.478676,75.39874
"3876",63.797382,74.34928,75.09681
"3877",63.81071,74.33219,74.90314
"3878",63.824047,74.444496,74.838326
"3879",63.837376,74.683754,74.90398
"3880",63.85071,75.028,75.08209
"3881",63.86404,75.44305,75.34177
"3882",63.877377,75.90448,75.6608
"3883",63.890705,76.385445,76.01378
"3884",63.90404,76.84932,76.3647
"3885",63.91737,77.281456,76.69838
"3886",63.930706,77.67452,77.00649
"3887",63.944035,78.02365,77.28295
"3888",63.95737,78.31907,77.51661
"3889",63.9707,78.56565,77.71066
"3890",63.984035,78.75365,77.853836
"3891",63.997364,78.86839,77.929634
"3892",64.010704,78.907455,77.933334
"3893",64.02403,78.8806,77.87234
"3894",64.03737,78.81224,77.769
"3895",64.0507,78.74387,77.66351
"3896",64.06403,78.73411,77.614494
"3897",64.07736,78.81712,77.65795
"3898",64.0907,79.00267,77.80653
"3899",64.10403,79.26147,78.034164
"3900",64.11736,79.554436,78.304054
"3901",64.13069,79.82056,78.55625
"3902",64.14403,80.02319,78.75328
"3903",64.15736,80.1355,78.86631
"3904",64.17069,80.17456,78.90961
"3905",64.18402,80.147705,78.88821
"3906",64.19736,80.079346,78.82446
"3907",64.210686,79.971924,78.71952
"3908",64.22402,79.83276,78.57948
"3909",64.23735,79.65453,78.39603
"3910",64.25069,79.43725,78.167946
"3911",64.264015,79.183334,77.89645
"3912",64.27735,78.890366,77.57796
"3913",64.29068,78.551,77.20392
"3914",64.304016,78.16037,76.768005
"3915",64.317345,77.71847,76.268616
"3916",64.33068,77.24971,75.72856
"3917",64.34401,76.76387,75.15678
"3918",64.357346,76.29267,74.58445
"3919",64.370674,75.860535,74.03646
"3920",64.38401,75.47723,73.523796
"3921",64.39734,75.13054,73.035774
"3922",64.410675,74.80339,72.55646
"3923",64.424,74.486,72.076675
"3924",64.43734,74.19302,71.61139
"3925",64.45067,73.92935,71.16625
"3926",64.464005,73.70962,70.75681
"3927",64.47733,73.531395,70.38202
"3928",64.49067,73.38491,70.033394
"3929",64.504,73.26284,69.704605
"3930",64.517334,73.145645,69.37688
"3931",64.53066,73.03822,69.05526
"3932",64.544,72.97475,68.77423
"3933",64.55733,72.99184,68.571785
"3934",64.57066,73.109024,68.46997
"3935",64.58399,73.32876,68.474365
"3936",64.59733,73.64614,68.583275
"3937",64.61066,74.04166,68.780235
"3938",64.62399,74.48112,69.0335
"3939",64.63732,74.93767,69.31759
"3940",64.65066,75.38201,69.60374
"3941",64.66399,75.789734,69.86715
"3942",64.67732,76.12909,70.074936
"3943",64.69065,76.385445,70.21033
"3944",64.70399,76.55634,70.26827
"3945",64.717316,76.65888,70.2632
"3946",64.73065,76.72236,70.22227
"3947",64.74398,76.77852,70.176
"3948",64.75732,76.84688,70.14369
"3949",64.770645,76.93477,70.13305
"3950",64.78398,77.03731,70.1398
"3951",64.79731,77.13008,70.13999
"3952",64.810646,77.188675,70.1089
"3953",64.823975,77.208206,70.04058
"3954",64.83731,77.20332,69.948456
"3955",64.85064,77.20332,69.86106
"3956",64.863976,77.2375,69.807846
"3957",64.877304,77.32296,69.80698
"3958",64.89064,77.467,69.86736
"3959",64.90397,77.662315,69.98352
"3960",64.917305,77.88449,70.132645
"3961",64.93063,78.11398,70.29603
"3962",64.94397,78.33616,70.45927
"3963",64.9573,78.538795,70.60991
"3964",64.970634,78.70725,70.732704
"3965",64.98396,78.83177,70.816826
"3966",64.9973,78.91478,70.86333
"3967",65.01063,78.96361,70.87824
"3968",65.023964,78.98314,70.86539
"3969",65.03729,78.98314,70.83361
"3970",65.05063,78.97093,70.78963
"3971",65.06396,78.94896,70.7355
"3972",65.07729,78.9099,70.66359
"3973",65.09062,78.86107,70.580696
"3974",65.10396,78.80492,70.48895
"3975",65.11729,78.746315,70.393005
"3976",65.13062,78.69749,70.305
"3977",65.14395,78.66819,70.235
"3978",65.15729,78.660866,70.18606
"3979",65.170616,78.677956,70.1613
"3980",65.18395,78.71946,70.16149
"3981",65.19728,78.78294,70.18496
"3982",65.21062,78.86351,70.22749
"3983",65.223946,78.941635,70.2701
"3984",65.23728,79.0222,70.3176
"3985",65.25061,79.093,70.35784
"3986",65.26395,79.15648,70.392975
"3987",65.277275,79.20531,70.41544
"3988",65.29061,79.24681,70.43211
"3989",65.30394,79.28344,70.445206
"3990",65.317276,79.310295,70.44967
"3991",65.330605,79.32983,70.44765
"3992",65.34394,79.35424,70.45112
"3993",65.35727,79.41772,70.494415
"3994",65.370605,79.56664,70.625145
"3995",65.383934,79.84985,70.89481
"3996",65.39727,80.29664,71.33691
"3997",65.4106,80.89235,71.94189
"3998",65.423935,81.57351,72.65093
"3999",65.43726,82.26444,73.39104
"4000",65.4506,82.879684,74.07704
"4001",65.46393,83.35821,74.64555
"4002",65.477264,83.67559,75.06788
"4003",65.49059,83.83429,75.34144
"4004",65.50393,83.8587,75.48567
"4005",65.51726,83.78058,75.52813
"4006",65.530594,83.63653,75.50222
"4007",65.54392,83.46563,75.44496
"4008",65.55726,83.28741,75.37504
"4009",65.57059,83.123825,75.314186
"4010",65.58392,82.98711,75.275085
"4011",65.59725,82.87724,75.25857
"4012",65.61059,82.78447,75.25571
"4013",65.62392,82.701454,75.259705
"4014",65.63725,82.60624,75.24891
"4015",65.65058,82.493935,75.21805
"4016",65.66392,82.36942,75.17147
"4017",65.677246,82.2449,75.120995
"4018",65.69058,82.13992,75.08617
"4019",65.70391,82.0618,75.07491
"4020",65.71725,82.01297,75.090515
"4021",65.730576,81.97635,75.1168
"4022",65.74391,81.94217,75.14438
"4023",65.75724,81.89578,75.15868
"4024",65.77058,81.832306,75.15445
"4025",65.783905,81.75174,75.13114
"4026",65.79724,81.6614,75.09554
"4027",65.81057,81.5613,75.04736
"4028",65.823906,81.449,74.98385
"4029",65.837234,81.32693,74.90706
"4030",65.85057,81.19508,74.81668
"4031",65.8639,81.05348,74.712425
"4032",65.877235,80.90456,74.59642
"4033",65.890564,80.75807,74.4782
"4034",65.9039,80.61402,74.35784
"4035",65.91723,80.47486,74.23787
"4036",65.930565,80.343025,74.12087
"4037",65.94389,80.216064,74.00463
"4038",65.95723,80.10132,73.89664
"4039",65.97056,79.99634,73.79482
"4040",65.983894,79.89868,73.69705
"4041",65.99722,79.81079,73.605995
"4042",66.01056,79.73754,73.52683
"4043",66.02389,79.68383,73.46492
"4044",66.037224,79.64721,73.41842
"4045",66.05055,79.63012,73.390305
"4046",66.06389,79.63256,73.38119
"4047",66.07722,79.64233,73.37947
"4048",66.09055,79.64721,73.37318
"4049",66.10388,79.64477,73.35971
"4050",66.11722,79.62768,73.33152
"4051",66.13055,79.603264,73.29547
"4052",66.14388,79.58373,73.26354
"4053",66.15721,79.60815,73.27495
"4054",66.17055,79.727776,73.38233
"4055",66.183876,79.991455,73.637505
"4056",66.19721,80.40894,74.054726
"4057",66.21054,80.96315,74.62171
"4058",66.22388,81.583275,75.271935
"4059",66.237206,82.178986,75.91712
"4060",66.25054,82.65995,76.46618
"4061",66.26387,82.9749,76.86425
"4062",66.27721,83.10918,77.09149
"4063",66.290535,83.089645,77.16912
"4064",66.30387,82.96025,77.13628
"4065",66.3172,82.7625,77.03103
"4066",66.330536,82.533,76.887856
"4067",66.343864,82.30106,76.73508
"4068",66.3572,82.091095,76.597015
"4069",66.37053,81.90799,76.479256
"4070",66.383865,81.75906,76.38995
"4071",66.397194,81.634544,76.320404
"4072",66.41053,81.52712,76.26406
"4073",66.42386,81.42214,76.2068
"4074",66.437195,81.307396,76.1365
"4075",66.45052,81.19997,76.06992
"4076",66.46386,81.10475,76.01221
"4077",66.47719,81.03639,75.97837
"4078",66.490524,80.99489,75.96925
"4079",66.50385,80.98024,75.985695
"4080",66.51719,80.98268,76.01877
