"","Time..s.","PPG.trace","Preprocessed.PPG"
"30603",420.33664,81.75906,82.99347
"30604",420.34998,81.73708,83.02646
"30605",420.3633,81.634544,82.9782
"30606",420.37665,81.45388,82.84862
"30607",420.38998,81.19997,82.64014
"30608",420.40332,80.885025,82.36269
"30609",420.41666,80.53101,82.03634
"30610",420.43,80.15503,81.67695
"30611",420.44333,79.77417,81.300934
"30612",420.45667,79.40795,80.92766
"30613",420.47,79.06615,80.56735
"30614",420.48334,78.75365,80.22567
"30615",420.49667,78.47288,79.90595
"30616",420.51,78.22873,79.61408
"30617",420.52335,78.028534,79.358536
"30618",420.53668,77.8674,79.135796
"30619",420.55002,77.747765,78.94952
"30620",420.56335,77.66476,78.79613
"30621",420.5767,77.61837,78.676765
"30622",420.59003,77.608604,78.592575
"30623",420.60336,77.63302,78.54226
"30624",420.6167,77.68185,78.51712
"30625",420.63004,77.74532,78.508156
"30626",420.64337,77.806366,78.49874
"30627",420.6567,77.85275,78.47658
"30628",420.67004,77.87961,78.43633
"30629",420.68338,77.89914,78.3896
"30630",420.69672,77.94797,78.37278
"30631",420.71005,78.07004,78.430725
"30632",420.7234,78.32639,78.62677
"30633",420.73672,78.751205,78.99928
"30634",420.75006,79.34692,79.55597
"30635",420.7634,80.062256,80.2509
"30636",420.77673,80.81178,81.00237
"30637",420.79007,81.48318,81.699135
"30638",420.8034,81.99588,82.25819
"30639",420.81674,82.30106,82.62574
"30640",420.83008,82.391396,82.78798
"30641",420.8434,82.31083,82.78214
"30642",420.85675,82.10574,82.64927
"30643",420.8701,81.832306,82.441635
"30644",420.88342,81.54177,82.20836
"30645",420.89676,81.270775,81.98554
"30646",420.9101,81.03639,81.79087
"30647",420.92343,80.833755,81.62062
"30648",420.93677,80.66285,81.47577
"30649",420.9501,80.5066,81.34023
"30650",420.96344,80.36988,81.219345
"30651",420.97678,80.2649,81.12592
"30652",420.9901,80.20874,81.07804
"30653",421.00345,80.20386,81.07968
"30654",421.01678,80.24536,81.127556
"30655",421.03012,80.31617,81.20603
"30656",421.04346,80.38453,81.28427
"30657",421.0568,80.42603,81.33779
"30658",421.07013,80.42359,81.34866
"30659",421.08347,80.36744,81.30575
"30660",421.0968,80.26246,81.21225
"30661",421.11014,80.1062,81.06419
"30662",421.12347,79.90845,80.86976
"30663",421.1368,79.67895,80.6374
"30664",421.15015,79.432365,80.38078
"30665",421.16348,79.183334,80.11401
"30666",421.17682,78.94408,79.849236
"30667",421.19016,78.7219,79.59406
"30668",421.2035,78.53391,79.366135
"30669",421.21683,78.37278,79.15919
"30670",421.23016,78.23605,78.97161
"30671",421.2435,78.12131,78.80174
"30672",421.25684,78.030975,78.6527
"30673",421.27017,77.95773,78.51793
"30674",421.2835,77.90402,78.4004
"30675",421.29684,77.86984,78.30072
"30676",421.31018,77.85275,78.217064
"30677",421.32352,77.85275,78.14996
"30678",421.33685,77.86496,78.09507
"30679",421.3502,77.891815,78.05521
"30680",421.36353,77.925995,78.023506
"30681",421.37686,77.960175,77.992874
"30682",421.3902,77.98947,77.95843
"30683",421.40353,78.00656,77.91269
"30684",421.41687,78.009,77.85284
"30685",421.4302,77.994354,77.77597
"30686",421.44354,77.97482,77.69376
"30687",421.45688,77.945526,77.60118
"30688",421.4702,77.908905,77.50036
"30689",421.48355,77.86496,77.39107
"30690",421.4969,77.821014,77.2804
"30691",421.51022,77.77951,77.17081
"30692",421.52356,77.752655,77.07456
"30693",421.5369,77.77951,77.03119
"30694",421.55023,77.92355,77.10584
"30695",421.56357,78.260475,77.37788
"30696",421.5769,78.836655,77.8997
"30697",421.59024,79.64965,78.67634
"30698",421.60358,80.62623,79.64197
"30699",421.6169,81.63943,80.674736
"30700",421.63025,82.547646,81.634186
"30701",421.6436,83.23125,82.3974
"30702",421.65692,83.63653,82.903656
"30703",421.67026,83.76593,83.1467
"30704",421.6836,83.67071,83.16916
"30705",421.69693,83.41436,83.02752
"30706",421.71027,83.072556,82.79241
"30707",421.7236,82.718544,82.53442
"30708",421.73694,82.40116,82.30199
"30709",421.75027,82.14969,82.12555
"30710",421.7636,81.9617,82.00474
"30711",421.77695,81.82254,81.92688
"30712",421.79028,81.7029,81.8642
"30713",421.80362,81.58816,81.802666
"30714",421.81696,81.45632,81.72046
"30715",421.8303,81.32937,81.639015
"30716",421.84363,81.21217,81.56336
"30717",421.85696,81.12184,81.51091
"30718",421.8703,81.06325,81.48737
"30719",421.88364,81.024185,81.48154
"30720",421.89697,80.987564,81.47692
"30721",421.9103,80.93385,81.45407
"30722",421.92365,80.85329,81.40269
"30723",421.93698,80.740974,81.31704
"30724",421.95032,80.59205,81.19127
"30725",421.96365,80.40894,81.026665
"30726",421.977,80.20386,80.83436
"30727",421.99033,79.98413,80.621
"30728",422.00366,79.75952,80.3959
"30729",422.017,79.537346,80.16621
"30730",422.03033,79.327385,79.94179
"30731",422.04367,79.132065,79.72545
"30732",422.057,78.9514,79.51766
"30733",422.07034,78.7805,79.313995
"30734",422.08368,78.62913,79.12451
"30735",422.09702,78.49485,78.947395
"30736",422.11035,78.37766,78.78317
"30737",422.1237,78.28489,78.6397
"30738",422.13702,78.2092,78.510414
"30739",422.15036,78.15549,78.40074
"30740",422.1637,78.118866,78.30648
"30741",422.17703,78.09201,78.22084
"30742",422.19037,78.07248,78.141685
"30743",422.2037,78.06027,78.069244
"30744",422.21704,78.048065,77.99642
"30745",422.23038,78.0383,77.92566
"30746",422.2437,78.030975,77.85703
"30747",422.25705,78.01877,77.783295
"30748",422.2704,77.99924,77.70185
"30749",422.28372,77.97238,77.61247
"30750",422.29706,77.93576,77.51249
"30751",422.3104,77.89426,77.40648
"30752",422.32373,77.855194,77.30161
"30753",422.33707,77.821014,77.20041
"30754",422.3504,77.786835,77.09814
"30755",422.36374,77.752655,76.9948
"30756",422.37708,77.72335,76.89526
"30757",422.3904,77.69894,76.799706
"30758",422.40375,77.679405,76.70827
"30759",422.41708,77.67208,76.628426
"30760",422.43042,77.67696,76.56056
"30761",422.44376,77.68673,76.497734
"30762",422.4571,77.696495,76.43521
"30763",422.47043,77.7087,76.375435
"30764",422.48376,77.71603,76.31116
"30765",422.4971,77.71603,76.239784
"30766",422.51044,77.71603,76.16841
"30767",422.52377,77.71847,76.09948
"30768",422.5371,77.738,76.047714
"30769",422.55045,77.81857,76.0576
"30770",422.56378,78.0383,76.20916
"30771",422.57712,78.47288,76.582436
"30772",422.59045,79.16136,77.2232
"30773",422.6038,80.076904,78.11253
"30774",422.61713,81.126724,79.16476
"30775",422.63046,82.16922,80.24246
"30776",422.6438,83.04814,81.18917
"30777",422.65714,83.665825,81.90211
"30778",422.67047,83.9881,82.338936
"30779",422.6838,84.034485,82.50995
"30780",422.69714,83.8587,82.46024
"30781",422.71048,83.53155,82.25367
"30782",422.72382,83.123825,81.95631
"30783",422.73715,82.69901,81.62911
"30784",422.7505,82.303505,81.31795
"30785",422.76382,81.96414,81.05057
"30786",422.77716,81.68337,80.83118
"30787",422.7905,81.449,80.64941
"30788",422.80383,81.24635,80.49204
"30789",422.81717,81.077896,80.36253
"30790",422.8305,80.9485,80.26682
"30791",422.84384,80.88014,80.2281
"30792",422.85718,80.88014,80.25561
"30793",422.8705,80.95094,80.35391
"30794",422.88385,81.06325,80.49593
"30795",422.8972,81.180435,80.64635
"30796",422.91052,81.27322,80.77602
"30797",422.92386,81.31472,80.85731
"30798",422.9372,81.29519,80.87886
"30799",422.95053,81.214615,80.83876
"30800",422.96387,81.08034,80.74244
"30801",422.9772,80.89723,80.593094
"30802",422.99054,80.68238,80.40628
"30803",423.00388,80.44312,80.18835
"30804",423.0172,80.19165,79.95072
"30805",423.03055,79.94507,79.71013
"30806",423.04388,79.70336,79.466705
"30807",423.05722,79.47387,79.22794
"30808",423.07056,79.259026,78.99666
"30809",423.0839,79.06615,78.780624
"30810",423.09723,78.90013,78.58543
"30811",423.11057,78.765854,78.41678
"30812",423.1239,78.66331,78.275665
"30813",423.13724,78.58762,78.15821
"30814",423.15057,78.536354,78.062805
"30815",423.1639,78.50706,77.98777
"30816",423.17725,78.49485,77.92891
"30817",423.19058,78.49973,77.88676
"30818",423.20392,78.521706,77.86185
"30819",423.21725,78.54612,77.840065
"30820",423.2306,78.56565,77.81416
"30821",423.24393,78.57786,77.78155
"30822",423.25726,78.5803,77.73955
"30823",423.2706,78.57542,77.6903
"30824",423.28394,78.56321,77.633575
"30825",423.29727,78.54368,77.569145
"30826",423.3106,78.51194,77.4919
"30827",423.32394,78.467995,77.40145
"30828",423.33728,78.40696,77.29254
"30829",423.35062,78.331276,77.167076
"30830",423.36395,78.25315,77.036804
"30831",423.3773,78.17258,76.90164
"30832",423.39062,78.099335,76.77129
"30833",423.40396,78.05539,76.66795
"30834",423.4173,78.082245,76.63404
"30835",423.43063,78.24826,76.74013
"30836",423.44397,78.624245,77.06137
"30837",423.4573,79.22972,77.623856
"30838",423.47064,80.042725,78.41279
"30839",423.48398,80.9778,79.3492
"30840",423.4973,81.91043,80.312386
"30841",423.51065,82.703896,81.16555
"30842",423.524,83.2752,81.82135
"30843",423.53732,83.59014,82.23864
"30844",423.55066,83.65606,82.41675
"30845",423.564,83.5169,82.39184
"30846",423.57733,83.23125,82.21609
"30847",423.59067,82.862595,81.94841
"30848",423.604,82.459755,81.635025
"30849",423.61734,82.07156,81.3237
"30850",423.63068,81.71755,81.034424
"30851",423.644,81.40505,80.7756
"30852",423.65735,81.126724,80.541176
"30853",423.6707,80.87526,80.32492
"30854",423.68402,80.655525,80.13254
"30855",423.69736,80.482185,79.97968
"30856",423.7107,80.38209,79.89465
"30857",423.72403,80.36744,79.891945
"30858",423.73737,80.4358,79.97179
"30859",423.7507,80.56519,80.1148
"30860",423.76404,80.71168,80.278946
"30861",423.77737,80.83864,80.42815
"30862",423.7907,80.921646,80.53736
"30863",423.80405,80.938736,80.58325
"30864",423.81738,80.885025,80.558876
"30865",423.83072,80.765396,80.4669
"30866",423.84406,80.587166,80.31259
"30867",423.8574,80.36256,80.10633
"30868",423.87073,80.11597,79.87107
"30869",423.88406,79.85718,79.615906
"30870",423.8974,79.60082,79.35509
"30871",423.91074,79.3518,79.09359
"30872",423.92407,79.11986,78.84139
"30873",423.9374,78.9099,78.60393
"30874",423.95074,78.71946,78.379425
"30875",423.96408,78.551,78.17095
"30876",423.97742,78.41428,77.98895
"30877",423.99075,78.3093,77.83442
"30878",424.0041,78.23605,77.708336
"30879",424.01743,78.19455,77.61171
"30880",424.03076,78.18234,77.54308
"30881",424.0441,78.19211,77.49605
"30882",424.05743,78.221405,77.46885
"30883",424.07077,78.25803,77.4499
"30884",424.0841,78.30198,77.43941
"30885",424.09744,78.33616,77.420525
"30886",424.11078,78.363014,77.395386
"30887",424.1241,78.37766,77.35888
"30888",424.13745,78.37766,77.30818
"30889",424.1508,78.365456,77.24528
"30890",424.16412,78.33616,77.1649
"30891",424.17746,78.28733,77.06408
"30892",424.1908,78.221405,76.94463
"30893",424.20413,78.14572,76.81337
"30894",424.21747,78.0798,76.68951
"30895",424.2308,78.07004,76.619736
"30896",424.24414,78.19211,76.681496
"30897",424.25748,78.519264,76.952156
"30898",424.2708,79.10521,77.49183
"30899",424.28415,79.94263,78.301285
"30900",424.2975,80.94606,79.302925
"30901",424.31082,81.991,80.377426
"30902",424.32416,82.92851,81.37716
"30903",424.3375,83.63653,82.17669
"30904",424.35083,84.06622,82.720024
"30905",424.36417,84.21759,82.99846
"30906",424.3775,84.137024,83.04969
"30907",424.39084,83.88556,82.927505
"30908",424.40417,83.529106,82.692474
"30909",424.4175,83.13115,82.4048
"30910",424.43085,82.74052,82.112015
"30911",424.44418,82.38651,81.84365
"30912",424.45752,82.08377,81.615486
"30913",424.47086,81.82742,81.424255
"30914",424.4842,81.59792,81.25186
"30915",424.49753,81.38308,81.08695
"30916",424.51086,81.17799,80.92509
"30917",424.5242,81.00221,80.78612
"30918",424.53754,80.87526,80.69048
"30919",424.55087,80.81911,80.66168
"30920",424.5642,80.82643,80.6946
"30921",424.57755,80.885025,80.77902
"30922",424.59088,80.953384,80.87504
"30923",424.60422,81.004654,80.9561
"30924",424.61755,81.007095,80.98994
"30925",424.6309,80.95094,80.965256
"30926",424.64423,80.833755,80.877785
"30927",424.65756,80.66041,80.73049
"30928",424.6709,80.43336,80.52408
"30929",424.68423,80.17944,80.28371
"30930",424.69757,79.90845,80.01832
"30931",424.7109,79.639885,79.746895
"30932",424.72424,79.378654,79.47441
"30933",424.73758,79.12962,79.20596
"30934",424.75092,78.89769,78.94683
"30935",424.76425,78.68284,78.69753
"30936",424.7776,78.48997,78.4635
"30937",424.79092,78.32395,78.2503
"30938",424.80426,78.187225,78.061195
"30939",424.8176,78.07492,77.89224
"30940",424.83093,77.994354,77.75152
"30941",424.84427,77.93576,77.63025
"30942",424.8576,77.90402,77.534004
"30943",424.87094,77.89426,77.45874
"30944",424.88428,77.89914,77.39782
"30945",424.8976,77.90646,77.33949
"30946",424.91095,77.91623,77.28384
"30947",424.9243,77.91867,77.22116
"30948",424.93762,77.91379,77.15124
"30949",424.95096,77.90158,77.07384
"30950",424.9643,77.88937,76.996056
"30951",424.97763,77.872284,76.91301
"30952",424.99097,77.85031,76.82455
"30953",425.0043,77.823456,76.730515
"30954",425.01764,77.78439,76.623436
"30955",425.03098,77.730675,76.50048
"30956",425.0443,77.66964,76.36853
"30957",425.05765,77.60128,76.22735
"30958",425.07098,77.5378,76.08891
"30959",425.08432,77.50118,75.97535
"30960",425.09766,77.54513,75.94121
"30961",425.111,77.7551,76.07446
"30962",425.12433,78.20676,76.45597
"30963",425.13766,78.93431,77.12749
"30964",425.151,79.903564,78.06344
"30965",425.16434,81.00954,79.1664
"30966",425.17767,82.09598,80.284386
"30967",425.191,83.01152,81.26543
"30968",425.20435,83.6585,82.006516
"30969",425.21768,83.99786,82.460205
"30970",425.23102,84.0589,82.64617
"30971",425.24435,83.897766,82.61188
"30972",425.2577,83.59014,82.426056
"30973",425.27103,83.20439,82.1525
"30974",425.28436,82.804,81.85224
"30975",425.2977,82.43046,81.56632
"30976",425.31104,82.11307,81.32488
"30977",425.32437,81.85184,81.129684
"30978",425.3377,81.636986,80.9727
"30979",425.35104,81.444115,80.830986
"30980",425.36438,81.253685,80.685684
"30981",425.37772,81.05348,80.52466
"30982",425.39105,80.85817,80.36227
"30983",425.4044,80.68726,80.21818
"30984",425.41772,80.56031,80.1127
"30985",425.43106,80.48951,80.05941
"30986",425.4444,80.465096,80.05029
"30987",425.45773,80.45777,80.0575
"30988",425.47107,80.44068,80.05472
"30989",425.4844,80.394295,80.0221
"30990",425.49774,80.29908,79.93921
"30991",425.51108,80.16235,79.81183
"30992",425.5244,79.98169,79.63624
"30993",425.53775,79.77173,79.425705
"30994",425.5511,79.54467,79.19151
"30995",425.56442,79.310295,78.94291
"30996",425.57776,79.07347,78.68453
"30997",425.5911,78.84642,78.42853
"30998",425.60443,78.624245,78.1703
"30999",425.61777,78.4094,77.91247
"31000",425.6311,78.204315,77.65768
"31001",425.64444,78.01633,77.413574
"31002",425.65778,77.85031,77.18557
"31003",425.6711,77.71603,76.98411
"31004",425.68445,77.61349,76.810196
"31005",425.69778,77.540245,76.66238
"31006",425.71112,77.49142,76.53668
"31007",425.72446,77.46456,76.431435
"31008",425.7378,77.45968,76.34732
"31009",425.75113,77.46212,76.27038
"31010",425.76447,77.47677,76.20572
"31011",425.7778,77.49142,76.14152
"31012",425.79114,77.50118,76.07289
"31013",425.80447,77.50118,75.994804
"31014",425.8178,77.49142,75.90695
"31015",425.83115,77.471886,75.80903
"31016",425.84448,77.44259,75.70073
"31017",425.85782,77.40597,75.58419
"31018",425.87115,77.36935,75.46651
"31019",425.8845,77.33761,75.35256
"31020",425.89783,77.30587,75.237625
"31021",425.91116,77.281456,75.12902
"31022",425.9245,77.25704,75.01965
"31023",425.93784,77.239944,74.91684
"31024",425.95117,77.225296,74.81594
"31025",425.9645,77.21553,74.71947
"31026",425.97784,77.21309,74.63001
"31027",425.99118,77.21309,74.54292
"31028",426.00452,77.21553,74.458275
"31029",426.01785,77.22774,74.38347
"31030",426.0312,77.24971,74.31881
"31031",426.04453,77.27657,74.25973
"31032",426.05786,77.313194,74.21124
"31033",426.0712,77.349815,74.1639
"31034",426.08453,77.38155,74.11282
"31035",426.09787,77.40597,74.05541
"31036",426.1112,77.437706,74.00609
"31037",426.12454,77.50118,73.989494
"31038",426.13788,77.662315,74.07254
"31039",426.1512,78.00412,74.34129
"31040",426.16455,78.59251,74.86731
"31041",426.1779,79.432365,75.663185
"31042",426.19122,80.45289,76.66597
"31043",426.20456,81.52712,77.75436
"31044",426.2179,82.50126,78.776215
"31045",426.23123,83.243454,79.59657
"31046",426.24457,83.69268,80.147156
"31047",426.2579,83.861145,80.431015
"31048",426.27124,83.79767,80.4882
"31049",426.28458,83.56817,80.37737
"31050",426.2979,83.24101,80.16172
"31051",426.31125,82.879684,79.90167
"31052",426.3246,82.52323,79.63521
"31053",426.33792,82.210724,79.40155
"31054",426.35126,81.95438,79.21429
"31055",426.3646,81.76883,79.08981
"31056",426.37793,81.636986,79.013245
"31057",426.39127,81.53445,78.96186
"31058",426.4046,81.43923,78.9146
"31059",426.41794,81.341576,78.861916
"31060",426.43127,81.231705,78.79397
"31061",426.4446,81.13405,78.7348
"31062",426.45795,81.06569,78.70188
"31063",426.47128,81.03883,78.70833
"31064",426.48462,81.041275,78.74323
"31065",426.49796,81.058365,78.79286
"31066",426.5113,81.06081,78.82838
"31067",426.52463,81.02907,78.82979
"31068",426.53796,80.955826,78.788704
"31069",426.5513,80.83864,78.701385
"31070",426.56464,80.69215,78.5811
"31071",426.57797,80.516365,78.42695
"31072",426.5913,80.32105,78.24777
"31073",426.60464,80.11597,78.05272
"31074",426.61798,79.91089,77.851265
"31075",426.63132,79.710686,77.64828
"31076",426.64465,79.520256,77.44881
"31077",426.658,79.3518,77.26536
"31078",426.67133,79.19798,77.091286
"31079",426.68466,79.05882,76.92706
"31080",426.698,78.93919,76.77802
"31081",426.71133,78.84154,76.64722
"31082",426.72467,78.76341,76.53289
"31083",426.738,78.70237,76.433205
"31084",426.75134,78.66575,76.35603
"31085",426.76468,78.643776,76.292366
"31086",426.778,78.63401,76.24022
"31087",426.79135,78.63401,76.19753
"31088",426.8047,78.63889,76.15973
"31089",426.81802,78.6511,76.1294
"31090",426.83136,78.65354,76.08969
"31091",426.8447,78.6511,76.04517
"31092",426.85803,78.64622,75.99814
"31093",426.87137,78.63157,75.941185
"31094",426.8847,78.607155,75.87401
"31095",426.89804,78.58518,75.80851
"31096",426.91138,78.55833,75.73744
"31097",426.9247,78.53147,75.665535
"31098",426.93805,78.502174,75.59035
"31099",426.9514,78.467995,75.50936
"31100",426.96472,78.42893,75.422424
"31101",426.97806,78.39475,75.33915
"31102",426.9914,78.363014,75.25725
"31103",427.00473,78.331276,75.174355
"31104",427.01807,78.30442,75.09535
"31105",427.0314,78.29221,75.03016
"31106",427.04474,78.28977,74.97435
"31107",427.05807,78.2971,74.92823
"31108",427.0714,78.3093,74.88722
"31109",427.08475,78.32151,74.846596
"31110",427.09808,78.33616,74.80879
"31111",427.11142,78.345924,74.76656
"31112",427.12476,78.35081,74.71976
"31113",427.1381,78.35569,74.6731
"31114",427.15143,78.37034,74.63637
"31115",427.16476,78.40696,74.62206
"31116",427.1781,78.504616,74.66994
"31117",427.19144,78.729225,74.84782
"31118",427.20477,79.149155,75.228035
"31119",427.2181,79.79614,75.848434
"31120",427.23145,80.63355,76.679474
"31121",427.24478,81.57107,77.63679
"31122",427.25812,82.476845,78.59166
"31123",427.27145,83.21904,79.411255
"31124",427.2848,83.71221,80.00502
"31125",427.29813,83.93683,80.34564
"31126",427.31146,83.92706,80.4589
"31127",427.3248,83.74151,80.396065
"31128",427.33813,83.44366,80.21513
"31129",427.35147,83.09209,79.971176
"31130",427.3648,82.735634,79.71135
"31131",427.37814,82.408485,79.46969
"31132",427.39148,82.13748,79.27395
"31133",427.40482,81.934845,79.13811
"31134",427.41815,81.795685,79.05941
"31135",427.4315,81.69802,79.01786
"31136",427.44482,81.617455,78.99036
"31137",427.45816,81.532005,78.95545
"31138",427.4715,81.42947,78.90079
"31139",427.48483,81.31716,78.83315
"31140",427.49817,81.2195,78.77665
"31141",427.5115,81.15358,78.74884
"31142",427.52484,81.12428,78.75559
"31143",427.53818,81.129166,78.79561
"31144",427.5515,81.143814,78.84554
"31145",427.56485,81.1487,78.88617
"31146",427.5782,81.1194,78.89277
"31147",427.59152,81.05104,78.85939
"31148",427.60486,80.938736,78.77993
"31149",427.6182,80.79225,78.66278
"31150",427.63153,80.62623,78.521515
"31151",427.64487,80.445564,78.36042
"31152",427.6582,80.257576,78.186356
"31153",427.67154,80.07202,78.00885
"31154",427.68488,79.89868,77.83776
"31155",427.6982,79.7351,77.67101
"31156",427.71155,79.59106,77.51869
"31157",427.72488,79.45922,77.37408
"31158",427.73822,79.344475,77.24243
"31159",427.75156,79.23949,77.11696
"31160",427.7649,79.14671,77.00042
"31161",427.77823,79.06859,76.89563
"31162",427.79156,79.012436,76.81037
"31163",427.8049,78.975815,76.74289
"31164",427.81824,78.96117,76.696236
"31165",427.83157,78.95628,76.65889
"31166",427.8449,78.958725,76.628716
"31167",427.85825,78.96605,76.6035
"31168",427.87158,78.96849,76.57363
"31169",427.88492,78.96849,76.5414
"31170",427.89825,78.96605,76.50672
"31171",427.9116,78.958725,76.46709
"31172",427.92493,78.94408,76.4199
"31173",427.93826,78.91966,76.36249
"31174",427.9516,78.890366,76.29943
"31175",427.96494,78.856186,76.230576
"31176",427.97827,78.819565,76.15821
"31177",427.9916,78.78294,76.0847
"31178",428.00494,78.751205,76.01493
"31179",428.01828,78.71702,75.94172
"31180",428.03162,78.68284,75.86745
"31181",428.04495,78.6511,75.79455
"31182",428.0583,78.624245,75.72554
"31183",428.07162,78.60227,75.660576
"31184",428.08496,78.59251,75.60713
"31185",428.0983,78.590065,75.56071
"31186",428.11163,78.59251,75.51909
"31187",428.12497,78.59495,75.47755
"31188",428.1383,78.60227,75.44096
"31189",428.15164,78.6096,75.40461
"31190",428.16498,78.61204,75.3636
"31191",428.1783,78.61448,75.32267
"31192",428.19165,78.6218,75.2867
"31193",428.205,78.63645,75.25828
"31194",428.21832,78.68528,75.264496
"31195",428.23166,78.836655,75.37479
"31196",428.245,79.16136,75.66314
"31197",428.25833,79.69848,76.17405
"31198",428.27167,80.445564,76.91171
"31199",428.285,81.32937,77.80944
"31200",428.29834,82.22049,78.7421
"31201",428.31168,82.98711,79.57811
"31202",428.325,83.53399,80.21834
"31203",428.33835,83.8172,80.611984
"31204",428.35168,83.85382,80.76789
"31205",428.36502,83.702446,80.736946
"31206",428.37836,83.41924,80.56944
"31207",428.3917,83.06767,80.32472
"31208",428.40503,82.69901,80.051926
"31209",428.41837,82.357216,79.79447
"31210",428.4317,82.0618,79.572716
"31211",428.44504,81.83475,79.410095
"31212",428.45837,81.66628,79.298965
"31213",428.4717,81.55154,79.23629
"31214",428.48505,81.45876,79.192
"31215",428.49838,81.373314,79.15214
"31216",428.51172,81.27566,79.0974
"31217",428.52505,81.17555,79.037155
"31218",428.5384,81.08522,78.98356
"31219",428.55173,81.02663,78.95888
"31220",428.56506,81.004654,78.96899
"31221",428.5784,81.01442,79.01015
"31222",428.59174,81.03883,79.06626
"31223",428.60507,81.05592,79.115814
"31224",428.6184,81.04372,79.136604
"31225",428.63174,80.99733,79.12283
"31226",428.64508,80.90944,79.06611
"31227",428.65842,80.78737,78.97246
"31228",428.67175,80.64088,78.85057
"31229",428.6851,80.4773,78.70702
"31230",428.69843,80.30152,78.54616
"31231",428.71176,80.12329,78.37735
"31232",428.7251,79.94263,78.20054
"31233",428.73843,79.76929,78.025406
"31234",428.75177,79.603264,77.85217
"31235",428.7651,79.4519,77.68841
"31236",428.77844,79.3225,77.541885
"31237",428.79178,79.217514,77.415726
"31238",428.8051,79.12962,77.30338
"31239",428.81845,79.05638,77.20294
"31240",428.8318,79.00023,77.1173
"31241",428.84512,78.96117,77.047
"31242",428.85846,78.93919,76.99256
"31243",428.8718,78.93187,76.95209
"31244",428.88513,78.93431,76.92115
"31245",428.89847,78.94652,76.900055
"31246",428.9118,78.958725,76.87934
"31247",428.92514,78.96361,76.851685
"31248",428.93848,78.96605,76.82174
"31249",428.9518,78.96605,76.78943
"31250",428.96515,78.96117,76.752235
"31251",428.9785,78.94652,76.705124
"31252",428.99182,78.924545,76.65023
"31253",429.00516,78.90257,76.59465
"31254",429.0185,78.873276,76.53106
"31255",429.03183,78.84154,76.46411
"31256",429.04517,78.80003,76.386406
"31257",429.0585,78.76341,76.31229
"31258",429.07184,78.7219,76.23213
"31259",429.08517,78.68284,76.15313
"31260",429.0985,78.65354,76.08267
"31261",429.11185,78.63157,76.01862
"31262",429.12518,78.61692,75.96121
"31263",429.13852,78.60471,75.905785
"31264",429.15186,78.60227,75.85974
"31265",429.1652,78.60227,75.81606
"31266",429.17853,78.607155,75.77727
"31267",429.19186,78.61448,75.741066
"31268",429.2052,78.6218,75.70509
"31269",429.21854,78.624245,75.66447
"31270",429.23187,78.626686,75.62392
"31271",429.2452,78.62913,75.58344
"31272",429.25854,78.643776,75.55525
"31273",429.27188,78.69016,75.55926
"31274",429.28522,78.83177,75.659935
"31275",429.29855,79.13939,75.931046
"31276",429.3119,79.66186,76.42662
"31277",429.32523,80.38941,77.14361
"31278",429.33856,81.25613,78.02249
"31279",429.3519,82.13992,78.94554
"31280",429.36523,82.899216,79.771706
"31281",429.37857,83.42901,80.3921
"31282",429.3919,83.69024,80.76048
"31283",429.40524,83.70733,80.89289
"31284",429.41858,83.53155,80.83296
"31285",429.43192,83.23125,80.64302
"31286",429.44525,82.865036,80.377785
"31287",429.4586,82.48661,80.08889
"31288",429.47192,82.13016,79.81014
"31289",429.48526,81.8201,79.56665
"31290",429.4986,81.56863,79.372055
"31291",429.51193,81.38064,79.233086
"31292",429.52527,81.24391,79.1395
"31293",429.5386,81.13649,79.07095
"31294",429.55194,81.041275,79.01125
"31295",429.56528,80.9485,78.95102
"31296",429.5786,80.85573,78.887886
"31297",429.59195,80.7776,78.8365
"31298",429.6053,80.73121,78.81441
"31299",429.61862,80.72877,78.834816
"31300",429.63196,80.75807,78.886894
"31301",429.6453,80.80934,78.96185
"31302",429.65863,80.85573,79.03353
"31303",429.67197,80.87526,79.0798
"31304",429.6853,80.85329,79.08518
"31305",429.69864,80.78493,79.04349
"31306",429.71198,80.672615,78.9557
"31307",429.7253,80.52613,78.83024
"31308",429.73865,80.360115,78.680664
"31309",429.75198,80.184326,78.51613
"31310",429.76532,80.008545,78.34611
"31311",429.77866,79.83765,78.175476
"31312",429.792,79.674065,78.00682
"31313",429.80533,79.5227,77.84527
"31314",429.81866,79.38354,77.69119
"31315",429.832,79.26391,77.5523
"31316",429.84534,79.1638,77.42919
"31317",429.85867,79.08568,77.324936
"31318",429.872,79.02464,77.23533
"31319",429.88535,78.975815,77.15602
"31320",429.89868,78.941635,77.089836
"31321",429.91202,78.91722,77.03235
"31322",429.92535,78.90257,76.983864
"31323",429.9387,78.89525,76.942245
"31324",429.95203,78.89769,76.910164
"31325",429.96536,78.907455,76.88548
"31326",429.9787,78.922104,76.86599
"31327",429.99203,78.93675,76.846954
"31328",430.00537,78.94896,76.825935
"31329",430.0187,78.95628,76.800415
"31330",430.03204,78.95628,76.7678
"31331",430.04538,78.9514,76.7303
"31332",430.05872,78.93187,76.678
"31333",430.07205,78.90257,76.615326
"31334",430.0854,78.86595,76.54441
"31335",430.09872,78.82201,76.46503
"31336",430.11206,78.77806,76.38427
"31337",430.1254,78.74143,76.309456
"31338",430.13873,78.709694,76.23839
"31339",430.15207,78.68528,76.17365
"31340",430.1654,78.660866,76.108154
"31341",430.17874,78.64622,76.05166
"31342",430.19208,78.63645,75.99959
"31343",430.2054,78.626686,75.94721
"31344",430.21875,78.624245,75.901855
"31345",430.2321,78.6218,75.85642
"31346",430.24542,78.624245,75.815796
"31347",430.25876,78.63157,75.78013
"31348",430.2721,78.63889,75.74469
"31349",430.28543,78.64622,75.70948
"31350",430.29877,78.65354,75.6745
"31351",430.3121,78.660866,75.63975
"31352",430.32544,78.6804,75.61743
"31353",430.33878,78.74876,75.644554
"31354",430.3521,78.93675,75.79345
"31355",430.36545,79.310295,76.133766
"31356",430.37878,79.89868,76.7006
"31357",430.39212,80.672615,77.47137
"31358",430.40546,81.54177,78.36154
"31359",430.4188,82.374306,79.242256
"31360",430.43213,83.03349,79.97564
"31361",430.44547,83.45098,80.48792
"31362",430.4588,83.617,80.76178
"31363",430.47214,83.56817,80.82598
"31364",430.48547,83.35821,80.72752
"31365",430.4988,83.053024,80.52728
"31366",430.51215,82.69657,80.266235
"31367",430.52548,82.32304,79.97697
"31368",430.53882,81.96658,79.69311
"31369",430.55215,81.654076,79.442055
"31370",430.5655,81.39773,79.2374
"31371",430.57883,81.19508,79.07843
"31372",430.59216,81.03883,78.959526
"31373",430.6055,80.91432,78.86748
"31374",430.61884,80.80446,78.78619
"31375",430.63217,80.706795,78.71366
"31376",430.6455,80.62379,78.65274
"31377",430.65884,80.570076,78.61852
"31378",430.67218,80.56031,78.62657
"31379",430.68552,80.59449,78.67826
"31380",430.69885,80.66041,78.76276
"31381",430.7122,80.743416,78.8664
"31382",430.72552,80.816666,78.96288
"31383",430.73886,80.85817,79.02991
"31384",430.7522,80.850845,79.0494
"31385",430.76553,80.78981,79.01495
"31386",430.77887,80.68482,78.93465
"31387",430.7922,80.54322,78.814445
"31388",430.80554,80.37965,78.66785
"31389",430.81888,80.2063,78.50636
"31390",430.8322,80.0354,78.34191
"31391",430.84555,79.869385,78.177
"31392",430.8589,79.708244,78.01178
"31393",430.87222,79.554436,77.848854
"31394",430.88556,79.42016,77.70065
"31395",430.8989,79.30053,77.562904
"31396",430.91223,79.19798,77.4385
"31397",430.92557,79.114975,77.33043
"31398",430.9389,79.05394,77.24174
"31399",430.95224,79.012436,77.17067
"31400",430.96558,78.98558,77.11295
"31401",430.9789,78.97093,77.066605
"31402",430.99225,78.97093,77.03445
"31403",431.00558,78.97826,77.00961
"31404",431.01892,78.99046,76.98989
"31405",431.03226,79.00511,76.97299
"31406",431.0456,79.0222,76.95899
"31407",431.05893,79.03197,76.9382
"31408",431.07227,79.03929,76.915276
"31409",431.0856,79.03441,76.88037
"31410",431.09894,79.027084,76.84287
"31411",431.11227,79.0222,76.80759
"31412",431.1256,79.01488,76.76971
"31413",431.13895,79.00267,76.726715
"31414",431.15228,78.98558,76.67846
"31415",431.16562,78.96361,76.62479
"31416",431.17896,78.93675,76.565544
"31417",431.1923,78.905014,76.50058
"31418",431.20563,78.873276,76.43462
"31419",431.21896,78.84642,76.37256
"31420",431.2323,78.82201,76.312096
"31421",431.24564,78.79759,76.25087
"31422",431.25897,78.77806,76.19376
"31423",431.2723,78.768295,76.14581
"31424",431.28564,78.75853,76.09756
"31425",431.29898,78.75365,76.05388
"31426",431.31232,78.75365,76.01493
"31427",431.32565,78.75609,75.978424
"31428",431.339,78.75853,75.94199
"31429",431.35233,78.765854,75.91052
"31430",431.36566,78.80736,75.91346
"31431",431.379,78.9514,76.02023
"31432",431.39233,79.273674,76.30974
"31433",431.40567,79.818115,76.83148
"31434",431.419,80.57252,77.5802
"31435",431.43234,81.45388,78.479454
"31436",431.44568,82.32304,79.39404
"31437",431.459,83.05058,80.19418
"31438",431.47235,83.53399,80.77292
"31439",431.4857,83.75128,81.10065
"31440",431.49902,83.73907,81.20566
"31441",431.51236,83.55108,81.134514
"31442",431.5257,83.243454,80.93786
"31443",431.53903,82.87236,80.66812
"31444",431.55237,82.48661,80.37213
"31445",431.5657,82.11551,80.078735
"31446",431.57904,81.78348,79.81281
"31447",431.59238,81.50271,79.587776
"31448",431.6057,81.2781,79.410126
"31449",431.61905,81.09743,79.269394
"31450",431.6324,80.95094,79.1572
"31451",431.64572,80.82399,79.05997
"31452",431.65906,80.71168,78.973404
"31453",431.6724,80.61402,78.89799
"31454",431.68573,80.55543,78.85858
"31455",431.69907,80.54078,78.86129
"31456",431.7124,80.57984,78.91725
"31457",431.72574,80.66285,79.01838
"31458",431.73907,80.765396,79.14164
"31459",431.7524,80.85573,79.25589
"31460",431.76575,80.91188,79.33878
"31461",431.77908,80.91188,79.36728
"31462",431.79242,80.86061,79.344505
"31463",431.80576,80.762955,79.27374
"31464",431.8191,80.63111,79.16574
"31465",431.83243,80.47486,79.02921
"31466",431.84576,80.30396,78.87315
"31467",431.8591,80.12573,78.70442
"31468",431.87244,79.94507,78.52769
"31469",431.88577,79.766846,78.34775
"31470",431.8991,79.60082,78.17444
"31471",431.91245,79.45434,78.01548
"31472",431.92578,79.32494,77.86903
"31473",431.93912,79.21507,77.73807
"31474",431.95245,79.1223,77.620766
"31475",431.9658,79.046616,77.517654
"31476",431.97913,78.98802,77.42927
"31477",431.99246,78.94652,77.35614
"31478",432.0058,78.922104,77.298805
"31479",432.01913,78.91234,77.255356
"31480",432.03247,78.91722,77.22625
"31481",432.0458,78.92699,77.20218
"31482",432.05914,78.93919,77.180855
"31483",432.07248,78.94896,77.15747
"31484",432.08582,78.95628,77.13195
"31485",432.09915,78.9514,77.09445
"31486",432.1125,78.94652,77.0568
"31487",432.12582,78.93675,77.014114
"31488",432.13916,78.92699,76.97112
"31489",432.1525,78.907455,76.91806
"31490",432.16583,78.88548,76.861946
"31491",432.17917,78.86107,76.802704
"31492",432.1925,78.83177,76.737816
"31493",432.20584,78.80492,76.67445
"31494",432.21918,78.78294,76.615135
"31495",432.2325,78.76097,76.55513
"31496",432.24585,78.74143,76.49687
"31497",432.2592,78.72434,76.44045
"31498",432.27252,78.709694,76.38594
"31499",432.28586,78.69993,76.33585
"31500",432.2992,78.69016,76.28546
"31501",432.31253,78.6804,76.234764
"31502",432.32587,78.675514,76.188644
"31503",432.3392,78.66819,76.13993
"31504",432.35254,78.65598,76.086105
"31505",432.36588,78.64622,76.03434
"31506",432.3792,78.65354,75.99936
"31507",432.39255,78.71946,76.0232
"31508",432.40588,78.91722,76.18095
"31509",432.41922,79.32494,76.55483
"31510",432.43256,79.96948,77.178276
"31511",432.4459,80.8069,78.01474
"31512",432.45923,81.73464,78.9677
"31513",432.47256,82.60868,79.89594
"31514",432.4859,83.29717,80.665955
"31515",432.49924,83.72686,81.19868
"31516",432.51257,83.888,81.47628
"31517",432.5259,83.81964,81.52942
"31518",432.53925,83.58526,81.4144
"31519",432.55258,83.24834,81.189514
"31520",432.56592,82.862595,80.90528
"31521",432.57925,82.47196,80.6041
"31522",432.5926,82.10574,80.31513
"31523",432.60593,81.78104,80.05623
"31524",432.61926,81.50271,79.83356
"31525",432.6326,81.27566,79.653465
"31526",432.64594,81.094986,79.51266
"31527",432.65927,80.94606,79.39795
"31528",432.6726,80.81911,79.30056
"31529",432.68594,80.719,79.22605
"31530",432.69928,80.6482,79.17772
"31531",432.71262,80.61402,79.163795
"31532",432.72595,80.62623,79.19519
"31533",432.7393,80.69215,79.28068
"31534",432.75262,80.78737,79.39753
"31535",432.76596,80.88991,79.52467
"31536",432.7793,80.96803,79.63061
"31537",432.79263,81.00954,79.70236
"31538",432.80597,80.99489,79.71926
"31539",432.8193,80.92409,79.67955
"31540",432.83264,80.80446,79.5888
"31541",432.84598,80.65064,79.46012
"31542",432.8593,80.47242,79.30223
"31543",432.87265,80.28199,79.126564
"31544",432.886,80.08911,78.9425
"31545",432.89932,79.90112,78.75729
"31546",432.91266,79.72045,78.57353
"31547",432.926,79.551994,78.39634
"31548",432.93933,79.395744,78.22609
"31549",432.95267,79.25414,78.065605
"31550",432.966,79.13451,77.92266
"31551",432.97934,79.03685,77.79796
"31552",432.99268,78.958725,77.689735
"31553",433.006,78.905014,77.603485
"31554",433.01935,78.86595,77.530205
"31555",433.03268,78.84398,77.47279
"31556",433.04602,78.836655,77.429344
"31557",433.05936,78.84154,77.39787
"31558",433.0727,78.8513,77.37144
"31559",433.08603,78.86107,77.34531
"31560",433.09937,78.873276,77.32192
"31561",433.1127,78.8806,77.29404
"31562",433.12604,78.887924,77.26638
"31563",433.13937,78.887924,77.23163
"31564",433.1527,78.88548,77.194435
"31565",433.16605,78.873276,77.1474
"31566",433.17938,78.86107,77.09998
"31567",433.19272,78.839096,77.04242
"31568",433.20605,78.81468,76.98173
"31569",433.2194,78.785385,76.91539
"31570",433.23273,78.75853,76.85058
"31571",433.24606,78.729225,76.78248
"31572",433.2594,78.69749,76.71103
"31573",433.27274,78.66819,76.64103
"31574",433.28607,78.63889,76.570114
"31575",433.2994,78.61204,76.500725
"31576",433.31274,78.58518,76.4305
"31577",433.32608,78.555885,76.35699
"31578",433.33942,78.52903,76.285
"31579",433.35275,78.504616,76.21462
"31580",433.3661,78.519264,76.18254
"31581",433.37943,78.63889,76.2559
"31582",433.39276,78.95384,76.52831
"31583",433.4061,79.51293,77.05471
"31584",433.41943,80.308846,77.8354
"31585",433.43277,81.25857,78.79478
"31586",433.4461,82.230255,79.80579
"31587",433.45944,83.06767,80.712906
"31588",433.47278,83.665825,81.40692
"31589",433.4861,83.98566,81.84131
"31590",433.49945,84.04913,82.029335
"31591",433.5128,83.90509,82.011826
"31592",433.52612,83.612114,81.84088
"31593",433.53946,83.23125,81.57289
"31594",433.5528,82.80888,81.2515
"31595",433.56613,82.391396,80.92179
"31596",433.57947,82.005646,80.61077
"31597",433.5928,81.671165,80.33897
"31598",433.60614,81.39529,80.11531
"31599",433.61948,81.17067,79.934296
"31600",433.6328,80.98024,79.78045
"31601",433.64615,80.81178,79.642624
"31602",433.6595,80.66773,79.52394
"31603",433.67282,80.55787,79.434944
"31604",433.68616,80.50172,79.396225
"31605",433.6995,80.51148,79.42167
"31606",433.71283,80.57984,79.50601
"31607",433.72617,80.69459,79.63888
"31608",433.7395,80.82399,79.789986
"31609",433.75284,80.938736,79.93048
"31610",433.76617,81.01442,80.0355
"31611",433.7795,81.03639,80.08917
"31612",433.79285,80.99977,80.08494
"31613",433.80618,80.90456,80.020966
"31614",433.81952,80.76051,79.90519
"31615",433.83286,80.57496,79.7434
"31616",433.8462,80.36744,79.55385
"31617",433.85953,80.15015,79.34804
"31618",433.87286,79.937744,79.14033
"31619",433.8862,79.73266,78.9333
"31620",433.89954,79.534904,78.72719
"31621",433.91287,79.35424,78.53199
"31622",433.9262,79.19066,78.34823
"31623",433.93954,79.044174,78.17645
"31624",433.95288,78.91722,78.01963
"31625",433.96622,78.81712,77.8857
"31626",433.97955,78.73899,77.7706
"31627",433.9929,78.6804,77.6726
"31628",434.00623,78.643776,77.59474
"31629",434.01956,78.6218,77.53039
"31630",434.0329,78.61692,77.48244
"31631",434.04623,78.624245,77.44654
"31632",434.05957,78.63645,77.41576
"31633",434.0729,78.6511,77.387794
"31634",434.08624,78.66575,77.36029
"31635",434.09958,78.6804,77.333244
"31636",434.1129,78.692604,77.304214
"31637",434.12625,78.70237,77.273125
"31638",434.1396,78.70725,77.23746
"31639",434.15292,78.70481,77.19462
"31640",434.16626,78.68772,77.137054
"31641",434.1796,78.66331,77.07163
"31642",434.19293,78.62913,76.99568
"31643",434.20627,78.590065,76.91378
"31644",434.2196,78.54612,76.825775
"31645",434.23294,78.502174,76.7364
"31646",434.24628,78.45823,76.645645
"31647",434.2596,78.4094,76.54864
"31648",434.27295,78.365456,76.45499
"31649",434.2863,78.34348,76.381935
"31650",434.29962,78.39475,76.38144
"31651",434.31296,78.59495,76.53147
"31652",434.3263,79.027084,76.9197
"31653",434.33963,79.72045,77.582664
"31654",434.35297,80.63111,78.48459
"31655",434.3663,81.654076,79.527275
"31656",434.37964,82.63798,80.56287
"31657",434.39297,83.43633,81.44366
"31658",434.4063,83.963684,82.07839
"31659",434.41965,84.20294,82.44151
"31660",434.43298,84.18341,82.55332
"31661",434.44632,83.97101,82.47165
"31662",434.45966,83.6292,82.25394
"31663",434.473,83.21416,81.9523
"31664",434.48633,82.77226,81.61085
"31665",434.49966,82.34257,81.267784
"31666",434.513,81.951935,80.950356
"31667",434.52634,81.61501,80.67443
"31668",434.53967,81.341576,80.45146
"31669",434.553,81.11696,80.26877
"31670",434.56635,80.92897,80.115685
"31671",434.57968,80.76784,79.98358
"31672",434.59302,80.64332,79.88306
"31673",434.60635,80.552986,79.81283
"31674",434.6197,80.51881,79.79593
"31675",434.63303,80.54566,79.839
"31676",434.64636,80.62379,79.93417
"31677",434.6597,80.726326,80.056206
"31678",434.67303,80.82887,80.18145
"31679",434.68637,80.90944,80.28792
"31680",434.6997,80.94118,80.348076
"31681",434.71304,80.91676,80.35307
"31682",434.72638,80.833755,80.29871
"31683",434.73972,80.69947,80.19048
"31684",434.75305,80.51881,80.03168
"31685",434.7664,80.30396,79.833046
"31686",434.77972,80.07446,79.613045
"31687",434.79306,79.84253,79.38344
"31688",434.8064,79.61303,79.14902
"31689",434.81973,79.39086,78.91476
"31690",434.83307,79.183334,78.688194
"31691",434.8464,78.99046,78.4698
"31692",434.85974,78.81712,78.264915
"31693",434.87308,78.66575,78.07658
"31694",434.8864,78.54124,77.91037
"31695",434.89975,78.44114,77.76469
"31696",434.9131,78.365456,77.64029
"31697",434.92642,78.314186,77.53794
"31698",434.93976,78.28733,77.458405
"31699",434.9531,78.27512,77.39268
"31700",434.96643,78.277565,77.34122
"31701",434.97977,78.28733,77.29716
"31702",434.9931,78.30198,77.258286
"31703",435.00644,78.3093,77.21255
"31704",435.01978,78.31663,77.16704
"31705",435.0331,78.32151,77.119316
"31706",435.04645,78.31907,77.06442
"31707",435.05978,78.314186,77.00701
"31708",435.07312,78.30442,76.944565
"31709",435.08646,78.294655,76.88181
"31710",435.0998,78.277565,76.81143
"31711",435.11313,78.25803,76.738075
"31712",435.12646,78.23117,76.65678
"31713",435.1398,78.20187,76.572205
"31714",435.15314,78.16525,76.47939
"31715",435.16647,78.12131,76.37811
"31716",435.1798,78.0798,76.2779
"31717",435.19315,78.082245,76.22034
"31718",435.20648,78.204315,76.28248
"31719",435.21982,78.536354,76.5584
"31720",435.23315,79.13695,77.11326
"31721",435.2465,79.9939,77.94324
"31722",435.25983,81.0193,78.96845
"31723",435.27316,82.06424,80.04524
"31724",435.2865,82.9749,81.02041
"31725",435.29984,83.631645,81.77012
"31726",435.31317,83.99054,82.2425
"31727",435.3265,84.07355,82.45021
"31728",435.33984,83.929504,82.433464
"31729",435.35318,83.61944,82.24619
"31730",435.36652,83.20683,81.94669
"31731",435.37985,82.75273,81.592804
"31732",435.3932,82.29862,81.22472
"31733",435.40652,81.881134,80.87906
"31734",435.41986,81.52468,80.58139
"31735",435.4332,81.24147,80.345825
"31736",435.44653,81.0193,80.16245
"31737",435.45987,80.84596,80.020966
"31738",435.4732,80.70191,79.90335
"31739",435.48654,80.57984,79.803215
"31740",435.49988,80.48951,79.731
"31741",435.5132,80.43336,79.69015
"31742",435.52655,80.428474,79.69881
"31743",435.5399,80.46998,79.7537
"31744",435.55322,80.54322,79.84163
"31745",435.56656,80.618904,79.93429
"31746",435.5799,80.672615,80.00734
"31747",435.59323,80.68482,80.040565
"31748",435.60657,80.65308,80.03023
"31749",435.6199,80.57496,79.97251
"31750",435.63324,80.448006,79.863525
"31751",435.64658,80.289314,79.718834
"31752",435.6599,80.09888,79.53744
"31753",435.67325,79.888916,79.33057
"31754",435.68658,79.66918,79.10736
"31755",435.69992,79.449455,78.8773
"31756",435.71326,79.237045,78.64768
"31757",435.7266,79.04173,78.42853
"31758",435.73993,78.86107,78.21792
"31759",435.75327,78.69993,78.02119
"31760",435.7666,78.553444,77.834076
"31761",435.77994,78.42649,77.66192
"31762",435.79327,78.31907,77.505325
"31763",435.8066,78.238495,77.37222
"31764",435.81995,78.17746,77.25614
"31765",435.83328,78.14328,77.16501
"31766",435.84662,78.12131,77.085014
"31767",435.85995,78.118866,77.023865
"31768",435.8733,78.13107,76.97729
"31769",435.88663,78.14816,76.935974
"31770",435.89996,78.17258,76.90252
"31771",435.9133,78.19943,76.87227
"31772",435.92664,78.21896,76.83553
"31773",435.93997,78.22629,76.7872
"31774",435.9533,78.22629,76.73177
"31775",435.96664,78.221405,76.67146
"31776",435.97998,78.2092,76.603676
"31777",435.99332,78.18967,76.52818
"31778",436.00665,78.170135,76.45208
"31779",436.02,78.14328,76.36804
"31780",436.03333,78.11398,76.28072
"31781",436.04666,78.0798,76.18761
"31782",436.06,78.0383,76.0861
"31783",436.07333,78.00412,75.990616
"31784",436.08667,78.01633,75.94045
"31785",436.1,78.15549,76.017624
"31786",436.11334,78.502174,76.30667
"31787",436.12668,79.11986,76.87755
"31788",436.14,79.99634,77.726524
"31789",436.15335,81.041275,78.77135
"31790",436.1667,82.11307,79.87568
"31791",436.18002,83.055466,80.88411
"31792",436.19336,83.74883,81.67296
"31793",436.2067,84.139465,82.18074
"31794",436.22003,84.242004,82.412636
"31795",436.23337,84.105286,82.40848
"31796",436.2467,83.80011,82.23159
"31797",436.26004,83.39727,81.9475
"31798",436.27338,82.95293,81.60932
"31799",436.2867,82.52323,81.271904
"31800",436.30005,82.144806,80.97233
"31801",436.3134,81.83475,80.729294
"31802",436.32672,81.59304,80.54492
"31803",436.34006,81.41238,80.41404
"31804",436.3534,81.26833,80.31413
"31805",436.36673,81.14137,80.22681
"31806",436.38007,81.03151,80.15261
"31807",436.3934,80.938736,80.09207
"31808",436.40674,80.87526,80.05793
"31809",436.42007,80.850845,80.06087
"31810",436.4334,80.87038,80.10699
"31811",436.44675,80.91188,80.17569
"31812",436.46008,80.96071,80.25301
"31813",436.47342,80.987564,80.30989
"31814",436.48676,80.98268,80.33587
"31815",436.5001,80.93141,80.31531
"31816",436.51343,80.831314,80.244316
"31817",436.52676,80.689705,80.128685
"31818",436.5401,80.51148,79.972015
"31819",436.55344,80.308846,79.78536
"31820",436.56677,80.08911,79.57528
"31821",436.5801,79.8645,79.353455
"31822",436.59344,79.64233,79.127045
"31823",436.60678,79.429924,78.903465
"31824",436.62012,79.234604,78.69033
"31825",436.63345,79.05638,78.48819
"31826",436.6468,78.89769,78.30001
"31827",436.66013,78.75853,78.1264
"31828",436.67346,78.63889,77.96797
"31829",436.6868,78.53391,77.82046
"31830",436.70013,78.450905,77.691635
"31831",436.71347,78.38743,77.57975
"31832",436.7268,78.3386,77.48053
"31833",436.74014,78.311745,77.40176
"31834",436.75348,78.2971,77.33435
"31835",436.7668,78.294655,77.278694
"31836",436.78015,78.2971,77.227844
"31837",436.7935,78.30198,77.17951
"31838",436.80682,78.29954,77.12401
"31839",436.82016,78.2971,77.06843
"31840",436.8335,78.294655,77.01277
"31841",436.84683,78.28977,76.9546
"31842",436.86017,78.28245,76.89383
"31843",436.8735,78.27268,76.83039
"31844",436.88684,78.260475,76.764206
"31845",436.90018,78.238495,76.68787
"31846",436.9135,78.20676,76.60108
"31847",436.92685,78.16037,76.49866
"31848",436.9402,78.10422,76.38502
"31849",436.95352,78.04562,76.26718
"31850",436.96686,78.00412,76.164604
"31851",436.9802,78.02609,76.12421
"31852",436.99353,78.187225,76.223656
"31853",437.00687,78.57053,76.550316
"31854",437.0202,79.219955,77.15507
"31855",437.03354,80.111084,78.02182
"31856",437.04688,81.15114,79.065346
"31857",437.0602,82.20096,80.15114
"31858",437.07355,83.10185,81.12081
"31859",437.08688,83.75128,81.86717
"31860",437.10022,84.102844,82.33596
"31861",437.11356,84.18097,82.5423
"31862",437.1269,84.03693,82.52891
"31863",437.14023,83.736626,82.35476
"31864",437.15356,83.34844,82.08334
"31865",437.1669,82.930954,81.77049
"31866",437.18024,82.533,81.46413
"31867",437.19357,82.18387,81.19415
"31868",437.2069,81.90555,80.98408
"31869",437.22025,81.69558,80.83366
"31870",437.23358,81.53445,80.72551
"31871",437.24692,81.40017,80.63918
"31872",437.26025,81.2781,80.56087
"31873",437.2736,81.16579,80.488495
"31874",437.28693,81.07301,80.43215
"31875",437.30026,81.01686,80.40953
"31876",437.3136,81.00221,80.42666
"31877",437.32693,81.02663,80.48239
"31878",437.34027,81.07301,80.56086
"31879",437.3536,81.112076,80.63345
"31880",437.36694,81.126724,80.68285
"31881",437.38028,81.10475,80.69609
"31882",437.39362,81.041275,80.66714
"31883",437.40695,80.93141,80.58981
"31884",437.4203,80.782486,80.46999
"31885",437.43362,80.604256,80.316216
"31886",437.44696,80.40162,80.13246
"31887",437.4603,80.184326,79.92772
"31888",437.47363,79.96216,79.71131
"31889",437.48697,79.73998,79.48795
"31890",437.5003,79.52514,79.264984
"31891",437.51364,79.3225,79.04751
"31892",437.52698,79.13695,78.84078
"31893",437.5403,78.97093,78.6478
"31894",437.55365,78.82445,78.469154
"31895",437.567,78.69993,78.3079
"31896",437.58032,78.60227,78.16962
"31897",437.59366,78.52659,78.050255
"31898",437.607,78.470436,77.94806
"31899",437.62033,78.433815,77.86364
"31900",437.63367,78.416725,77.79761
"31901",437.647,78.41428,77.74569
"31902",437.66034,78.416725,77.69858
"31903",437.67368,78.42649,77.65887
"31904",437.687,78.44358,77.626785
"31905",437.70035,78.46311,77.59768
"31906",437.71368,78.47776,77.5643
"31907",437.72702,78.485085,77.524055
"31908",437.74036,78.487526,77.47916
"31909",437.7537,78.47776,77.42213
"31910",437.76703,78.45823,77.35503
"31911",437.78036,78.42405,77.27267
"31912",437.7937,78.382545,77.181915
"31913",437.80704,78.32639,77.07522
"31914",437.82037,78.26536,76.96188
"31915",437.8337,78.21164,76.85396
"31916",437.84705,78.21652,76.802956
"31917",437.86038,78.35813,76.88883
"31918",437.87372,78.709694,77.18909
"31919",437.88705,79.30785,77.746925
"31920",437.9004,80.13794,78.55538
"31921",437.91373,81.10719,79.528946
"31922",437.92706,82.07889,80.53524
"31923",437.9404,82.91142,81.43274
"31924",437.95374,83.50713,82.11943
"31925",437.96707,83.824524,82.54642
"31926",437.9804,83.88068,82.722084
"31927",437.99374,83.72442,82.687096
"31928",438.00708,83.4168,82.495865
"31929",438.02042,83.02617,82.212006
"31930",438.03375,82.6038,81.8842
"31931",438.0471,82.193634,81.555405
"31932",438.06042,81.82498,81.2553
"31933",438.07376,81.50515,80.9925
"31934",438.0871,81.21706,80.75144
"31935",438.10043,80.96315,80.53557
"31936",438.11377,80.73609,80.33861
"31937",438.1271,80.5481,80.17362
"31938",438.14044,80.41871,80.061356
"31939",438.15378,80.36988,80.02561
"31940",438.1671,80.40406,80.07135
"31941",438.18045,80.51148,80.1914
"31942",438.1938,80.65064,80.34654
"31943",438.20712,80.78737,80.5036
"31944",438.22046,80.89235,80.63319
"31945",438.2338,80.94118,80.7099
"31946",438.24713,80.93141,80.729546
"31947",438.26047,80.85817,80.68541
"31948",438.2738,80.73121,80.585266
"31949",438.28714,80.552986,80.42989
"31950",438.30048,80.34058,80.23477
"31951",438.3138,80.1062,80.01103
"31952",438.32715,79.86206,79.77021
"31953",438.34048,79.622795,79.526634
"31954",438.35382,79.395744,79.287796
"31955",438.36716,79.183334,79.0565
"31956",438.3805,78.98558,78.83323
"31957",438.39383,78.80492,78.620865
"31958",438.40717,78.641335,78.41994
"31959",438.4205,78.504616,78.24076
"31960",438.43384,78.39231,78.081726
"31961",438.44717,78.311745,77.95092
"31962",438.4605,78.27024,77.85666
"31963",438.47385,78.260475,77.79284
"31964",438.48718,78.27512,77.75313
"31965",438.50052,78.30686,77.730965
"31966",438.51385,78.345924,77.71712
"31967",438.5272,78.380104,77.69961
"31968",438.54053,78.40452,77.6734
"31969",438.55386,78.41428,77.63331
"31970",438.5672,78.41184,77.581314
"31971",438.58054,78.39231,77.51215
"31972",438.59387,78.3679,77.4375
"31973",438.6072,78.363014,77.381615
"31974",438.62054,78.42405,77.391495
"31975",438.63388,78.6218,77.54
"31976",438.64722,79.01732,77.89245
"31977",438.66055,79.64721,78.49163
"31978",438.6739,80.46998,79.303375
"31979",438.68723,81.40261,80.250694
"31980",438.70056,82.31083,81.20274
"31981",438.7139,83.075,82.03912
"31982",438.72723,83.60235,82.66257
"31983",438.74057,83.87335,83.04614
"31984",438.7539,83.90021,83.19404
"31985",438.76724,83.7293,83.14501
"31986",438.78058,83.41924,82.95149
"31987",438.7939,83.03105,82.67015
"31988",438.80725,82.62089,82.354706
"31989",438.8206,82.22293,82.03865
"31990",438.83392,81.87137,81.75655
"31991",438.84726,81.57107,81.51473
"31992",438.8606,81.30984,81.3026
"31993",438.87393,81.07301,81.106705
"31994",438.88727,80.848404,80.91563
"31995",438.9006,80.65064,80.74438
"31996",438.91394,80.50416,80.618225
"31997",438.92728,80.42359,80.55341
"31998",438.9406,80.42603,80.56909
"31999",438.95395,80.499275,80.65565
"32000",438.9673,80.61402,80.785995
"32001",438.98062,80.72877,80.91993
"32002",438.99396,80.814224,81.02816
"32003",439.0073,80.84596,81.08534
"32004",439.02063,80.81911,81.08492
"32005",439.03397,80.726326,81.01774
"32006",439.0473,80.57496,80.88907
"32007",439.06064,80.37232,80.7044
"32008",439.07397,80.14038,80.48409
"32009",439.0873,79.888916,80.237015
"32010",439.10065,79.63012,79.97475
"32011",439.11398,79.37621,79.70928
"32012",439.12732,79.13451,79.44808
"32013",439.14066,78.907455,79.193985
"32014",439.154,78.69993,78.95232
"32015",439.16733,78.519264,78.731026
"32016",439.18066,78.365456,78.530945
"32017",439.194,78.24094,78.35535
"32018",439.20734,78.14572,78.20516
"32019",439.22067,78.08469,78.08618
"32020",439.234,78.05051,77.99215
"32021",439.24734,78.0383,77.91902
"32022",439.26068,78.04318,77.8626
"32023",439.27402,78.05783,77.8161
"32024",439.28735,78.07736,77.77494
"32025",439.3007,78.09201,77.72951
"32026",439.31403,78.101776,77.67965
"32027",439.32736,78.10422,77.62277
"32028",439.3407,78.099335,77.55865
"32029",439.35403,78.09445,77.49437
"32030",439.36737,78.13107,77.47144
"32031",439.3807,78.26536,77.547325
"32032",439.39404,78.57786,77.80562
"32033",439.40738,79.12474,78.30806
"32034",439.42072,79.91333,79.0693
"32035",439.43405,80.87526,80.02852
"32036",439.4474,81.898224,81.078835
"32037",439.46072,82.83818,82.07811
"32038",439.47406,83.57305,82.90167
"32039",439.4874,84.03693,83.4772
"32040",439.50073,84.22247,83.7889
"32041",439.51407,84.16388,83.86226
"32042",439.5274,83.92218,83.75068
"32043",439.54074,83.5584,83.50947
"32044",439.55408,83.14824,83.2105
"32045",439.5674,82.74052,82.90116
"32046",439.58075,82.374306,82.62059
"32047",439.5941,82.0618,82.38228
"32048",439.60742,81.80057,82.18548
"32049",439.62076,81.56863,82.0098
"32050",439.6341,81.34646,81.836655
"32051",439.64743,81.126724,81.659
"32052",439.66077,80.92653,81.49401
"32053",439.6741,80.765396,81.36183
"32054",439.68744,80.66529,81.285645
"32055",439.70078,80.63355,81.2747
"32056",439.7141,80.655525,81.31647
"32057",439.72745,80.70435,81.38578
"32058",439.74078,80.75319,81.45663
"32059",439.75412,80.77028,81.49725
"32060",439.76746,80.73853,81.48958
"32061",439.7808,80.64576,81.41988
"32062",439.79413,80.499275,81.29358
"32063",439.80746,80.30396,81.11387
"32064",439.8208,80.07202,80.891426
"32065",439.83414,79.815674,80.63733
"32066",439.84747,79.54711,80.36301
"32067",439.8608,79.276115,80.07786
"32068",439.87415,79.009995,79.789116
"32069",439.88748,78.75853,79.506714
"32070",439.90082,78.52659,79.23598
"32071",439.91415,78.314186,78.97753
"32072",439.9275,78.12375,78.73441
"32073",439.94083,77.96506,78.51709
"32074",439.95416,77.838104,78.326546
"32075",439.9675,77.74288,78.163765
"32076",439.98083,77.68185,78.032196
"32077",439.99417,77.64767,77.925575
"32078",440.0075,77.63058,77.83498
"32079",440.02084,77.625694,77.75605
"32080",440.03418,77.63302,77.68918
"32081",440.04752,77.65011,77.6323
"32082",440.06085,77.66964,77.5784
"32083",440.0742,77.69161,77.52755
"32084",440.08752,77.71114,77.474945
"32085",440.10086,77.72091,77.413185
"32086",440.1142,77.72579,77.34685
"32087",440.12753,77.71847,77.268456
"32088",440.14087,77.696495,77.175186
"32089",440.1542,77.65743,77.06414
"32090",440.16754,77.60616,76.93967
"32091",440.18088,77.54757,76.80627
"32092",440.1942,77.488976,76.671036
"32093",440.20755,77.452354,76.55595
"32094",440.2209,77.47921,76.50319
"32095",440.23422,77.65499,76.6002
"32096",440.24756,78.065155,76.93708
"32097",440.2609,78.768295,77.57976
"32098",440.27423,79.74975,78.52272
"32099",440.28757,80.92409,79.68924
"32100",440.3009,82.142365,80.93639
"32101",440.31424,83.23613,82.09711
"32102",440.32758,84.07355,83.03565
"32103",440.3409,84.6009,83.6903
"32104",440.35425,84.81331,84.046486
"32105",440.36758,84.7596,84.14319
"32106",440.38092,84.508125,84.04045
"32107",440.39426,84.1297,83.8029
"32108",440.4076,83.69512,83.497375
"32109",440.42093,83.26299,83.18072
"32110",440.43427,82.86992,82.88961
"32111",440.4476,82.53544,82.64481
"32112",440.46094,82.25712,82.445724
"32113",440.47427,82.01053,82.26967
"32114",440.4876,81.77127,82.09324
"32115",440.50095,81.532005,81.909325
"32116",440.51428,81.29519,81.72038
"32117",440.52762,81.08278,81.54845
"32118",440.54095,80.92409,81.42359
"32119",440.5543,80.831314,81.359695
"32120",440.56763,80.80446,81.35882
"32121",440.58096,80.81911,81.398605
"32122",440.5943,80.84108,81.446175
"32123",440.60764,80.84108,81.47246
"32124",440.62097,80.79469,81.452354
"32125",440.6343,80.689705,81.3722
"32126",440.64764,80.52613,81.23018
"32127",440.66098,80.31129,81.03178
"32128",440.67432,80.059814,80.79003
"32129",440.68765,79.783936,80.51602
"32130",440.701,79.500725,80.22606
"32131",440.71432,79.219955,79.92969
"32132",440.72766,78.94408,79.62943
"32133",440.741,78.68284,79.3352
"32134",440.75433,78.43626,79.047455
"32135",440.76767,78.21408,78.77641
"32136",440.781,78.01633,78.52285
"32137",440.79434,77.84787,78.292404
"32138",440.80768,77.713585,78.090866
"32139",440.821,77.61349,77.91932
"32140",440.83435,77.54269,77.77394
"32141",440.8477,77.49874,77.653206
"32142",440.86102,77.47677,77.55307
"32143",440.87436,77.47433,77.47178
"32144",440.8877,77.486534,77.40506
"32145",440.90103,77.50118,77.34116
"32146",440.91437,77.51583,77.277725
"32147",440.9277,77.52804,77.2123
"32148",440.94104,77.52804,77.135056
"32149",440.95438,77.51827,77.04804
"32150",440.9677,77.50118,76.9534
"32151",440.98105,77.48409,76.85822
"32152",440.9944,77.46456,76.76007
"32153",441.00772,77.44015,76.656425
"32154",441.02106,77.41329,76.549576
"32155",441.0344,77.38155,76.437004
"32156",441.04773,77.34493,76.31856
"32157",441.06107,77.30343,76.194084
"32158",441.0744,77.264366,76.070755
"32159",441.08774,77.23262,75.95352
"32160",441.10107,77.21309,75.84751
"32161",441.1144,77.20088,75.748215
"32162",441.12775,77.19844,75.6583
"32163",441.14108,77.20332,75.57564
"32164",441.15442,77.21797,75.50289
"32165",441.16776,77.23262,75.4306
"32166",441.1811,77.24971,75.36121
"32167",441.19443,77.26681,75.292366
"32168",441.20776,77.28634,75.22649
"32169",441.2211,77.313194,75.16854
"32170",441.23444,77.38155,75.15294
"32171",441.24777,77.576866,75.266426
"32172",441.2611,77.994354,75.60819
"32173",441.27444,78.712135,76.2633
"32174",441.28778,79.75464,77.26556
"32175",441.30112,81.04616,78.54941
"32176",441.31445,82.44022,79.976166
"32177",441.3278,83.74883,81.36103
"32178",441.34113,84.81331,82.542656
"32179",441.35446,85.53597,83.41573
"32180",441.3678,85.89731,83.950066
"32181",441.38113,85.93393,84.170975
"32182",441.39447,85.71664,84.139114
"32183",441.4078,85.32601,83.92713
"32184",441.42114,84.840164,83.60772
"32185",441.43448,84.32746,83.24627
"32186",441.4478,83.8465,82.900536
"32187",441.46115,83.42901,82.60325
"32188",441.4745,83.087204,82.3686
"32189",441.48782,82.80156,82.17943
"32190",441.50116,82.55253,82.017944
"32191",441.5145,82.31327,81.85845
"32192",441.52783,82.07645,81.69392
"32193",441.54117,81.85184,81.534195
"32194",441.5545,81.671165,81.41139
"32195",441.56784,81.54421,81.33666
"32196",441.58118,81.48318,81.32388
"32197",441.5945,81.478294,81.36535
"32198",441.60785,81.497826,81.431076
"32199",441.6212,81.50515,81.48521
"32200",441.63452,81.47585,81.502945
"32201",441.64786,81.392845,81.46606
"32202",441.6612,81.24635,81.36309
"32203",441.67453,81.03883,81.19452
"32204",441.68787,80.782486,80.970634
"32205",441.7012,80.48951,80.70211
"32206",441.71454,80.177,80.4049
"32207",441.72787,79.85474,80.088165
"32208",441.7412,79.54223,79.77112
"32209",441.75455,79.24193,79.45651
"32210",441.76788,78.958725,79.14962
"32211",441.78122,78.69016,78.84852
"32212",441.79456,78.44846,78.56589
"32213",441.8079,78.23605,78.30499
"32214",441.82123,78.05783,78.07165
"32215",441.83456,77.91623,77.869354
"32216",441.8479,77.81369,77.7017
"32217",441.86124,77.74044,77.56013
"32218",441.87457,77.69405,77.44313
"32219",441.8879,77.66964,77.34666
"32220",441.90125,77.66476,77.26895
"32221",441.91458,77.66964,77.20086
"32222",441.92792,77.68185,77.14024
"32223",441.94125,77.69405,77.08001
"32224",441.9546,77.696495,77.01039
"32225",441.96793,77.696495,76.93841
"32226",441.98126,77.68673,76.85666
"32227",441.9946,77.67208,76.76972
"32228",442.00793,77.645226,76.67012
"32229",442.02127,77.61837,76.56968
"32230",442.0346,77.58175,76.45863
"32231",442.04794,77.54269,76.344
"32232",442.06128,77.4963,76.220825
"32233",442.07462,77.44747,76.09376
"32234",442.08795,77.3962,75.96272
"32235",442.1013,77.347374,75.83253
"32236",442.11462,77.30343,75.70569
"32237",442.12796,77.26925,75.58724
"32238",442.1413,77.24483,75.477486
"32239",442.15463,77.23262,75.37918
"32240",442.16797,77.23262,75.2927
"32241",442.1813,77.239944,75.21355
"32242",442.19464,77.25216,75.13951
"32243",442.20798,77.27413,75.075615
"32244",442.2213,77.30099,75.01729
"32245",442.23465,77.332726,74.96468
"32246",442.248,77.366905,74.91551
"32247",442.26132,77.40597,74.87229
"32248",442.27466,77.44015,74.82541
"32249",442.288,77.47677,74.782036
"32250",442.30133,77.523155,74.74957
"32251",442.31467,77.62325,74.77227
"32252",442.328,77.86008,74.93482
"32253",442.34134,78.34348,75.35136
"32254",442.35468,79.13695,76.093056
"32255",442.368,80.24536,77.1745
"32256",442.38135,81.58572,78.52252
"32257",442.39468,82.99199,79.97835
"32258",442.40802,84.27619,81.35605
"32259",442.42136,85.279625,82.49311
"32260",442.4347,85.926605,83.30508
"32261",442.44803,86.20981,83.77348
"32262",442.46136,86.17563,83.93336
"32263",442.4747,85.89975,83.850464
"32264",442.48804,85.46761,83.60269
"32265",442.50137,84.95247,83.25841
"32266",442.5147,84.41291,82.87361
"32267",442.52805,83.90265,82.50125
"32268",442.54138,83.45098,82.17154
"32269",442.55472,83.06767,81.89607
"32270",442.56805,82.7454,81.66966
"32271",442.5814,82.4622,81.47225
"32272",442.59473,82.20584,81.29284
"32273",442.60806,81.96658,81.12251
"32274",442.6214,81.75174,80.969124
"32275",442.63474,81.58572,80.85784
"32276",442.64807,81.48318,80.804855
"32277",442.6614,81.45388,80.82191
"32278",442.67474,81.478294,80.891754
"32279",442.68808,81.529564,80.98922
"32280",442.70142,81.56863,81.07608
"32281",442.71475,81.56374,81.12022
"32282",442.7281,81.495384,81.10072
"32283",442.74142,81.358665,81.010735
"32284",442.75476,81.15846,80.85299
"32285",442.7681,80.902115,80.63284
"32286",442.78143,80.604256,80.363174
"32287",442.79477,80.27711,80.05491
"32288",442.8081,79.940186,79.72665
"32289",442.82144,79.605705,79.3903
"32290",442.83478,79.281,79.05327
"32291",442.8481,78.97826,78.72806
"32292",442.86145,78.70237,78.42024
"32293",442.8748,78.45823,78.13555
"32294",442.88812,78.24582,77.87496
"32295",442.90146,78.065155,77.63948
"32296",442.9148,77.91867,77.43253
"32297",442.92813,77.80881,77.25763
"32298",442.94147,77.72823,77.10858
"32299",442.9548,77.679405,76.98876
"32300",442.96814,77.65743,76.89427
"32301",442.98148,77.662315,76.82595
"32302",442.9948,77.68185,76.77243
"32303",443.00815,77.71114,76.72929
"32304",443.02148,77.738,76.684616
"32305",443.03482,77.76242,76.63835
"32306",443.04816,77.77951,76.58552
"32307",443.0615,77.78439,76.52101
"32308",443.07483,77.77951,76.44689
"32309",443.08817,77.76242,76.36041
"32310",443.1015,77.73556,76.263626
"32311",443.11484,77.69894,76.15624
"32312",443.12817,77.65743,76.04283
"32313",443.1415,77.61349,75.92568
"32314",443.15485,77.5671,75.80472
"32315",443.16818,77.51827,75.67986
"32316",443.18152,77.47677,75.56081
"32317",443.19485,77.437706,75.442894
"32318",443.2082,77.40597,75.331085
"32319",443.22153,77.37911,75.22317
"32320",443.23486,77.36202,75.124176
"32321",443.2482,77.349815,75.02953
"32322",443.26154,77.34249,74.93939
"32323",443.27487,77.34493,74.85879
"32324",443.2882,77.35714,74.788025
"32325",443.30154,77.37667,74.72497
"32326",443.31488,77.40353,74.669846
"32327",443.32822,77.43282,74.618004
"32328",443.34155,77.46456,74.56952
"32329",443.3549,77.51827,74.544
"32330",443.36823,77.65743,74.605606
"32331",443.38156,77.97482,74.84979
"32332",443.3949,78.56809,75.379776
"32333",443.40823,79.47875,76.24569
"32334",443.42157,80.6775,77.42815
"32335",443.4349,82.04227,78.81409
"32336",443.44824,83.39727,80.23291
"32337",443.46158,84.559395,81.5012
"32338",443.4749,85.4139,82.498184
"32339",443.48825,85.9144,83.16786
"32340",443.5016,86.07553,83.51382
"32341",443.51492,85.9559,83.584045
"32342",443.52826,85.626305,83.44057
"32343",443.5416,85.15755,83.14763
"32344",443.55493,84.62287,82.774124
"32345",443.56827,84.07843,82.374146
"32346",443.5816,83.563286,81.98645
"32347",443.59494,83.10185,81.63637
"32348",443.60828,82.70878,81.340225
"32349",443.6216,82.374306,81.0904
"32350",443.63495,82.074005,80.864296
"32351",443.6483,81.80545,80.66055
"32352",443.66162,81.566185,80.47771
"32353",443.67496,81.375755,80.33622
"32354",443.6883,81.25124,80.2547
"32355",443.70163,81.20973,80.25229
"32356",443.71497,81.24147,80.32183
"32357",443.7283,81.32693,80.44608
"32358",443.74164,81.4197,80.58032
"32359",443.75497,81.48318,80.68816
"32360",443.7683,81.49294,80.74428
"32361",443.78165,81.43435,80.73234
"32362",443.79498,81.304955,80.647766
"32363",443.80832,81.10475,80.48834
"32364",443.82166,80.84596,80.26408
"32365",443.835,80.54322,79.98777
"32366",443.84833,80.21362,79.67515
"32367",443.86166,79.87915,79.34735
"32368",443.875,79.54711,79.011536
"32369",443.88834,79.22972,78.67999
"32370",443.90167,78.93187,78.35807
"32371",443.915,78.660866,78.05369
"32372",443.92834,78.42405,77.775024
"32373",443.94168,78.21652,77.51825
"32374",443.95502,78.04562,77.29162
"32375",443.96835,77.91135,77.09627
"32376",443.9817,77.81369,76.93334
"32377",443.99503,77.752655,76.803986
"32378",444.00836,77.72091,76.70201
"32379",444.0217,77.713585,76.62347
"32380",444.03503,77.72335,76.56178
"32381",444.04837,77.74044,76.50773
"32382",444.0617,77.76486,76.46154
"32383",444.07504,77.79172,76.41855
"32384",444.08838,77.81857,76.376396
"32385",444.1017,77.84543,76.33508
"32386",444.11505,77.86496,76.287285
"32387",444.1284,77.86496,76.220566
"32388",444.14172,77.855194,76.14408
"32389",444.15506,77.83322,76.055084
"32390",444.1684,77.806366,75.96052
"32391",444.18173,77.77219,75.85779
"32392",444.19507,77.738,75.75398
"32393",444.2084,77.70382,75.64912
"32394",444.22174,77.67208,75.54562
"32395",444.23508,77.6379,75.4387
"32396",444.2484,77.60372,75.3307
"32397",444.26175,77.574425,75.226524
"32398",444.2751,77.55489,75.131195
"32399",444.28842,77.54269,75.04258
"32400",444.30176,77.5378,74.96091
"32401",444.3151,77.54513,74.89129
"32402",444.32843,77.55245,74.8219
"32403",444.34177,77.56222,74.75518
"32404",444.3551,77.574425,74.69121
"32405",444.36844,77.58663,74.62762
"32406",444.38177,77.625694,74.59126
"32407",444.3951,77.75021,74.64159
"32408",444.40845,78.05783,74.8789
"32409",444.42178,78.64866,75.409035
"32410",444.43512,79.56664,76.28479
"32411",444.44846,80.77516,77.47977
"32412",444.4618,82.15213,78.88096
"32413",444.47513,83.52178,80.31786
"32414",444.48846,84.70344,81.60957
"32415",444.5018,85.56771,82.62083
"32416",444.51514,86.07065,83.29775
"32417",444.52847,86.23422,83.65103
"32418",444.5418,86.11215,83.72378
"32419",444.55515,85.77768,83.58031
"32420",444.56848,85.30404,83.28722
"32421",444.58182,84.7596,82.90852
"32422",444.59515,84.19562,82.49328
"32423",444.6085,83.65606,82.08483
"32424",444.62183,83.17021,81.713234
"32425",444.63516,82.74784,81.38993
"32426",444.6485,82.38407,81.11203
"32427",444.66183,82.0618,80.86426
"32428",444.67517,81.77127,80.63816
"32429",444.6885,81.514915,80.43716
"32430",444.70184,81.31228,80.28186
"32431",444.71518,81.18532,80.19591
"32432",444.72852,81.15114,80.19877
"32433",444.74185,81.20729,80.29089
"32434",444.7552,81.324486,80.445816
"32435",444.76852,81.45388,80.6166
"32436",444.78186,81.55398,80.76213
"32437",444.7952,81.59548,80.852196
"32438",444.80853,81.5613,80.867874
"32439",444.82187,81.444115,80.79948
"32440",444.8352,81.253685,80.654175
"32441",444.84854,81.004654,80.44432
"32442",444.86188,80.709236,80.1803
"32443",444.8752,80.38453,79.877754
"32444",444.88855,80.04761,79.55285
"32445",444.9019,79.710686,79.217415
"32446",444.91522,79.378654,78.87634
"32447",444.92856,79.06859,78.54686
"32448",444.9419,78.785385,78.23455
"32449",444.95523,78.53391,77.94512
"32450",444.96857,78.311745,77.67714
"32451",444.9819,78.12131,77.433945
"32452",444.99524,77.96506,77.21899
"32453",445.00858,77.84299,77.033325
"32454",445.0219,77.75754,76.88047
"32455",445.03525,77.71114,76.764
"32456",445.04858,77.696495,76.677826
"32457",445.06192,77.70626,76.61561
"32458",445.07526,77.733116,76.570786
"32459",445.0886,77.76242,76.52925
"32460",445.10193,77.79172,76.488625
"32461",445.11526,77.823456,76.451355
"32462",445.1286,77.85275,76.412636
"32463",445.14194,77.874725,76.36751
"32464",445.15527,77.891815,76.318184
"32465",445.1686,77.89914,76.25963
"32466",445.18195,77.8967,76.191536
"32467",445.19528,77.87961,76.10872
"32468",445.20862,77.85031,76.01316
"32469",445.22195,77.81369,75.90936
"32470",445.2353,77.769745,75.7971
"32471",445.24863,77.72091,75.678566
"32472",445.26196,77.67696,75.5634
"32473",445.2753,77.6379,75.451744
"32474",445.28864,77.60372,75.34375
"32475",445.30197,77.57931,75.24445
"32476",445.3153,77.55978,75.14928
"32477",445.32864,77.54513,75.05837
"32478",445.34198,77.5378,74.974335
"32479",445.35532,77.53048,74.89007
"32480",445.36865,77.5256,74.808014
"32481",445.382,77.51827,74.723366
"32482",445.39532,77.5256,74.65314
"32483",445.40866,77.59884,74.649055
"32484",445.422,77.81857,74.793755
"32485",445.43533,78.28489,75.1919
"32486",445.44867,79.078354,75.93177
"32487",445.462,80.19653,77.02115
"32488",445.47534,81.54665,78.37741
"32489",445.48868,82.96513,79.84422
"32490",445.502,84.26887,81.240616
"32491",445.51535,85.3016,82.406746
"32492",445.5287,85.980316,83.25114
"32493",445.54202,86.30015,83.75785
"32494",445.55536,86.30259,83.95717
"32495",445.5687,86.05844,83.90997
"32496",445.58203,85.63119,83.67204
"32497",445.59537,85.09895,83.31578
"32498",445.6087,84.52033,82.8965
"32499",445.62204,83.94415,82.46158
"32500",445.63538,83.407036,82.047714
"32501",445.6487,82.933395,81.68054
"32502",445.66205,82.51835,81.35716
"32503",445.67538,82.15701,81.074524
"32504",445.68872,81.83475,80.819664
"32505",445.70206,81.55154,80.59379
"32506",445.7154,81.3196,80.41034
"32507",445.72873,81.163345,80.29532
"32508",445.74207,81.09743,80.265755
"32509",445.7554,81.12428,80.326904
"32510",445.76874,81.22438,80.462135
"32511",445.78207,81.358665,80.63468
"32512",445.7954,81.4905,80.808975
"32513",445.80875,81.583275,80.948326
"32514",445.82208,81.61013,81.02466
"32515",445.83542,81.55886,81.023705
"32516",445.84875,81.4197,80.93326
"32517",445.8621,81.20241,80.76033
"32518",445.87543,80.921646,80.51714
"32519",445.88876,80.601814,80.22611
"32520",445.9021,80.26734,79.910446
"32521",445.91544,79.92554,79.576996
"32522",445.92877,79.588615,79.23775
"32523",445.9421,79.259026,78.8953
"32524",445.95544,78.93675,78.54987
"32525",445.96878,78.63401,78.213905
"32526",445.98212,78.363014,77.90022
"32527",445.99545,78.13107,77.61713
"32528",446.0088,77.943085,77.370735
"32529",446.02213,77.80148,77.164856
"32530",446.03546,77.70382,76.99849
"32531",446.0488,77.64767,76.87058
"32532",446.06213,77.625694,76.7751
"32533",446.07547,77.63302,76.70823
"32534",446.0888,77.659874,76.66112
"32535",446.10214,77.69894,76.62705
"32536",446.11548,77.74044,76.59665
"32537",446.1288,77.786835,76.57243
"32538",446.14215,77.82834,76.54478
"32539",446.1555,77.86496,76.513535
"32540",446.16882,77.891815,76.47367
"32541",446.18216,77.91135,76.42732
"32542",446.1955,77.91379,76.364494
"32543",446.20883,77.90402,76.289536
"32544",446.22217,77.88205,76.202065
"32545",446.2355,77.85275,76.10658
"32546",446.24884,77.81857,76.0053
"32547",446.26218,77.786835,75.905396
"32548",446.2755,77.7551,75.8045
"32549",446.28885,77.72335,75.7026
"32550",446.3022,77.68917,75.597275
"32551",446.31552,77.65255,75.48844
"32552",446.32886,77.61593,75.37846
"32553",446.3422,77.57931,75.26734
"32554",446.35553,77.55001,75.1624
"32555",446.36887,77.523155,75.05898
"32556",446.3822,77.50118,74.95961
"32557",446.39554,77.50851,74.88885
"32558",446.40887,77.60128,74.90376
"32559",446.4222,77.88205,75.10957
"32560",446.43555,78.450905,75.61224
"32561",446.44888,79.36645,76.47938
"32562",446.46222,80.604256,77.69739
"32563",446.47556,82.04959,79.161606
"32564",446.4889,83.51934,80.695404
"32565",446.50223,84.81819,82.10423
"32566",446.51556,85.79721,83.23382
"32567",446.5289,86.39536,84.01313
"32568",446.54224,86.62241,84.44003
"32569",446.55557,86.52964,84.55421
"32570",446.5689,86.19272,84.42133
"32571",446.58224,85.68978,84.111916
"32572",446.59558,85.09407,83.69401
"32573",446.60892,84.46906,83.22819
"32574",446.62225,83.861145,82.759926
"32575",446.6356,83.30694,82.32638
"32576",446.64893,82.81621,81.93899
"32577",446.66226,82.388954,81.59974
"32578",446.6756,82.01053,81.29597
"32579",446.68893,81.67605,81.024315
"32580",446.70227,81.39529,80.79593
"32581",446.7156,81.18288,80.62712
"32582",446.72894,81.06081,80.542015
"32583",446.74228,81.03883,80.55319
"32584",446.7556,81.109634,80.656456
"32585",446.76895,81.24147,80.82297
"32586",446.7823,81.38796,81.008255
"32587",446.79562,81.50271,81.166374
"32588",446.80896,81.55886,81.269485
"32589",446.8223,81.53689,81.29623
"32590",446.83563,81.42947,81.23683
"32591",446.84897,81.24635,81.09839
"32592",446.8623,80.99489,80.88587
"32593",446.87564,80.68726,80.60934
"32594",446.88898,80.34547,80.28902
"32595",446.9023,79.98413,79.93848
"32596",446.91565,79.61303,79.56688
"32597",446.929,79.24925,79.19101
"32598",446.94232,78.90257,78.82087
"32599",446.95566,78.57786,78.46186
"32600",446.969,78.28489,78.12445
"32601",446.98233,78.03586,77.82182
"32602",446.99567,77.82834,77.552925
"32603",447.009,77.662315,77.31904
"32604",447.02234,77.5378,77.121475
"32605",447.03568,77.454796,76.961525
"32606",447.049,77.41085,76.83804
"32607",447.06235,77.39864,76.74493
"32608",447.07568,77.41573,76.680725
"32609",447.08902,77.44991,76.63415
"32610",447.10236,77.4963,76.600845
"32611",447.1157,77.54513,76.571434
"32612",447.12903,77.593956,76.54355
"32613",447.14236,77.6379,76.51231
"32614",447.1557,77.67452,76.47511
"32615",447.16904,77.696495,76.424416
"32616",447.18237,77.70138,76.357315
"32617",447.1957,77.68673,76.270836
"32618",447.20905,77.659874,76.17169
"32619",447.22238,77.62325,76.06194
"32620",447.23572,77.57931,75.943726
"32621",447.24905,77.53048,75.81925
"32622",447.2624,77.47921,75.69081
"32623",447.27573,77.4255,75.55833
"32624",447.28906,77.37423,75.426605
"32625",447.3024,77.332726,75.30305
"32626",447.31573,77.30099,75.18796
"32627",447.32907,77.27169,75.07432
"32628",447.3424,77.24483,74.9622
"32629",447.35574,77.21553,74.8468
"32630",447.36908,77.205765,74.75002
"32631",447.38242,77.281456,74.738396
"32632",447.39575,77.55245,74.92444
"32633",447.4091,78.13107,75.426575
"32634",447.42242,79.080795,76.317894
"32635",447.43576,80.37476,77.58314
"32636",447.4491,81.88602,79.1061
"32637",447.46243,83.424126,80.70315
"32638",447.47577,84.77425,82.16027
"32639",447.4891,85.785,83.32022
"32640",447.50244,86.39048,84.106476
"32641",447.51578,86.60044,84.516136
"32642",447.5291,86.47105,84.593
"32643",447.54245,86.09018,84.41435
"32644",447.5558,85.540855,84.05534
"32645",447.56912,84.90608,83.59372
"32646",447.58246,84.24689,83.08784
"32647",447.5958,83.614555,82.58822
"32648",447.60913,83.04326,82.129875
"32649",447.62247,82.55253,81.734245
"32650",447.6358,82.1326,81.39408
"32651",447.64914,81.76883,81.096954
"32652",447.66248,81.45632,80.83972
"32653",447.6758,81.19264,80.62155
"32654",447.68915,80.99489,80.46107
"32655",447.70248,80.885025,80.38229
"32656",447.71582,80.87282,80.39774
"32657",447.72916,80.94606,80.49826
"32658",447.7425,81.07301,80.65478
"32659",447.75583,81.21217,80.82747
"32660",447.76917,81.3196,80.97278
"32661",447.7825,81.36843,81.06284
"32662",447.79584,81.341576,81.07875
"32663",447.80917,81.231705,81.0108
"32664",447.8225,81.03639,80.85398
"32665",447.83585,80.76784,80.61781
"32666",447.84918,80.44068,80.31465
"32667",447.86252,80.08179,79.96953
"32668",447.87585,79.710686,79.60098
"32669",447.8892,79.34203,79.22329
"32670",447.90253,78.98802,78.84872
"32671",447.91586,78.65354,78.48261
"32672",447.9292,78.34104,78.12804
"32673",447.94254,78.05539,77.79054
"32674",447.95587,77.803925,77.47831
"32675",447.9692,77.591515,77.19727
"32676",447.98254,77.420616,76.95111
"32677",447.99588,77.29122,76.74111
"32678",448.00922,77.20088,76.566124
"32679",448.02255,77.152054,76.429825
"32680",448.0359,77.134964,76.32374
"32681",448.04922,77.152054,76.2513
"32682",448.06256,77.188675,76.19892
"32683",448.0759,77.23506,76.157455
"32684",448.08923,77.2839,76.11989
"32685",448.10257,77.330284,76.0814
"32686",448.1159,77.366905,76.03459
"32687",448.12924,77.3962,75.981606
"32688",448.14258,77.41329,75.91733
"32689",448.1559,77.418175,75.84138
"32690",448.16925,77.41329,75.75581
"32691",448.1826,77.401085,75.66277
"32692",448.19592,77.383995,75.56447
"32693",448.20926,77.366905,75.46563
"32694",448.2226,77.34005,75.35649
"32695",448.23593,77.30587,75.23919
"32696",448.24927,77.25948,75.10861
"32697",448.2626,77.205765,74.96925
"32698",448.27594,77.14717,74.82334
"32699",448.28928,77.0959,74.68292
"32700",448.3026,77.0544,74.55067
"32701",448.31595,77.051956,74.45618
"32702",448.32928,77.1667,74.4788
"32703",448.34262,77.503624,74.72718
"32704",448.35596,78.170135,75.31568
"32705",448.3693,79.21019,76.29855
"32706",448.38263,80.57496,77.63864
"32707",448.39597,82.12283,79.20448
"32708",448.4093,83.65118,80.799164
"32709",448.42264,84.962234,82.22432
"32710",448.43597,85.907074,83.32423
"32711",448.4493,86.44175,84.043495
"32712",448.46265,86.588234,84.39128
"32713",448.47598,86.40513,84.414055
"32714",448.48932,85.977875,84.18696
"32715",448.50266,85.399254,83.79514
"32716",448.516,84.75227,83.31689
"32717",448.52933,84.105286,82.818405
"32718",448.54266,83.51446,82.355865
"32719",448.556,83.001755,81.95299
"32720",448.56934,82.57694,81.62198
"32721",448.58267,82.2327,81.35826
"32722",448.596,81.94461,81.139946
"32723",448.60934,81.688255,80.94436
"32724",448.62268,81.46853,80.77739
"32725",448.63602,81.29763,80.65238
"32726",448.64935,81.19508,80.590385
"32727",448.6627,81.163345,80.59599
"32728",448.67603,81.19508,80.664085
"32729",448.68936,81.25613,80.762474
"32730",448.7027,81.31716,80.86276
"32731",448.71603,81.339134,80.925896
"32732",448.72937,81.307396,80.936005
"32733",448.7427,81.20729,80.876755
"32734",448.75604,81.04372,80.75091
"32735",448.76938,80.816666,80.55647
"32736",448.7827,80.5359,80.30122
"32737",448.79605,80.216064,79.99814
"32738",448.8094,79.87671,79.665535
"32739",448.82272,79.52758,79.31255
"32740",448.83606,79.18822,78.95843
"32741",448.8494,78.86595,78.610794
"32742",448.86273,78.56321,78.27261
"32743",448.87607,78.28733,77.951836
"32744",448.8894,78.04562,77.65661
"32745",448.90274,77.83566,77.385574
"32746",448.91608,77.659874,77.14215
"32747",448.9294,77.51583,76.92498
"32748",448.94275,77.40353,76.73505
"32749",448.9561,77.31808,76.56846
"32750",448.96942,77.261925,76.4285
"32751",448.98276,77.2375,76.31851
"32752",448.9961,77.242386,76.23707
"32753",449.00943,77.26925,76.17776
"32754",449.02277,77.31075,76.13393
"32755",449.0361,77.3547,76.093834
"32756",449.04944,77.3962,76.05267
"32757",449.06277,77.42794,76.003044
"32758",449.0761,77.44747,75.9422
"32759",449.08945,77.45968,75.87464
"32760",449.10278,77.467,75.80258
"32761",449.11612,77.46456,75.720985
"32762",449.12946,77.46212,75.63931
"32763",449.1428,77.452354,75.55024
"32764",449.15613,77.435265,75.45354
"32765",449.16946,77.41329,75.35142
"32766",449.1828,77.38888,75.24617
"32767",449.19614,77.35958,75.13528
"32768",449.20947,77.3254,75.018585
"32769",449.2228,77.28634,74.89594
"32770",449.23615,77.24483,74.76963
"32771",449.24948,77.208206,74.64691
"32772",449.26282,77.21553,74.56699
"32773",449.27615,77.34493,74.60938
"32774",449.2895,77.71114,74.892624
"32775",449.30283,78.416725,75.52668
"32776",449.31616,79.49096,76.55144
"32777",449.3295,80.88258,77.927155
"32778",449.34283,82.4329,79.50505
"32779",449.35617,83.94171,81.08989
"32780",449.3695,85.20882,82.48017
"32781",449.38284,86.10239,83.536514
"32782",449.39618,86.58091,84.205734
"32783",449.40952,86.67124,84.50172
"32784",449.42285,86.44175,84.4807
"32785",449.4362,85.98764,84.22789
"32786",449.44952,85.401695,83.829056
"32787",449.46286,84.76692,83.36308
"32788",449.4762,84.15167,82.8968
"32789",449.48953,83.60479,82.47965
"32790",449.50287,83.14824,82.13575
"32791",449.5162,82.774704,81.860596
"32792",449.52954,82.4744,81.647
"32793",449.54288,82.21561,81.46553
"32794",449.5562,81.991,81.31016
"32795",449.56955,81.795685,81.17706
"32796",449.5829,81.64431,81.0818
"32797",449.59622,81.549095,81.03797
"32798",449.60956,81.51736,81.05464
"32799",449.6229,81.532005,81.11671
"32800",449.63623,81.56374,81.19632
"32801",449.64957,81.583275,81.26472
"32802",449.6629,81.566185,81.297104
"32803",449.67624,81.4905,81.27036
"32804",449.68958,81.35378,81.18022
"32805",449.7029,81.15602,81.024765
"32806",449.71625,80.90456,80.809425
"32807",449.72958,80.60914,80.542274
"32808",449.74292,80.28687,80.239044
"32809",449.75626,79.95239,79.91353
"32810",449.7696,79.61303,79.57268
"32811",449.78293,79.28344,79.230995
"32812",449.79626,78.97093,78.896095
"32813",449.8096,78.68528,78.578285
"32814",449.82294,78.42649,78.27841
"32815",449.83627,78.20676,78.00951
"32816",449.8496,78.013885,77.7606
"32817",449.86295,77.85031,77.53496
"32818",449.87628,77.72091,77.33838
"32819",449.88962,77.61593,77.16218
"32820",449.90295,77.53048,77.00223
"32821",449.9163,77.471886,76.86646
"32822",449.92963,77.437706,76.75328
"32823",449.94296,77.42794,76.663445
"32824",449.9563,77.43282,76.58795
"32825",449.96964,77.44991,76.52482
"32826",449.98297,77.47677,76.471985
"32827",449.9963,77.50851,76.42487
"32828",450.00964,77.53536,76.37387
"32829",450.02298,77.55245,76.31394
"32830",450.03632,77.56222,76.24722
"32831",450.04965,77.56466,76.173485
"32832",450.063,77.55489,76.087616
"32833",450.07632,77.53048,75.98679
"32834",450.08966,77.503624,75.88277
"32835",450.103,77.47677,75.7779
"32836",450.11633,77.44503,75.66731
"32837",450.12967,77.40841,75.55085
"32838",450.143,77.37179,75.43324
"32839",450.15634,77.332726,75.31205
"32840",450.16968,77.28634,75.18231
"32841",450.183,77.24727,75.05844
"32842",450.19635,77.24727,74.97242
"32843",450.2097,77.34249,74.98162
"32844",450.22302,77.64034,75.19643
"32845",450.23636,78.24826,75.730606
"32846",450.2497,79.2224,76.65
"32847",450.26303,80.52369,77.926994
"32848",450.27637,82.0325,79.45217
"32849",450.2897,83.546196,81.02938
"32850",450.30304,84.86214,82.45614
"32851",450.31638,85.83383,83.57977
"32852",450.3297,86.39048,84.318726
"32853",450.34305,86.54673,84.674675
"32854",450.35638,86.363625,84.69615
"32855",450.36972,85.93393,84.46532
"32856",450.38306,85.35287,84.06969
"32857",450.3964,84.71076,83.59486
"32858",450.40973,84.07843,83.10973
"32859",450.42307,83.50469,82.663445
"32860",450.4364,83.021286,82.28956
"32861",450.44974,82.62333,81.986015
"32862",450.46307,82.30106,81.74573
"32863",450.4764,82.037384,81.553955
"32864",450.48975,81.815216,81.395454
"32865",450.50308,81.634544,81.27151
"32866",450.51642,81.50271,81.19075
"32867",450.52975,81.42947,81.16447
"32868",450.5431,81.4197,81.19937
"32869",450.55643,81.45632,81.28036
"32870",450.56976,81.51003,81.37958
"32871",450.5831,81.55154,81.46827
"32872",450.59644,81.55398,81.519196
"32873",450.60977,81.497826,81.511604
"32874",450.6231,81.373314,81.4339
"32875",450.63644,81.17555,81.27905
"32876",450.64978,80.91676,81.057
"32877",450.66312,80.60914,80.77802
"32878",450.67645,80.272224,80.460144
"32879",450.6898,79.923096,80.11952
"32880",450.70312,79.57641,79.77043
"32881",450.71646,79.24437,79.425156
"32882",450.7298,78.92943,79.0866
"32883",450.74313,78.643776,78.767494
"32884",450.75647,78.38743,78.468765
"32885",450.7698,78.16281,78.193756
"32886",450.78314,77.9675,77.94103
"32887",450.79648,77.80148,77.7115
"32888",450.8098,77.6672,77.508514
"32889",450.82315,77.56466,77.33308
"32890",450.8365,77.49386,77.18617
"32891",450.84982,77.452354,77.06635
"32892",450.86316,77.435265,76.96965
"32893",450.8765,77.435265,76.8895
"32894",450.88983,77.44991,76.824005
"32895",450.90317,77.47921,76.77361
"32896",450.9165,77.51339,76.72902
"32897",450.92984,77.55001,76.687935
"32898",450.94318,77.57931,76.64067
"32899",450.9565,77.60128,76.587
"32900",450.96985,77.61349,76.52425
"32901",450.9832,77.61593,76.45211
"32902",450.99652,77.608604,76.370285
"32903",451.00986,77.591515,76.278465
"32904",451.0232,77.56222,76.173904
"32905",451.03653,77.5256,76.061104
"32906",451.04987,77.47433,75.93251
"32907",451.0632,77.420616,75.79987
"32908",451.07654,77.35958,75.65823
"32909",451.08987,77.296104,75.512245
"32910",451.1032,77.24727,75.378914
"32911",451.11655,77.24483,75.29045
"32912",451.12988,77.36202,75.32155
"32913",451.14322,77.70626,75.58335
"32914",451.15656,78.37034,76.17575
"32915",451.1699,79.38598,77.140465
"32916",451.18323,80.706795,78.44209
"32917",451.19656,82.18631,79.943695
"32918",451.2099,83.6292,81.45491
"32919",451.22324,84.842606,82.78172
"32920",451.23657,85.68734,83.77779
"32921",451.2499,86.11948,84.38765
"32922",451.26324,86.16342,84.622826
"32923",451.27658,85.8851,84.53711
"32924",451.28992,85.37728,84.213196
"32925",451.30325,84.75227,83.756226
"32926",451.3166,84.08331,83.23577
"32927",451.32993,83.438774,82.718834
"32928",451.34326,82.86015,82.24767
"32929",451.3566,82.36942,81.84632
"32930",451.36993,81.95926,81.5102
"32931",451.38327,81.617455,81.22962
"32932",451.3966,81.33669,80.999405
"32933",451.40994,81.12184,80.826324
"32934",451.42328,80.9778,80.71734
"32935",451.4366,80.919205,80.6893
"32936",451.44995,80.94118,80.74
"32937",451.4633,81.03395,80.86218
"32938",451.47662,81.160904,81.02145
"32939",451.48996,81.28054,81.17736
"32940",451.5033,81.358665,81.2955
"32941",451.51663,81.36599,81.34528
"32942",451.52997,81.29519,81.31717
"32943",451.5433,81.143814,81.20627
"32944",451.55664,80.921646,81.019844
"32945",451.56998,80.64332,80.77032
"32946",451.5833,80.32105,80.468155
"32947",451.59665,79.97681,80.13394
"32948",451.61,79.62524,79.78165
"32949",451.62332,79.27123,79.41593
"32950",451.63666,78.93431,79.05624
"32951",451.65,78.61448,78.7031
"32952",451.66333,78.32395,78.36928
"32953",451.67667,78.065155,78.058105
"32954",451.69,77.838104,77.77059
"32955",451.70334,77.65011,77.51504
"32956",451.71667,77.50118,77.29268
"32957",451.73,77.38888,77.10229
"32958",451.74335,77.30343,76.93524
"32959",451.75668,77.24483,76.79237
"32960",451.77002,77.21065,76.6721
"32961",451.78336,77.19844,76.57272
"32962",451.7967,77.20332,76.49006
"32963",451.81003,77.222855,76.422195
"32964",451.82336,77.24971,76.36227
"32965",451.8367,77.279015,76.305626
"32966",451.85004,77.30587,76.24745
"32967",451.86337,77.3254,76.18279
"32968",451.8767,77.34005,76.11386
"32969",451.89005,77.35226,76.042946
"32970",451.90338,77.35958,75.96753
"32971",451.91672,77.35714,75.882576
"32972",451.93005,77.33761,75.78046
"32973",451.9434,77.30343,75.66308
"32974",451.95673,77.24727,75.52265
"32975",451.97006,77.17891,75.36827
"32976",451.9834,77.103226,75.20443
"32977",451.99673,77.032425,75.043106
"32978",452.01007,76.9836,74.90154
"32979",452.0234,76.995804,74.81949
"32980",452.03674,77.14961,74.87942
"32981",452.05008,77.55489,75.195625
"32982",452.06342,78.28977,75.854095
"32983",452.07675,79.37133,76.88221
"32984",452.0901,80.726326,78.21756
"32985",452.10342,82.196075,79.71001
"32986",452.11676,83.57549,81.15805
"32987",452.1301,84.68635,82.38064
"32988",452.14343,85.418785,83.25952
"32989",452.15677,85.74593,83.756004
"32990",452.1701,85.69955,83.889175
"32991",452.18344,85.36263,83.73037
"32992",452.19678,84.82796,83.36327
"32993",452.2101,84.18829,82.87448
"32994",452.22345,83.5169,82.33397
"32995",452.2368,82.879684,81.806656
"32996",452.25012,82.31083,81.32779
"32997",452.26346,81.81766,80.90683
"32998",452.2768,81.3904,80.53638
"32999",452.29013,81.03151,80.22093
"33000",452.30347,80.73365,79.95531
"33001",452.3168,80.51881,79.76339
"33002",452.33014,80.40162,79.662415
"33003",452.34348,80.39918,79.67252
"33004",452.3568,80.50416,79.78998
"33005",452.37015,80.68726,79.98884
"33006",452.38348,80.89967,80.222725
"33007",452.39682,81.09743,80.44859
"33008",452.41016,81.24391,80.62937
"33009",452.4235,81.30984,80.73417
"33010",452.43683,81.287865,80.75313
"33011",452.45016,81.17067,80.67618
"33012",452.4635,80.972916,80.51501
"33013",452.47684,80.709236,80.28173
"33014",452.49017,80.394295,79.98895
"33015",452.5035,80.04761,79.65459
"33016",452.51685,79.693596,79.30206
"33017",452.53018,79.344475,78.94337
"33018",452.54352,79.012436,78.59084
"33019",452.55685,78.70481,78.25236
"33020",452.5702,78.41917,77.92624
"33021",452.58353,78.167694,77.62537
"33022",452.59686,77.943085,77.3435
"33023",452.6102,77.7551,77.09123
"33024",452.62354,77.61349,76.87947
"33025",452.63687,77.51827,76.70968
"33026",452.6502,77.46212,76.57597
"33027",452.66354,77.44747,76.48202
"33028",452.67688,77.467,76.42178
"33029",452.69022,77.51339,76.389015
"33030",452.70355,77.58419,76.38211
"33031",452.7169,77.66964,76.39207
"33032",452.73022,77.75754,76.40714
"33033",452.74356,77.838104,76.41763
"33034",452.7569,77.908905,76.420876
"33035",452.77023,77.960175,76.4068
"33036",452.78357,77.98703,76.36991
"33037",452.7969,77.99191,76.31189
"33038",452.81024,77.96994,76.227165
"33039",452.82358,77.92355,76.11734
"33040",452.8369,77.86252,75.99142
"33041",452.85025,77.80881,75.87091
"33042",452.8636,77.81857,75.8122
"33043",452.87692,77.97482,75.90028
"33044",452.89026,78.37522,76.2374
"33045",452.9036,79.08568,76.89708
"33046",452.91693,80.10132,77.88415
"33047",452.93027,81.33669,79.12269
"33048",452.9436,82.64042,80.468185
"33049",452.95694,83.83185,81.74213
"33050",452.97028,84.75716,82.78718
"33051",452.9836,85.333336,83.51202
"33052",452.99695,85.54574,83.89108
"33053",453.01028,85.435875,83.95452
"33054",453.02362,85.0721,83.76061
"33055",453.03696,84.53498,83.381996
"33056",453.0503,83.90265,82.89138
"33057",453.06363,83.243454,82.35414
"33058",453.07697,82.60624,81.81828
"33059",453.0903,82.020294,81.31378
"33060",453.10364,81.48318,80.8398
"33061",453.11697,80.99489,80.39786
"33062",453.1303,80.56519,79.99925
"33063",453.14365,80.22095,79.67267
"33064",453.15698,79.991455,79.45008
"33065",453.17032,79.906006,79.364365
"33066",453.18365,79.974365,79.42979
"33067",453.197,80.17212,79.62674
"33068",453.21033,80.445564,79.90556
"33069",453.22366,80.73609,80.210014
"33070",453.237,80.99245,80.48937
"33071",453.25034,81.180435,80.708374
"33072",453.26367,81.27322,80.83804
"33073",453.277,81.25857,80.86318
"33074",453.29034,81.14137,80.78532
"33075",453.30368,80.93385,80.613464
"33076",453.31702,80.65308,80.36188
"33077",453.33035,80.31861,80.04781
"33078",453.3437,79.95239,79.69155
"33079",453.35703,79.57641,79.31408
"33080",453.37036,79.20531,78.92974
"33081",453.3837,78.8513,78.5509
"33082",453.39703,78.519264,78.18297
"33083",453.41037,78.21408,77.83151
"33084",453.4237,77.94797,77.50959
"33085",453.43704,77.72335,77.22085
"33086",453.45038,77.54757,76.97392
"33087",453.4637,77.42794,76.77766
"33088",453.47705,77.36446,76.633804
"33089",453.4904,77.347374,76.534355
"33090",453.50372,77.37179,76.475876
"33091",453.51706,77.43038,76.45234
"33092",453.5304,77.51095,76.45261
"33093",453.54373,77.60128,76.46516
"33094",453.55707,77.68429,76.473206
"33095",453.5704,77.75998,76.47653
"33096",453.58374,77.821014,76.46757
"33097",453.59708,77.88693,76.46539
"33098",453.6104,78.00168,76.51411
"33099",453.62375,78.25071,76.70069
"33100",453.6371,78.73411,77.129425
"33101",453.65042,79.51537,77.87113
"33102",453.66376,80.59205,78.93266
"33103",453.6771,81.883575,80.24269
"33104",453.69043,83.243454,81.66143
"33105",453.70377,84.491035,83.01037
"33106",453.7171,85.46517,84.12485
"33107",453.73044,86.082855,84.913315
"33108",453.74377,86.327,85.34755
"33109",453.7571,86.23178,85.45004
"33110",453.77045,85.86557,85.27857
"33111",453.78378,85.30892,84.90522
"33112",453.79712,84.647285,84.409485
"33113",453.81046,83.95392,83.86134
"33114",453.8238,83.284966,83.31595
"33115",453.83713,82.667274,82.80091
"33116",453.85046,82.11551,82.3325
"33117",453.8638,81.634544,81.91764
"33118",453.87714,81.21706,81.55123
"33119",453.89047,80.87282,81.245026
"33120",453.9038,80.62623,81.02571
"33121",453.91714,80.49683,80.915886
"33122",453.93048,80.49439,80.92897
"33123",453.94382,80.61402,81.06405
"33124",453.95715,80.82399,81.293205
"33125",453.9705,81.07301,81.56798
"33126",453.98383,81.304955,81.83345
"33127",453.99716,81.47585,82.04513
"33128",454.0105,81.55398,82.16937
"33129",454.02383,81.52224,82.186195
"33130",454.03717,81.3782,82.08972
"33131",454.0505,81.13405,81.88864
"33132",454.06384,80.81178,81.601814
"33133",454.07718,80.428474,81.24387
"33134",454.0905,80.01587,80.84466
"33135",454.10385,79.59106,80.42034
"33136",454.1172,79.166245,79.98275
"33137",454.13052,78.75609,79.54654
"33138",454.14386,78.382545,79.134125
"33139",454.1572,78.05051,78.75154
"33140",454.17053,77.7673,78.40742
"33141",454.18387,77.5378,78.10815
"33142",454.1972,77.36202,77.85542
"33143",454.21054,77.2375,77.64847
"33144",454.22388,77.15694,77.481575
"33145",454.2372,77.117874,77.35367
"33146",454.25055,77.10567,77.251396
"33147",454.2639,77.11055,77.16583
"33148",454.27722,77.12764,77.09263
"33149",454.29056,77.152054,77.02728
"33150",454.3039,77.19356,76.97979
"33151",454.31723,77.26681,76.96534
"33152",454.33057,77.42794,77.04106
"33153",454.3439,77.769745,77.30249
"33154",454.35724,78.38743,77.85048
"33155",454.37057,79.33959,78.75225
"33156",454.3839,80.604256,79.99628
"33157",454.39725,82.07645,81.48735
"33158",454.41058,83.57549,83.051285
"33159",454.42392,84.90364,84.491165
"33160",454.43726,85.909515,85.650276
"33161",454.4506,86.519875,86.445305
"33162",454.46393,86.727394,86.85657
"33163",454.47726,86.58335,86.92275
"33164",454.4906,86.170746,86.71587
"33165",454.50394,85.57992,86.31788
"33166",454.51727,84.9012,85.81353
"33167",454.5306,84.21271,85.2782
"33168",454.54395,83.57549,84.77263
"33169",454.55728,83.0164,84.32527
"33170",454.57062,82.53788,83.94101
"33171",454.58395,82.11307,83.595505
"33172",454.5973,81.72732,83.27579
"33173",454.61063,81.375755,82.9782
"33174",454.62396,81.075455,82.720894
"33175",454.6373,80.86061,82.53966
"33176",454.65063,80.7483,82.45424
"33177",454.66397,80.74586,82.47518
"33178",454.6773,80.82155,82.57418
"33179",454.69064,80.93141,82.70972
"33180",454.70398,81.024185,82.8316
"33181",454.71732,81.06569,82.905106
"33182",454.73065,81.03395,82.90667
"33183",454.744,80.91432,82.81935
"33184",454.75732,80.706795,82.640396
"33185",454.77066,80.41871,82.3744
"33186",454.784,80.0647,82.03347
"33187",454.79733,79.65942,81.63021
"33188",454.81067,79.22972,81.18987
"33189",454.824,78.79759,80.73367
"33190",454.83734,78.380104,80.27861
"33191",454.85068,77.98459,79.83247
"33192",454.864,77.628136,79.41304
"33193",454.87735,77.31075,79.02154
"33194",454.8907,77.04219,78.66894
"33195",454.90402,76.824905,78.35922
"33196",454.91736,76.663765,78.09886
"33197",454.9307,76.561226,77.89207
"33198",454.94403,76.5124,77.73578
"33199",454.95737,76.5124,77.62679
"33200",454.9707,76.54902,77.55443
"33201",454.98404,76.61738,77.514946
"33202",454.99738,76.6955,77.487366
"33203",455.0107,76.77608,77.464676
"33204",455.02405,76.84688,77.43473
"33205",455.03738,76.90059,77.38991
"33206",455.05072,76.927444,77.31991
"33207",455.06406,76.946976,77.24342
"33208",455.0774,76.981155,77.1822
"33209",455.09073,77.100784,77.20749
"33210",455.10406,77.418175,77.43428
"33211",455.1174,78.04318,77.97861
"33212",455.13074,79.03929,78.91357
"33213",455.14407,80.37965,80.2239
"33214",455.1574,81.94705,81.80317
"33215",455.17075,83.546196,83.46316
"33216",455.18408,84.96956,84.99734
"33217",455.19742,86.046234,86.22931
"33218",455.21075,86.6981,87.070114
"33219",455.2241,86.922714,87.50404
"33220",455.23743,86.78111,87.57877
"33221",455.25076,86.366066,87.37563
"33222",455.2641,85.78012,86.988625
"33223",455.27744,85.13313,86.52226
"33224",455.29077,84.49836,86.0479
"33225",455.3041,83.931946,85.622055
"33226",455.31744,83.44366,85.25664
"33227",455.33078,83.01396,84.934555
"33228",455.34412,82.616005,84.63078
"33229",455.35745,82.22049,84.31702
"33230",455.3708,81.82742,83.99334
"33231",455.38412,81.45388,83.6769
"33232",455.39746,81.13893,83.40739
"33233",455.4108,80.919205,83.22325
"33234",455.42413,80.8069,83.13967
"33235",455.43747,80.780045,83.13803
"33236",455.4508,80.80202,83.18438
"33237",455.46414,80.82155,83.22897
"33238",455.47748,80.79225,83.22535
"33239",455.4908,80.69459,83.15244
"33240",455.50415,80.51148,82.99104
"33241",455.5175,80.25025,82.7458
"33242",455.53082,79.91821,82.42158
"33243",455.54416,79.537346,82.038155
"33244",455.5575,79.12718,81.61353
"33245",455.57083,78.70481,81.16389
"33246",455.58417,78.28489,80.70349
"33247",455.5975,77.88449,80.2495
"33248",455.61084,77.50851,79.8074
"33249",455.62418,77.16426,79.3853
"33250",455.6375,76.859085,78.99151
"33251",455.65085,76.595406,78.62968
"33252",455.66418,76.383,78.31088
"33253",455.67752,76.23163,78.04648
"33254",455.69086,76.13153,77.82862
"33255",455.7042,76.0827,77.658905
"33256",455.71753,76.08026,77.53405
"33257",455.73087,76.10956,77.44086
"33258",455.7442,76.15839,77.36811
"33259",455.75754,76.21698,77.306656
"33260",455.77087,76.27558,77.24704
"33261",455.7842,76.33173,77.186806
"33262",455.79755,76.3708,77.11124
"33263",455.81088,76.39277,77.0198
"33264",455.82422,76.39521,76.909515
"33265",455.83755,76.37812,76.77978
"33266",455.8509,76.3415,76.629974
"33267",455.86423,76.297554,76.4717
"33268",455.87756,76.243835,76.302284
"33269",455.8909,76.18768,76.12875
"33270",455.90424,76.13397,75.95591
"33271",455.91757,76.07782,75.778946
"33272",455.9309,76.02899,75.60755
"33273",455.94424,75.982605,75.43707
"33274",455.95758,75.95331,75.282234
"33275",455.97092,75.93378,75.136246
"33276",455.98425,75.92645,75.001854
"33277",455.9976,75.92645,74.87456
"33278",456.01093,75.93866,74.75947
"33279",456.02426,75.96063,74.654526
"33280",456.0376,75.99725,74.56492
"33281",456.05093,76.04608,74.48866
"33282",456.06427,76.10712,74.42614
"33283",456.0776,76.175476,74.37285
"33284",456.09094,76.25361,74.33147
"33285",456.10428,76.33906,74.29984
"33286",456.1176,76.42695,74.27333
"33287",456.13095,76.51484,74.249565
"33288",456.1443,76.592964,74.21878
"33289",456.15762,76.66621,74.185555
"33290",456.17096,76.732124,74.14729
"33291",456.1843,76.82002,74.13307
"33292",456.19763,77.00557,74.219246
"33293",456.21097,77.4255,74.5456
"33294",456.2243,78.221405,75.261055
"33295",456.23764,79.48119,76.46526
"33296",456.25098,81.18776,78.15562
"33297",456.2643,83.18974,80.19472
"33298",456.27765,85.24788,82.35253
"33299",456.291,87.098495,84.36714
"33300",456.30432,88.531624,86.022095
"33301",456.31766,89.44228,87.19937
"33302",456.331,89.82315,87.87531
"33303",456.34433,89.74502,88.10416
"33304",456.35767,89.30801,87.97168
"33305",456.371,88.636604,87.591156
"33306",456.38434,87.850464,87.074905
"33307",456.39767,87.047226,86.517
"33308",456.411,86.30259,85.992584
"33309",456.42435,85.65804,85.54499
"33310",456.43768,85.12825,85.19201
"33311",456.45102,84.68879,84.9128
"33312",456.46436,84.31281,84.68335
"33313",456.4777,83.966125,84.471436
"33314",456.49103,83.64385,84.2731
"33315",456.50436,83.35577,84.098885
"33316",456.5177,83.12627,83.97425
"33317",456.53104,82.97246,83.91814
"33318",456.54437,82.896774,83.93534
"33319",456.5577,82.86992,83.99901
"33320",456.57104,82.847946,84.06672
"33321",456.58438,82.78691,84.09468
"33322",456.59772,82.667274,84.06213
"33323",456.61105,82.4622,83.94041
"33324",456.6244,82.16434,83.71949
"33325",456.63773,81.78348,83.406265
"33326",456.65106,81.33669,83.01521
"33327",456.6644,80.84352,82.56381
"33328",456.67773,80.33082,82.07747
"33329",456.69107,79.815674,81.57266
"33330",456.7044,79.3225,81.07373
"33331",456.71774,78.85863,80.588684
"33332",456.73108,78.43626,80.130646
"33333",456.74442,78.05783,79.703354
"33334",456.75775,77.72579,79.31062
"33335",456.7711,77.44503,78.95879
"33336",456.78442,77.21797,78.65189
"33337",456.79776,77.03975,78.386734
"33338",456.8111,76.91524,78.169716
"33339",456.82443,76.839554,77.997635
"33340",456.83777,76.80049,77.85981
"33341",456.8511,76.790726,77.75006
"33342",456.86444,76.80049,77.65954
"33343",456.87778,76.822464,77.58153
"33344",456.8911,76.85176,77.51153
"33345",456.90445,76.876175,77.43756
"33346",456.9178,76.893265,77.35703
"33347",456.93112,76.90059,77.26727
"33348",456.94446,76.88594,77.15577
"33349",456.9578,76.8542,77.02672
"33350",456.97113,76.807816,76.88203
"33351",456.98447,76.74433,76.71879
"33352",456.9978,76.67597,76.54869
"33353",457.01114,76.60273,76.371574
"33354",457.02448,76.52216,76.184845
"33355",457.0378,76.44892,76.00292
"33356",457.05115,76.38056,75.82359
"33357",457.06448,76.317085,75.64701
"33358",457.07782,76.263374,75.47821
"33359",457.09116,76.21454,75.31261
"33360",457.1045,76.17792,75.15769
"33361",457.11783,76.14618,75.006516
"33362",457.13116,76.12421,74.86411
"33363",457.1445,76.12421,74.743
"33364",457.15784,76.1413,74.63897
"33365",457.17117,76.18036,74.55745
"33366",457.1845,76.23651,74.49424
"33367",457.19785,76.30488,74.445
"33368",457.21118,76.38056,74.40521
"33369",457.22452,76.46113,74.37267
"33370",457.23785,76.541695,74.34265
"33371",457.2512,76.612495,74.30538
"33372",457.26453,76.67597,74.263
"33373",457.27786,76.734566,74.21772
"33374",457.2912,76.78584,74.166954
"33375",457.30453,76.84688,74.12755
"33376",457.31787,76.97139,74.15353
"33377",457.3312,77.26925,74.35674
"33378",457.34454,77.87961,74.88177
"33379",457.35788,78.922104,75.858
"33380",457.37122,80.42603,77.32825
"33381",457.38455,82.30595,79.22147
"33382",457.3979,84.36408,81.35167
"33383",457.41122,86.33677,83.46073
"33384",457.42456,87.98718,85.309166
"33385",457.4379,89.161514,86.73309
"33386",457.45123,89.80606,87.66394
"33387",457.46457,89.96231,88.12663
"33388",457.4779,89.7084,88.184044
"33389",457.49124,89.15419,87.93323
"33390",457.50458,88.41444,87.47954
"33391",457.5179,87.59167,86.91972
"33392",457.53125,86.77623,86.34152
"33393",457.5446,86.029144,85.80619
"33394",457.55792,85.384605,85.35006
"33395",457.57126,84.840164,84.973885
"33396",457.5846,84.37385,84.65882
"33397",457.59793,83.95148,84.37313
"33398",457.61127,83.55596,84.1011
"33399",457.6246,83.18974,83.846
"33400",457.63794,82.88457,83.6405
"33401",457.65128,82.667274,83.51335
"33402",457.6646,82.55253,83.48196
"33403",457.67795,82.52567,83.53487
"33404",457.69128,82.54032,83.62844
"33405",457.70462,82.55253,83.72003
"33406",457.71796,82.513466,83.760735
"33407",457.7313,82.39628,83.72209
"33408",457.74463,82.176544,83.57724
"33409",457.75797,81.85672,83.32543
"33410",457.7713,81.449,82.97573
"33411",457.78464,80.970474,82.54249
"33412",457.79797,80.448006,82.05035
"33413",457.8113,79.91089,81.52723
"33414",457.82465,79.38354,80.99709
"33415",457.83798,78.88304,80.47733
"33416",457.85132,78.416725,79.97611
"33417",457.86465,77.994354,79.504265
"33418",457.878,77.61837,79.065605
"33419",457.89133,77.29366,78.66647
"33420",457.90466,77.015335,78.30357
"33421",457.918,76.79317,77.98814
"33422",457.93134,76.627144,77.7219
"33423",457.94467,76.51728,77.50664
"33424",457.958,76.45136,77.33189
"33425",457.97134,76.43427,77.2039
"33426",457.98468,76.44648,77.10468
"33427",457.99802,76.4831,77.03026
"33428",458.01135,76.53193,76.969185
"33429",458.0247,76.58564,76.91452
"33430",458.03802,76.63691,76.85909
"33431",458.05136,76.67353,76.79062
"33432",458.0647,76.6955,76.70864
"33433",458.07803,76.70771,76.617584
"33434",458.09137,76.70283,76.50982
"33435",458.1047,76.67841,76.38237
"33436",458.11804,76.64179,76.24195
"33437",458.13138,76.58808,76.0833
"33438",458.1447,76.51972,75.90832
"33439",458.15805,76.44404,75.72388
"33440",458.1714,76.35859,75.527306
"33441",458.18472,76.27558,75.330505
"33442",458.19806,76.19745,75.13599
"33443",458.2114,76.121765,74.941475
"33444",458.22473,76.06317,74.76169
"33445",458.23807,76.02167,74.59716
"33446",458.2514,75.999695,74.45087
"33447",458.26474,75.98993,74.31609
"33448",458.27808,75.99725,74.198105
"33449",458.2914,76.019226,74.09499
"33450",458.30475,76.06561,74.01698
"33451",458.31808,76.13153,73.95995
"33452",458.33142,76.21454,73.92207
"33453",458.34476,76.30244,73.89168
"33454",458.3581,76.387886,73.86158
"33455",458.37143,76.45869,73.8195
"33456",458.38477,76.51728,73.76743
"33457",458.3981,76.578316,73.719635
"33458",458.41144,76.663765,73.69816
"33459",458.42477,76.83467,73.76481
"33460",458.4381,77.21065,74.04187
"33461",458.45145,77.92844,74.67249
"33462",458.46478,79.097885,75.77721
"33463",458.47812,80.726326,77.37746
"33464",458.49146,82.703896,79.37772
"33465",458.5048,84.823074,81.5814
"33466",458.51813,86.81529,83.724335
"33467",458.53146,88.446175,85.56819
"33468",458.5448,89.56924,86.9552
"33469",458.55814,90.14542,87.83042
"33470",458.57147,90.2211,88.22315
"33471",458.5848,89.8793,88.20077
"33472",458.59814,89.24208,87.87228
"33473",458.61148,88.42664,87.34566
"33474",458.62482,87.53796,86.72031
"33475",458.63815,86.65659,86.07451
"33476",458.6515,85.84604,85.47197
"33477",458.66483,85.135574,84.94419
"33478",458.67816,84.52766,84.49676
"33479",458.6915,84.00519,84.115776
"33480",458.70483,83.54131,83.77706
"33481",458.71817,83.13603,83.482445
"33482",458.7315,82.791794,83.236206
"33483",458.74484,82.533,83.06465
"33484",458.75818,82.37919,82.99
"33485",458.7715,82.3328,83.01796
"33486",458.78485,82.371864,83.12992
"33487",458.7982,82.45487,83.28705
"33488",458.81152,82.52323,83.43212
"33489",458.82486,82.533,83.52074
"33490",458.8382,82.44999,83.516884
"33491",458.85153,82.25956,83.403015
"33492",458.86487,81.96414,83.17821
"33493",458.8782,81.56863,82.84407
"33494",458.89154,81.09987,82.42433
"33495",458.90488,80.57984,81.938675
"33496",458.9182,80.028076,81.40503
"33497",458.93155,79.466545,80.844376
"33498",458.9449,78.924545,80.285706
"33499",458.95822,78.41184,79.739395
"33500",458.97156,77.94064,79.21857
"33501",458.9849,77.5256,78.73917
"33502",458.99823,77.16914,78.30539
"33503",459.01157,76.87373,77.92152
"33504",459.0249,76.64179,77.59188
"33505",459.03824,76.47822,77.323364
"33506",459.05157,76.37324,77.10833
"33507",459.0649,76.314644,76.9364
"33508",459.07825,76.30488,76.81147
"33509",459.09158,76.33173,76.722855
"33510",459.10492,76.38056,76.65705
"33511",459.11826,76.439156,76.60254
"33512",459.1316,76.50263,76.55474
"33513",459.14493,76.56367,76.506485
"33514",459.15826,76.61494,76.45037
"33515",459.1716,76.654,76.38365
"33516",459.18494,76.67841,76.303505
"33517",459.19827,76.68818,76.20947
"33518",459.2116,76.67597,76.09377
"33519",459.22495,76.646675,75.9606
"33520",459.23828,76.59785,75.806984
"33521",459.25162,76.53437,75.63719
"33522",459.26495,76.470894,75.465416
"33523",459.2783,76.404976,75.289215
"33524",459.29163,76.34394,75.11584
"33525",459.30496,76.28779,74.945435
"33526",459.3183,76.23651,74.77815
"33527",459.33163,76.19745,74.62148
"33528",459.34497,76.173035,74.47824
"33529",459.3583,76.155945,74.34156
"33530",459.37164,76.15106,74.21655
"33531",459.38498,76.15839,74.1036
"33532",459.39832,76.16815,73.99332
"33533",459.41165,76.175476,73.8809
"33534",459.425,76.18524,73.77115
"33535",459.43832,76.2121,73.678795
"33536",459.45166,76.3122,73.66053
"33537",459.465,76.60029,73.833374
"33538",459.47833,77.22774,74.35458
"33539",459.49167,78.314186,75.3544
"33540",459.505,79.8938,76.88133
"33541",459.51834,81.87381,78.858025
"33542",459.53168,84.051575,81.094345
"33543",459.545,86.153656,83.32304
"33544",459.55835,87.92859,85.29027
"33545",459.5717,89.215225,86.82468
"33546",459.58502,89.94522,87.84265
"33547",459.59836,90.14053,88.348755
"33548",459.6117,89.881744,88.40686
"33549",459.62503,89.27871,88.11263
"33550",459.63837,88.4535,87.577385
"33551",459.6517,87.50866,86.89671
"33552",459.66504,86.54917,86.171875
"33553",459.67838,85.643394,85.47076
"33554",459.6917,84.83772,84.84144
"33555",459.70505,84.14435,84.29924
"33556",459.71838,83.55352,83.83792
"33557",459.73172,83.04326,83.438705
"33558",459.74506,82.59403,83.08458
"33559",459.7584,82.21561,82.78722
"33560",459.77173,81.92996,82.57081
"33561",459.78506,81.76883,82.469986
"33562",459.7984,81.7322,82.48863
"33563",459.81174,81.80789,82.618454
"33564",459.82507,81.94949,82.81655
"33565",459.8384,82.08865,83.01663
"33566",459.85175,82.176544,83.16979
"33567",459.86508,82.1741,83.23537
"33568",459.87842,82.0618,83.191
"33569",459.89175,81.829865,83.0235
"33570",459.9051,81.48806,82.73888
"33571",459.91843,81.05592,82.35324
"33572",459.93176,80.56031,81.890625
"33573",459.9451,80.01587,81.36369
"33574",459.95844,79.4519,80.80022
"33575",459.97177,78.89281,80.224
"33576",459.9851,78.35813,79.654724
"33577",459.99844,77.857635,79.10292
"33578",460.01178,77.40597,78.584305
"33579",460.02512,77.01289,78.11017
"33580",460.03845,76.6833,77.687225
"33581",460.0518,76.41474,77.315025
"33582",460.06512,76.21454,77.002785
"33583",460.07846,76.0827,76.752655
"33584",460.0918,76.016785,76.56432
"33585",460.10513,76.00702,76.430084
"33586",460.11847,76.04364,76.34193
"33587",460.1318,76.10712,76.28177
"33588",460.14514,76.192566,76.24557
"33589",460.15848,76.28535,76.21937
"33590",460.1718,76.37812,76.19606
"33591",460.18515,76.473335,76.17809
"33592",460.1985,76.5539,76.14845
"33593",460.21182,76.61494,76.1018
"33594",460.22516,76.646675,76.027756
"33595",460.2385,76.65156,75.92785
"33596",460.25183,76.629585,75.80124
"33597",460.26517,76.58808,75.65441
"33598",460.2785,76.53437,75.49408
"33599",460.29184,76.473335,75.324745
"33600",460.30518,76.40742,75.14862
"33601",460.3185,76.3415,74.970436
"33602",460.33185,76.280464,74.795074
"33603",460.34518,76.22186,74.62024
"33604",460.35852,76.16815,74.44846
"33605",460.37186,76.12909,74.28966
"33606",460.3852,76.102234,74.14184
"33607",460.39853,76.085144,74.002945
"33608",460.41187,76.07782,73.87328
"33609",460.4252,76.08026,73.75316
"33610",460.43854,76.09003,73.640434
"33611",460.45187,76.102234,73.53046
"33612",460.4652,76.12665,73.43307
"33613",460.47855,76.21454,73.39992
"33614",460.49188,76.46357,73.530655
"33615",460.50522,77.02754,73.984116
"33616",460.51855,78.05539,74.919075
"33617",460.5319,79.61059,76.413506
"33618",460.54523,81.619896,78.410645
"33619",460.55856,83.89288,80.73425
"33620",460.5719,86.151215,83.114235
"33621",460.58524,88.10925,85.264496
"33622",460.59857,89.57168,86.98033
"33623",460.6119,90.457924,88.165695
"33624",460.62524,90.77043,88.805016
"33625",460.63858,90.58488,88.95604
"33626",460.65192,90.0087,88.71064
"33627",460.66525,89.161514,88.17623
"33628",460.6786,88.15808,87.45909
"33629",460.69193,87.10582,86.66177
"33630",460.70526,86.09262,85.87063
"33631",460.7186,85.17708,85.14548
"33632",460.73193,84.37629,84.50647
"33633",460.74527,83.69268,83.95962
"33634",460.7586,83.104294,83.486626
"33635",460.77194,82.59159,83.07093
"33636",460.78528,82.16434,82.72466
"33637",460.7986,81.846954,82.474915
"33638",460.81195,81.671165,82.35684
"33639",460.8253,81.64431,82.38221
"33640",460.83862,81.75174,82.54102
"33641",460.85196,81.94461,82.788635
"33642",460.8653,82.159454,83.06425
"33643",460.87863,82.33036,83.302635
"33644",460.89197,82.41093,83.456024
"33645",460.9053,82.36698,83.48742
"33646",460.91864,82.18143,83.37583
"33647",460.93198,81.864044,83.12662
"33648",460.9453,81.43435,82.75517
"33649",460.95865,80.91676,82.28241
"33650",460.972,80.34547,81.73976
"33651",460.98532,79.75464,81.15973
"33652",460.99866,79.16136,80.558784
"33653",461.012,78.58518,79.9564
"33654",461.02533,78.04318,79.370186
"33655",461.03867,77.54757,78.81342
"33656",461.052,77.10811,78.297325
"33657",461.06534,76.732124,77.83097
"33658",461.07867,76.42939,77.42612
"33659",461.092,76.192566,77.07771
"33660",461.10535,76.02899,76.79516
"33661",461.11868,75.93622,76.57829
"33662",461.13202,75.90936,76.424446
"33663",461.14536,75.93378,76.32103
"33664",461.1587,76.00214,76.26232
"33665",461.17203,76.09735,76.232605
"33666",461.18536,76.207214,76.22051
"33667",461.1987,76.317085,76.21186
"33668",461.21204,76.419624,76.19931
"33669",461.22537,76.507515,76.175316
"33670",461.2387,76.57343,76.132095
"33671",461.25204,76.61494,76.06652
"33672",461.26538,76.63203,75.97783
"33673",461.27872,76.63203,75.87258
"33674",461.29205,76.610054,75.74536
"33675",461.3054,76.56855,75.59792
"33676",461.31873,76.51728,75.43942
"33677",461.33206,76.45869,75.271996
"33678",461.3454,76.387886,75.09053
"33679",461.35873,76.317085,74.90685
"33680",461.37207,76.25117,74.725845
"33681",461.3854,76.190125,74.54765
"33682",461.39874,76.13641,74.374886
"33683",461.41208,76.09247,74.210205
"33684",461.4254,76.06073,74.05636
"33685",461.43875,76.036316,73.908844
"33686",461.4521,76.01434,73.76301
"33687",461.46542,76.00458,73.62869
"33688",461.47876,76.03876,73.53802
"33689",461.4921,76.20477,73.580246
"33690",461.50543,76.64912,73.90599
"33691",461.51877,77.5378,74.689964
"33692",461.5321,78.97093,76.04615
"33693",461.54544,80.936295,77.979355
"33694",461.55878,83.26299,80.33531
"33695",461.5721,85.677574,82.85186
"33696",461.58545,87.869995,85.2217
"33697",461.5988,89.59121,87.18886
"33698",461.61212,90.704506,88.60188
"33699",461.62546,91.19524,89.42713
"33700",461.6388,91.124435,89.706184
"33701",461.65213,90.60685,89.53624
"33702",461.66547,89.76944,89.0303
"33703",461.6788,88.7367,88.30286
"33704",461.69214,87.62585,87.46503
"33705",461.70547,86.536964,86.614456
"33706",461.7188,85.538414,85.82018
"33707",461.73215,84.66926,85.1241
"33708",461.74548,83.92706,84.52782
"33709",461.75882,83.29229,84.01576
"33710",461.77216,82.738075,83.56443
"33711",461.7855,82.26444,83.17636
"33712",461.79883,81.88602,82.8687
"33713",461.81216,81.636986,82.678604
"33714",461.8255,81.53933,82.6321
"33715",461.83884,81.5906,82.731476
"33716",461.85217,81.75174,82.94232
"33717",461.8655,81.95682,83.20214
"33718",461.87885,82.14725,83.45372
"33719",461.89218,82.26444,83.638016
"33720",461.90552,82.266884,83.71122
"33721",461.91885,82.1326,83.64777
"33722",461.9322,81.8616,83.44342
"33723",461.94553,81.461205,83.1012
"33724",461.95886,80.955826,82.64148
"33725",461.9722,80.38209,82.09761
"33726",461.98553,79.76929,81.49675
"33727",461.99887,79.149155,80.86941
"33728",462.0122,78.54368,80.23734
"33729",462.02554,77.97238,79.62054
"33730",462.03888,77.44747,79.032265
"33731",462.05222,76.981155,78.48618
"33732",462.06555,76.57343,77.98412
"33733",462.0789,76.22919,77.5328
"33734",462.09222,75.95331,77.139084
"33735",462.10556,75.75311,76.81243
"33736",462.1189,75.62371,76.550316
"33737",462.13223,75.56756,76.35741
"33738",462.14557,75.57,76.22134
"33739",462.1589,75.6115,76.124405
"33740",462.17224,75.68719,76.06295
"33741",462.18558,75.78241,76.0234
"33742",462.1989,75.88739,75.99658
"33743",462.21225,75.98993,75.970604
"33744",462.2256,76.09003,75.94539
"33745",462.23892,76.173035,75.90621
"33746",462.2656,76.26093,75.75676
"33747",462.27893,76.26826,75.64724
"33748",462.29227,76.25605,75.51842
"33749",462.3056,76.226746,75.372116
"33750",462.31894,76.18524,75.2127
"33751",462.33228,76.13397,75.04222
"33752",462.3456,76.07538,74.862816
"33753",462.35895,76.0119,74.6767
"33754",462.37228,75.94354,74.48371
"33755",462.38562,75.87274,74.28615
"33756",462.39896,75.80682,74.091255
"33757",462.4123,75.74822,73.90162
"33758",462.42563,75.69695,73.71748
"33759",462.43896,75.65301,73.53907
"33760",462.4523,75.62127,73.37149
"33761",462.46564,75.62615,73.23954
"33762",462.47897,75.74822,73.22493
"33763",462.4923,76.138855,73.4827
"33764",462.50565,76.99092,74.2141
"33765",462.51898,78.42405,75.5532
"33766",462.53232,80.44068,77.520584
"33767",462.54565,82.89433,79.98801
"33768",462.559,85.50179,82.68591
"33769",462.57233,87.93347,85.28952
"33770",462.58566,89.9086,87.51257
"33771",462.599,91.26116,89.17478
"33772",462.61234,91.947205,90.21274
"33773",462.62567,92.01312,90.65201
"33774",462.639,91.55901,90.57331
"33775",462.65234,90.72404,90.099556
"33776",462.66568,89.64736,89.35801
"33777",462.67902,88.465706,88.47784
"33778",462.69235,87.30114,87.57782
"33779",462.7057,86.236664,86.7415
"33780",462.71902,85.32113,86.02086
"33781",462.73236,84.56916,85.43517
"33782",462.7457,83.95392,84.962715
"33783",462.75903,83.44366,84.57601
"33784",462.77237,83.01152,84.25149
"33785",462.7857,82.650185,83.98426
"33786",462.79904,82.38163,83.79852
"33787",462.81238,82.22537,83.71669
"33788",462.8257,82.18143,83.74229
"33789",462.83905,82.230255,83.85928
"33790",462.8524,82.32792,84.02664
"33791",462.86572,82.41093,84.182396
"33792",462.87906,82.4329,84.27971
"33793",462.8924,82.3621,84.284935
"33794",462.90573,82.176544,84.173195
"33795",462.91907,81.86893,83.93359
"33796",462.9324,81.449,83.57207
"33797",462.94574,80.93385,83.1022
"33798",462.95908,80.35279,82.55032
"33799",462.9724,79.73998,81.94854
"33800",462.98575,79.11986,81.32029
"33801",462.99908,78.519264,80.69219
"33802",463.01242,77.95529,80.08195
"33803",463.02576,77.437706,79.500465
"33804",463.0391,76.96651,78.949196
"33805",463.05243,76.5539,78.441795
"33806",463.06577,76.19989,77.980095
"33807",463.0791,75.90936,77.570816
"33808",463.09244,75.67986,77.213486
"33809",463.10577,75.51873,76.91735
"33810",463.1191,75.41863,76.677216
"33811",463.13245,75.37957,76.49499
"33812",463.14578,75.39178,76.36281
"33813",463.15912,75.44793,76.274956
"33814",463.17245,75.53094,76.21571
"33815",463.1858,75.631035,76.176155
"33816",463.19913,75.73846,76.14705
"33817",463.21246,75.84833,76.12375
"33818",463.2258,75.945984,76.09167
"33819",463.23914,76.02899,76.04799
"33820",463.25247,76.085144,75.98005
"33821",463.2658,76.11688,75.88945
"33822",463.27914,76.112,75.76322
"33823",463.29248,76.085144,75.61487
"33824",463.30582,76.03876,75.446144
"33825",463.31915,75.98505,75.26865
"33826",463.3325,75.92645,75.08459
"33827",463.34583,75.86542,74.896255
"33828",463.35916,75.7995,74.70113
"33829",463.3725,75.73113,74.5015
"33830",463.38583,75.665215,74.302185
"33831",463.39917,75.60174,74.10325
"33832",463.4125,75.545586,73.90965
"33833",463.42584,75.4992,73.72407
"33834",463.43918,75.46502,73.54924
"33835",463.4525,75.45037,73.392876
"33836",463.46585,75.511406,73.31174
"33837",463.4792,75.77753,73.43759
"33838",463.49252,76.42939,73.957504
"33839",463.50586,77.63302,75.04955
"33840",463.5192,79.45922,76.80179
"33841",463.53253,81.82742,79.15309
"33842",463.54587,84.505684,81.88846
"33843",463.5592,87.16441,84.68799
"33844",463.57254,89.46426,87.211716
"33845",463.58588,91.16838,89.2116
"33846",463.5992,92.171814,90.56405
"33847",463.61255,92.48676,91.25937
