"","Time..s.","PPG.trace","Preprocessed.PPG"
"6941",92.73193,80.74586,105.80686
"6942",92.74527,80.58961,105.67392
"6943",92.758606,80.45533,105.55807
"6944",92.77194,80.35767,105.47464
"6945",92.78528,80.31129,105.43943
"6946",92.798615,80.33082,105.46869
"6947",92.81195,80.42115,105.56936
"6948",92.82529,80.56275,105.72412
"6949",92.83862,80.72144,105.9004
"6950",92.85196,80.86305,106.06455
"6951",92.865295,80.955826,106.184296
"6952",92.87863,80.98024,106.23858
"6953",92.89197,80.92653,106.2155
"6954",92.905304,80.80202,106.11994
"6955",92.91864,80.61646,105.95945
"6956",92.93198,80.38697,105.74922
"6957",92.94531,80.1355,105.50984
"6958",92.95865,79.87427,105.252846
"6959",92.971985,79.62035,104.995
"6960",92.98532,79.378654,104.74144
"6961",92.99866,79.151596,104.494965
"6962",93.01199,78.93675,104.25361
"6963",93.02533,78.73899,104.02262
"6964",93.038666,78.57053,103.81476
"6965",93.052,78.43626,103.63581
"6966",93.06534,78.33372,103.484406
"6967",93.078674,78.260475,103.35909
"6968",93.09201,78.21164,103.2559
"6969",93.10535,78.184784,103.17316
"6970",93.11868,78.17502,103.10667
"6971",93.13202,78.18234,103.05696
"6972",93.145355,78.19943,103.01725
"6973",93.15869,78.22629,102.98784
"6974",93.17203,78.25559,102.961716
"6975",93.18536,78.28001,102.93162
"6976",93.1987,78.2971,102.89496
"6977",93.212036,78.29954,102.844185
"6978",93.22537,78.28733,102.77884
"6979",93.23871,78.26292,102.700905
"6980",93.252045,78.24582,102.629524
"6981",93.26538,78.29221,102.6211
"6982",93.27872,78.49485,102.77037
"6983",93.29205,78.93187,103.160355
"6984",93.30539,79.64233,103.83743
"6985",93.318726,80.59205,104.77598
"6986",93.33206,81.668724,105.871155
"6987",93.3454,82.72343,106.978004
"6988",93.358734,83.60723,107.946915
"6989",93.37207,84.22247,108.67488
"6990",93.38541,84.53498,109.11934
"6991",93.39874,84.56916,109.295235
"6992",93.41208,84.38361,109.25247
"6993",93.425415,84.04913,109.05498
"6994",93.43875,83.6292,108.76158
"6995",93.45209,83.18486,108.43065
"6996",93.46542,82.76494,108.11025
"6997",93.47876,82.4036,107.83532
"6998",93.492096,82.11795,107.62478
"6999",93.50543,81.90799,107.481
"7000",93.51877,81.75418,107.38682
"7001",93.532104,81.634544,107.322
"7002",93.54544,81.52224,107.26077
"7003",93.55878,81.40749,107.193596
"7004",93.57211,81.30007,107.13016
"7005",93.58545,81.214615,107.08533
"7006",93.598785,81.15846,107.06713
"7007",93.61212,81.13649,107.08136
"7008",93.62546,81.13405,107.11443
"7009",93.638794,81.12428,107.14011
"7010",93.65213,81.0901,107.14106
"7011",93.66547,81.01686,107.10188
"7012",93.6788,80.902115,107.01891
"7013",93.69214,80.740974,106.88596
"7014",93.705475,80.53834,106.70648
"7015",93.71881,80.29908,106.48405
"7016",93.73215,80.0354,106.22971
"7017",93.74548,79.75464,105.95006
"7018",93.75882,79.466545,105.6543
"7019",93.772156,79.18822,105.3593
"7020",93.78549,78.924545,105.07026
"7021",93.79883,78.68284,104.794945
"7022",93.812164,78.470436,104.54138
"7023",93.8255,78.28489,104.30804
"7024",93.83884,78.12619,104.09574
"7025",93.85217,77.994354,103.90535
"7026",93.86551,77.88937,103.73769
"7027",93.878845,77.80881,103.59117
"7028",93.89218,77.752655,103.466545
"7029",93.90552,77.72335,103.36701
"7030",93.91885,77.713585,103.2861
"7031",93.93219,77.71847,103.219536
"7032",93.945526,77.72579,103.15556
"7033",93.95886,77.730675,103.08938
"7034",93.9722,77.72579,103.01358
"7035",93.985535,77.71114,102.927864
"7036",93.99887,77.68917,102.834366
"7037",94.01221,77.70382,102.7768
"7038",94.02554,77.83322,102.83445
"7039",94.03888,78.16281,103.09633
"7040",94.052216,78.76097,103.63708
"7041",94.06555,79.63012,104.46751
"7042",94.07889,80.689705,105.51553
"7043",94.092224,81.79813,106.64551
"7044",94.10556,82.79912,107.70269
"7045",94.1189,83.55596,108.547005
"7046",94.13223,84.00519,109.10735
"7047",94.14557,84.15167,109.379
"7048",94.158905,84.03937,109.39643
"7049",94.17224,83.7293,109.21259
"7050",94.18558,83.299614,108.899445
"7051",94.19891,82.80644,108.509384
"7052",94.21225,82.31327,108.10391
"7053",94.225586,81.86893,107.73186
"7054",94.23892,81.50271,107.42404
"7055",94.25226,81.22194,107.19023
"7056",94.265594,81.00954,107.016014
"7057",94.27893,80.84352,106.881546
"7058",94.29227,80.69459,106.75897
"7059",94.3056,80.552986,106.63908
"7060",94.31894,80.42359,106.52696
"7061",94.332275,80.32838,106.444984
"7062",94.34561,80.272224,106.39909
"7063",94.35895,80.255135,106.39051
"7064",94.372284,80.2649,106.40825
"7065",94.38562,80.27711,106.428734
"7066",94.39896,80.2649,106.425186
"7067",94.41229,80.22095,106.38951
"7068",94.42563,80.12573,106.3012
"7069",94.438965,79.97681,106.156204
"7070",94.4523,79.77661,105.955284
"7071",94.46564,79.537346,105.70904
"7072",94.47897,79.27123,105.42847
"7073",94.49231,78.99779,105.13225
"7074",94.505646,78.72434,104.827484
"7075",94.51898,78.46555,104.52883
"7076",94.53232,78.21896,104.23429
"7077",94.545654,77.99191,103.951584
"7078",94.55899,77.786835,103.683754
"7079",94.57233,77.60372,103.43148
"7080",94.58566,77.454796,103.20767
"7081",94.599,77.33517,103.00851
"7082",94.612335,77.25216,102.842224
"7083",94.62567,77.19356,102.697754
"7084",94.63901,77.15938,102.575874
"7085",94.65234,77.137405,102.46513
"7086",94.66568,77.1252,102.36347
"7087",94.679016,77.1252,102.273636
"7088",94.69235,77.1667,102.2253
"7089",94.70569,77.30099,102.27105
"7090",94.719025,77.611046,102.496765
"7091",94.73236,78.16037,102.971436
"7092",94.7457,78.95628,103.70986
"7093",94.75903,79.95239,104.673355
"7094",94.77237,81.02907,105.74854
"7095",94.785706,82.03494,106.786575
"7096",94.79904,82.83574,107.65096
"7097",94.81238,83.34844,108.25228
"7098",94.825714,83.55352,108.562
"7099",94.83905,83.4876,108.607124
"7100",94.85239,83.21416,108.442665
"7101",94.86572,82.79912,108.12807
"7102",94.87906,82.32548,107.7419
"7103",94.892395,81.84451,107.3336
"7104",94.90573,81.40261,106.94934
"7105",94.91907,81.02663,106.61719
"7106",94.9324,80.71656,106.3392
"7107",94.94574,80.46021,106.10525
"7108",94.959076,80.23804,105.89745
"7109",94.97241,80.042725,105.70958
"7110",94.98575,79.87671,105.5449
"7111",94.999084,79.766846,105.43118
"7112",95.01242,79.72289,105.379944
"7113",95.02576,79.75708,105.40547
"7114",95.03909,79.84985,105.490654
"7115",95.05243,79.974365,105.61047
"7116",95.065765,80.096436,105.73174
"7117",95.0791,80.18921,105.82753
"7118",95.09244,80.22827,105.872505
"7119",95.105774,80.20874,105.86011
"7120",95.11911,80.12573,105.78362
"7121",95.13245,79.96704,105.62886
"7122",95.14578,79.74731,105.4081
"7123",95.15912,79.48608,105.13897
"7124",95.172455,79.200424,104.83726
"7125",95.18579,78.91478,104.52663
"7126",95.19913,78.63401,104.211945
"7127",95.21246,78.37522,103.91047
"7128",95.2258,78.14084,103.62531
"7129",95.239136,77.93088,103.357254
"7130",95.25247,77.752655,103.11437
"7131",95.26581,77.60616,102.89765
"7132",95.279144,77.488976,102.70566
"7133",95.29248,77.401085,102.5393
"7134",95.30582,77.33517,102.392166
"7135",95.31915,77.30587,102.279594
"7136",95.33249,77.3547,102.24423
"7137",95.345825,77.55245,102.35932
"7138",95.35916,77.977264,102.70765
"7139",95.3725,78.66331,103.33048
"7140",95.38583,79.59838,104.223785
"7141",95.39917,80.68726,105.30012
"7142",95.412506,81.7908,106.42513
"7143",95.42584,82.75517,107.445465
"7144",95.43918,83.46319,108.23958
"7145",95.452515,83.8587,108.74332
"7146",95.46585,83.95148,108.95667
"7147",95.47919,83.78546,108.91414
"7148",95.49252,83.43145,108.67842
"7149",95.50586,82.967575,108.32178
"7150",95.519196,82.4622,107.909134
"7151",95.53253,81.969025,107.492905
"7152",95.54587,81.512474,107.097885
"7153",95.559204,81.11452,106.74719
"7154",95.57254,80.76051,106.42802
"7155",95.58588,80.44068,106.13195
"7156",95.59921,80.15259,105.85763
"7157",95.61255,79.91577,105.62558
"7158",95.625885,79.74975,105.456924
"7159",95.63922,79.68139,105.380745
"7160",95.65256,79.710686,105.400085
"7161",95.66589,79.823,105.50336
"7162",95.67923,79.98413,105.65896
"7163",95.692566,80.14526,105.819595
"7164",95.7059,80.2649,105.94377
"7165",95.71924,80.32105,106.0082
"7166",95.732574,80.29664,105.99382
"7167",95.74591,80.18921,105.89566
"7168",95.75925,80.0061,105.71847
"7169",95.77258,79.764404,105.47696
"7170",95.78592,79.48119,105.186386
"7171",95.799255,79.17845,104.86743
"7172",95.81259,78.870834,104.53414
"7173",95.82593,78.57542,104.20344
"7174",95.839264,78.29954,103.88304
"7175",95.8526,78.05295,103.58331
"7176",95.86594,77.838104,103.307625
"7177",95.87927,77.659874,103.06184
"7178",95.89261,77.51827,102.84711
"7179",95.905945,77.40841,102.65969
"7180",95.91928,77.3254,102.4957
"7181",95.93262,77.27413,102.36085
"7182",95.94595,77.24727,102.2488
"7183",95.95929,77.27657,102.192085
"7184",95.972626,77.40353,102.23393
"7185",95.98596,77.70382,102.45309
"7186",95.9993,78.24826,102.92577
"7187",96.012634,79.06615,103.68892
"7188",96.02597,80.10864,104.70223
"7189",96.03931,81.26589,105.86288
"7190",96.05264,82.38407,107.020615
"7191",96.06598,83.299614,108.01066
"7192",96.079315,83.90997,108.72413
"7193",96.09265,84.18341,109.11975
"7194",96.10599,84.14923,109.2163
"7195",96.11932,83.87335,109.07008
"7196",96.13266,83.441216,108.75899
"7197",96.145996,82.930954,108.35626
"7198",96.15933,82.408485,107.925385
"7199",96.17267,81.92752,107.519684
"7200",96.186005,81.50759,107.15999
"7201",96.19934,81.15358,106.85309
"7202",96.21268,80.85573,106.591286
"7203",96.22601,80.58961,106.351906
"7204",96.23935,80.343025,106.12375
"7205",96.252686,80.130615,105.92206
"7206",96.26602,79.96948,105.76501
"7207",96.27936,79.87671,105.67128
"7208",96.292694,79.85474,105.645454
"7209",96.30603,79.89624,105.68242
"7210",96.31937,79.96704,105.74998
"7211",96.3327,80.028076,105.80998
"7212",96.34604,80.04761,105.83039
"7213",96.359375,80.01099,105.79526
"7214",96.37271,79.903564,105.68818
"7215",96.38605,79.727776,105.50938
"7216",96.39938,79.4934,105.266495
"7217",96.41272,79.219955,104.97722
"7218",96.426056,78.91722,104.65011
"7219",96.43939,78.60471,104.303764
"7220",96.45273,78.294655,103.9501
"7221",96.466064,77.996796,103.59895
"7222",96.4794,77.72823,103.26779
"7223",96.49274,77.49386,102.962425
"7224",96.50607,77.30099,102.69124
"7225",96.51941,77.14961,102.45552
"7226",96.532745,77.03731,102.25414
"7227",96.54608,76.95918,102.083435
"7228",96.55942,76.90791,101.93714
"7229",96.572754,76.87862,101.81122
"7230",96.58609,76.86641,101.70147
"7231",96.59943,76.86641,101.603546
"7232",96.61276,76.876175,101.51539
"7233",96.6261,76.895706,101.4373
"7234",96.639435,76.94942,101.394005
"7235",96.65277,77.103226,101.452484
"7236",96.66611,77.44015,101.69888
"7237",96.67944,78.02609,102.204834
"7238",96.69278,78.87572,102.992775
"7239",96.706116,79.92554,104.00746
"7240",96.71945,81.04372,105.123314
"7241",96.73279,82.06668,106.178894
"7242",96.746124,82.85039,107.02718
"7243",96.75946,83.32891,107.59478
"7244",96.7728,83.49004,107.85994
"7245",96.78613,83.38262,107.86158
"7246",96.79947,83.07988,107.66454
"7247",96.812805,82.66483,107.34574
"7248",96.82614,82.21805,106.98223
"7249",96.83948,81.79813,106.63162
"7250",96.85281,81.449,106.338684
"7251",96.86615,81.18288,106.11784
"7252",96.879486,80.98512,105.957054
"7253",96.89282,80.816666,105.81938
"7254",96.90616,80.64576,105.673996
"7255",96.919495,80.45533,105.503746
"7256",96.93283,80.255135,105.31778
"7257",96.94617,80.06714,105.13776
"7258",96.9595,79.91821,104.99093
"7259",96.97284,79.83032,104.90048
"7260",96.986176,79.79614,104.861
"7261",96.99951,79.78882,104.847305
"7262",97.01285,79.781494,104.83338
"7263",97.026184,79.74975,104.79481
"7264",97.03952,79.67162,104.70886
"7265",97.05286,79.54223,104.56921
"7266",97.06619,79.36889,104.38156
"7267",97.07953,79.15648,104.14943
"7268",97.092865,78.91966,103.88625
"7269",97.1062,78.66575,103.59858
"7270",97.11954,78.40696,103.298096
"7271",97.13287,78.150604,102.99196
"7272",97.14621,77.90646,102.690025
"7273",97.159546,77.67452,102.39266
"7274",97.17288,77.471886,102.117355
"7275",97.18622,77.30099,101.867455
"7276",97.199554,77.1667,101.64883
"7277",97.21289,77.07149,101.46507
"7278",97.22623,77.01045,101.31252
"7279",97.23956,76.97627,101.18492
"7280",97.2529,76.96895,101.08311
"7281",97.266235,76.97627,100.99571
"7282",97.27957,76.99336,100.91831
"7283",97.29291,77.02022,100.85121
"7284",97.306244,77.04707,100.78495
"7285",97.31958,77.07393,100.71953
"7286",97.33292,77.09346,100.64762
"7287",97.34625,77.10567,100.569
"7288",97.35959,77.11299,100.48588
"7289",97.372925,77.11543,100.3981
"7290",97.38626,77.11055,100.30308
"7291",97.3996,77.09834,100.20058
"7292",97.41293,77.07881,100.09037
"7293",97.42627,77.05684,99.97711
"7294",97.439606,77.02754,99.85584
"7295",97.45294,77.00069,99.7361
"7296",97.46628,76.981155,99.62284
"7297",97.479614,76.96895,99.5163
"7298",97.49295,76.96895,99.42158
"7299",97.50629,76.97627,99.33418
"7300",97.51962,76.99092,99.25434
"7301",97.53296,77.00801,99.1774
"7302",97.546295,77.0251,99.10099
"7303",97.55963,77.04463,99.02756
"7304",97.57297,77.07393,98.9645
"7305",97.5863,77.11543,98.914566
"7306",97.59964,77.16426,98.87325
"7307",97.612976,77.21797,98.83835
"7308",97.62631,77.27169,98.80513
"7309",97.63965,77.31808,98.76626
"7310",97.652985,77.35714,98.72151
"7311",97.66632,77.39864,98.68043
"7312",97.67966,77.47433,98.67482
"7313",97.69299,77.65743,98.779
"7314",97.70633,78.04318,99.091545
"7315",97.719666,78.70725,99.694466
"7316",97.733,79.64965,100.596466
"7317",97.74634,80.78493,101.720795
"7318",97.759674,81.96658,102.92698
"7319",97.77301,83.01396,104.03581
"7320",97.78635,83.77814,104.89417
"7321",97.79968,84.19562,105.42972
"7322",97.81302,84.29084,105.65605
"7323",97.826355,84.119934,105.61923
"7324",97.83969,83.76837,105.396416
"7325",97.85303,83.319145,105.06495
"7326",97.86636,82.84306,104.69259
"7327",97.8797,82.40116,104.33953
"7328",97.893036,82.0325,104.045906
"7329",97.90637,81.75662,103.83354
"7330",97.91971,81.57351,103.70532
"7331",97.933044,81.45632,103.63731
"7332",97.94638,81.38064,103.60713
"7333",97.95972,81.30984,103.579475
"7334",97.97305,81.23659,103.54716
"7335",97.98639,81.16823,103.51744
"7336",97.999725,81.11452,103.50024
"7337",98.01306,81.0901,103.51065
"7338",98.0264,81.09743,103.55204
"7339",98.039734,81.12184,103.61075
"7340",98.05307,81.14137,103.66534
"7341",98.06641,81.13161,103.69124
"7342",98.07974,81.077896,103.67289
"7343",98.09308,80.9778,103.606476
"7344",98.106415,80.833755,103.49299
"7345",98.11975,80.64576,103.33105
"7346",98.13309,80.428474,103.13394
"7347",98.14642,80.19409,102.91295
"7348",98.15976,79.94995,102.67487
"7349",98.173096,79.7058,102.42916
"7350",98.18643,79.47875,102.19292
"7351",98.19977,79.276115,101.97399
"7352",98.213104,79.10033,101.77558
"7353",98.22644,78.95628,101.603424
"7354",98.23978,78.84398,101.4585
"7355",98.25311,78.75853,101.33693
"7356",98.26645,78.69749,101.23709
"7357",98.279785,78.65598,101.154884
"7358",98.29312,78.62913,101.08603
"7359",98.30646,78.61936,101.033424
"7360",98.31979,78.61692,100.98784
"7361",98.33313,78.61692,100.94462
"7362",98.346466,78.61936,100.90384
"7363",98.3598,78.624245,100.86558
"7364",98.37314,78.624245,100.822586
"7365",98.386475,78.61936,100.77471
"7366",98.39981,78.60227,100.71448
"7367",98.41315,78.57053,100.63906
"7368",98.42648,78.536354,100.56021
"7369",98.43982,78.487526,100.465645
"7370",98.453156,78.44114,100.371994
"7371",98.46649,78.39231,100.27445
"7372",98.47983,78.35081,100.18271
"7373",98.493164,78.31663,100.09699
"7374",98.5065,78.294655,100.022415
"7375",98.51984,78.277565,99.952034
"7376",98.53317,78.26536,99.886
"7377",98.54651,78.25071,99.81715
"7378",98.559845,78.23361,99.745384
"7379",98.57318,78.221405,99.67798
"7380",98.58652,78.21164,99.61263
"7381",98.59985,78.20676,99.551865
"7382",98.61319,78.204315,99.493385
"7383",98.626526,78.21164,99.444595
"7384",98.63986,78.24582,99.42289
"7385",98.6532,78.3679,99.49015
"7386",98.666534,78.65354,99.72479
"7387",98.67987,79.1638,100.19298
"7388",98.69321,79.89868,100.901726
"7389",98.70654,80.79225,101.79213
"7390",98.71988,81.71755,102.74219
"7391",98.733215,82.52567,103.60398
"7392",98.74655,83.10185,104.25909
"7393",98.75989,83.39239,104.64655
"7394",98.773224,83.41436,104.774536
"7395",98.78656,83.22392,104.690796
"7396",98.7999,82.90166,104.46928
"7397",98.81323,82.50858,104.16688
"7398",98.82657,82.11307,103.849754
"7399",98.839905,81.75418,103.5569
"7400",98.85324,81.463646,103.32118
"7401",98.86658,81.24635,103.14963
"7402",98.87991,81.10719,103.049416
"7403",98.89325,81.03151,103.00833
"7404",98.906586,80.99245,103.0015
"7405",98.91992,80.955826,102.995895
"7406",98.93326,80.90944,102.97938
"7407",98.946594,80.848404,102.94676
"7408",98.95993,80.78737,102.91224
"7409",98.97327,80.7483,102.89777
"7410",98.9866,80.743416,102.916275
"7411",98.99994,80.77028,102.96637
"7412",99.013275,80.80934,103.0295
"7413",99.02661,80.83864,103.08409
"7414",99.03995,80.833755,103.105415
"7415",99.05328,80.78981,103.087524
"7416",99.06662,80.70435,103.02675
"7417",99.079956,80.587166,102.93157
"7418",99.09329,80.44312,102.80588
"7419",99.10663,80.28199,102.65859
"7420",99.119965,80.11597,102.50138
"7421",99.1333,79.94507,102.33411
"7422",99.14664,79.77417,102.16149
"7423",99.15997,79.61303,101.99329
"7424",99.17331,79.46899,101.83716
"7425",99.186646,79.344475,101.69605
"7426",99.19998,79.24681,101.5779
"7427",99.21332,79.17113,101.47868
"7428",99.226654,79.11986,101.40151
"7429",99.23999,79.08324,101.33739
"7430",99.25333,79.061264,101.286766
"7431",99.26666,79.05394,101.25011
"7432",99.28,79.061264,101.22787
"7433",99.293335,79.07591,101.21318
"7434",99.30667,79.09544,101.203835
"7435",99.32001,79.114975,101.1951
"7436",99.33334,79.12474,101.17721
"7437",99.34668,79.12718,101.1523
"7438",99.360016,79.12474,101.12258
"7439",99.37335,79.11253,101.08302
"7440",99.38669,79.09544,101.0382
"7441",99.400024,79.07347,100.98796
"7442",99.41336,79.04906,100.93459
"7443",99.4267,79.01732,100.87314
"7444",99.44003,78.98558,100.81069
"7445",99.45337,78.95384,100.74725
"7446",99.466705,78.91966,100.68038
"7447",99.48004,78.887924,100.61488
"7448",99.49338,78.856186,100.54839
"7449",99.506714,78.83421,100.49068
"7450",99.52005,78.81468,100.434715
"7451",99.53339,78.80003,100.383026
"7452",99.54672,78.78783,100.33332
"7453",99.56006,78.785385,100.293
"7454",99.573395,78.7805,100.25016
"7455",99.58673,78.78294,100.21449
"7456",99.60007,78.79027,100.183784
"7457",99.6134,78.82445,100.18016
"7458",99.62674,78.93919,100.25817
"7459",99.640076,79.217514,100.50334
"7460",99.65341,79.708244,100.96962
"7461",99.66675,80.413826,101.666084
"7462",99.680084,81.25857,102.52376
"7463",99.69342,82.127716,103.432236
"7464",99.70676,82.86992,104.24093
"7465",99.72009,83.3753,104.83599
"7466",99.73343,83.59991,105.16608
"7467",99.746765,83.56573,105.24439
"7468",99.7601,83.33135,105.121445
"7469",99.77344,82.9749,104.869095
"7470",99.78677,82.55741,104.54457
"7471",99.80011,82.13504,104.20212
"7472",99.813446,81.74685,103.880646
"7473",99.82678,81.42458,103.61297
"7474",99.84012,81.17555,103.408455
"7475",99.853455,80.99977,103.26941
"7476",99.86679,80.88991,103.19079
"7477",99.88013,80.833755,103.162445
"7478",99.89346,80.797134,103.15188
"7479",99.9068,80.762955,103.14261
"7480",99.920135,80.72144,103.12494
"7481",99.93347,80.68482,103.11086
"7482",99.94681,80.66529,103.11273
"7483",99.960144,80.6775,103.14573
"7484",99.97348,80.72144,103.210846
"7485",99.98682,80.78493,103.296875
"7486",100.00015,80.84108,103.377556
"7487",100.01349,80.867935,103.430695
"7488",100.026825,80.850845,103.44073
"7489",100.04016,80.78737,103.40384
"7490",100.0535,80.68238,103.323456
"7491",100.06683,80.54566,103.20806
"7492",100.08017,80.38697,103.06642
"7493",100.093506,80.218506,102.91005
"7494",100.10684,80.04761,102.74598
"7495",100.12018,79.88403,102.58389
"7496",100.133514,79.727776,102.42401
"7497",100.14685,79.588615,102.276344
"7498",100.16019,79.46899,102.14386
"7499",100.17352,79.37133,102.02961
"7500",100.18686,79.293205,101.93184
"7501",100.200195,79.234604,101.85115
"7502",100.21353,79.19798,101.79061
"7503",100.22687,79.17845,101.74602
"7504",100.240204,79.17601,101.7179
"7505",100.25354,79.1931,101.70924
"7506",100.26688,79.219955,101.710884
"7507",100.28021,79.2517,101.718254
"7508",100.29355,79.281,101.72417
"7509",100.306885,79.30785,101.72855
"7510",100.32022,79.32494,101.724014
"7511",100.33356,79.32983,101.7078
"7512",100.34689,79.327385,101.68442
"7513",100.36023,79.31762,101.65363
"7514",100.373566,79.29809,101.61278
"7515",100.3869,79.27856,101.57131
"7516",100.40024,79.259026,101.529236
"7517",100.413574,79.23216,101.47922
"7518",100.42691,79.202866,101.42593
"7519",100.44025,79.168686,101.36684
"7520",100.45358,79.132065,101.30424
"7521",100.46692,79.093,101.23805
"7522",100.480255,79.05638,101.17309
"7523",100.49359,79.029526,101.116745
"7524",100.50693,79.00511,101.062004
"7525",100.52026,78.98802,101.013824
"7526",100.5336,78.97337,100.96755
"7527",100.546936,78.96361,100.925705
"7528",100.56027,78.958725,100.888435
"7529",100.57361,78.95384,100.85101
"7530",100.586945,78.95628,100.82076
"7531",100.60028,78.96849,100.800354
"7532",100.61362,79.0222,100.82183
"7533",100.62695,79.18822,100.95729
"7534",100.64029,79.54223,101.285934
"7535",100.653625,80.12329,101.85269
"7536",100.66696,80.90456,102.63781
"7537",100.6803,81.78836,103.54988
"7538",100.693634,82.63065,104.44806
"7539",100.70697,83.28741,105.18702
"7540",100.72031,83.67071,105.67305
"7541",100.73364,83.76837,105.88542
"7542",100.74698,83.631645,105.866455
"7543",100.760315,83.32891,105.67721
"7544",100.77365,82.92851,105.38084
"7545",100.78699,82.49149,105.03533
"7546",100.80032,82.06668,104.68838
"7547",100.81366,81.67605,104.36233
"7548",100.826996,81.3489,104.087555
"7549",100.84033,81.094986,103.87579
"7550",100.85367,80.91676,103.73179
"7551",100.867004,80.80446,103.64813
"7552",100.88034,80.73365,103.60246
"7553",100.89368,80.68482,103.57656
"7554",100.90701,80.635994,103.54913
"7555",100.92035,80.58961,103.52262
"7556",100.933685,80.55543,103.50687
"7557",100.94702,80.5481,103.5169
"7558",100.96036,80.57984,103.565765
"7559",100.973694,80.64332,103.64736
"7560",100.98703,80.72144,103.74559
"7561",101.00037,80.78493,103.83162
"7562",101.0137,80.816666,103.887886
"7563",101.02704,80.80446,103.9012
"7564",101.040375,80.74586,103.86774
"7565",101.05371,80.64088,103.786064
"7566",101.06705,80.50416,103.66937
"7567",101.08038,80.34058,103.52155
"7568",101.09372,80.164795,103.35641
"7569",101.107056,79.98657,103.183334
"7570",101.12039,79.81323,103.009575
"7571",101.13373,79.65209,102.8426
"7572",101.147064,79.51293,102.692566
"7573",101.1604,79.39086,102.555275
"7574",101.17374,79.28832,102.4337
"7575",101.18707,79.20531,102.328445
"7576",101.20041,79.14183,102.240135
"7577",101.213745,79.10033,102.171814
"7578",101.22708,79.080795,102.12417
"7579",101.24042,79.07347,102.08812
"7580",101.25375,79.08568,102.07137
"7581",101.26709,79.11009,102.067215
"7582",101.280426,79.13939,102.0687
"7583",101.29376,79.17113,102.07355
"7584",101.3071,79.20531,102.081825
"7585",101.320435,79.23216,102.08385
"7586",101.33377,79.25414,102.08183
"7587",101.34711,79.27123,102.075615
"7588",101.36044,79.27856,102.060165
"7589",101.37378,79.276115,102.03518
"7590",101.387115,79.26635,102.00279
"7591",101.40045,79.24925,101.96277
"7592",101.41379,79.219955,101.91001
"7593",101.427124,79.18822,101.8539
"7594",101.44046,79.15892,101.79923
"7595",101.4538,79.12962,101.74365
"7596",101.46713,79.10765,101.69448
"7597",101.48047,79.08324,101.64218
"7598",101.493805,79.061264,101.59156
"7599",101.50714,79.03685,101.53781
"7600",101.52048,79.009995,101.48086
"7601",101.53381,78.98802,101.42795
"7602",101.54715,78.96849,101.37679
"7603",101.560486,78.9514,101.32747
"7604",101.57382,78.94408,101.28738
"7605",101.58716,78.98558,101.29588
"7606",101.600494,79.14183,101.42043
"7607",101.61383,79.49096,101.742744
"7608",101.62717,80.06958,102.30546
"7609",101.6405,80.85329,103.09134
"7610",101.65384,81.739525,104.00424
"7611",101.667175,82.579384,104.89846
"7612",101.68051,83.24101,105.64069
"7613",101.69385,83.63653,106.13749
"7614",101.707184,83.74883,106.363434
"7615",101.72052,83.6292,106.360954
"7616",101.73386,83.34356,106.18872
"7617",101.74719,82.95537,105.905014
"7618",101.76053,82.528114,105.570114
"7619",101.773865,82.11063,105.23163
"7620",101.7872,81.72488,104.911835
"7621",101.80054,81.392845,104.633705
"7622",101.81387,81.129166,104.41355
"7623",101.82721,80.93385,104.253525
"7624",101.840546,80.799576,104.14843
"7625",101.85388,80.71168,104.08552
"7626",101.86722,80.65064,104.04672
"7627",101.880554,80.59693,104.01334
"7628",101.89389,80.54322,103.97829
"7629",101.90723,80.50172,103.95376
"7630",101.92056,80.49439,103.96211
"7631",101.9339,80.52369,104.00686
"7632",101.947235,80.59693,104.096466
"7633",101.96057,80.68726,104.20545
"7634",101.97391,80.77028,104.309944
"7635",101.98724,80.82399,104.387726
"7636",102.00058,80.8362,104.42568
"7637",102.013916,80.79469,104.41031
"7638",102.02725,80.706795,104.347244
"7639",102.04059,80.58228,104.24482
"7640",102.053925,80.42359,104.104324
"7641",102.06726,80.2478,103.94177
"7642",102.0806,80.062256,103.76397
"7643",102.09393,79.87915,103.58281
"7644",102.10727,79.7058,103.405685
"7645",102.120605,79.54467,103.23536
"7646",102.13394,79.40307,103.07953
"7647",102.14728,79.28344,102.941246
"7648",102.160614,79.183334,102.81875
"7649",102.17395,79.10765,102.717545
"7650",102.18729,79.05638,102.63839
"7651",102.20062,79.0222,102.57472
"7652",102.21396,79.00511,102.52708
"7653",102.227295,79.009995,102.50087
"7654",102.24063,79.027084,102.48702
"7655",102.25397,79.05394,102.483475
"7656",102.2673,79.08568,102.48565
"7657",102.28064,79.114975,102.486374
"7658",102.293976,79.13695,102.48069
"7659",102.30731,79.151596,102.46837
"7660",102.32065,79.16136,102.45162
"7661",102.333984,79.166245,102.4303
"7662",102.34732,79.166245,102.40424
"7663",102.36066,79.15648,102.36842
"7664",102.37399,79.14427,102.32986
"7665",102.38733,79.12474,102.283585
"7666",102.400665,79.10033,102.23182
"7667",102.414,79.07591,102.17929
"7668",102.42734,79.04906,102.12356
"7669",102.440674,79.01976,102.064545
"7670",102.45401,78.98802,102.002174
"7671",102.46735,78.958725,101.94125
"7672",102.48068,78.92943,101.87942
"7673",102.49402,78.89769,101.814224
"7674",102.507355,78.87816,101.76025
"7675",102.52069,78.907455,101.754486
"7676",102.53403,79.05394,101.86683
"7677",102.54736,79.398186,102.18151
"7678",102.5607,79.97925,102.74377
"7679",102.574036,80.765396,103.52927
"7680",102.58737,81.6614,104.44919
"7681",102.60071,82.528114,105.36782
"7682",102.614044,83.22392,106.14263
"7683",102.62738,83.66094,106.6804
"7684",102.64072,83.826965,106.96082
"7685",102.65405,83.76349,107.01694
"7686",102.66739,83.53155,106.9026
"7687",102.680725,83.192184,106.6736
"7688",102.69406,82.80156,106.38273
"7689",102.7074,82.39628,106.064995
"7690",102.72073,82.01297,105.75657
"7691",102.73407,81.67605,105.48255
"7692",102.747406,81.39529,105.254166
"7693",102.76074,81.17799,105.080475
"7694",102.77408,81.024185,104.96348
"7695",102.787415,80.91676,104.88806
"7696",102.80075,80.8362,104.83614
"7697",102.81409,80.76784,104.793915
"7698",102.82742,80.70435,104.754425
"7699",102.84076,80.655525,104.72761
"7700",102.854095,80.63355,104.72612
"7701",102.86743,80.65064,104.76301
"7702",102.88077,80.70435,104.83705
"7703",102.894104,80.782486,104.937195
"7704",102.90744,80.86549,105.044655
"7705",102.92078,80.92653,105.13274
"7706",102.93411,80.95094,105.186104
"7707",102.94745,80.93385,105.19873
"7708",102.960785,80.86549,105.15955
"7709",102.97412,80.7483,105.069405
"7710",102.98746,80.584724,104.929214
"7711",103.00079,80.39185,104.754616
"7712",103.01413,80.17944,104.55445
"7713",103.027466,79.96704,104.34766
"7714",103.0408,79.764404,104.14399
"7715",103.05414,79.57885,103.95107
"7716",103.067474,79.41039,103.769455
"7717",103.08081,79.26391,103.604546
"7718",103.09415,79.13451,103.45214
"7719",103.10748,79.029526,103.320114
"7720",103.12082,78.9514,103.21166
"7721",103.134155,78.89525,103.12274
"7722",103.14749,78.85863,103.0516
"7723",103.16083,78.84154,102.99884
"7724",103.174164,78.836655,102.957756
"7725",103.1875,78.84154,102.926285
"7726",103.200836,78.84886,102.89741
"7727",103.21417,78.86595,102.878525
"7728",103.22751,78.88304,102.860176
"7729",103.240845,78.90013,102.84236
"7730",103.25418,78.91478,102.82264
"7731",103.26752,78.924545,102.79849
"7732",103.28085,78.92699,102.76733
"7733",103.29419,78.91966,102.72647
"7734",103.307526,78.907455,102.680504
"7735",103.32086,78.88548,102.62439
"7736",103.3342,78.856186,102.560265
"7737",103.347534,78.82201,102.49034
"7738",103.36087,78.785385,102.41691
"7739",103.37421,78.746315,102.33988
"7740",103.38754,78.70481,102.2592
"7741",103.40088,78.66331,102.17722
"7742",103.414215,78.64866,102.120804
"7743",103.42755,78.71458,102.14449
"7744",103.44089,78.93675,102.3265
"7745",103.45422,79.39086,102.74738
"7746",103.46756,80.08911,103.4266
"7747",103.480896,80.96559,104.30586
"7748",103.49423,81.90799,105.278435
"7749",103.50757,82.76738,106.19745
"7750",103.520905,83.4168,106.93335
"7751",103.53424,83.80499,107.428314
"7752",103.54758,83.931946,107.67417
"7753",103.56091,83.84894,107.714035
"7754",103.57425,83.60479,107.590164
"7755",103.587585,83.25811,107.35613
"7756",103.60092,82.86015,107.05999
"7757",103.61426,82.459755,106.74897
"7758",103.627594,82.08133,106.44741
"7759",103.64093,81.75174,106.18286
"7760",103.65427,81.478294,105.96416
"7761",103.6676,81.26833,105.80039
"7762",103.68094,81.112076,105.68377
"7763",103.694275,80.987564,105.59401
"7764",103.70761,80.88014,105.51745
"7765",103.72095,80.782486,105.447296
"7766",103.73428,80.69459,105.38385
"7767",103.74762,80.63111,105.34208
"7768",103.760956,80.6067,105.33739
"7769",103.77429,80.62867,105.37832
"7770",103.78763,80.69459,105.46388
"7771",103.800964,80.7776,105.5686
"7772",103.8143,80.85329,105.66859
"7773",103.82764,80.902115,105.74408
"7774",103.84097,80.907,105.77715
"7775",103.85431,80.85329,105.751785
"7776",103.867645,80.74586,105.67102
"7777",103.88098,80.58961,105.53808
"7778",103.89432,80.396736,105.36363
"7779",103.90765,80.184326,105.16362
"7780",103.92099,79.96704,104.952095
"7781",103.934326,79.7522,104.73622
"7782",103.94766,79.54711,104.52339
"7783",103.961,79.34936,104.311485
"7784",103.974335,79.1638,104.1056
"7785",103.98767,78.995346,103.91101
"7786",104.00101,78.84642,103.73069
"7787",104.01434,78.7219,103.57012
"7788",104.02768,78.6218,103.430084
"7789",104.041016,78.54856,103.313774
"7790",104.05435,78.49729,103.21715
"7791",104.06769,78.470436,103.14333
"7792",104.081024,78.45335,103.078445
"7793",104.09436,78.450905,103.02767
"7794",104.1077,78.45335,102.981705
"7795",104.12103,78.45823,102.938255
"7796",104.13437,78.46067,102.89252
"7797",104.147705,78.46555,102.8493
"7798",104.16104,78.46555,102.801346
"7799",104.17438,78.45823,102.74607
"7800",104.18771,78.450905,102.69057
"7801",104.20105,78.4387,102.62995
"7802",104.214386,78.42161,102.56407
"7803",104.22772,78.40208,102.49522
"7804",104.24106,78.37766,102.42087
"7805",104.254395,78.348366,102.34087
"7806",104.26773,78.3093,102.2502
"7807",104.28107,78.2678,102.15586
"7808",104.2944,78.23605,102.069984
"7809",104.30774,78.277565,102.05637
"7810",104.321075,78.47288,102.19786
"7811",104.33441,78.90257,102.579834
"7812",104.34775,79.603264,103.24623
"7813",104.361084,80.5359,104.166466
"7814",104.37442,81.58572,105.23303
"7815",104.38776,82.59159,106.28846
"7816",104.40109,83.41436,107.192215
"7817",104.41443,83.96124,107.845795
"7818",104.427765,84.224915,108.23325
"7819",104.4411,84.23712,108.37749
"7820",104.45444,84.05646,108.32923
"7821",104.46777,83.74639,108.14593
"7822",104.48111,83.36553,107.88214
"7823",104.494446,82.95537,107.57715
"7824",104.50778,82.55497,107.269104
"7825",104.52112,82.18631,106.980286
"7826",104.534454,81.86893,106.731224
"7827",104.54779,81.61013,106.53083
"7828",104.56113,81.40749,106.37851
"7829",104.57446,81.253685,106.268684
"7830",104.5878,81.126724,106.1809
"7831",104.601135,81.01686,106.10625
"7832",104.61447,80.91188,106.03304
"7833",104.62781,80.81911,105.968765
"7834",104.64114,80.75075,105.926
"7835",104.65448,80.71412,105.912834
"7836",104.667816,80.71412,105.93515
"7837",104.68115,80.73609,105.97944
"7838",104.69449,80.75807,106.02442
"7839",104.707825,80.765396,106.055435
"7840",104.72116,80.743416,106.05737
"7841",104.7345,80.68482,106.02201
"7842",104.74783,80.58961,105.9482
"7843",104.76117,80.448006,105.82502
"7844",104.774506,80.26978,105.6608
"7845",104.78784,80.059814,105.45926
"7846",104.80118,79.823,105.22431
"7847",104.814514,79.57397,104.96975
"7848",104.82785,79.32983,104.712296
"7849",104.84119,79.09056,104.45209
"7850",104.85452,78.86595,104.19906
"7851",104.86786,78.658424,103.95609
"7852",104.881195,78.47776,103.733505
"7853",104.89453,78.31907,103.527245
"7854",104.90787,78.18967,103.345314
"7855",104.9212,78.08469,103.18376
"7856",104.93454,78.00656,103.045784
"7857",104.947876,77.95773,102.93466
"7858",104.96121,77.925995,102.8391
"7859",104.97455,77.90646,102.75476
"7860",104.987885,77.891815,102.67469
"7861",105.00122,77.88449,102.60149
"7862",105.01456,77.87961,102.530495
"7863",105.02789,77.88449,102.46912
"7864",105.04123,77.89426,102.41277
"7865",105.054565,77.908905,102.36162
"7866",105.0679,77.92111,102.30848
"7867",105.08124,77.93088,102.25328
"7868",105.094574,77.93088,102.18862
"7869",105.10791,77.925995,102.11908
"7870",105.12125,77.91135,102.03962
"7871",105.13458,77.88937,101.95238
"7872",105.14792,77.86008,101.857124
"7873",105.161255,77.83322,101.7634
"7874",105.17459,77.840546,101.70301
"7875",105.18793,77.9675,101.76248
"7876",105.20126,78.3093,102.04077
"7877",105.2146,78.93187,102.610504
"7878",105.227936,79.835205,103.48046
"7879",105.24127,80.94362,104.583725
"7880",105.25461,82.11063,105.78022
"7881",105.267944,83.16289,106.89844
"7882",105.28128,83.97345,107.80784
"7883",105.29462,84.48127,108.43983
"7884",105.30795,84.698555,108.79715
"7885",105.32129,84.661934,108.90736
"7886",105.334625,84.44221,108.83331
"7887",105.34796,84.09796,108.627884
"7888",105.3613,83.682915,108.3409
"7889",105.37463,83.24834,108.02141
"7890",105.38797,82.83086,107.70544
"7891",105.401306,82.45487,107.417915
"7892",105.41464,82.13748,107.17724
"7893",105.42798,81.88602,106.99257
"7894",105.441315,81.6907,106.856186
"7895",105.45465,81.53689,106.75521
"7896",105.46799,81.40505,106.6714
"7897",105.48132,81.28298,106.59324
"7898",105.49466,81.163345,106.513695
"7899",105.507996,81.05348,106.440186
"7900",105.52133,80.970474,106.3901
"7901",105.53467,80.92409,106.37404
"7902",105.548004,80.907,106.385826
"7903",105.56134,80.90944,106.41661
"7904",105.57468,80.907,106.44259
"7905",105.58801,80.88014,106.44408
"7906",105.60135,80.81911,106.410545
"7907",105.614685,80.719,106.33604
"7908",105.62802,80.570076,106.20958
"7909",105.64136,80.38209,106.039406
"7910",105.65469,80.15503,105.82429
"7911",105.66803,79.90112,105.575226
"7912",105.681366,79.63256,105.30357
"7913",105.6947,79.36645,105.02598
"7914",105.70804,79.10765,104.74738
"7915",105.721375,78.86595,104.4778
"7916",105.73471,78.63889,104.2153
"7917",105.74805,78.42893,103.96281
"7918",105.76138,78.23361,103.71839
"7919",105.77472,78.05783,103.48741
"7920",105.788055,77.908905,103.277794
"7921",105.80139,77.786835,103.09038
"7922",105.81473,77.69161,102.925995
"7923",105.828064,77.625694,102.78794
"7924",105.8414,77.58175,102.6698
"7925",105.85474,77.557335,102.56982
"7926",105.86807,77.54757,102.48372
"7927",105.88141,77.55001,102.40952
"7928",105.894745,77.55489,102.337845
"7929",105.90808,77.55978,102.26632
"7930",105.92142,77.56954,102.19983
"7931",105.93475,77.574425,102.12876
"7932",105.94809,77.574425,102.05296
"7933",105.961426,77.57198,101.974724
"7934",105.97476,77.56466,101.891525
"7935",105.9881,77.54757,101.79833
"7936",106.001434,77.51827,101.6924
"7937",106.01477,77.50118,101.597755
"7938",106.02811,77.54269,101.56117
"7939",106.04144,77.73556,101.67725
"7940",106.05478,78.170135,102.04107
"7941",106.068115,78.89281,102.70656
"7942",106.08145,79.871826,103.65098
"7943",106.09479,80.99733,104.77248
"7944",106.10812,82.108185,105.9145
"7945",106.12146,83.04082,106.91301
"7946",106.134796,83.69024,107.657455
"7947",106.14813,84.02716,108.109695
"7948",106.16147,84.08087,108.28925
"7949",106.174805,83.90997,108.24588
"7950",106.18814,83.58282,108.04091
"7951",106.20148,83.16533,107.73538
"7952",106.21481,82.7161,107.38507
"7953",106.22815,82.27177,107.02561
"7954",106.241486,81.86893,106.69376
"7955",106.25482,81.52712,106.41036
"7956",106.26816,81.253685,106.18465
"7957",106.281494,81.04616,106.0163
"7958",106.29483,80.88991,105.89274
"7959",106.30817,80.76051,105.79115
"7960",106.3215,80.63355,105.68796
"7961",106.33484,80.5066,105.5808
"7962",106.348175,80.38697,105.477005
"7963",106.36151,80.28687,105.389
"7964",106.37485,80.21362,105.324715
"7965",106.38818,80.16968,105.287445
"7966",106.40152,80.147705,105.270775
"7967",106.414856,80.12329,105.25098
"7968",106.42819,80.08179,105.213326
"7969",106.44153,80.01587,105.14996
"7970",106.454865,79.91821,105.0528
"7971",106.4682,79.783936,104.91597
"7972",106.48154,79.61791,104.743195
"7973",106.49487,79.42016,104.5335
"7974",106.50821,79.19798,104.293205
"7975",106.521545,78.96117,104.03133
"7976",106.53488,78.72678,103.76448
"7977",106.54822,78.49485,103.49276
"7978",106.561554,78.277565,103.22844
"7979",106.57489,78.07736,102.97441
"7980",106.58823,77.90158,102.73855
"7981",106.60156,77.74532,102.516716
"7982",106.6149,77.608604,102.30954
"7983",106.628235,77.49386,102.12006
"7984",106.64157,77.40597,101.95386
"7985",106.65491,77.34005,101.80688
"7986",106.66824,77.296104,101.67981
"7987",106.68158,77.26925,101.56846
"7988",106.694916,77.25948,101.47336
"7989",106.70825,77.25948,101.38772
"7990",106.72159,77.26925,101.311844
"7991",106.734924,77.28878,101.24604
"7992",106.74826,77.313194,101.18573
"7993",106.7616,77.33761,101.12618
"7994",106.77493,77.36202,101.0674
"7995",106.78827,77.38155,101.00449
"7996",106.801605,77.39132,100.932434
"7997",106.81494,77.39376,100.853355
"7998",106.82828,77.39132,100.76947
"7999",106.84161,77.383995,100.680626
"8000",106.85495,77.36935,100.58423
"8001",106.868286,77.37423,100.506905
"8002",106.88162,77.44259,100.49321
"8003",106.89496,77.66476,100.63546
"8004",106.908295,78.12131,101.019035
"8005",106.92163,78.839096,101.678116
"8006",106.93497,79.77905,102.581795
"8007",106.9483,80.82643,103.62227
"8008",106.96164,81.82254,104.6442
"8009",106.974976,82.62089,105.499504
"8010",106.98831,83.13115,106.09167
"8011",107.00165,83.34356,106.401924
"8012",107.014984,83.29473,106.45758
"8013",107.02832,83.04814,106.31395
"8014",107.04166,82.67704,106.0381
"8015",107.05499,82.24979,105.6945
"8016",107.06833,81.815216,105.33024
"8017",107.081665,81.41726,104.989006
"8018",107.095,81.08522,104.701256
"8019",107.10834,80.82643,104.47638
"8020",107.12167,80.64088,104.31665
"8021",107.13501,80.51148,104.20728
"8022",107.148346,80.42115,104.132935
"8023",107.16168,80.34058,104.06553
"8024",107.17502,80.26734,104.00293
"8025",107.188354,80.19165,103.93559
"8026",107.20169,80.13306,103.88299
"8027",107.21503,80.096436,103.850525
"8028",107.22836,80.09155,103.848656
"8029",107.2417,80.10864,103.86861
"8030",107.255035,80.13306,103.896416
"8031",107.26837,80.15503,103.92255
"8032",107.28171,80.147705,103.92007
"8033",107.295044,80.10376,103.88074
"8034",107.30838,80.02075,103.80097
"8035",107.32172,79.89868,103.67955
"8036",107.33505,79.74731,103.52501
"8037",107.34839,79.57397,103.34377
"8038",107.361725,79.38598,103.14247
"8039",107.37506,79.200424,102.93773
"8040",107.3884,79.0222,102.73452
"8041",107.40173,78.856186,102.53795
"8042",107.41507,78.69993,102.34595
"8043",107.428406,78.56077,102.16616
"8044",107.44174,78.433815,101.99423
"8045",107.45508,78.32151,101.832985
"8046",107.468414,78.22873,101.68775
"8047",107.48175,78.15793,101.5616
"8048",107.49509,78.10666,101.45277
"8049",107.50842,78.0798,101.366745
"8050",107.52176,78.0676,101.29453
"8051",107.535095,78.07248,101.23903
"8052",107.54843,78.08713,101.19344
"8053",107.56177,78.10666,101.1532
"8054",107.5751,78.13107,101.11845
"8055",107.58844,78.15793,101.0869
"8056",107.601776,78.184784,101.05619
"8057",107.61511,78.20676,101.02144
"8058",107.62845,78.22873,100.98737
"8059",107.641785,78.24826,100.95155
"8060",107.65512,78.25559,100.904144
"8061",107.66846,78.25315,100.84719
"8062",107.68179,78.24582,100.78527
"8063",107.69513,78.23361,100.71825
"8064",107.708466,78.238495,100.66793
"8065",107.7218,78.3093,100.68369
"8066",107.73514,78.53391,100.85547
"8067",107.748474,78.99046,101.266205
"8068",107.76181,79.69604,101.94023
"8069",107.77515,80.601814,102.83651
"8070",107.78848,81.58816,103.84166
"8071",107.80182,82.49882,104.80195
"8072",107.815155,83.1873,105.56852
"8073",107.82849,83.580376,106.061195
"8074",107.84183,83.67803,106.27074
"8075",107.85516,83.53643,106.24407
"8076",107.8685,83.226364,106.04452
"8077",107.881836,82.81621,105.73518
"8078",107.89517,82.36942,105.3764
"8079",107.90851,81.9324,105.01343
"8080",107.921844,81.53689,104.6783
"8081",107.93518,81.214615,104.40405
"8082",107.94852,80.96803,104.19543
"8083",107.96185,80.799576,104.05722
"8084",107.97519,80.69215,103.97478
"8085",107.988525,80.62379,103.92805
"8086",108.00186,80.567635,103.89139
"8087",108.0152,80.51148,103.852974
"8088",108.028534,80.462654,103.82013
"8089",108.04187,80.428474,103.80041
"8090",108.05521,80.42359,103.808914
"8091",108.06854,80.448006,103.846565
"8092",108.08188,80.48951,103.90207
"8093",108.095215,80.53101,103.95887
"8094",108.10855,80.550545,103.994995
"8095",108.12189,80.5359,103.99755
"8096",108.13522,80.482185,103.96059
"8097",108.14856,80.38941,103.88288
"8098",108.161896,80.257576,103.763214
"8099",108.17523,80.10132,103.615005
"8100",108.18857,79.923096,103.43995
"8101",108.201904,79.73998,103.25443
"8102",108.21524,79.5642,103.070526
"8103",108.22858,79.395744,102.88845
"8104",108.24191,79.23949,102.71331
"8105",108.25525,79.097885,102.54794
"8106",108.268585,78.97093,102.3928
"8107",108.28192,78.85863,102.24834
"8108",108.29526,78.76097,102.11501
"8109",108.30859,78.677956,101.99328
"8110",108.32193,78.61448,101.88849
"8111",108.335266,78.57053,101.80125
"8112",108.3486,78.54612,101.73216
"8113",108.36194,78.538795,101.679405
"8114",108.375275,78.54856,101.64351
"8115",108.38861,78.56565,101.61524
"8116",108.40195,78.58274,101.58751
"8117",108.41528,78.59739,101.55787
"8118",108.42862,78.61448,101.53113
"8119",108.441956,78.63157,101.50492
"8120",108.45529,78.6511,101.48169
"8121",108.46863,78.67063,101.45907
"8122",108.481964,78.68284,101.42973
"8123",108.4953,78.68528,101.391014
"8124",108.50864,78.67063,101.33528
"8125",108.52197,78.64622,101.269325
"8126",108.53531,78.63889,101.219696
"8127",108.548645,78.70237,101.24064
"8128",108.56198,78.924545,101.422264
"8129",108.57532,79.37377,101.83788
"8130",108.58865,80.062256,102.5068
"8131",108.60199,80.93141,103.3779
"8132",108.615326,81.85916,104.334755
"8133",108.62866,82.68925,105.22294
"8134",108.642,83.29717,105.9149
"8135",108.655334,83.612114,106.33288
"8136",108.66867,83.65118,106.48482
"8137",108.68201,83.46807,106.41581
"8138",108.69534,83.13847,106.19459
"8139",108.70868,82.72343,105.87762
"8140",108.722015,82.28153,105.52083
"8141",108.73535,81.85916,105.169754
"8142",108.74869,81.48318,104.85187
"8143",108.762024,81.16823,104.58327
"8144",108.77536,80.92653,104.378075
"8145",108.7887,80.75075,104.23125
"8146",108.80203,80.62623,104.13019
"8147",108.81537,80.53101,104.05454
"8148",108.828705,80.45777,103.997894
"8149",108.84204,80.39918,103.953606
"8150",108.85538,80.36256,103.92946
"8151",108.86871,80.35279,103.93102
"8152",108.88205,80.37965,103.9689
"8153",108.895386,80.43336,104.03448
"8154",108.90872,80.499275,104.11394
"8155",108.92206,80.56031,104.190575
"8156",108.935394,80.59693,104.244705
"8157",108.94873,80.59449,104.26092
"8158",108.96207,80.54566,104.23067
"8159",108.9754,80.45289,104.154945
"8160",108.98874,80.323494,104.0397
"8161",109.002075,80.15991,103.88623
"8162",109.01541,79.974365,103.70568
"8163",109.02875,79.78882,103.51933
"8164",109.04208,79.603264,103.32718
"8165",109.05542,79.42748,103.139
"8166",109.068756,79.26147,102.95509
"8167",109.08209,79.114975,102.78552
"8168",109.09543,78.995346,102.63824
"8169",109.108765,78.89769,102.509186
"8170",109.1221,78.82445,102.4015
"8171",109.13544,78.77562,102.31593
"8172",109.14877,78.73899,102.24104
"8173",109.16211,78.71702,102.179665
"8174",109.175446,78.70237,102.12492
"8175",109.18878,78.69993,102.08193
"8176",109.20212,78.70481,102.04619
"8177",109.215454,78.71946,102.02036
"8178",109.22879,78.73655,101.99744
"8179",109.24213,78.75853,101.979935
"8180",109.25546,78.7805,101.96311
"8181",109.2688,78.802475,101.946976
"8182",109.282135,78.82445,101.931526
"8183",109.29547,78.84154,101.91188
"8184",109.30881,78.84398,101.87812
"8185",109.32214,78.83421,101.83223
"8186",109.33548,78.81712,101.77871
"8187",109.348816,78.83177,101.75639
"8188",109.36215,78.94652,101.83463
"8189",109.37549,79.23949,102.09468
"8190",109.388824,79.75464,102.58607
"8191",109.40216,80.47242,103.29618
"8192",109.4155,81.30251,104.14104
"8193",109.42883,82.11063,104.98985
"8194",109.44217,82.76982,105.715004
"8195",109.455505,83.192184,106.22392
"8196",109.46884,83.34844,106.479935
"8197",109.48218,83.27032,106.50645
"8198",109.495514,83.021286,106.35961
"8199",109.50885,82.65995,106.09269
"8200",109.52219,82.24002,105.75588
"8201",109.53552,81.80789,105.39375
"8202",109.54886,81.40261,105.04497
"8203",109.562195,81.0486,104.73479
"8204",109.57553,80.75807,104.47703
"8205",109.58887,80.53101,104.27366
"8206",109.6022,80.35523,104.11447
"8207",109.61554,80.22095,103.99129
"8208",109.628876,80.11841,103.89565
"8209",109.64221,80.05005,103.83099
"8210",109.65555,80.03296,103.81547
"8211",109.668884,80.079346,103.862885
"8212",109.68222,80.184326,103.970345
"8213",109.69556,80.343025,104.1348
"8214",109.70889,80.51881,104.321304
"8215",109.72223,80.68482,104.50353
"8216",109.735565,80.80446,104.64457
"8217",109.7489,80.867935,104.733185
"8218",109.76224,80.85817,104.75054
"8219",109.77557,80.78737,104.70656
"8220",109.78891,80.66041,104.6042
"8221",109.802246,80.49439,104.458824
"8222",109.81558,80.30152,104.2814
"8223",109.82892,80.096436,104.08574
"8224",109.842255,79.886475,103.87879
"8225",109.85559,79.68627,103.67504
"8226",109.86893,79.49584,103.47481
"8227",109.88226,79.32006,103.28327
"8228",109.8956,79.168686,103.11065
"8229",109.908936,79.04173,102.95772
"8230",109.92227,78.93919,102.82523
"8231",109.93561,78.86595,102.71884
"8232",109.948944,78.81468,102.63213
"8233",109.96228,78.78294,102.563354
"8234",109.97562,78.77074,102.513115
"8235",109.98895,78.77318,102.47714
"8236",110.00229,78.7805,102.44613
"8237",110.015625,78.79271,102.42023
"8238",110.02896,78.8098,102.39959
"8239",110.0423,78.856186,102.40878
"8240",110.05563,78.975815,102.49267
"8241",110.06897,79.23949,102.724335
"8242",110.082306,79.693596,103.15468
"8243",110.09564,80.33082,103.782326
"8244",110.10898,81.0901,104.55195
"8245",110.122314,81.85916,105.35507
"8246",110.13565,82.51835,106.07236
"8247",110.14899,82.97246,106.60516
"8248",110.16232,83.17998,106.90557
"8249",110.17566,83.158005,106.98297
"8250",110.188995,82.95537,106.87902
"8251",110.20233,82.62333,106.639336
"8252",110.21567,82.22049,106.318474
"8253",110.229004,81.795685,105.96306
"8254",110.24234,81.38064,105.604126
"8255",110.25568,81.00221,105.268845
"8256",110.26901,80.672615,104.970566
"8257",110.28235,80.39185,104.71082
"8258",110.295685,80.15503,104.486244
"8259",110.30902,79.95239,104.28845
"8260",110.32236,79.781494,104.116066
"8261",110.33569,79.6643,103.99204
"8262",110.34903,79.61547,103.932724
"8263",110.362366,79.65453,103.95977
"8264",110.3757,79.783936,104.07838
"8265",110.38904,79.98169,104.26938
"8266",110.402374,80.21362,104.50074
"8267",110.41571,80.43336,104.72715
"8268",110.42905,80.601814,104.90915
"8269",110.44238,80.69947,105.02561
"8270",110.45572,80.71168,105.05968
"8271",110.469055,80.64576,105.016
"8272",110.48239,80.51392,104.90434
"8273",110.49573,80.33814,104.74462
"8274",110.50906,80.13306,104.5501
"8275",110.5224,79.91821,104.33942
"8276",110.535736,79.69848,104.11713
"8277",110.54907,79.483635,103.89286
"8278",110.56241,79.27856,103.671646
"8279",110.575745,79.093,103.46355
"8280",110.58908,78.92699,103.26919
"8281",110.60242,78.78783,103.0965
"8282",110.61575,78.675514,102.946304
"8283",110.62909,78.58762,102.817024
"8284",110.642426,78.521706,102.70697
"8285",110.65576,78.47532,102.61439
"8286",110.6691,78.450905,102.54233
"8287",110.682434,78.450905,102.49392
"8288",110.69577,78.502174,102.49678
"8289",110.70911,78.66819,102.61599
"8290",110.72244,79.01488,102.92106
"8291",110.73578,79.586174,103.46157
"8292",110.749115,80.365,104.22746
"8293",110.76245,81.26589,105.13976
"8294",110.77579,82.16434,106.07777
"8295",110.78912,82.91875,106.89981
"8296",110.80246,83.43145,107.50372
"8297",110.815796,83.66338,107.84289
"8298",110.82913,83.64385,107.937836
"8299",110.84247,83.42901,107.83686
"8300",110.855804,83.07988,107.59489
"8301",110.86914,82.65507,107.26632
"8302",110.88248,82.20584,106.90006
"8303",110.89581,81.77371,106.536865
"8304",110.90915,81.3782,106.19678
"8305",110.922485,81.041275,105.90292
"8306",110.93582,80.76784,105.662025
"8307",110.94916,80.54566,105.463844
"8308",110.962494,80.35523,105.29047
"8309",110.97583,80.19409,105.14043
"8310",110.98917,80.06714,105.01954
"8311",111.0025,79.9939,104.948395
"8312",111.01584,79.98901,104.94332
"8313",111.029175,80.062256,105.01622
"8314",111.04251,80.2063,105.16221
"8315",111.05585,80.38209,105.344444
"8316",111.06918,80.550545,105.52484
"8317",111.08252,80.67994,105.67144
"8318",111.095856,80.7483,105.76105
"8319",111.10919,80.74586,105.78199
"8320",111.12253,80.66041,105.71985
"8321",111.135864,80.51148,105.59156
"8322",111.1492,80.31129,105.40735
"8323",111.16254,80.08179,105.18758
"8324",111.17587,79.835205,104.94355
"8325",111.18921,79.588615,104.69181
"8326",111.202545,79.3518,104.44214
"8327",111.21588,79.12962,104.19971
"8328",111.22922,78.92699,103.96987
"8329",111.24255,78.751205,103.76056
"8330",111.25589,78.60227,103.5726
"8331",111.269226,78.4802,103.40685
"8332",111.28256,78.37766,103.25682
"8333",111.2959,78.2971,103.12556
"8334",111.309235,78.23605,103.0113
"8335",111.32257,78.20676,102.92688
"8336",111.33591,78.260475,102.92456
"8337",111.34924,78.47288,103.0826
"8338",111.36258,78.91478,103.47678
"8339",111.375916,79.60815,104.13624
"8340",111.38925,80.51392,105.02977
"8341",111.40259,81.52712,106.05903
"8342",111.415924,82.5037,107.08333
"8343",111.42926,83.29717,107.95504
"8344",111.4426,83.824524,108.58543
"8345",111.45593,84.06622,108.94664
"8346",111.46927,84.04913,109.05662
"8347",111.482605,83.824524,108.95854
"8348",111.49594,83.46319,108.71672
"8349",111.50928,83.02373,108.38548
"8350",111.52261,82.56962,108.02586
"8351",111.53595,82.13992,107.67647
"8352",111.549286,81.76639,107.369804
"8353",111.56262,81.463646,107.12226
"8354",111.57596,81.22194,106.92629
"8355",111.589294,81.02174,106.76428
"8356",111.60263,80.84352,106.61799
"8357",111.61597,80.67994,106.48077
"8358",111.6293,80.5359,106.35797
"8359",111.64264,80.43336,106.27218
"8360",111.655975,80.38941,106.241776
"8361",111.66931,80.411385,106.27592
"8362",111.68265,80.48463,106.362015
"8363",111.695984,80.57984,106.472374
"8364",111.70932,80.66529,106.57594
"8365",111.72266,80.706795,106.63824
"8366",111.73599,80.69215,106.645676
"8367",111.74933,80.61402,106.58918
"8368",111.762665,80.47486,106.46921
"8369",111.776,80.28199,106.291176
"8370",111.78934,80.05005,106.06805
"8371",111.80267,79.79126,105.81082
"8372",111.81601,79.52514,105.53818
"8373",111.829346,79.26147,105.25967
"8374",111.84268,79.00755,104.98267
"8375",111.85602,78.77562,104.71973
"8376",111.869354,78.56809,104.47394
"8377",111.88269,78.38743,104.24853
"8378",111.89603,78.23605,104.04676
"8379",111.90936,78.1091,103.864685
"8380",111.9227,78.00412,103.700615
"8381",111.936035,77.92355,103.55768
"8382",111.94937,77.857635,103.42687
"8383",111.96271,77.821014,103.3233
"8384",111.97604,77.85275,103.28695
"8385",111.98938,78.028534,103.39563
"8386",112.002716,78.42161,103.7271
"8387",112.01605,79.08324,104.3394
"8388",112.02939,79.99634,105.223854
"8389",112.042725,81.07301,106.300415
"8390",112.05606,82.16922,107.43015
"8391",112.0694,83.123825,108.452545
"8392",112.08273,83.82208,109.24842
"8393",112.09607,84.207825,109.7536
"8394",112.109406,84.29328,109.97055
"8395",112.12274,84.13214,109.94357
"8396",112.13608,83.80255,109.74311
"8397",112.149414,83.37774,109.437126
"8398",112.16275,82.92119,109.08613
"8399",112.17609,82.493935,108.75016
"8400",112.18942,82.127716,108.461876
"8401",112.20276,81.83475,108.2354
"8402",112.216095,81.60769,108.065674
"8403",112.22943,81.42458,107.93281
"8404",112.24277,81.25613,107.80887
"8405",112.2561,81.08034,107.67233
"8406",112.26944,80.89967,107.52543
"8407",112.282776,80.723885,107.377754
"8408",112.29611,80.5774,107.25389
"8409",112.30945,80.47242,107.166954
"8410",112.322784,80.413826,107.12312
"8411",112.33612,80.39185,107.11408
"8412",112.34946,80.37965,107.11412
"8413",112.36279,80.360115,107.10645
"8414",112.37613,80.31617,107.07376
"8415",112.389465,80.22583,106.9933
"8416",112.4028,80.08179,106.856316
"8417",112.41614,79.88403,106.66112
"8418",112.429474,79.639885,106.413345
"8419",112.44281,79.36645,106.128654
"8420",112.45615,79.078354,105.82076
"8421",112.46948,78.79271,105.50632
"8422",112.48282,78.519264,105.195145
"8423",112.496155,78.26536,104.894966
"8424",112.50949,78.030975,104.60638
"8425",112.52283,77.821014,104.334885
"8426",112.53616,77.64034,104.08612
"8427",112.5495,77.49142,103.86346
"8428",112.562836,77.37911,103.67276
"8429",112.57617,77.29366,103.50541
"8430",112.58951,77.23506,103.362236
"8431",112.602844,77.196,103.23677
"8432",112.61618,77.17647,103.129616
"8433",112.62952,77.1667,103.03162
"8434",112.64285,77.16182,102.938194
"8435",112.65619,77.15938,102.84706
"8436",112.669525,77.152054,102.75097
"8437",112.68286,77.15694,102.666855
"8438",112.6962,77.21797,102.639046
"8439",112.70953,77.4255,102.759636
"8440",112.72287,77.86984,103.12353
"8441",112.736206,78.60227,103.78939
"8442",112.74954,79.605705,104.749146
"8443",112.76288,80.7776,105.90872
"8444",112.776215,81.96414,107.11956
"8445",112.78955,82.99443,108.21123
"8446",112.80289,83.74395,109.05432
"8447",112.81622,84.16144,109.588806
"8448",112.82956,84.266426,109.82384
"8449",112.842896,84.11749,109.80823
"8450",112.85623,83.792786,109.61219
"8451",112.86957,83.38018,109.31811
"8452",112.882904,82.95293,108.99648
"8453",112.89624,82.55985,108.69569
"8454",112.90958,82.230255,108.44608
"8455",112.92291,81.98367,108.269196
"8456",112.93625,81.80057,108.14808
"8457",112.949585,81.64431,108.04809
"8458",112.96292,81.48562,107.94078
"8459",112.97626,81.304955,107.80654
"8460",112.98959,81.092545,107.63491
"8461",113.00293,80.86305,107.43956
"8462",113.016266,80.65064,107.25412
"8463",113.0296,80.479744,107.10355
"8464",113.04294,80.360115,106.99892
"8465",113.056274,80.28687,106.93693
"8466",113.06961,80.233154,106.89217
"8467",113.08295,80.17456,106.840866
"8468",113.09628,80.08911,106.76087
"8469",113.10962,79.95972,106.63426
"8470",113.122955,79.77661,106.4499
"8471",113.13629,79.54711,106.21342
"8472",113.14963,79.28588,105.938034
"8473",113.162964,79.00755,105.63739
"8474",113.1763,78.72434,105.323166
"8475",113.18964,78.44358,105.00254
"8476",113.20297,78.17258,104.6829
"8477",113.21631,77.91623,104.369446
"8478",113.229645,77.68185,104.06995
"8479",113.24298,77.47921,103.79487
"8480",113.25632,77.30587,103.542755
"8481",113.26965,77.16426,103.316956
"8482",113.28299,77.0544,103.11848
"8483",113.296326,76.97139,102.94342
"8484",113.30966,76.91524,102.792625
"8485",113.323,76.88106,102.66205
"8486",113.336334,76.86397,102.54749
"8487",113.34967,76.86153,102.44705
"8488",113.36301,76.86641,102.35386
"8489",113.37634,76.86885,102.25838
"8490",113.38968,76.87373,102.16541
"8491",113.403015,76.88106,102.07504
"8492",113.41635,76.88594,101.98246
"8493",113.42969,76.88594,101.88515
"8494",113.44302,76.88838,101.790276
"8495",113.45636,76.88594,101.6906
"8496",113.469696,76.876175,101.58352
"8497",113.48303,76.86641,101.476135
"8498",113.49637,76.85664,101.36845
"8499",113.509705,76.84688,101.26045
"8500",113.52304,76.83711,101.15215
"8501",113.53638,76.82735,101.04355
"8502",113.54971,76.81758,100.93464
"8503",113.56305,76.81026,100.827866
"8504",113.576385,76.807816,100.725746
"8505",113.58972,76.807816,100.62599
"8506",113.60306,76.81026,100.52868
"8507",113.616394,76.82002,100.43877
"8508",113.62973,76.86641,100.38578
"8509",113.64307,77.02266,100.44411
"8510",113.6564,77.401085,100.72949
"8511",113.66974,78.09445,101.341644
"8512",113.683075,79.13451,102.32215
"8513",113.69641,80.45777,103.61837
"8514",113.70975,81.917755,105.09266
"8515",113.72308,83.3167,106.55154
"8516",113.73642,84.473946,107.81242
"8517",113.749756,85.27474,108.75303
"8518",113.76309,85.68978,109.3329
"8519",113.77643,85.75815,109.57907
"8520",113.789764,85.55306,109.553925
"8521",113.8031,85.15755,109.33194
"8522",113.81644,84.66682,109.00238
"8523",113.82977,84.15411,108.63551
"8524",113.84311,83.68047,108.29169
"8525",113.856445,83.28008,108.00631
"8526",113.86978,82.97002,107.798744
"8527",113.88312,82.738075,107.659615
"8528",113.896454,82.55985,107.566956
"8529",113.90979,82.39628,107.483376
"8530",113.92313,82.22537,107.38735
"8531",113.93646,82.04227,107.27379
"8532",113.9498,81.85672,107.15206
"8533",113.963135,81.688255,107.04162
"8534",113.97647,81.55886,106.96498
"8535",113.98981,81.47341,106.928246
"8536",114.00314,81.4197,106.92058
"8537",114.01648,81.37087,106.916115
"8538",114.029816,81.304955,106.893036
"8539",114.04315,81.197525,106.826385
"8540",114.05649,81.04372,106.71
"8541",114.069824,80.8362,106.535095
"8542",114.08316,80.587166,106.312195
"8543",114.0965,80.2942,106.037575
"8544",114.10983,79.971924,105.724495
"8545",114.12317,79.63256,105.384254
"8546",114.136505,79.28832,105.028534
"8547",114.14984,78.95384,104.671814
"8548",114.16318,78.643776,104.329056
"8549",114.17651,78.36057,104.00347
"8550",114.18985,78.11398,103.70565
"8551",114.203186,77.90158,103.43431
"8552",114.21652,77.72579,103.19295
"8553",114.22986,77.58175,102.97784
"8554",114.243195,77.469444,102.78996
"8555",114.25653,77.38888,102.63032
"8556",114.26987,77.332726,102.49257
"8557",114.2832,77.30099,102.37748
"8558",114.29654,77.28878,102.28093
"8559",114.309875,77.29122,102.19865
"8560",114.32321,77.30343,102.126205
"8561",114.33655,77.31808,102.05659
"8562",114.349884,77.330284,101.984985
"8563",114.36322,77.33761,101.90888
"8564",114.37656,77.332726,101.8208
"8565",114.38989,77.31808,101.7228
"8566",114.40323,77.296104,101.61702
"8567",114.416565,77.264366,101.500786
"8568",114.4299,77.23506,101.385994
"8569",114.44324,77.21065,101.27518
"8570",114.45657,77.18623,101.1636
"8571",114.46991,77.16182,101.051254
"8572",114.483246,77.13985,100.94059
"8573",114.49658,77.11543,100.8268
"8574",114.50992,77.09346,100.71468
"8575",114.523254,77.066605,100.597
"8576",114.53659,77.04463,100.48336
"8577",114.54993,77.0251,100.371475
"8578",114.56326,77.032425,100.285835
"8579",114.5766,77.13008,100.29076
"8580",114.589935,77.4255,100.49649
"8581",114.60327,78.013885,101.004425
"8582",114.61661,78.94896,101.87743
"8583",114.629944,80.184326,103.079956
"8584",114.64328,81.60525,104.50664
"8585",114.65662,83.021286,105.97284
"8586",114.66995,84.24933,107.295296
"8587",114.68329,85.152664,108.33142
"8588",114.696625,85.68734,109.027115
"8589",114.70996,85.86801,109.38551
"8590",114.7233,85.748375,109.44925
"8591",114.73663,85.418785,109.29929
"8592",114.74997,84.95735,109.007195
"8593",114.763306,84.44221,108.646965
"8594",114.77664,83.93927,108.282845
"8595",114.78998,83.49493,107.9616
"8596",114.803314,83.12871,107.7046
"8597",114.81665,82.845505,107.519165
"8598",114.82999,82.62089,107.38347
"8599",114.84332,82.423134,107.26762
"8600",114.85666,82.22781,107.14802
"8601",114.869995,82.020294,107.01012
"8602",114.88333,81.80301,106.855965
"8603",114.89667,81.602806,106.712105
"8604",114.91,81.44167,106.60106
"8605",114.92334,81.33425,106.53869
"8606",114.936676,81.27322,106.51935
"8607",114.95001,81.23659,106.52251
"8608",114.96335,81.19508,106.519646
"8609",114.976685,81.12184,106.48375
"8610",114.99002,80.99977,106.396736
"8611",115.00336,80.81911,106.247314
"8612",115.01669,80.58228,106.03609
"8613",115.03003,80.30152,105.77352
"8614",115.043365,79.98657,105.467995
"8615",115.0567,79.65209,105.133095
"8616",115.07004,79.30785,104.777985
"8617",115.083374,78.96849,104.41699
"8618",115.09671,78.643776,104.06004
"8619",115.11005,78.34348,103.71737
"8620",115.12338,78.07248,103.3946
"8621",115.13672,77.838104,103.09999
"8622",115.150055,77.64034,102.83467
"8623",115.16339,77.48165,102.60224
"8624",115.17673,77.35958,102.401474
"8625",115.19006,77.27413,102.23351
"8626",115.2034,77.222855,102.09705
"8627",115.216736,77.20088,101.9883
"8628",115.23007,77.20088,101.900826
"8629",115.24341,77.21553,101.828
"8630",115.256744,77.2375,101.76296
"8631",115.27008,77.25948,101.698616
"8632",115.28342,77.27657,101.630066
"8633",115.29675,77.28634,101.554726
"8634",115.31009,77.28878,101.47237
"8635",115.323425,77.281456,101.38032
"8636",115.33676,77.26925,101.28316
"8637",115.3501,77.24971,101.17828
"8638",115.363434,77.23018,101.07281
"8639",115.37677,77.208206,100.96428
"8640",115.39011,77.18623,100.855064
"8641",115.40344,77.16426,100.74516
"8642",115.41678,77.14229,100.634575
"8643",115.430115,77.11543,100.51842
"8644",115.44345,77.08858,100.40142
"8645",115.45679,77.06172,100.283585
"8646",115.47012,77.02998,100.16003
"8647",115.48346,77.02022,100.05745
"8648",115.496796,77.086136,100.03025
"8649",115.51013,77.32784,100.1809
"8650",115.52347,77.840546,100.6101
"8651",115.536804,78.695045,101.39712
"8652",115.55014,79.87915,102.54044
"8653",115.56348,81.287865,103.94538
"8654",115.57681,82.74296,105.44072
"8655",115.59015,84.0589,106.84238
"8656",115.603485,85.08186,107.99218
"8657",115.61682,85.73861,108.80773
"8658",115.63016,86.029144,109.277596
"8659",115.64349,85.997406,109.434265
"8660",115.65683,85.72396,109.348236
"8661",115.670166,85.28451,109.087654
"8662",115.6835,84.76448,108.732765
"8663",115.69684,84.2298,108.34697
"8664",115.710175,83.7293,107.97865
"8665",115.72351,83.29473,107.66062
"8666",115.73685,82.93584,107.404686
"8667",115.75018,82.64042,107.20101
"8668",115.76352,82.38407,107.027176
"8669",115.776855,82.14969,106.867294
"8670",115.79019,81.91531,106.700096
"8671",115.80353,81.6907,106.53533
"8672",115.816864,81.48806,106.38553
"8673",115.8302,81.32937,106.27334
"8674",115.84354,81.22682,106.21233
"8675",115.85687,81.17555,106.1994
"8676",115.87021,81.15846,106.21905
"8677",115.883545,81.146255,106.24304
"8678",115.89688,81.112076,106.24468
"8679",115.91022,81.03395,106.20131
"8680",115.92355,80.89723,106.0969
"8681",115.93689,80.69947,105.92718
"8682",115.950226,80.44312,105.69269
"8683",115.96356,80.13306,105.39647
"8684",115.9769,79.7937,105.06127
"8685",115.990234,79.43481,104.69593
"8686",116.00357,79.078354,104.321815
"8687",116.01691,78.73411,103.94877
"8688",116.03024,78.41428,103.589386
"8689",116.04358,78.12375,103.2493
"8690",116.056915,77.86496,102.93188
"8691",116.07025,77.64034,102.64054
"8692",116.08359,77.454796,102.381256
"8693",116.096924,77.31075,102.15768
"8694",116.11026,77.20332,101.96621
"8695",116.1236,77.13252,101.808014
"8696",116.13693,77.09834,101.68423
"8697",116.15027,77.09102,101.58623
"8698",116.163605,77.103226,101.50753
"8699",116.17694,77.12764,101.44142
"8700",116.19028,77.15694,101.38096
"8701",116.20361,77.18379,101.31897
"8702",116.21695,77.21065,101.25782
"8703",116.230286,77.23262,101.19263
"8704",116.24362,77.24971,101.12324
"8705",116.25696,77.264366,101.05195
"8706",116.270294,77.26925,100.971344
"8707",116.28363,77.264366,100.88113
"8708",116.29697,77.25216,100.78343
"8709",116.3103,77.23262,100.678024
"8710",116.32364,77.208206,100.56713
"8711",116.336975,77.18135,100.45303
"8712",116.35031,77.154495,100.3381
"8713",116.36365,77.1252,100.21988
"8714",116.37698,77.09346,100.098305
"8715",116.39032,77.06416,99.97818
"8716",116.403656,77.069046,99.89132
"8717",116.41699,77.17647,99.90715
"8718",116.43033,77.49142,100.133865
"8719",116.443665,78.116425,100.68048
"8720",116.457,79.09544,101.60064
"8721",116.47034,80.38941,102.86634
"8722",116.48367,81.864044,104.35314
"8723",116.49701,83.33379,105.88114
"8724",116.510345,84.60822,107.25975
"8725",116.52368,85.56039,108.35592
"8726",116.53702,86.134125,109.10342
"8727",116.550354,86.34165,109.50263
"8728",116.56369,86.236664,109.59582
"8729",116.57703,85.89731,109.451355
"8730",116.59036,85.40658,109.14491
"8731",116.6037,84.84505,108.752335
"8732",116.617035,84.27619,108.334885
"8733",116.63037,83.74639,107.93871
"8734",116.64371,83.282524,107.59192
"8735",116.65704,82.896774,107.30875
"8736",116.67038,82.579384,107.08188
"8737",116.683716,82.303505,106.886604
"8738",116.69705,82.04959,106.70467
"8739",116.71039,81.80789,106.52702
"8740",116.723724,81.58572,106.36134
"8741",116.73706,81.39529,106.22047
"8742",116.7504,81.25857,106.12735
"8743",116.76373,81.18532,106.09343
"8744",116.77707,81.16823,106.11338
"8745",116.790405,81.17799,106.15965
"8746",116.80374,81.18776,106.20623
"8747",116.81708,81.163345,106.21893
"8748",116.830414,81.08766,106.1796
"8749",116.84375,80.953384,106.079315
"8750",116.857086,80.743416,105.89914
"8751",116.87042,80.47242,105.651375
"8752",116.88376,80.15015,105.343864
"8753",116.897095,79.79614,104.99455
"8754",116.91043,79.42016,104.6122
"8755",116.92377,79.04906,104.22298
"8756",116.9371,78.68528,103.82948
"8757",116.95044,78.34348,103.4466
"8758",116.963776,78.030975,103.08233
"8759",116.97711,77.75998,102.7498
"8760",116.99045,77.53048,102.4503
"8761",117.003784,77.34493,102.187584
"8762",117.01712,77.20088,101.96056
"8763",117.03046,77.09346,101.76567
"8764",117.04379,77.02998,101.61137
"8765",117.05713,77.00069,101.48926
"8766",117.070465,76.995804,101.39065
"8767",117.0838,77.01289,101.31386
"8768",117.09714,77.049515,101.25713
"8769",117.11047,77.08858,101.203995
"8770",117.12381,77.13252,101.15696
"8771",117.137146,77.171585,101.106415
"8772",117.15048,77.208206,101.05465
"8773",117.16382,77.23018,100.98938
"8774",117.177155,77.242386,100.91503
"8775",117.19049,77.242386,100.82886
"8776",117.20383,77.2375,100.7378
"8777",117.21716,77.23018,100.64415
"8778",117.2305,77.21553,100.542946
"8779",117.243835,77.20332,100.443726
"8780",117.25717,77.18379,100.3368
"8781",117.27051,77.152054,100.21706
"8782",117.283844,77.11055,100.086555
"8783",117.29718,77.07637,99.96208
"8784",117.31052,77.100784,99.895134
"8785",117.32385,77.27657,99.98032
"8786",117.33719,77.72579,100.34444
"8787",117.350525,78.52903,101.07661
"8788",117.36386,79.69604,102.19765
"8789",117.3772,81.13649,103.6286
"8790",117.39053,82.68192,105.20955
"8791",117.40387,84.12482,106.73625
"8792",117.417206,85.29916,108.03949
"8793",117.43054,86.10239,109.008316
"8794",117.44388,86.51743,109.61406
"8795",117.457214,86.58335,109.883644
"8796",117.47055,86.37095,109.87697
"8797",117.48389,85.9559,109.66101
"8798",117.49722,85.41634,109.30757
"8799",117.51056,84.82063,108.88112
"8800",117.523895,84.22247,108.4336
"8801",117.53723,83.67071,108.01379
"8802",117.55057,83.192184,107.64997
"8803",117.5639,82.791794,107.349335
"8804",117.57724,82.4622,107.10698
"8805",117.590576,82.1741,106.89583
"8806",117.60391,81.90311,106.69277
"8807",117.61725,81.64675,106.49589
"8808",117.630585,81.4197,106.3203
"8809",117.64392,81.24391,106.18887
"8810",117.65726,81.13893,106.122765
"8811",117.67059,81.10719,106.12662
"8812",117.68393,81.126724,106.18075
"8813",117.697266,81.163345,106.25258
"8814",117.7106,81.18288,106.308464
"8815",117.72394,81.15358,106.31613
"8816",117.737274,81.06325,106.26185
"8817",117.75061,80.89967,106.1315
"8818",117.76395,80.66773,105.92767
"8819",117.77728,80.36988,105.65069
"8820",117.79062,80.025635,105.318
"8821",117.803955,79.656975,104.95014
"8822",117.81729,79.276115,104.55856
"8823",117.83063,78.89769,104.15752
"8824",117.84396,78.52903,103.75441
"8825",117.8573,78.18234,103.361755
"8826",117.870636,77.86252,102.98513
"8827",117.88397,77.58175,102.637566
"8828",117.89731,77.347374,102.32762
"8829",117.910645,77.15938,102.05673
"8830",117.92398,77.015335,101.82392
"8831",117.93732,76.91768,101.632996
"8832",117.95065,76.85176,101.47076
"8833",117.96399,76.822464,101.34308
"8834",117.977325,76.824905,101.24622
"8835",117.99066,76.84932,101.17142
"8836",118.004,76.88594,101.10958
"8837",118.017334,76.93721,101.06354
"8838",118.03067,76.98848,101.0191
"8839",118.04401,77.03731,100.973816
"8840",118.05734,77.07637,100.920296
"8841",118.07068,77.10567,100.85823
"8842",118.084015,77.1252,100.787315
"8843",118.09735,77.137405,100.70969
"8844",118.11069,77.137405,100.62023
"8845",118.12402,77.13252,100.525894
"8846",118.13736,77.117874,100.42164
"8847",118.150696,77.08858,100.30228
"8848",118.16403,77.051956,100.174675
"8849",118.17737,77.04463,100.075226
"8850",118.190704,77.13252,100.07076
"8851",118.20404,77.42306,100.27169
"8852",118.21738,78.030975,100.79908
"8853",118.23071,79.00755,101.71413
"8854",118.24405,80.31617,102.99173
"8855",118.257385,81.83475,104.52019
"8856",118.27072,83.3753,106.11807
"8857",118.28406,84.735176,107.58343
"8858",118.29739,85.78012,108.776344
"8859",118.31073,86.43931,109.61616
"8860",118.324066,86.712746,110.09082
"8861",118.3374,86.65171,110.239555
"8862",118.35074,86.33189,110.127594
"8863",118.364075,85.83627,109.82985
"8864",118.37741,85.24544,109.421394
"8865",118.39075,84.62043,108.960304
"8866",118.40408,84.02228,108.50654
"8867",118.41742,83.48272,108.092674
"8868",118.430756,83.01396,107.73275
"8869",118.44409,82.62089,107.43386
"8870",118.45743,82.28153,107.17641
"8871",118.470764,81.97635,106.94252
"8872",118.4841,81.688255,106.71619
"8873",118.49744,81.4197,106.50039
"8874",118.51077,81.197525,106.32258
"8875",118.52411,81.041275,106.20375
"8876",118.537445,80.96803,106.16305
"8877",118.55078,80.970474,106.19574
"8878",118.56412,81.01686,106.27245
"8879",118.57745,81.06813,106.3555
"8880",118.59079,81.0901,106.41085
"8881",118.604126,81.05348,106.408295
"8882",118.61746,80.94606,106.33379
"8883",118.6308,80.76051,106.17781
"8884",118.644135,80.499275,105.94034
"8885",118.65747,80.177,105.63367
"8886",118.67081,79.80591,105.268105
"8887",118.68414,79.40307,104.8592
"8888",118.69748,78.995346,104.43282
"8889",118.710815,78.59983,104.00591
"8890",118.72415,78.22385,103.586174
"8891",118.73749,77.87717,103.18399
"8892",118.750824,77.5671,102.80759
"8893",118.76416,77.30343,102.46789
"8894",118.7775,77.07637,102.15656
"8895",118.79083,76.90059,101.88942
"8896",118.80417,76.771194,101.66317
"8897",118.817505,76.69062,101.4817
"8898",118.83084,76.64423,101.331894
"8899",118.84418,76.629585,101.21238
"8900",118.85751,76.63447,101.11194
"8901",118.87085,76.65644,101.02874
"8902",118.884186,76.69062,100.958435
"8903",118.89752,76.72968,100.89408
"8904",118.91086,76.77608,100.83828
"8905",118.924194,76.824905,100.78636
"8906",118.93753,76.87129,100.73353
"8907",118.95087,76.90791,100.67238
"8908",118.9642,76.93477,100.60261
"8909",118.97754,76.94942,100.52147
"8910",118.990875,76.95186,100.42858
"8911",119.00421,76.94209,100.32356
"8912",119.01755,76.92012,100.20603
"8913",119.03088,76.88838,100.07805
"8914",119.04422,76.86397,99.9564
"8915",119.057556,76.90303,99.89746
"8916",119.07089,77.11055,100.0082
"8917",119.08423,77.61349,100.420845
"8918",119.097565,78.49973,101.23251
"8919",119.1109,79.766846,102.45274
"8920",119.12424,81.322044,104.000656
"8921",119.13757,82.97734,105.697266
"8922",119.15091,84.51545,107.328415
"8923",119.164246,85.75571,108.70978
"8924",119.17758,86.60532,109.73926
"8925",119.19092,87.044785,110.38513
"8926",119.204254,87.10826,110.668755
"8927",119.21759,86.869,110.65163
"8928",119.23093,86.41001,110.40729
"8929",119.24426,85.81674,110.01433
"8930",119.2576,85.15999,109.539345
"8931",119.270935,84.508125,109.04873
"8932",119.28427,83.90509,108.58657
"8933",119.29761,83.38018,108.18369
"8934",119.31094,82.93828,107.84742
"8935",119.32428,82.56962,107.57058
"8936",119.337616,82.24979,107.33105
"8937",119.35095,81.951935,107.1035
"8938",119.36429,81.671165,106.88373
"8939",119.377625,81.41482,106.6796
"8940",119.39096,81.20973,106.51873
"8941",119.4043,81.07057,106.41737
"8942",119.41763,80.99733,106.37759
"8943",119.43097,80.9778,106.38922
"8944",119.444305,80.98268,106.42466
"8945",119.45764,80.972916,106.4456
"8946",119.47098,80.92409,106.42718
"8947",119.484314,80.82155,106.353516
"8948",119.49765,80.6482,106.20584
"8949",119.51099,80.40894,105.98684
"8950",119.52432,80.1062,105.69688
"8951",119.53766,79.75464,105.34863
"8952",119.550995,79.36645,104.952774
"8953",119.56433,78.96361,104.530136
"8954",119.57767,78.56077,104.09491
"8955",119.591,78.170135,103.6593
"8956",119.60434,77.79904,103.231026
"8957",119.617676,77.45968,102.82288
"8958",119.63101,77.16182,102.44564
"8959",119.64435,76.90547,102.1006
"8960",119.657684,76.70527,101.803696
"8961",119.67102,76.5539,101.54937
"8962",119.68436,76.44648,101.33426
"8963",119.69769,76.37568,101.15241
"8964",119.71103,76.33662,101.00009
"8965",119.724365,76.32197,100.870964
"8966",119.7377,76.32929,100.76335
"8967",119.75104,76.35615,100.6755
"8968",119.76437,76.39765,100.603134
"8969",119.77771,76.45136,100.54427
"8970",119.791046,76.50507,100.48709
"8971",119.80438,76.55634,100.429146
"8972",119.81772,76.60029,100.36548
"8973",119.831055,76.63447,100.29342
"8974",119.84439,76.66132,100.2151
"8975",119.85773,76.67597,100.12542
"8976",119.87106,76.67353,100.019104
"8977",119.8844,76.65644,99.89806
"8978",119.897736,76.63203,99.769165
"8979",119.91107,76.61494,99.64683
"8980",119.92441,76.66865,99.59476
"8981",119.937744,76.90059,99.722595
"8982",119.95108,77.435265,100.160416
"8983",119.96442,78.37034,101.01534
"8984",119.97775,79.71557,102.30965
"8985",119.99109,81.375755,103.960945
"8986",120.004425,83.16289,105.79107
"8987",120.01776,84.84993,107.57695
"8988",120.0311,86.23178,109.11036
"8989",120.04443,87.19127,110.26459
"8990",120.05777,87.70397,111.002014
"8991",120.071106,87.801636,111.34042
"8992",120.08444,87.56725,111.34984
"8993",120.09778,87.08385,111.102905
"8994",120.111115,86.44907,110.6895
"8995",120.12445,85.74593,110.18789
"8996",120.13779,85.04768,109.6692
"8997",120.15112,84.39582,109.17507
"8998",120.16446,83.83185,108.74847
"8999",120.177795,83.36797,108.404335
"9000",120.19113,82.99931,108.14092
"9001",120.20447,82.69169,107.927025
"9002",120.217804,82.41825,107.7377
"9003",120.23114,82.15457,107.54959
"9004",120.24448,81.898224,107.36057
"9005",120.25781,81.6614,107.18307
"9006",120.27115,81.461205,107.03479
"9007",120.284485,81.307396,106.92664
"9008",120.29782,81.197525,106.85763
"9009",120.31116,81.112076,106.8096
"9010",120.32449,81.024185,106.75646
"9011",120.33783,80.91432,106.678604
"9012",120.351166,80.765396,106.55825
"9013",120.3645,80.570076,106.38685
"9014",120.37784,80.32105,106.15564
"9015",120.391174,80.02075,105.86537
"9016",120.40451,79.674065,105.51933
"9017",120.41785,79.29565,105.13073
"9018",120.43118,78.90013,104.7132
"9019",120.44452,78.502174,104.280876
"9020",120.457855,78.11154,103.84344
"9021",120.47119,77.74044,103.41332
"9022",120.48453,77.3962,102.998474
"9023",120.49786,77.08125,102.60216
"9024",120.5112,76.807816,102.23751
"9025",120.524536,76.575874,101.905815
"9026",120.53787,76.385445,101.60838
"9027",120.55121,76.243835,101.35382
"9028",120.564545,76.14374,101.136345
"9029",120.57788,76.0827,100.9548
"9030",120.59122,76.05829,100.807976
"9031",120.60455,76.06561,100.69212
"9032",120.61789,76.09003,100.59359
"9033",120.631226,76.12909,100.51047
"9034",120.64456,76.17792,100.43833
"9035",120.6579,76.22919,100.37016
"9036",120.671234,76.280464,100.303604
"9037",120.68457,76.33173,100.23864
"9038",120.69791,76.37812,100.170395
"9039",120.71124,76.42451,100.1036
"9040",120.72458,76.46357,100.03093
"9041",120.737915,76.48554,99.94239
"9042",120.75125,76.490425,99.83745
"9043",120.76459,76.4831,99.72045
"9044",120.77792,76.4831,99.61055
"9045",120.79126,76.544136,99.56168
"9046",120.804596,76.78096,99.69051
"9047",120.81793,77.33517,100.14413
"9048",120.83127,78.30686,101.03255
"9049",120.844604,79.708244,102.38102
"9050",120.85794,81.446556,104.110214
"9051",120.87128,83.32647,106.03533
"9052",120.88461,85.11116,107.92397
"9053",120.89795,86.58335,109.555885
"9054",120.911285,87.620964,110.799225
"9055",120.92462,88.18494,111.60135
"9056",120.93796,88.31678,111.98897
"9057",120.951294,88.0824,112.01448
"9058",120.96463,87.5819,111.766556
"9059",120.97797,86.91783,111.33942
"9060",120.9913,86.18295,110.82072
"9061",121.00464,85.452965,110.28394
"9062",121.017975,84.77913,109.78051
"9063",121.03131,84.19806,109.348785
"9064",121.04465,83.719536,109.00145
"9065",121.05798,83.33379,108.73194
"9066",121.07132,83.004196,108.50652
"9067",121.084656,82.70634,108.30254
"9068",121.09799,82.42069,108.10147
"9069",121.11133,82.142365,107.89879
"9070",121.124664,81.883575,107.70695
"9071",121.138,81.65896,107.54119
"9072",121.15134,81.48806,107.422134
"9073",121.16467,81.36111,107.34168
"9074",121.17801,81.26101,107.28412
"9075",121.191345,81.163345,107.22586
"9076",121.20468,81.04616,107.14503
"9077",121.21802,80.88991,107.02147
"9078",121.23135,80.68726,106.846634
"9079",121.24469,80.428474,106.60932
"9080",121.258026,80.113525,106.30776
"9081",121.27136,79.7522,105.94998
"9082",121.2847,79.361565,105.551605
"9083",121.298035,78.95628,105.12637
"9084",121.31137,78.551,104.68848
"9085",121.32471,78.15793,104.25012
"9086",121.33804,77.789276,103.823906
"9087",121.35138,77.44747,103.41302
"9088",121.364716,77.134964,103.020744
"9089",121.37805,76.8542,102.65045
"9090",121.39139,76.60517,102.303116
"9091",121.404724,76.39277,101.98463
"9092",121.41806,76.226746,101.70588
"9093",121.4314,76.10956,101.47078
"9094",121.44473,76.036316,101.27596
"9095",121.45807,75.999695,101.11548
"9096",121.471405,75.99725,100.98803
"9097",121.48474,76.02167,100.88736
"9098",121.49808,76.06561,100.806984
"9099",121.51141,76.12421,100.74263
"9100",121.52475,76.192566,100.68987
"9101",121.538086,76.26093,100.63926
"9102",121.55142,76.32685,100.58833
"9103",121.56476,76.383,100.5297
"9104",121.578094,76.42695,100.46062
"9105",121.59143,76.45136,100.373375
"9106",121.60477,76.45869,100.269806
"9107",121.6181,76.44892,100.149376
"9108",121.63144,76.46601,100.0555
"9109",121.644775,76.61494,100.09399
"9110",121.65811,77.02998,100.40325
"9111",121.67145,77.840546,101.121
"9112",121.684784,79.10277,102.31574
"9113",121.69812,80.75807,103.94301
"9114",121.71146,82.63798,105.8466
"9115",121.72479,84.50324,107.794304
"9116",121.73813,86.117035,109.54882
"9117",121.751465,87.32067,110.94361
"9118",121.7648,88.04089,111.89261
"9119",121.77814,88.292366,112.395355
"9120",121.79147,88.14343,112.505554
"9121",121.80481,87.68932,112.30592
"9122",121.818146,87.03502,111.89191
"9123",121.83148,86.28794,111.36467
"9124",121.84482,85.52621,110.79943
"9125",121.858154,84.81331,110.259224
"9126",121.87149,84.190735,109.78706
"9127",121.88483,83.67559,109.40288
"9128",121.89816,83.250786,109.09293
"9129",121.9115,82.88945,108.83318
"9130",121.924835,82.56718,108.601204
"9131",121.93817,82.25956,108.37381
"9132",121.95151,81.96414,108.149
"9133",121.96484,81.69314,107.93938
"9134",121.97818,81.47341,107.77256
"9135",121.991516,81.31472,107.65991
"9136",122.00485,81.20729,107.59357
"9137",122.01819,81.129166,107.55317
"9138",122.031525,81.058365,107.517654
"9139",122.04486,80.95827,107.45063
"9140",122.0582,80.814224,107.33653
"9141",122.07153,80.61646,107.164215
"9142",122.08487,80.36256,106.92957
"9143",122.098206,80.05005,106.628395
"9144",122.11154,79.693596,106.273506
"9145",122.12488,79.30541,105.87575
"9146",122.138214,78.90013,105.44876
"9147",122.15155,78.487526,105.001785
"9148",122.16489,78.08713,104.55412
"9149",122.17822,77.70138,104.1086
"9150",122.19156,77.347374,103.68276
"9151",122.204895,77.02266,103.275154
"9152",122.21823,76.734566,102.89402
"9153",122.23157,76.48554,102.54295
"9154",122.2449,76.27802,102.22561
"9155",122.25824,76.11444,101.94572
"9156",122.271576,75.99725,101.70711
"9157",122.28491,75.92157,101.50634
"9158",122.29825,75.88495,101.34227
"9159",122.311584,75.89227,101.221
"9160",122.32492,75.928894,101.12926
"9161",122.33826,75.98993,101.06307
"9162",122.35159,76.05829,101.00612
"9163",122.36493,76.12909,100.95374
"9164",122.378265,76.190125,100.893814
"9165",122.3916,76.23407,100.8187
"9166",122.40494,76.25849,100.72544
"9167",122.418274,76.282906,100.632935
"9168",122.43161,76.35371,100.58758
"9169",122.44495,76.57099,100.69092
"9170",122.45828,77.066605,101.07938
"9171",122.47162,77.95529,101.876396
"9172",122.484955,79.27856,103.135765
"9173",122.49829,80.955826,104.79049
"9174",122.51163,82.82109,106.68562
"9175",122.52496,84.63508,108.58777
"9176",122.5383,86.16586,110.2634
"9177",122.551636,87.26696,111.557175
"9178",122.56497,87.87976,112.397064
"9179",122.57831,88.026245,112.789795
"9180",122.591644,87.782104,112.79648
"9181",122.60498,87.24986,112.50743
"9182",122.61832,86.536964,112.02109
"9183",122.63165,85.748375,111.436775
"9184",122.64499,84.95979,110.82783
"9185",122.658325,84.23224,110.255264
"9186",122.67166,83.59991,109.75519
"9187",122.685,83.06767,109.33545
"9188",122.69833,82.61845,108.982086
"9189",122.71167,82.22293,108.668396
"9190",122.725006,81.86893,108.38386
"9191",122.73834,81.54665,108.11999
"9192",122.75168,81.270775,107.89244
"9193",122.765015,81.06081,107.72218
"9194",122.77835,80.92653,107.621056
"9195",122.79169,80.86305,107.58653
"9196",122.80502,80.84352,107.59397
"9197",122.81836,80.83864,107.61545
"9198",122.831696,80.8069,107.60992
"9199",122.84503,80.723885,107.55212
"9200",122.85837,80.57252,107.42337
"9201",122.871704,80.343025,107.21177
"9202",122.88504,80.04028,106.91975
"9203",122.89838,79.676506,106.55723
"9204",122.91171,79.273674,106.14429
"9205",122.92505,78.8513,105.69922
"9206",122.938385,78.42161,105.23363
"9207",122.95172,77.99924,104.76193
"9208",122.96506,77.591515,104.29169
"9209",122.97839,77.205765,103.83067
"9210",122.99173,76.84932,103.38691
"9211",123.005066,76.53193,102.97106
"9212",123.0184,76.25605,102.58681
"9213",123.03174,76.02899,102.24275
"9214",123.045074,75.84833,101.937996
"9215",123.05841,75.7116,101.67153
"9216",123.07175,75.61883,101.44475
"9217",123.08508,75.577324,101.266335
"9218",123.09842,75.58221,101.13301
"9219",123.111755,75.62371,101.03646
"9220",123.12509,75.69451,100.970505
"9221",123.13843,75.78485,100.9263
"9222",123.151764,75.877625,100.88735
"9223",123.1651,75.96307,100.84398
"9224",123.17844,76.03143,100.78619
"9225",123.19177,76.08026,100.711
"9226",123.20511,76.112,100.62025
"9227",123.218445,76.16083,100.54758
"9228",123.23178,76.29511,100.56189
"9229",123.24512,76.63691,100.78791
"9230",123.25845,77.3254,101.37131
"9231",123.27179,78.44602,102.40835
"9232",123.285126,79.991455,103.90522
"9233",123.29846,81.83963,105.75313
"9234",123.3118,83.77081,107.7418
"9235",123.325134,85.52865,109.61747
"9236",123.33847,86.905624,111.16721
"9237",123.35181,87.79431,112.2717
"9238",123.36514,88.18005,112.90102
"9239",123.37848,88.11658,113.09317
"9240",123.391815,87.69421,112.92444
"9241",123.40515,87.027695,112.49837
"9242",123.41849,86.21469,111.904976
"9243",123.43182,85.35775,111.24224
"9244",123.44516,84.5301,110.582016
"9245",123.458496,83.790344,109.983826
"9246",123.47183,83.15312,109.46505
"9247",123.48517,82.61112,109.02158
"9248",123.498505,82.13992,108.63198
"9249",123.51184,81.7322,108.29113
"9250",123.52518,81.38552,107.99858
"9251",123.53851,81.11452,107.770874
"9252",123.55185,80.93385,107.62504
"9253",123.565186,80.850845,107.57121
"9254",123.57852,80.85329,107.60024
"9255",123.59186,80.90456,107.67818
"9256",123.605194,80.96315,107.76504
"9257",123.61853,80.990005,107.82199
"9258",123.63187,80.9485,107.811424
"9259",123.6452,80.82399,107.71655
"9260",123.65854,80.61158,107.52989
"9261",123.671875,80.31129,107.24871
"9262",123.68521,79.94263,106.88978
"9263",123.69855,79.520256,106.465614
"9264",123.71188,79.05882,105.98919
"9265",123.72522,78.5803,105.481255
"9266",123.738556,78.101776,104.95837
"9267",123.75189,77.63546,104.43273
"9268",123.76523,77.196,103.91938
"9269",123.778564,76.79805,103.43381
"9270",123.7919,76.44892,102.98462
"9271",123.80524,76.15106,102.57579
"9272",123.81857,75.90692,102.21137
"9273",123.83191,75.716484,101.89303
"9274",123.845245,75.579765,101.62245
"9275",123.85858,75.48943,101.39399
"9276",123.87192,75.44305,101.20665
"9277",123.885254,75.43816,101.059364
"9278",123.89859,75.4699,100.94855
"9279",123.91193,75.528496,100.86558
"9280",123.92526,75.60418,100.80153
"9281",123.9386,75.68963,100.74961
"9282",123.951935,75.76532,100.690605
"9283",123.96527,75.8288,100.62175
"9284",123.97861,75.87518,100.53779
"9285",123.99194,75.90448,100.43819
"9286",124.00528,75.945984,100.35171
"9287",124.018616,76.07294,100.351974
"9288",124.03195,76.40986,100.56618
"9289",124.04529,77.0959,101.14003
"9290",124.058624,78.21652,102.1699
"9291",124.07196,79.76196,103.65961
"9292",124.0853,81.60525,105.49545
"9293",124.09863,83.52422,107.46459
"9294",124.11197,85.27474,109.32524
"9295",124.125305,86.65415,110.869484
"9296",124.13864,87.54528,111.96855
"9297",124.15198,87.92859,112.58765
"9298",124.16531,87.852905,112.759735
"9299",124.17865,87.40368,112.55591
"9300",124.191986,86.69077,112.07437
"9301",124.20532,85.83139,111.42407
"9302",124.21866,84.91829,110.6932
"9303",124.231995,84.03693,109.96553
"9304",124.24533,83.23857,109.29333
"9305",124.25867,82.547646,108.703606
"9306",124.272,81.951935,108.18751
"9307",124.28534,81.44167,107.73824
"9308",124.298676,81.00954,107.35116
"9309",124.31201,80.66529,107.03846
"9310",124.32535,80.42603,106.81999
"9311",124.338684,80.31617,106.72344
"9312",124.35202,80.3357,106.75285
"9313",124.36536,80.46021,106.887856
"9314",124.37869,80.635994,107.07802
"9315",124.39203,80.80934,107.27124
"9316",124.405365,80.92897,107.41616
"9317",124.4187,80.96071,107.47693
"9318",124.43204,80.885025,107.43127
"9319",124.44537,80.70191,107.27581
"9320",124.45871,80.41627,107.0121
"9321",124.472046,80.045166,106.65401
"9322",124.48538,79.61303,106.22328
"9323",124.49872,79.14183,105.73999
"9324",124.512054,78.65354,105.224884
"9325",124.52539,78.170135,104.6994
"9326",124.53873,77.70138,104.17346
"9327",124.55206,77.26681,103.66706
"9328",124.5654,76.86885,103.18369
"9329",124.578735,76.51972,102.73672
"9330",124.59207,76.224304,102.33254
"9331",124.60541,75.99481,101.98506
"9332",124.618744,75.82391,101.689
"9333",124.63208,75.71404,101.44863
"9334",124.64542,75.66033,101.26099
"9335",124.65875,75.65301,101.11805
"9336",124.67209,75.67986,101.00906
"9337",124.685425,75.73113,100.92533
"9338",124.69876,75.789734,100.85053
"9339",124.7121,75.85321,100.78244
"9340",124.72543,75.91913,100.71877
"9341",124.73877,76.00458,100.6767
"9342",124.752106,76.16571,100.712975
"9343",124.76544,76.50507,100.93252
"9344",124.77878,77.14961,101.46784
"9345",124.792114,78.187225,102.41638
"9346",124.80545,79.63256,103.80507
"9347",124.81879,81.38552,105.54655
"9348",124.83212,83.24834,107.45266
"9349",124.84546,84.98421,109.29004
"9350",124.858795,86.37827,110.83986
"9351",124.87213,87.30114,111.96204
"9352",124.88547,87.72106,112.61012
"9353",124.8988,87.674675,112.80502
"9354",124.91214,87.24986,112.62004
"9355",124.925476,86.54673,112.14346
"9356",124.93881,85.67269,111.47401
"9357",124.95215,84.72053,110.69911
"9358",124.965485,83.77081,109.89691
"9359",124.97882,82.86992,109.11385
"9360",124.99216,82.037384,108.371
"9361",125.00549,81.28054,107.677826
"9362",125.01883,80.61158,107.04888
"9363",125.032166,80.05005,106.50646
"9364",125.0455,79.63012,106.0881
"9365",125.05884,79.395744,105.84216
"9366",125.072174,79.36645,105.79398
"9367",125.08551,79.52758,105.93532
"9368",125.09885,79.83276,106.22574
"9369",125.11218,80.21118,106.59893
"9370",125.12552,80.584724,106.97907
"9371",125.138855,80.88991,107.30253
"9372",125.15219,81.07301,107.51344
"9373",125.16553,81.11452,107.58848
"9374",125.17886,81.00221,107.511
"9375",125.1922,80.75319,107.2933
"9376",125.205536,80.39185,106.9555
"9377",125.21887,79.94263,106.51852
"9378",125.23221,79.43969,106.01379
"9379",125.245544,78.905014,105.4616
"9380",125.25888,78.365456,104.887825
"9381",125.27222,77.84299,104.31428
"9382",125.28555,77.35714,103.761024
"9383",125.29889,76.91768,103.238976
"9384",125.312225,76.53925,102.76423
"9385",125.32556,76.22186,102.33869
"9386",125.3389,75.965515,101.96428
"9387",125.352234,75.772644,101.64533
"9388",125.36557,75.63836,101.378944
"9389",125.37891,75.55779,101.16208
"9390",125.39224,75.53338,100.99885
"9391",125.40558,75.5993,100.925186
"9392",125.418915,75.83368,101.02205
"9393",125.43225,76.36103,101.419205
"9394",125.44559,77.2839,102.228355
"9395",125.45892,78.6511,103.51068
"9396",125.47226,80.396736,105.214165
"9397",125.485596,82.354774,107.1846
"9398",125.49893,84.281075,109.18449
"9399",125.51227,85.94125,110.97845
"9400",125.525604,87.166855,112.38971
"9401",125.53894,87.87976,113.32658
"9402",125.55228,88.08484,113.77789
"9403",125.56561,87.84802,113.79373
"9404",125.57895,87.25231,113.44327
"9405",125.592285,86.40513,112.82272
"9406",125.60562,85.401695,112.01945
"9407",125.61896,84.3299,111.116455
"9408",125.63229,83.25323,110.17509
"9409",125.64563,82.213165,109.23669
"9410",125.658966,81.23659,108.32927
"9411",125.6723,80.343025,107.47435
"9412",125.68564,79.57397,106.71601
"9413",125.698975,78.96849,106.09722
"9414",125.71231,78.58274,105.67924
"9415",125.72565,78.44358,105.49579
"9416",125.73898,78.551,105.55457
"9417",125.75232,78.86107,105.81936
"9418",125.765656,79.30297,106.22567
"9419",125.77899,79.783936,106.68485
"9420",125.79233,80.22095,107.11511
"9421",125.805664,80.550545,107.451614
"9422",125.819,80.719,107.637276
"9423",125.83234,80.71168,107.65242
"9424",125.84567,80.53834,107.50132
"9425",125.85901,80.216064,107.19587
"9426",125.872345,79.77905,106.76561
"9427",125.88568,79.26147,106.24112
"9428",125.89902,78.70725,105.663826
"9429",125.91235,78.1384,105.05457
"9430",125.92569,77.58907,104.447075
"9431",125.939026,77.07881,103.86147
"9432",125.95236,76.61738,103.308754
"9433",125.9657,76.21698,102.80265
"9434",125.979034,75.880066,102.34752
"9435",125.99237,75.60418,101.94289
"9436",126.00571,75.386894,101.588234
"9437",126.01904,75.24284,101.300026
"9438",126.03238,75.1989,101.10742
"9439",126.045715,75.335625,101.09412
"9440",126.05905,75.78241,101.39514
"9441",126.07239,76.67597,102.156906
"9442",126.085724,78.07736,103.45442
"9443",126.09906,79.94751,105.26449
"9444",126.1124,82.13016,107.445496
"9445",126.12573,84.368965,109.75087
"9446",126.13907,86.39048,111.90891
"9447",126.152405,87.97986,113.69799
"9448",126.16574,89.01503,114.98253
"9449",126.17908,89.4667,115.71591
"9450",126.19241,89.36904,115.91409
"9451",126.20575,88.817276,115.65511
"9452",126.219086,87.93103,115.0444
"9453",126.23242,86.83482,114.196045
"9454",126.24576,85.6556,113.23041
"9455",126.259094,84.48615,112.23769
"9456",126.27243,83.387505,111.279236
"9457",126.28577,82.37675,110.37434
"9458",126.2991,81.463646,109.53551
"9459",126.31244,80.65308,108.77068
"9460",126.325775,79.97925,108.117256
"9461",126.33911,79.47631,107.61367
"9462",126.35245,79.18822,107.30921
"9463",126.36578,79.12962,107.22525
"9464",126.37912,79.281,107.34943
"9465",126.392456,79.58129,107.62725
"9466",126.40579,79.94995,107.98283
"9467",126.41913,80.308846,108.34016
"9468",126.432465,80.57984,108.620804
"9469",126.4458,80.709236,108.76832
"9470",126.45914,80.67017,108.75142
"9471",126.47247,80.45777,108.55996
"9472",126.48581,80.08423,108.20072
"9473",126.499146,79.586174,107.7053
"9474",126.51248,79.00511,107.111305
"9475",126.52582,78.382545,106.45765
"9476",126.539154,77.74532,105.76988
"9477",126.55249,77.12764,105.08174
"9478",126.56583,76.54658,104.41092
"9479",126.57916,76.019226,103.77565
"9480",126.5925,75.55779,103.18982
"9481",126.605835,75.17204,102.66525
"9482",126.61917,74.861984,102.20432
"9483",126.63251,74.6276,101.80938
"9484",126.64584,74.47379,101.487686
"9485",126.65918,74.46647,101.30767
"9486",126.672516,74.71549,101.38377
"9487",126.68585,75.36248,101.86562
"9488",126.69919,76.524605,102.88283
"9489",126.712524,78.238495,104.48811
"9490",126.72586,80.40894,106.603516
"9491",126.7392,82.81377,109.02112
"9492",126.75253,85.16731,111.46259
"9493",126.76587,87.18883,113.645584
"9494",126.779205,88.66834,115.34975
"9495",126.79254,89.498436,116.45073
"9496",126.80588,89.6791,116.92822
"9497",126.819214,89.29336,116.844955
"9498",126.83255,88.47547,116.31749
"9499",126.84589,87.38415,115.49103
"9500",126.85922,86.17807,114.5157
"9501",126.87256,84.99153,113.522224
"9502",126.885895,83.90265,112.589325
"9503",126.89923,82.950485,111.75912
"9504",126.91257,82.125275,111.02611
"9505",126.9259,81.40017,110.36742
"9506",126.93924,80.7483,109.7593
"9507",126.952576,80.184326,109.21871
"9508",126.96591,79.727776,108.76792
"9509",126.97925,79.41772,108.449356
"9510",126.992584,79.26879,108.282234
"9511",127.00592,79.27856,108.26915
"9512",127.01926,79.395744,108.36379
"9513",127.03259,79.551994,108.50116
"9514",127.04593,79.676506,108.61167
"9515",127.059265,79.72045,108.64551
"9516",127.0726,79.65209,108.56841
"9517",127.08594,79.447014,108.35246
"9518",127.09927,79.10521,107.99338
"9519",127.11261,78.6511,107.51131
"9520",127.125946,78.11154,106.929596
"9521",127.13928,77.51827,106.27731
"9522",127.15262,76.90059,105.58208
"9523",127.165955,76.29267,104.877304
"9524",127.17929,75.7116,104.18038
"9525",127.19263,75.18425,103.51902
"9526",127.20596,74.72282,102.9071
"9527",127.2193,74.339516,102.35889
"9528",127.232635,74.03677,101.87926
"9529",127.24597,73.814606,101.47074
"9530",127.25931,73.66323,101.126076
"9531",127.272644,73.57046,100.83528
"9532",127.28598,73.52407,100.587975
"9533",127.29932,73.53628,100.39781
"9534",127.31265,73.66323,100.32278
"9535",127.32599,74.02701,100.48853
"9536",127.339325,74.78142,101.05629
"9537",127.35266,76.04608,102.157875
"9538",127.366,77.85031,103.83855
"9539",127.37933,80.08911,106.01017
"9540",127.39267,82.530556,108.4544
"9541",127.406006,84.86946,110.87238
"9542",127.41934,86.82262,112.97771
"9543",127.43268,88.182495,114.55079
"9544",127.446014,88.87099,115.49498
"9545",127.45935,88.919815,115.82103
"9546",127.47269,88.446175,115.62613
"9547",127.48602,87.6112,115.0551
"9548",127.49936,86.590675,114.27243
"9549",127.512695,85.53597,113.42368
"9550",127.52603,84.56672,112.627426
"9551",127.53937,83.74151,111.94492
"9552",127.552704,83.06279,111.383125
"9553",127.56604,82.493935,110.90998
"9554",127.57938,81.97879,110.47277
"9555",127.59271,81.47097,110.02679
"9556",127.60605,80.955826,109.55761
"9557",127.619385,80.45777,109.089424
"9558",127.63272,80.01343,108.659386
"9559",127.64606,79.6643,108.31068
"9560",127.65939,79.42504,108.06093
"9561",127.67273,79.281,107.89892
"9562",127.686066,79.19554,107.79099
"9563",127.6994,79.12962,107.699936
"9564",127.71274,79.03197,107.57508
"9565",127.726074,78.870834,107.3837
"9566",127.73941,78.626686,107.10426
"9567",127.75275,78.294655,106.72932
"9568",127.76608,77.88205,106.26342
"9569",127.77942,77.40353,105.71871
"9570",127.792755,76.8835,105.117546
"9571",127.80609,76.34882,104.48548
"9572",127.81943,75.81659,103.83915
"9573",127.83276,75.30633,103.19816
"9574",127.8461,74.830246,102.5754
"9575",127.859436,74.40543,101.98904
"9576",127.87277,74.0441,101.45287
"9577",127.88611,73.75601,100.97867
"9578",127.899445,73.54116,100.568695
"9579",127.91278,73.39956,100.22526
"9580",127.92612,73.323875,99.94331
"9581",127.93945,73.29702,99.70783
"9582",127.95279,73.31167,99.513016
"9583",127.966125,73.358055,99.350395
"9584",127.97946,73.426414,99.2112
"9585",127.9928,73.514305,99.093666
"9586",128.00613,73.6144,98.99109
"9587",128.01947,73.71938,98.89652
"9588",128.0328,73.81705,98.79792
"9589",128.04614,73.90494,98.6926
"9590",128.05948,73.98062,98.57781
"9591",128.07281,74.039215,98.4483
"9592",128.08615,74.08316,98.30598
"9593",128.09949,74.11978,98.1577
"9594",128.11282,74.14664,98.0008
"9595",128.12616,74.16617,97.83742
"9596",128.1395,74.178375,97.66732
"9597",128.15283,74.18082,97.48784
"9598",128.16617,74.175934,97.30111
"9599",128.1795,74.18082,97.12399
"9600",128.19284,74.26139,97.02272
"9601",128.20618,74.55436,97.13636
"9602",128.21951,75.23796,97.64979
"9603",128.23285,76.44892,98.71194
"9604",128.24619,78.204315,100.35636
"9605",128.25952,80.38209,102.47802
"9606",128.27286,82.738075,104.84595
"9607",128.2862,84.95491,107.148346
"9608",128.29953,86.75914,109.107414
"9609",128.31287,88.00183,110.561325
"9610",128.3262,88.64393,111.453476
"9611",128.33954,88.7538,111.833466
"9612",128.35287,88.43641,111.78963
"9613",128.36621,87.833374,111.450226
"9614",128.37955,87.07408,110.93573
"9615",128.39288,86.278175,110.360886
"9616",128.40622,85.523766,109.802666
"9617",128.41956,84.8719,109.32342
"9618",128.43289,84.32746,108.93122
"9619",128.44623,83.87579,108.614784
"9620",128.45956,83.47295,108.33306
"9621",128.4729,83.08232,108.05096
"9622",128.48624,82.67704,107.742
"9623",128.49957,82.26444,107.413055
"9624",128.51291,81.87381,107.093185
"9625",128.52625,81.54421,106.82214
"9626",128.53958,81.29275,106.618935
"9627",128.55292,81.11452,106.4811
"9628",128.56625,80.98024,106.38165
"9629",128.57959,80.850845,106.28289
"9630",128.59293,80.689705,106.14834
"9631",128.60626,80.47242,105.95261
"9632",128.6196,80.19165,105.6866
"9633",128.63293,79.84985,105.35079
"9634",128.64627,79.4519,104.94814
"9635",128.6596,79.012436,104.491554
"9636",128.67294,78.551,103.99926
"9637",128.68628,78.08713,103.490105
"9638",128.69962,77.63302,102.97622
"9639",128.71295,77.208206,102.47744
"9640",128.72629,76.82002,102.002014
"9641",128.73962,76.47822,101.56084
"9642",128.75296,76.18768,101.16025
"9643",128.7663,75.948425,100.80186
"9644",128.77963,75.76776,100.49458
"9645",128.79297,75.64324,100.23781
"9646",128.8063,75.57488,100.0333
"9647",128.81964,75.54803,99.868164
"9648",128.83298,75.562675,99.74369
"9649",128.84631,75.60418,99.64653
"9650",128.85965,75.65789,99.562874
"9651",128.87299,75.716484,99.48578
"9652",128.88632,75.775085,99.41052
"9653",128.89966,75.826355,99.329765
"9654",128.913,75.86786,99.240845
"9655",128.92633,75.897156,99.141014
"9656",128.93967,75.91913,99.034775
"9657",128.953,75.928894,98.917015
"9658",128.96634,75.928894,98.789795
"9659",128.97968,75.91913,98.65281
"9660",128.99301,75.90692,98.51308
"9661",129.00635,75.894714,98.37296
"9662",129.01968,75.88251,98.23247
"9663",129.03302,75.877625,98.098915
"9664",129.04636,75.87518,97.96765
"9665",129.0597,75.877625,97.841194
"9666",129.07303,75.88251,97.717255
"9667",129.08636,75.894714,97.60079
"9668",129.0997,75.90692,97.48471
"9669",129.11304,75.92157,97.37145
"9670",129.12637,75.9411,97.263535
"9671",129.13971,75.99237,97.187965
"9672",129.15305,76.14862,97.21898
"9673",129.16638,76.54658,97.49658
"9674",129.17972,77.315636,98.15772
"9675",129.19305,78.53147,99.28967
"9676",129.20639,80.15503,100.86734
"9677",129.21973,82.020294,102.73745
"9678",129.23306,83.88068,104.660965
"9679",129.2464,85.472496,106.374054
"9680",129.25974,86.60532,107.677895
"9681",129.27307,87.21568,108.49467
"9682",129.2864,87.33044,108.83491
"9683",129.29974,87.044785,108.778336
"9684",129.31308,86.485695,108.43939
"9685",129.32642,85.77524,107.93161
"9686",129.33975,85.02083,107.35767
"9687",129.35309,84.31281,106.80656
"9688",129.36642,83.70977,106.33829
"9689",129.37976,83.24101,105.98546
"9690",129.3931,82.896774,105.7425
"9691",129.40643,82.64774,105.58399
"9692",129.41977,82.44022,105.45921
"9693",129.4331,82.23514,105.33038
"9694",129.44644,82.01053,105.17562
"9695",129.45978,81.78592,105.01384
"9696",129.47311,81.5906,104.87433
"9697",129.48645,81.45144,104.784874
"9698",129.49979,81.38064,104.75943
"9699",129.51312,81.36111,104.78304
"9700",129.52646,81.36111,104.82558
"9701",129.5398,81.33425,104.841255
"9702",129.55313,81.25857,104.80727
"9703",129.56647,81.1194,104.70743
"9704",129.5798,80.91188,104.53489
"9705",129.59314,80.638435,104.28994
"9706",129.60648,80.31617,103.987625
"9707",129.61981,79.96216,103.64349
"9708",129.63315,79.5935,103.27365
"9709",129.64648,79.22728,102.89473
"9710",129.65982,78.870834,102.51414
"9711",129.67316,78.54368,102.151695
"9712",129.6865,78.24582,101.80833
"9713",129.69983,77.979706,101.4874
"9714",129.71317,77.75754,101.202095
"9715",129.7265,77.58419,100.95867
"9716",129.73984,77.45724,100.756226
"9717",129.75317,77.37423,100.59376
"9718",129.76651,77.33517,100.47264
"9719",129.77985,77.332726,100.386925
"9720",129.79318,77.3547,100.32555
"9721",129.80652,77.39132,100.2795
"9722",129.81985,77.43038,100.237045
"9723",129.83319,77.471886,100.19825
"9724",129.84653,77.506065,100.15343
"9725",129.85986,77.53048,100.09991
"9726",129.8732,77.54269,100.03494
"9727",129.88654,77.540245,99.95571
"9728",129.89987,77.52804,99.86664
"9729",129.91321,77.50118,99.762535
"9730",129.92654,77.467,99.65027
"9731",129.93988,77.42794,99.53205
"9732",129.95322,77.38644,99.41017
"9733",129.96655,77.34005,99.28211
"9734",129.97989,77.28878,99.14772
"9735",129.99323,77.239944,99.01416
"9736",130.00656,77.19356,98.88152
"9737",130.0199,77.152054,98.75232
"9738",130.03323,77.11055,98.62182
"9739",130.04657,77.07393,98.4949
"9740",130.0599,77.066605,98.39614
"9741",130.07324,77.171585,98.409454
"9742",130.08658,77.49874,98.648224
"9743",130.09991,78.16525,99.23657
"9744",130.11325,79.217514,100.2315
"9745",130.12659,80.601814,101.59135
"9746",130.13992,82.15213,103.16047
"9747",130.15326,83.64141,104.717
"9748",130.1666,84.857254,106.04664
"9749",130.17993,85.65804,106.999214
"9750",130.19327,86.012054,107.53004
"9751",130.2066,85.96811,107.673965
"9752",130.21994,85.62142,107.51378
"9753",130.23328,85.07454,107.14256
"9754",130.24661,84.422676,106.64928
"9755",130.25995,83.75372,106.11853
"9756",130.27328,83.13115,105.61326
"9757",130.28662,82.598915,105.17887
"9758",130.29996,82.18387,104.84504
"9759",130.3133,81.87869,104.60811
"9760",130.32663,81.65652,104.44464
"9761",130.33997,81.478294,104.318184
"9762",130.3533,81.307396,104.19348
"9763",130.36664,81.13649,104.06343
"9764",130.37997,80.98268,103.94514
"9765",130.39331,80.87038,103.86354
"9766",130.40665,80.814224,103.83459
"9767",130.41998,80.81911,103.864914
"9768",130.43332,80.87038,103.94178
"9769",130.44666,80.92897,104.02757
"9770",130.45999,80.96071,104.08834
"9771",130.47333,80.938736,104.09639
"9772",130.48666,80.850845,104.037834
"9773",130.5,80.68726,103.90084
"9774",130.51334,80.46021,103.69527
"9775",130.52667,80.17944,103.42888
"9776",130.54001,79.8645,103.119545
"9777",130.55334,79.537346,102.788155
"9778",130.56668,79.21019,102.44654
"9779",130.58002,78.89281,102.10448
"9780",130.59335,78.59251,101.76958
"9781",130.60669,78.32151,101.4546
"9782",130.62003,78.08957,101.170204
"9783",130.63336,77.89914,100.920074
"9784",130.6467,77.752655,100.70794
"9785",130.66003,77.65011,100.535164
"9786",130.67337,77.58907,100.400696
"9787",130.6867,77.56466,100.30094
"9788",130.70004,77.56466,100.22484
"9789",130.71338,77.58175,100.165825
"9790",130.72672,77.61349,100.121994
"9791",130.74005,77.65255,100.08648
"9792",130.75339,77.68917,100.04974
"9793",130.76672,77.72091,100.00927
"9794",130.78006,77.75021,99.967354
"9795",130.7934,77.769745,99.91658
"9796",130.80673,77.77707,99.85421
"9797",130.82007,77.7673,99.77498
"9798",130.8334,77.74532,99.68323
"9799",130.84674,77.7087,99.57615
"9800",130.86008,77.66476,99.4606
"9801",130.87341,77.61837,99.34124
"9802",130.88675,77.5671,99.215546
"9803",130.90009,77.51583,99.08825
"9804",130.91342,77.45968,98.95447
"9805",130.92676,77.40597,98.82137
"9806",130.9401,77.35714,98.69148
"9807",130.95343,77.35226,98.60401
"9808",130.96677,77.471886,98.6409
"9809",130.9801,77.823456,98.91347
"9810",130.99344,78.502174,99.52417
"9811",131.00677,79.5227,100.49789
"9812",131.02011,80.8069,101.76717
"9813",131.03345,82.18387,103.16936
"9814",131.04678,83.44854,104.50227
"9815",131.06012,84.41779,105.57929
"9816",131.07346,84.99397,106.293526
"9817",131.08679,85.17952,106.63513
"9818",131.10013,85.04036,106.65783
"9819",131.11346,84.65949,106.43447
"9820",131.1268,84.12726,106.047844
"9821",131.14014,83.53155,105.58111
"9822",131.15347,82.9456,105.10552
"9823",131.16681,82.42069,104.67266
"9824",131.18015,81.988556,104.31617
"9825",131.19348,81.6614,104.051155
"9826",131.20682,81.427025,103.8687
"9827",131.22015,81.25857,103.744835
"9828",131.23349,81.11696,103.642555
"9829",131.24683,80.98268,103.54318
"9830",131.26016,80.85329,103.444496
"9831",131.2735,80.743416,103.36129
"9832",131.28683,80.67994,103.321045
"9833",131.30017,80.67506,103.33741
"9834",131.3135,80.73121,103.41466
"9835",131.32684,80.82887,103.53517
"9836",131.34018,80.93141,103.66361
"9837",131.35352,81.00221,103.76352
"9838",131.36685,81.0193,103.81193
"9839",131.38019,80.96559,103.79007
"9840",131.39352,80.833755,103.68841
"9841",131.40686,80.63355,103.51426
"9842",131.4202,80.37476,103.27527
"9843",131.43353,80.08667,102.998886
"9844",131.44687,79.77905,102.69398
"9845",131.4602,79.47143,102.37945
"9846",131.47354,79.185776,102.07728
"9847",131.48688,78.92699,101.793045
"9848",131.50021,78.692604,101.52513
"9849",131.51355,78.49485,101.28652
"9850",131.52689,78.331276,101.07591
"9851",131.54022,78.204315,100.896805
"9852",131.55356,78.11398,100.75036
"9853",131.5669,78.06027,100.63771
"9854",131.58023,78.04074,100.55756
"9855",131.59357,78.048065,100.50366
"9856",131.6069,78.07492,100.46952
"9857",131.62024,78.1091,100.44354
"9858",131.63358,78.150604,100.42596
"9859",131.64691,78.18234,100.3999
"9860",131.66025,78.21164,100.3724
"9861",131.67358,78.238495,100.34337
"9862",131.68692,78.26292,100.312744
"9863",131.70026,78.277565,100.27311
"9864",131.7136,78.28489,100.22661
"9865",131.72693,78.27512,100.163246
"9866",131.74026,78.25071,100.08493
"9867",131.7536,78.21408,99.99364
"9868",131.76694,78.16525,99.889
"9869",131.78027,78.11398,99.780396
"9870",131.79361,78.05783,99.665306
"9871",131.80695,78.00168,99.54846
"9872",131.82028,77.94797,99.432304
"9873",131.83362,77.93088,99.35109
"9874",131.84695,78.02121,99.37676
"9875",131.86029,78.34348,99.6372
"9876",131.87363,78.9807,100.22265
"9877",131.88696,79.96216,101.17226
"9878",131.9003,81.214615,102.42353
"9879",131.91364,82.58427,103.83114
"9880",131.92697,83.85626,105.18389
"9881",131.9403,84.84749,106.29562
"9882",131.95364,85.46517,107.06479
"9883",131.96698,85.69955,107.46995
"9884",131.98032,85.60189,107.5504
"9885",131.99365,85.25765,107.38122
"9886",132.00699,84.75227,107.04014
"9887",132.02032,84.16876,106.60513
"9888",132.03366,83.57549,106.142136
"9889",132.047,83.02617,105.704544
"9890",132.06033,82.55985,105.332794
"9891",132.07367,82.18875,105.04169
"9892",132.087,81.91287,104.834206
"9893",132.10034,81.71267,104.69378
"9894",132.11368,81.55642,104.59105
"9895",132.12701,81.41726,104.50053
"9896",132.14035,81.287865,104.41542
"9897",132.15369,81.180435,104.348236
"9898",132.16702,81.1194,104.32409
"9899",132.18036,81.12184,104.36151
"9900",132.1937,81.1902,104.46493
"9901",132.20703,81.30007,104.61199
"9902",132.22037,81.41482,104.767365
"9903",132.2337,81.495384,104.89214
"9904",132.24704,81.512474,104.95596
"9905",132.26038,81.45632,104.947075
"9906",132.27371,81.324486,104.86075
"9907",132.28705,81.12428,104.701935
"9908",132.30038,80.87038,104.48316
"9909",132.31372,80.57984,104.219826
"9910",132.32706,80.274666,103.93277
"9911",132.3404,79.957275,103.62396
"9912",132.35373,79.64965,103.315
"9913",132.36707,79.35668,103.011086
"9914",132.3804,79.09056,102.72486
"9915",132.39374,78.8513,102.457184
"9916",132.40707,78.65354,102.223526
"9917",132.42041,78.49729,102.0252
"9918",132.43375,78.380104,101.86105
"9919",132.44708,78.2971,101.727425
"9920",132.46042,78.24094,101.61805
"9921",132.47375,78.21408,101.536224
"9922",132.48709,78.2092,101.47553
"9923",132.50043,78.22629,101.43666
"9924",132.51376,78.260475,101.41542
"9925",132.5271,78.30198,101.402565
"9926",132.54044,78.34348,101.39101
"9927",132.55377,78.37278,101.36854
"9928",132.56711,78.39231,101.33722
"9929",132.58044,78.397194,101.29186
"9930",132.59378,78.38743,101.23201
"9931",132.60712,78.365456,101.159645
"9932",132.62045,78.33372,101.07683
"9933",132.63379,78.29221,100.98325
"9934",132.64713,78.24582,100.88349
"9935",132.66046,78.18967,100.77252
"9936",132.6738,78.13107,100.65736
"9937",132.68713,78.065155,100.533035
"9938",132.70047,77.99924,100.406654
"9939",132.7138,77.9675,100.31239
"9940",132.72714,78.05783,100.33921
"9941",132.74048,78.38987,100.61056
"9942",132.75381,79.061264,101.231636
"9943",132.76715,80.096436,102.23747
"9944",132.78049,81.4197,103.56375
"9945",132.79382,82.865036,105.05345
"9946",132.80716,84.21759,106.49554
"9947",132.8205,85.29183,107.70158
"9948",132.83383,85.98276,108.55787
"9949",132.84717,86.28062,109.04269
"9950",132.8605,86.2269,109.185234
"9951",132.87384,85.90463,109.057556
"9952",132.88718,85.39437,108.73181
"9953",132.90051,84.78645,108.292465
"9954",132.91385,84.159,107.81458
"9955",132.92719,83.56573,107.35128
"9956",132.94052,83.0457,106.94268
"9957",132.95386,82.62577,106.61793
"9958",132.9672,82.30595,106.38016
"9959",132.98053,82.0618,106.20807
"9960",132.99387,81.85916,106.06986
"9961",133.0072,81.68093,105.94973
"9962",133.02054,81.514915,105.83624
"9963",133.03387,81.375755,105.74442
"9964",133.04721,81.28054,105.6922
"9965",133.06055,81.253685,105.70536
"9966",133.07388,81.29275,105.7836
"9967",133.08722,81.375755,105.907005
"9968",133.10056,81.47097,106.04521
"9969",133.11389,81.54421,106.16442
"9970",133.12723,81.566185,106.23465
"9971",133.14056,81.51736,106.234764
"9972",133.1539,81.3904,106.15523
"9973",133.16724,81.18532,105.99359
"9974",133.18057,80.91188,105.757195
"9975",133.19391,80.58961,105.46342
"9976",133.20724,80.24048,105.13271
"9977",133.22058,79.87915,104.7789
"9978",133.23392,79.5227,104.41867
"9979",133.24725,79.183334,104.06439
"9980",133.26059,78.86839,103.72393
"9981",133.27393,78.58762,103.4078
"9982",133.28726,78.34348,103.11952
"9983",133.3006,78.1384,102.86267
"9984",133.31393,77.96994,102.63604
"9985",133.32727,77.83566,102.438324
"9986",133.3406,77.738,102.273026
"9987",133.35394,77.67452,102.13886
"9988",133.36728,77.64034,102.03201
"9989",133.38062,77.6379,101.95583
"9990",133.39395,77.65499,101.89911
"9991",133.40729,77.68429,101.855125
"9992",133.42062,77.713585,101.81206
"9993",133.43396,77.74044,101.76746
"9994",133.4473,77.75754,101.71395
"9995",133.46063,77.76242,101.64876
"9996",133.47397,77.75998,101.57639
"9997",133.4873,77.75021,101.49663
"9998",133.50064,77.730675,101.406784
"9999",133.51398,77.7087,101.313896
"10000",133.52731,77.679405,101.213
"10001",133.54065,77.64034,101.10142
"10002",133.55399,77.591515,100.97885
"10003",133.56732,77.540245,100.85232
"10004",133.58066,77.47677,100.711975
"10005",133.594,77.41329,100.56965
"10006",133.60733,77.366905,100.44243
"10007",133.62067,77.401085,100.394325
"10008",133.634,77.625694,100.53772
"10009",133.64734,78.17746,101.01529
"10010",133.66068,79.12474,101.90562
"10011",133.67401,80.45045,103.20397
"10012",133.68735,82.02518,104.79278
"10013",133.70068,83.63653,106.467415
"10014",133.71402,85.05501,107.999535
"10015",133.72736,86.10971,109.212204
"10016",133.74069,86.73716,110.03058
"10017",133.75403,86.94957,110.45352
"10018",133.76736,86.81041,110.53153
"10019",133.7807,86.40757,110.341515
"10020",133.79404,85.83139,109.96557
"10021",133.80737,85.16243,109.478836
"10022",133.82071,84.48127,108.959
"10023",133.83405,83.83673,108.4545
"10024",133.84738,83.265434,108.0031
"10025",133.86072,82.78691,107.62662
"10026",133.87405,82.40116,107.32796
"10027",133.88739,82.08865,107.090485
"10028",133.90073,81.82254,106.88964
"10029",133.91406,81.57595,106.700005
"10030",133.9274,81.358665,106.53197
"10031",133.94073,81.1902,106.40596
"10032",133.95407,81.08766,106.340614
"10033",133.9674,81.06813,106.35507
"10034",133.98074,81.12428,106.4446
"10035",133.99408,81.22682,106.582275
"10036",134.00742,81.32693,106.72072
"10037",134.02075,81.3904,106.82566
"10038",134.03409,81.38796,106.86667
"10039",134.04742,81.30984,106.83192
"10040",134.06076,81.15114,106.71415
"10041",134.0741,80.907,106.50598
"10042",134.08743,80.58961,106.216934
"10043",134.10077,80.22095,105.8667
"10044",134.1141,79.818115,105.47077
"10045",134.12744,79.40551,105.05248
"10046",134.14078,79.00023,104.628624
"10047",134.15411,78.61448,104.21163
"10048",134.16745,78.25559,103.80945
"10049",134.18079,77.93332,103.43266
"10050",134.19412,77.645226,103.07999
"10051",134.20746,77.40597,102.76714
"10052",134.2208,77.21309,102.4932
"10053",134.23413,77.06416,102.25719
"10054",134.24747,76.95674,102.05802
"10055",134.2608,76.89082,101.897
"10056",134.27414,76.8542,101.76322
"10057",134.28748,76.84688,101.65759
"10058",134.30081,76.86153,101.57371
"10059",134.31415,76.893265,101.50737
"10060",134.32748,76.93477,101.45179
"10061",134.34082,76.97627,101.39751
"10062",134.35416,77.01778,101.34452
"10063",134.3675,77.049515,101.283066
"10064",134.38083,77.07393,101.21528
"10065",134.39417,77.086136,101.13605
"10066",134.4075,77.08858,101.04743
"10067",134.42084,77.07637,100.944244
"10068",134.43417,77.049515,100.82603
"10069",134.44751,77.01045,100.69476
"10070",134.46085,76.961624,100.55251
"10071",134.47418,76.95186,100.4478
"10072",134.48752,77.07149,100.472176
"10073",134.50085,77.45724,100.76641
"10074",134.51419,78.21896,101.44868
"10075",134.52753,79.40551,102.57957
"10076",134.54086,80.94606,104.10154
"10077",134.5542,82.669716,105.85476
"10078",134.56754,84.34211,107.61058
"10079",134.58087,85.753265,109.157425
"10080",134.59421,86.75426,110.3382
"10081",134.60754,87.308464,111.10348
"10082",134.62088,87.4403,111.4637
"10083",134.63422,87.22301,111.47891
"10084",134.64755,86.73716,111.21878
"10085",134.66089,86.0853,110.77745
"10086",134.67422,85.350426,110.23274
"10087",134.68756,84.60578,109.6553
"10088",134.7009,83.90753,109.100975
"10089",134.71423,83.299614,108.615166
"10090",134.72757,82.79912,108.21778
"10091",134.7409,82.39872,107.904854
"10092",134.75424,82.07645,107.65754
"10093",134.76758,81.80301,107.44899
"10094",134.78091,81.55642,107.25874
"10095",134.79425,81.32937,107.08033
"10096",134.80759,81.13405,106.92655
"10097",134.82092,80.99245,106.82039
"10098",134.83426,80.91432,106.77328
"10099",134.8476,80.902115,106.78964
"10100",134.86093,80.93385,106.84957
"10101",134.87427,80.970474,106.915375
"10102",134.8876,80.98024,106.95547
"10103",134.90094,80.92897,106.93483
"10104",134.91428,80.80202,106.83691
"10105",134.92761,80.59693,106.65688
"10106",134.94095,80.31617,106.394775
"10107",134.95428,79.971924,106.06041
"10108",134.96762,79.58373,105.67134
"10109",134.98096,79.166245,105.240845
"10110",134.9943,78.73899,104.78754
"10111",135.00763,78.314186,104.323326
"10112",135.02097,77.908905,103.865364
"10113",135.0343,77.53292,103.424034
"10114",135.04764,77.19356,103.007576
"10115",135.06097,76.895706,102.622025
"10116",135.07431,76.64423,102.273544
"10117",135.08765,76.4416,101.96604
"10118",135.10098,76.29267,101.70592
"10119",135.11432,76.18524,101.482635
"10120",135.12766,76.11932,101.29751
"10121",135.14099,76.09003,101.14694
"10122",135.15433,76.09247,101.0272
"10123",135.16766,76.11932,100.931946
"10124",135.181,76.16815,100.859505
"10125",135.19434,76.23407,100.80568
"10126",135.20767,76.30976,100.76369
"10127",135.22101,76.38056,100.71917
"10128",135.23434,76.44404,100.66954
"10129",135.24768,76.49287,100.60725
"10130",135.26102,76.51972,100.524506
"10131",135.27435,76.52216,100.41819
"10132",135.28769,76.50996,100.2973
"10133",135.30103,76.48798,100.16627
"10134",135.31436,76.51484,100.083374
"10135",135.3277,76.700386,100.16001
"10136",135.34103,77.18623,100.54275
"10137",135.35437,78.08713,101.35571
"10138",135.3677,79.43725,102.64606
"10139",135.38104,81.15602,104.347244
"10140",135.39438,83.055466,106.282814
"10141",135.40771,84.88411,108.20694
"10142",135.42105,86.41001,109.88547
"10143",135.43439,87.49157,111.167336
"10144",135.44772,88.077515,111.9874
"10145",135.46106,88.1947,112.35701
"10146",135.4744,87.921265,112.33966
"10147",135.48773,87.36462,112.03055
"10148",135.50107,86.63218,111.52826
"10149",135.5144,85.81918,110.922516
"10150",135.52774,85.013504,110.29868
"10151",135.54108,84.27619,109.71804
"10152",135.55441,83.64141,109.21689
"10153",135.56775,83.12871,108.81798
"10154",135.58109,82.72587,108.51291
"10155",135.59442,82.39872,108.27094
"10156",135.60776,82.11063,108.05781
"10157",135.6211,81.83963,107.85277
"10158",135.63443,81.57351,107.644135
"10159",135.64777,81.32693,107.446724
"10160",135.6611,81.12184,107.283104
"10161",135.67444,80.97536,107.17168
"10162",135.68777,80.88258,107.10938
"10163",135.70111,80.82887,107.08325
