"","Time..s.","PPG.trace","Preprocessed.PPG"
"45089",615.78534,87.20836,87.750656
"45090",615.79865,86.02182,86.789375
"45091",615.81195,84.77425,85.72998
"45092",615.82526,83.59014,84.69507
"45093",615.83856,82.53788,83.755
"45094",615.85187,81.64431,82.940735
"45095",615.8652,80.91432,82.26213
"45096",615.8785,80.34791,81.72429
"45097",615.8918,79.954834,81.34209
"45098",615.9051,79.74975,81.13559
"45099",615.9184,79.73754,81.11556
"45100",615.9317,79.903564,81.273384
"45101",615.945,80.19409,81.5609
"45102",615.9583,80.53834,81.91121
"45103",615.9716,80.85573,82.24542
"45104",615.9849,81.075455,82.49189
"45105",615.9982,81.1487,82.59874
"45106",616.01154,81.05104,82.53698
"45107",616.02484,80.77516,82.293945
"45108",616.03815,80.34058,81.88359
"45109",616.05145,79.78638,81.34003
"45110",616.06476,79.15404,80.70101
"45111",616.07806,78.487526,80.008064
"45112",616.0914,77.838104,79.31138
"45113",616.1047,77.23262,78.638336
"45114",616.118,76.700386,78.01962
"45115",616.1313,76.24872,77.46484
"45116",616.1446,75.88739,76.98629
"45117",616.1579,75.61639,76.58677
"45118",616.1712,75.41619,76.24959
"45119",616.1845,75.2868,75.97695
"45120",616.1978,75.23308,75.77595
"45121",616.2111,75.2575,75.651405
"45122",616.2244,75.34295,75.58865
"45123",616.23773,75.47234,75.57252
"45124",616.25104,75.63348,75.59216
"45125",616.26434,75.79706,75.61929
"45126",616.27765,75.9411,75.631996
"45127",616.29095,76.06073,75.62479
"45128",616.30426,76.155945,75.5969
"45129",616.31757,76.21942,75.54025
"45130",616.3309,76.24628,75.44897
"45131",616.3442,76.23407,75.31946
"45132",616.3575,76.192566,75.16027
"45133",616.3708,76.138855,74.98758
"45134",616.3841,76.0827,74.81077
"45135",616.3974,76.053406,74.65906
"45136",616.4107,76.11932,74.60165
"45137",616.424,76.385445,74.7465
"45138",616.4373,76.981155,75.229256
"45139",616.4506,78.013885,76.16765
"45140",616.4639,79.51293,77.60463
"45141",616.47723,81.38064,79.457115
"45142",616.49054,83.41192,81.53154
"45143",616.50385,85.34554,83.571785
"45144",616.51715,86.91783,85.31112
"45145",616.53046,87.957886,86.56735
"45146",616.54376,88.38514,87.243286
"45147",616.55707,88.23132,87.3515
"45148",616.5704,87.59655,86.97395
"45149",616.5837,86.63218,86.24698
"45150",616.597,85.489586,85.31164
"45151",616.6103,84.30549,84.29909
"45152",616.6236,83.17021,83.298355
"45153",616.6369,82.142365,82.369576
"45154",616.6502,81.25613,81.550285
"45155",616.6635,80.51881,80.85222
"45156",616.6768,79.95972,80.30934
"45157",616.6901,79.63012,79.978485
"45158",616.7034,79.554436,79.89124
"45159",616.71674,79.73754,80.060425
"45160",616.73004,80.130615,80.4453
"45161",616.74335,80.66041,80.97917
"45162",616.75665,81.21217,81.551575
"45163",616.76996,81.685814,82.063095
"45164",616.78326,82.00076,82.430725
"45165",616.7966,82.11551,82.607994
"45166",616.8099,82.020294,82.57889
"45167",616.8232,81.74197,82.36369
"45168",616.8365,81.324486,82.00065
"45169",616.8498,80.814224,81.53178
"45170",616.8631,80.255135,80.99813
"45171",616.8764,79.68139,80.43236
"45172",616.8897,79.11986,79.86087
"45173",616.903,78.59251,79.306015
"45174",616.9163,78.12619,78.795715
"45175",616.9296,77.747765,78.358734
"45176",616.94293,77.46212,78.00271
"45177",616.95624,77.264366,77.72565
"45178",616.96954,77.152054,77.52785
"45179",616.98285,77.117874,77.40467
"45180",616.99615,77.154495,77.35123
"45181",617.00946,77.2546,77.36241
"45182",617.02277,77.41085,77.43287
"45183",617.0361,77.59884,77.53995
"45184",617.0494,77.803925,77.67
"45185",617.0627,78.00656,77.80401
"45186",617.076,78.19455,77.9297
"45187",617.0893,78.348366,78.0271
"45188",617.1026,78.46311,78.09023
"45189",617.1159,78.536354,78.11545
"45190",617.1292,78.57053,78.10389
"45191",617.1425,78.57786,78.06654
"45192",617.1558,78.57786,78.0221
"45193",617.1691,78.6218,78.02161
"45194",617.18243,78.81468,78.17142
"45195",617.19574,79.28588,78.605576
"45196",617.20905,80.164795,79.46217
"45197",617.22235,81.51736,80.819885
"45198",617.23566,83.3045,82.65444
"45199",617.24896,85.367516,84.820724
"45200",617.26227,87.44274,87.06368
"45201",617.2756,89.25918,89.1127
"45202",617.2889,90.57755,90.72043
"45203",617.3022,91.26116,91.73459
"45204",617.3155,91.29046,92.1158
"45205",617.3288,90.74601,91.92418
"45206",617.3421,89.76944,91.283424
"45207",617.3554,88.534065,90.35335
"45208",617.3687,87.201035,89.287
"45209",617.382,85.89487,88.205864
"45210",617.3953,84.68635,87.18156
"45211",617.4086,83.60967,86.25133
"45212",617.42194,82.686806,85.44126
"45213",617.43524,81.9324,84.77082
"45214",617.44855,81.36111,84.25991
"45215",617.46185,80.99245,83.933784
"45216",617.47516,80.833755,83.80611
"45217",617.48846,80.85817,83.856575
"45218",617.5018,81.02174,84.04697
"45219",617.5151,81.23903,84.29618
"45220",617.5284,81.427025,84.522896
"45221",617.5417,81.5198,84.66026
"45222",617.555,81.463646,84.6516
"45223",617.5683,81.234146,84.46784
"45224",617.5816,80.82887,84.101135
"45225",617.5949,80.26978,83.56795
"45226",617.6082,79.588615,82.89521
"45227",617.6215,78.82201,82.115746
"45228",617.6348,78.011444,81.26837
"45229",617.64813,77.21553,80.41032
"45230",617.66144,76.46113,79.5689
"45231",617.67474,75.7702,78.76739
"45232",617.68805,75.14763,78.012634
"45233",617.70135,74.61295,77.326324
"45234",617.71466,74.178375,76.723404
"45235",617.72797,73.85123,76.21433
"45236",617.7413,73.6437,75.81466
"45237",617.7546,73.55093,75.523254
"45238",617.7679,73.56313,75.33393
"45239",617.7812,73.64614,75.21579
"45240",617.7945,73.78775,75.158844
"45241",617.8078,73.96353,75.140495
"45242",617.8211,74.161285,75.14961
"45243",617.8344,74.36393,75.1698
"45244",617.8477,74.55436,75.184105
"45245",617.861,74.720375,75.17995
"45246",617.8743,74.85222,75.146805
"45247",617.88763,74.94255,75.07627
"45248",617.90094,74.986496,74.96217
"45249",617.91425,74.99382,74.81283
"45250",617.92755,74.984055,74.64662
"45251",617.94086,74.97673,74.48255
"45252",617.95416,74.99626,74.34511
"45253",617.96747,75.11345,74.30593
"45254",617.9808,75.43816,74.47794
"45255",617.9941,76.11932,75.01655
"45256",618.0074,77.281456,76.05741
"45257",618.0207,78.99046,77.681465
"45258",618.034,81.17555,79.83501
"45259",618.0473,83.62432,82.32051
"45260",618.0606,86.031586,84.841034
"45261",618.0739,88.079956,87.07789
"45262",618.0872,89.532616,88.78305
"45263",618.1005,90.27238,89.82071
"45264",618.11383,90.31144,90.180786
"45265",618.12714,89.762115,89.9537
"45266",618.14044,88.80751,89.30416
"45267",618.15375,87.640495,88.412384
"45268",618.16705,86.43687,87.447525
"45269",618.18036,85.32357,86.53538
"45270",618.19366,84.368965,85.74713
"45271",618.207,83.59014,85.104836
"45272",618.2203,82.97002,84.5969
"45273",618.2336,82.48661,84.20631
"45274",618.2469,82.13504,83.93244
"45275",618.2602,81.91287,83.77699
"45276",618.2735,81.82254,83.74644
"45277",618.2868,81.864044,83.844894
"45278",618.3001,82.005646,84.04475
"45279",618.3134,82.18875,84.29053
"45280",618.3267,82.34745,84.517624
"45281",618.34,82.42069,84.66422
"45282",618.35333,82.35966,84.67883
"45283",618.36664,82.14725,84.54016
"45284",618.37994,81.7908,84.25082
"45285",618.39325,81.324486,83.84046
"45286",618.40656,80.77028,83.327644
"45287",618.41986,80.17456,82.756
"45288",618.43317,79.571526,82.15842
"45289",618.4465,78.98558,81.55908
"45290",618.4598,78.44114,80.98294
"45291",618.4731,77.960175,80.45326
"45292",618.4864,77.55001,79.979355
"45293",618.4997,77.22041,79.5732
"45294",618.513,76.96895,79.23487
"45295",618.5263,76.79561,78.96681
"45296",618.5396,76.69062,78.76169
"45297",618.5529,76.64912,78.61677
"45298",618.5662,76.65888,78.52182
"45299",618.5795,76.715034,78.473564
"45300",618.59283,76.80293,78.45881
"45301",618.60614,76.90791,78.46388
"45302",618.61945,77.01045,78.469795
"45303",618.63275,77.10567,78.47159
"45304",618.64606,77.17891,78.454384
"45305",618.65936,77.22774,78.415054
"45306",618.67267,77.24971,78.350395
"45307",618.686,77.24971,78.26445
"45308",618.6993,77.225296,78.15409
"45309",618.7126,77.16914,78.01123
"45310",618.7259,77.086136,77.83976
"45311",618.7392,76.9836,77.646164
"45312",618.7525,76.87129,77.4396
"45313",618.7658,76.773636,77.24417
"45314",618.7791,76.717476,77.08719
"45315",618.7924,76.75899,77.02612
"45316",618.8057,77.015335,77.18119
"45317",618.81903,77.63546,77.708046
"45318",618.83234,78.75365,78.75234
"45319",618.84564,80.42359,80.38334
"45320",618.85895,82.57694,82.54993
"45321",618.87225,85.013504,85.06702
"45322",618.88556,87.42321,87.63339
"45323",618.89886,89.48867,89.93083
"45324",618.9122,90.968185,91.70687
"45325",618.9255,91.734795,92.81624
"45326",618.9388,91.80072,93.24888
"45327",618.9521,91.28069,93.097626
"45328",618.9654,90.34562,92.515076
"45329",618.9787,89.18593,91.67869
"45330",618.992,87.96765,90.74747
"45331",619.0053,86.81529,89.8441
"45332",619.0186,85.79233,89.03411
"45333",619.0319,84.91585,88.33864
"45334",619.0452,84.16632,87.74273
"45335",619.05853,83.53155,87.23815
"45336",619.07184,83.001755,86.81872
"45337",619.08514,82.579384,86.49015
"45338",619.09845,82.27909,86.27046
"45339",619.11176,82.11551,86.1781
"45340",619.12506,82.0618,86.1905
"45341",619.13837,82.06668,86.25981
"45342",619.1517,82.0618,86.31951
"45343",619.165,81.99588,86.31802
"45344",619.1783,81.8201,86.20461
"45345",619.1916,81.514915,85.95631
"45346",619.2049,81.08034,85.56907
"45347",619.2182,80.54078,85.06327
"45348",619.2315,79.92554,84.46493
"45349",619.2448,79.27123,83.8083
"45350",619.2581,78.61692,83.13121
"45351",619.2714,77.99191,82.46298
"45352",619.2847,77.418175,81.82649
"45353",619.29803,76.910355,81.23799
"45354",619.31134,76.47578,80.70686
"45355",619.32465,76.11444,80.2354
"45356",619.33795,75.83124,79.83077
"45357",619.35126,75.62127,79.49053
"45358",619.36456,75.47967,79.2121
"45359",619.37787,75.3991,78.99027
"45360",619.3912,75.36492,78.81232
"45361",619.4045,75.36248,78.66503
"45362",619.4178,75.37713,78.53476
"45363",619.4311,75.39422,78.40739
"45364",619.4444,75.406425,78.275665
"45365",619.4577,75.41131,78.137
"45366",619.471,75.39666,77.97896
"45367",619.4843,75.369804,77.80825
"45368",619.4976,75.32342,77.61717
"45369",619.5109,75.2575,77.40511
"45370",619.52423,75.1696,77.169014
"45371",619.53754,75.06462,76.913086
"45372",619.55084,74.94499,76.63923
"45373",619.56415,74.813156,76.34943
"45374",619.57745,74.65446,76.02864
"45375",619.59076,74.476234,75.68337
"45376",619.60406,74.302895,75.33742
"45377",619.6174,74.16861,75.0251
"45378",619.6307,74.1149,74.78916
"45379",619.644,74.2272,74.71756
"45380",619.6573,74.63981,74.94977
"45381",619.6706,75.457695,75.60015
"45382",619.6839,76.73701,76.73752
"45383",619.6972,78.450905,78.34945
"45384",619.7105,80.448006,80.29814
"45385",619.7238,82.48173,82.34586
"45386",619.7371,84.26887,84.210556
"45387",619.7504,85.59457,85.669655
"45388",619.76373,86.33189,86.5818
"45389",619.77704,86.46616,86.91395
"45390",619.79034,86.082855,86.732704
"45391",619.80365,85.32845,86.16839
"45392",619.81696,84.36652,85.37297
"45393",619.83026,83.35088,84.49378
"45394",619.84357,82.408485,83.6561
"45395",619.8569,81.600365,82.92324
"45396",619.8702,80.94118,82.314064
"45397",619.8835,80.4065,81.8088
"45398",619.8968,79.98169,81.39669
"45399",619.9101,79.66186,81.07629
"45400",619.9234,79.447014,80.850876
"45401",619.9367,79.3518,80.73838
"45402",619.95,79.37621,80.74254
"45403",619.9633,79.49096,80.83779
"45404",619.9766,79.64965,80.980576
"45405",619.9899,79.7937,81.11368
"45406",620.00323,79.87427,81.1878
"45407",620.01654,79.84985,81.159454
"45408",620.02985,79.70092,81.00583
"45409",620.04315,79.43481,80.73037
"45410",620.05646,79.063705,80.341606
"45411",620.06976,78.6096,79.85824
"45412",620.08307,78.099335,79.30453
"45413",620.0964,77.574425,78.72022
"45414",620.1097,77.05684,78.12684
"45415",620.123,76.56855,77.54658
"45416",620.1363,76.12665,76.997444
"45417",620.1496,75.75067,76.50043
"45418",620.1629,75.43572,76.05269
"45419",620.1762,75.18913,75.66347
"45420",620.1895,75.01091,75.33491
"45421",620.2028,74.88884,75.05693
"45422",620.2161,74.810715,74.819084
"45423",620.22943,74.78386,74.630066
"45424",620.24274,74.813156,74.49636
"45425",620.25604,74.879074,74.40019
"45426",620.26935,74.97429,74.33538
"45427",620.28265,75.08171,74.28575
"45428",620.29596,75.176926,74.22727
"45429",620.30927,75.24284,74.14247
"45430",620.3226,75.27459,74.02556
"45431",620.3359,75.27947,73.882774
"45432",620.3492,75.25262,73.708405
"45433",620.3625,75.1989,73.50633
"45434",620.3758,75.11833,73.275734
"45435",620.3891,75.01579,73.020645
"45436",620.4024,74.90837,72.75747
"45437",620.4157,74.813156,72.50314
"45438",620.429,74.74479,72.27269
"45439",620.4423,74.71549,72.07917
"45440",620.4556,74.76677,71.96531
"45441",620.46893,74.984055,72.01906
"45442",620.48224,75.47967,72.357925
"45443",620.49554,76.3415,73.0785
"45444",620.50885,77.608604,74.23128
"45445",620.52216,79.217514,75.76546
"45446",620.53546,81.01442,77.53791
"45447",620.54877,82.77226,79.32745
"45448",620.5621,84.26887,80.91069
"45449",620.5754,85.33822,82.11344
"45450",620.5887,85.89731,82.83935
"45451",620.602,85.960785,83.08711
"45452",620.6153,85.6141,82.9267
"45453",620.6286,84.97444,82.46248
"45454",620.6419,84.18341,81.8269
"45455",620.6552,83.36065,81.134865
"45456",620.6685,82.58427,80.4635
"45457",620.6818,81.88602,79.84601
"45458",620.6951,81.28054,79.29947
"45459",620.70844,80.7776,78.83655
"45460",620.72174,80.38453,78.46777
"45461",620.73505,80.11841,78.21367
"45462",620.74835,80.00366,78.10262
"45463",620.76166,80.0354,78.134476
"45464",620.77496,80.18677,78.28695
"45465",620.78827,80.413826,78.519844
"45466",620.8016,80.65064,78.76959
"45467",620.8149,80.84108,78.98036
"45468",620.8282,80.93141,79.09698
"45469",620.8415,80.89723,79.0919
"45470",620.8548,80.723885,78.946594
"45471",620.8681,80.41627,78.6616
"45472",620.8814,79.99634,78.25468
"45473",620.8947,79.50561,77.76383
"45474",620.908,78.97826,77.22103
"45475",620.9213,78.44358,76.65443
"45476",620.93463,77.93088,76.09309
"45477",620.94794,77.45968,75.55723
"45478",620.96124,77.04463,75.0628
"45479",620.97455,76.68574,74.61155
"45480",620.98785,76.40009,74.222336
"45481",621.00116,76.18768,73.89743
"45482",621.01447,76.04608,73.636696
"45483",621.0278,75.96307,73.43013
"45484",621.0411,75.93866,73.279564
"45485",621.0544,75.96307,73.17706
"45486",621.0677,76.02899,73.11683
"45487",621.081,76.11688,73.08063
"45488",621.0943,76.21698,73.05938
"45489",621.1076,76.32441,73.04859
"45490",621.1209,76.42939,73.03871
"45491",621.1342,76.51484,73.01258
"45492",621.1475,76.58808,72.97691
"45493",621.1608,76.64179,72.924
"45494",621.17413,76.67353,72.8508
"45495",621.18744,76.67597,72.74929
"45496",621.20074,76.65888,72.62833
"45497",621.21405,76.627144,72.49218
"45498",621.22736,76.59785,72.35748
"45499",621.24066,76.60029,72.25361
"45500",621.25397,76.6955,72.242584
"45501",621.2673,76.96651,72.410324
"45502",621.2806,77.51339,72.86241
"45503",621.2939,78.40696,73.678276
"45504",621.3072,79.65209,74.87363
"45505",621.3205,81.17067,76.38133
"45506",621.3338,82.791794,78.03904
"45507",621.3471,84.31281,79.6473
"45508",621.3604,85.55062,81.01988
"45509",621.3737,86.383156,82.02587
"45510",621.387,86.76402,82.60621
"45511",621.4003,86.729836,82.783394
"45512",621.41364,86.37095,82.63481
"45513",621.42694,85.79965,82.2626
"45514",621.44025,85.12337,81.767555
"45515",621.45355,84.44709,81.25138
"45516",621.46686,83.82941,80.77267
"45517",621.48016,83.29717,80.3601
"45518",621.49347,82.847946,80.01391
"45519",621.5068,82.48173,79.73669
"45520",621.5201,82.210724,79.543236
"45521",621.5334,82.05203,79.45363
"45522",621.5467,82.022736,79.48846
"45523",621.56,82.127716,79.65665
"45524",621.5733,82.337685,79.933105
"45525",621.5866,82.60136,80.26983
"45526",621.5999,82.862595,80.61236
"45527",621.6132,83.06279,80.90201
"45528",621.6265,83.16533,81.10026
"45529",621.63983,83.1458,81.17964
"45530",621.65314,83.00664,81.13879
"45531",621.66644,82.75517,80.98128
"45532",621.67975,82.41581,80.72801
"45533",621.69305,82.01785,80.40555
"45534",621.70636,81.58816,80.03891
"45535",621.71967,81.1487,79.64908
"45536",621.733,80.72144,79.25772
"45537",621.7463,80.33082,78.88964
"45538",621.7596,79.98901,78.558174
"45539",621.7729,79.7058,78.27462
"45540",621.7862,79.48852,78.04814
"45541",621.7995,79.32494,77.86858
"45542",621.8128,79.21263,77.735176
"45543",621.8261,79.13695,77.63489
"45544",621.8394,79.09544,77.566414
"45545",621.8527,79.080795,77.5235
"45546",621.866,79.08568,77.49966
"45547",621.87933,79.10765,77.49306
"45548",621.89264,79.132065,77.489586
"45549",621.90594,79.149155,77.47955
"45550",621.91925,79.151596,77.45541
"45551",621.93256,79.12962,77.40692
"45552",621.94586,79.08568,77.33578
"45553",621.95917,79.01732,77.238846
"45554",621.9725,78.92943,77.12025
"45555",621.9858,78.82689,76.98425
"45556",621.9991,78.72678,76.84749
"45557",622.0124,78.643776,76.72469
"45558",622.0257,78.61936,76.6579
"45559",622.039,78.73167,76.72706
"45560",622.0523,79.08568,77.041435
"45561",622.0656,79.76929,77.69647
"45562",622.0789,80.816666,78.73664
"45563",622.0922,82.178986,80.12448
"45564",622.1055,83.72686,81.74045
"45565",622.11884,85.262535,83.392586
"45566",622.13214,86.58335,84.87785
"45567",622.14545,87.55016,86.05039
"45568",622.15875,88.08972,86.8259
"45569",622.17206,88.216675,87.20566
"45570",622.18536,87.989624,87.23538
"45571",622.19867,87.5111,87.00653
"45572",622.212,86.8983,86.62845
"45573",622.2253,86.25376,86.19948
"45574",622.2386,85.645836,85.78698
"45575",622.2519,85.11116,85.428734
"45576",622.2652,84.644844,85.12214
"45577",622.2785,84.23956,84.86201
"45578",622.2918,83.88312,84.63805
"45579",622.3051,83.577934,84.45421
"45580",622.3184,83.34356,84.33164
"45581",622.3317,83.19707,84.289635
"45582",622.34503,83.13847,84.33095
"45583",622.35834,83.140915,84.431465
"45584",622.37164,83.16289,84.55159
"45585",622.38495,83.160446,84.64799
"45586",622.39825,83.106735,84.69304
"45587",622.41156,82.97002,84.653404
"45588",622.42487,82.74784,84.52404
"45589",622.4382,82.44511,84.307175
"45590",622.4515,82.07156,84.01004
"45591",622.4648,81.63943,83.64264
"45592",622.4781,81.17555,83.229996
"45593",622.4914,80.69703,82.78821
"45594",622.5047,80.23071,82.34367
"45595",622.518,79.79614,81.91631
"45596",622.5313,79.40551,81.51931
"45597",622.5446,79.061264,81.15649
"45598",622.5579,78.77074,80.836624
"45599",622.5712,78.52659,80.55406
"45600",622.58453,78.32395,80.30538
"45601",622.59784,78.150604,80.07966
"45602",622.61115,78.00656,79.87782
"45603",622.62445,77.88449,79.69346
"45604",622.63776,77.77951,79.52237
"45605",622.65106,77.68429,79.35776
"45606",622.66437,77.60128,79.202385
"45607",622.6777,77.5256,79.05174
"45608",622.691,77.44991,78.898735
"45609",622.7043,77.37179,78.74092
"45610",622.7176,77.2839,78.5709
"45611",622.7309,77.188675,78.3908
"45612",622.7442,77.07881,78.193085
"45613",622.7575,76.95674,77.97973
"45614",622.7708,76.822464,77.75035
"45615",622.7841,76.67841,77.507
"45616",622.7974,76.53193,77.25672
"45617",622.8107,76.387886,77.0043
"45618",622.82404,76.263374,76.766914
"45619",622.83734,76.17059,76.557365
"45620",622.85065,76.1413,76.4084
"45621",622.86395,76.241394,76.38792
"45622",622.87726,76.56367,76.592735
"45623",622.89056,77.196,77.11768
"45624",622.9039,78.170135,78.004196
"45625",622.9172,79.43481,79.211685
"45626",622.9305,80.867935,80.62715
"45627",622.9438,82.27665,82.06299
"45628",622.9571,83.46563,83.32311
"45629",622.9704,84.300606,84.26639
"45630",622.9837,84.71809,84.81826
"45631",622.997,84.73762,84.98523
"45632",623.0103,84.456856,84.852516
"45633",623.0236,83.99054,84.525475
"45634",623.0369,83.4461,84.105736
"45635",623.05023,82.92119,83.688515
"45636",623.06354,82.4744,83.333015
"45637",623.07684,82.11795,83.05389
"45638",623.09015,81.83475,82.83687
"45639",623.10345,81.59548,82.65494
"45640",623.11676,81.36843,82.477745
"45641",623.13007,81.14137,82.29345
"45642",623.1434,80.91676,82.10451
"45643",623.1567,80.719,81.935394
"45644",623.17,80.567635,81.806496
"45645",623.1833,80.465096,81.721695
"45646",623.1966,80.40406,81.67519
"45647",623.2099,80.35035,81.63411
"45648",623.2232,80.26246,81.55717
"45649",623.2365,80.12573,81.42864
"45650",623.2498,79.940186,81.247025
"45651",623.2631,79.710686,81.015656
"45652",623.2764,79.44213,80.73806
"45653",623.28973,79.14671,80.42521
"45654",623.30304,78.839096,80.09093
"45655",623.31635,78.53147,79.747025
"45656",623.32965,78.23117,79.40083
"45657",623.34296,77.95773,79.07212
"45658",623.35626,77.713585,78.76415
"45659",623.36957,77.50851,78.487625
"45660",623.3829,77.33517,78.23643
"45661",623.3962,77.19844,78.016426
"45662",623.4095,77.09346,77.8239
"45663",623.4228,77.01778,77.65739
"45664",623.4361,76.95918,77.5056
"45665",623.4494,76.91524,77.36663
"45666",623.4627,76.88594,77.24094
"45667",623.476,76.87373,77.13142
"45668",623.4893,76.876175,77.03616
"45669",623.5026,76.88594,76.94831
"45670",623.5159,76.90303,76.86809
"45671",623.52924,76.91768,76.78596
"45672",623.54254,76.929886,76.70184
"45673",623.55585,76.929886,76.6059
"45674",623.56915,76.93233,76.512405
"45675",623.58246,76.927444,76.41166
"45676",623.59576,76.910355,76.29855
"45677",623.6091,76.86885,76.1605
"45678",623.6224,76.80293,75.996735
"45679",623.6357,76.72968,75.82358
"45680",623.649,76.66865,75.66035
"45681",623.6623,76.627144,75.51474
"45682",623.6756,76.61738,75.399574
"45683",623.6889,76.66132,75.337814
"45684",623.7022,76.788284,75.36044
"45685",623.7155,77.069046,75.54084
"45686",623.7288,77.57931,75.95951
"45687",623.7421,78.37034,76.6749
"45688",623.75543,79.42504,77.67867
"45689",623.76874,80.64332,78.87898
"45690",623.78204,81.86893,80.124695
"45691",623.79535,82.93828,81.25245
"45692",623.80865,83.719536,82.12553
"45693",623.82196,84.156555,82.67878
"45694",623.83527,84.266426,82.91854
"45695",623.8486,84.11749,82.90293
"45696",623.8619,83.79767,82.71178
"45697",623.8752,83.40215,82.43494
"45698",623.8885,83.00664,82.14574
"45699",623.9018,82.65751,81.890564
"45700",623.9151,82.36942,81.685524
"45701",623.9284,82.13748,81.527626
"45702",623.9417,81.94461,81.40155
"45703",623.955,81.761505,81.27921
"45704",623.9683,81.58083,81.15359
"45705",623.9816,81.409935,81.03209
"45706",623.99493,81.25857,80.92478
"45707",624.00824,81.143814,80.84936
"45708",624.02155,81.06813,80.80942
"45709",624.03485,81.02174,80.79641
"45710",624.04816,80.97536,80.78195
"45711",624.06146,80.90944,80.74651
"45712",624.07477,80.81178,80.67728
"45713",624.0881,80.66773,80.55859
"45714",624.1014,80.479744,80.39147
"45715",624.1147,80.25269,80.17941
"45716",624.128,79.99634,79.930954
"45717",624.1413,79.71801,79.65251
"45718",624.1546,79.429924,79.35561
"45719",624.1679,79.14671,79.05459
"45720",624.1812,78.873276,78.754486
"45721",624.1945,78.61692,78.46292
"45722",624.2078,78.38987,78.19265
"45723",624.2211,78.20676,77.95922
"45724",624.23444,78.065155,77.76158
"45725",624.24774,77.960175,77.59614
"45726",624.26105,77.88937,77.46159
"45727",624.27435,77.840546,77.34681
"45728",624.28766,77.80148,77.240265
"45729",624.30096,77.769745,77.139824
"45730",624.3143,77.752655,77.05304
"45731",624.3276,77.74532,76.97548
"45732",624.3409,77.74044,76.90014
"45733",624.3542,77.738,76.82709
"45734",624.3675,77.733116,76.75152
"45735",624.3808,77.72335,76.67091
"45736",624.3941,77.7087,76.58512
"45737",624.4074,77.68917,76.49399
"45738",624.4207,77.6672,76.3998
"45739",624.434,77.63302,76.292725
"45740",624.4473,77.5964,76.18214
"45741",624.46063,77.557335,76.06796
"45742",624.47394,77.51583,75.95013
"45743",624.48724,77.47433,75.83099
"45744",624.50055,77.44015,75.71789
"45745",624.51385,77.420616,75.61836
"45746",624.52716,77.42794,75.54508
"45747",624.54047,77.506065,75.54283
"45748",624.5538,77.72335,75.68218
"45749",624.5671,78.150604,76.03829
"45750",624.5804,78.82689,76.656784
"45751",624.5937,79.73754,77.53078
"45752",624.607,80.799576,78.58461
"45753",624.6203,81.864044,79.674065
"45754",624.6336,82.774704,80.642975
"45755",624.6469,83.4168,81.37178
"45756",624.6602,83.74883,81.810585
"45757",624.6735,83.792786,81.97169
"45758",624.6868,83.61944,81.91686
"45759",624.70013,83.30938,81.71991
"45760",624.71344,82.94316,81.45711
"45761",624.72675,82.58427,81.190186
"45762",624.74005,82.262,80.94868
"45763",624.75336,82.003204,80.76057
"45764",624.76666,81.80789,80.62785
"45765",624.77997,81.651634,80.52809
"45766",624.7933,81.512474,80.440544
"45767",624.8066,81.38552,80.360855
"45768",624.8199,81.27566,80.29429
"45769",624.8332,81.1902,80.248695
"45770",624.8465,81.14137,80.23706
"45771",624.8598,81.13161,80.26296
"45772",624.8731,81.146255,80.31297
"45773",624.8864,81.15358,80.35612
"45774",624.8997,81.13161,80.37019
"45775",624.913,81.06325,80.3372
"45776",624.92633,80.94118,80.24835
"45777",624.93964,80.77028,80.106865
"45778",624.95294,80.56031,79.92097
"45779",624.96625,80.325935,79.7041
"45780",624.97955,80.076904,79.465256
"45781",624.99286,79.82056,79.21131
"45782",625.00616,79.56664,78.95179
"45783",625.0195,79.32494,78.69655
"45784",625.0328,79.10033,78.450836
"45785",625.0461,78.907455,78.22985
"45786",625.0594,78.74876,78.03701
"45787",625.0727,78.626686,77.87584
"45788",625.086,78.536354,77.74259
"45789",625.0993,78.467995,77.628494
"45790",625.1126,78.42161,77.53423
"45791",625.1259,78.38743,77.45073
"45792",625.1392,78.363014,77.37592
"45793",625.1525,78.348366,77.31012
"45794",625.16583,78.34104,77.25118
"45795",625.17914,78.33616,77.19446
"45796",625.19244,78.331276,77.13758
"45797",625.20575,78.32639,77.08055
"45798",625.21906,78.31663,77.018486
"45799",625.23236,78.30442,76.953674
"45800",625.24567,78.28489,76.88116
"45801",625.259,78.25803,76.800705
"45802",625.2723,78.22629,76.71452
"45803",625.2856,78.184784,76.61759
"45804",625.2989,78.14328,76.51936
"45805",625.3122,78.09445,76.41251
"45806",625.3255,78.048065,76.30658
"45807",625.3388,77.99924,76.196754
"45808",625.3521,77.95285,76.087845
"45809",625.3654,77.92111,75.992134
"45810",625.3787,77.91379,75.919846
"45811",625.392,77.96506,75.90592
"45812",625.40533,78.13107,76.00835
"45813",625.41864,78.4802,76.29907
"45814",625.43195,79.05882,76.8302
"45815",625.44525,79.86206,77.60403
"45816",625.45856,80.82399,78.561646
"45817",625.47186,81.8201,79.5835
"45818",625.48517,82.70878,80.52906
"45819",625.4985,83.370415,81.275345
"45820",625.5118,83.74395,81.7542
"45821",625.5251,83.844055,81.971306
"45822",625.5384,83.719536,81.96691
"45823",625.5517,83.44366,81.80727
"45824",625.565,83.087204,81.558426
"45825",625.5783,82.720985,81.28868
"45826",625.5916,82.39872,81.051445
"45827",625.6049,82.13992,80.86761
"45828",625.6182,81.94461,80.73917
"45829",625.63153,81.7908,80.646126
"45830",625.64484,81.66384,80.57513
"45831",625.65814,81.55398,80.51726
"45832",625.67145,81.46853,80.48037
"45833",625.68475,81.4197,80.47743
"45834",625.69806,81.4197,80.5218
"45835",625.71136,81.45388,80.60034
"45836",625.7247,81.50027,80.69216
"45837",625.738,81.53933,80.77811
"45838",625.7513,81.54421,80.83109
"45839",625.7646,81.50027,80.8354
"45840",625.7779,81.39773,80.77975
"45841",625.7912,81.24391,80.66961
"45842",625.8045,81.04372,80.508286
"45843",625.8178,80.80446,80.30164
"45844",625.8311,80.5481,80.07043
"45845",625.8444,80.289314,79.828766
"45846",625.8577,80.03784,79.586334
"45847",625.87103,79.80835,79.358025
"45848",625.88434,79.59838,79.14207
"45849",625.89764,79.40795,78.93909
"45850",625.91095,79.237045,78.74968
"45851",625.92426,79.097885,78.58668
"45852",625.93756,78.98558,78.44618
"45853",625.95087,78.905014,78.333916
"45854",625.9642,78.853745,78.24843
"45855",625.9775,78.82445,78.18331
"45856",625.9908,78.802475,78.1246
"45857",626.0041,78.78294,78.06765
"45858",626.0174,78.76097,78.007645
"45859",626.0307,78.73899,77.946945
"45860",626.044,78.71946,77.88801
"45861",626.0573,78.69993,77.82846
"45862",626.0706,78.677956,77.76586
"45863",626.0839,78.64866,77.69525
"45864",626.0972,78.6096,77.61396
"45865",626.11053,78.56321,77.524124
"45866",626.12384,78.50706,77.42307
"45867",626.13715,78.44602,77.315384
"45868",626.15045,78.382545,77.20335
"45869",626.16376,78.32395,77.09421
"45870",626.17706,78.2678,76.98568
"45871",626.19037,78.21896,76.88271
"45872",626.2037,78.17258,76.78067
"45873",626.217,78.14328,76.69427
"45874",626.2303,78.135956,76.62892
"45875",626.2436,78.19211,76.62682
"45876",626.2569,78.37766,76.75588
"45877",626.2702,78.75853,77.08605
"45878",626.2835,79.37133,77.66006
"45879",626.2968,80.19653,78.465614
"45880",626.3101,81.15846,79.433685
"45881",626.3234,82.12283,80.43426
"45882",626.33673,82.96025,81.33801
"45883",626.35004,83.56817,82.03844
"45884",626.36334,83.90509,82.48686
"45885",626.37665,83.983215,82.68702
"45886",626.38995,83.83917,82.66745
"45887",626.40326,83.54131,82.48956
"45888",626.41656,83.175095,82.23401
"45889",626.4299,82.81621,81.97434
"45890",626.4432,82.50858,81.75472
"45891",626.4565,82.26444,81.588974
"45892",626.4698,82.07889,81.47418
"45893",626.4831,81.92508,81.38534
"45894",626.4964,81.78348,81.303894
"45895",626.5097,81.654076,81.230225
"45896",626.523,81.55398,81.181816
"45897",626.5363,81.497826,81.174225
"45898",626.5496,81.50271,81.225914
"45899",626.5629,81.5613,81.33147
"45900",626.57623,81.651634,81.47059
"45901",626.58954,81.74197,81.61253
"45902",626.60284,81.80057,81.72557
"45903",626.61615,81.79813,81.779396
"45904",626.62946,81.71511,81.75257
"45905",626.64276,81.55642,81.64748
"45906",626.65607,81.341576,81.48127
"45907",626.6694,81.08522,81.26684
"45908",626.6827,80.80202,81.01755
"45909",626.696,80.516365,80.75696
"45910",626.7093,80.235596,80.492325
"45911",626.7226,79.97681,80.2409
"45912",626.7359,79.742424,80.00579
"45913",626.7492,79.53979,79.795105
"45914",626.7625,79.361565,79.6025
"45915",626.7758,79.21263,79.43362
"45916",626.7891,79.09056,79.28694
"45917",626.8024,78.99779,79.16575
"45918",626.81573,78.92943,79.06607
"45919",626.82904,78.87816,78.981346
"45920",626.84235,78.83421,78.90234
"45921",626.85565,78.802475,78.834175
"45922",626.86896,78.7805,78.77478
"45923",626.88226,78.75853,78.7147
"45924",626.89557,78.74143,78.658806
"45925",626.9089,78.72434,78.60239
"45926",626.9222,78.70481,78.54299
"45927",626.9355,78.677956,78.47566
"45928",626.9488,78.641335,78.39773
"45929",626.9621,78.59983,78.31377
"45930",626.9754,78.55833,78.22851
"45931",626.9887,78.51194,78.13707
"45932",627.002,78.46067,78.0393
"45933",627.0153,78.397194,77.92772
"45934",627.0286,78.31907,77.79951
"45935",627.04193,78.23605,77.66396
"45936",627.05524,78.170135,77.54292
"45937",627.06854,78.12375,77.439354
"45938",627.08185,78.1091,77.36607
"45939",627.09515,78.150604,77.34849
"45940",627.10846,78.27512,77.415215
"45941",627.12177,78.551,77.63719
"45942",627.1351,79.04173,78.08264
"45943",627.1484,79.77661,78.787575
"45944",627.1617,80.719,79.722984
"45945",627.175,81.76883,80.79528
"45946",627.1883,82.78203,81.863754
"45947",627.2016,83.62676,82.795425
"45948",627.2149,84.210266,83.49226
"45949",627.2282,84.505684,83.91925
"45950",627.2415,84.542305,84.09667
"45951",627.2548,84.36164,84.05795
"45952",627.2681,84.03937,83.87198
"45953",627.28143,83.63897,83.59781
"45954",627.29474,83.23369,83.306244
"45955",627.30804,82.865036,83.03864
"45956",627.32135,82.54276,82.8059
"45957",627.33466,82.27177,82.614365
"45958",627.34796,82.037384,82.45097
"45959",627.36127,81.832306,82.30956
"45960",627.3746,81.65896,82.193474
"45961",627.3879,81.54665,82.13301
"45962",627.4012,81.50027,82.13496
"45963",627.4145,81.51736,82.19893
"45964",627.4278,81.57351,82.3025
"45965",627.4411,81.6321,82.41026
"45966",627.4544,81.62966,82.458824
"45967",627.4677,81.52224,82.40233
"45968",627.481,81.2781,82.20576
"45969",627.4943,80.885025,81.85262
"45970",627.5076,80.3357,81.330956
"45971",627.52094,79.6643,80.670044
"45972",627.53424,78.89769,79.892944
"45973",627.54755,78.07248,79.03329
"45974",627.56085,77.222855,78.12343
"45975",627.57416,76.385445,77.199234
"45976",627.58746,75.58709,76.287926
"45977",627.60077,74.8571,75.42004
"45978",627.6141,74.21011,74.612335
"45979",627.6274,73.653465,73.874756
"45980",627.6407,73.199356,73.22232
"45981",627.654,72.85756,72.66801
"45982",627.6673,72.63538,72.22263
"45983",627.6806,72.532845,71.88995
"45984",627.6939,72.54017,71.663925
"45985",627.7072,72.63538,71.52602
"45986",627.7205,72.796524,71.457016
"45987",627.7338,72.98695,71.42234
"45988",627.74713,73.196915,71.41315
"45989",627.76044,73.41909,71.42273
"45990",627.77374,73.64126,71.43925
"45991",627.78705,73.85367,71.45295
"45992",627.80035,74.056305,71.46352
"45993",627.81366,74.23453,71.456
"45994",627.82697,74.371254,71.41256
"45995",627.8403,74.45426,71.31967
"45996",627.8536,74.47135,71.16346
"45997",627.8669,74.42252,70.941864
"45998",627.8802,74.31022,70.655266
"45999",627.8935,74.14908,70.31632
"46000",627.9068,73.96109,69.945496
"46001",627.9201,73.777985,69.57368
"46002",627.9334,73.62661,69.22787
"46003",627.9467,73.53872,68.94081
"46004",627.96,73.57778,68.77796
"46005",627.9733,73.81705,68.816536
"46006",627.98663,74.32975,69.136024
"46007",627.99994,75.157394,69.786476
"46008",628.01324,76.27558,70.753334
"46009",628.02655,77.60128,71.96265
"46010",628.03986,78.98802,73.27443
"46011",628.05316,80.28199,74.53677
"46012",628.06647,81.356224,75.61982
"46013",628.0798,82.127716,76.43369
"46014",628.0931,82.59159,76.96406
"46015",628.1064,82.77959,77.23304
"46016",628.1197,82.75273,77.293045
"46017",628.133,82.58671,77.21304
"46018",628.1463,82.35966,77.066826
"46019",628.1596,82.127716,76.90862
"46020",628.1729,81.92752,76.77492
"46021",628.1862,81.77615,76.683784
"46022",628.1995,81.668724,76.63186
"46023",628.2128,81.61013,76.62541
"46024",628.22614,81.60525,76.670845
"46025",628.23944,81.66628,76.78204
"46026",628.25275,81.80057,76.9684
"46027",628.26605,82.01053,77.23463
"46028",628.27936,82.27909,77.56602
"46029",628.29266,82.5745,77.93265
"46030",628.30597,82.85039,78.28899
"46031",628.3193,83.070114,78.597786
"46032",628.3326,83.20195,78.82556
"46033",628.3459,83.23369,78.95736
"46034",628.3592,83.16289,78.98761
"46035",628.3725,83.00664,78.9302
"46036",628.3858,82.78203,78.799545
"46037",628.3991,82.511024,78.61548
"46038",628.4124,82.213165,78.39609
"46039",628.4257,81.90311,78.15519
"46040",628.439,81.59304,77.904594
"46041",628.45233,81.29275,77.65408
"46042",628.46564,81.0193,77.421036
"46043",628.47894,80.77516,77.20875
"46044",628.49225,80.56275,77.02056
"46045",628.50555,80.37965,76.85504
"46046",628.51886,80.216064,76.70332
"46047",628.53217,80.07202,76.56603
"46048",628.5455,79.94507,76.44133
"46049",628.5588,79.83765,76.33219
"46050",628.5721,79.73998,76.229454
"46051",628.5854,79.65209,76.13344
"46052",628.5987,79.571526,76.042
"46053",628.612,79.48852,75.9456
"46054",628.6253,79.40063,75.84173
"46055",628.6386,79.30785,75.730225
"46056",628.6519,79.21507,75.615814
"46057",628.6652,79.11986,75.49607
"46058",628.6785,79.01732,75.36603
"46059",628.69183,78.9099,75.2279
"46060",628.70514,78.79271,75.076645
"46061",628.71844,78.66575,74.91196
"46062",628.73175,78.536354,74.74087
"46063",628.74506,78.41428,74.57306
"46064",628.75836,78.30686,74.416084
"46065",628.77167,78.22385,74.28016
"46066",628.785,78.184784,74.18559
"46067",628.7983,78.23361,74.1777
"46068",628.8116,78.45335,74.34223
"46069",628.8249,78.922104,74.76266
"46070",628.8382,79.70092,75.50779
"46071",628.8515,80.79469,76.59222
"46072",628.8648,82.127716,77.95007
"46073",628.8781,83.55352,79.44237
"46074",628.8914,84.9012,80.90109
"46075",628.9047,86.0267,82.179756
"46076",628.918,86.8275,83.168884
"46077",628.93134,87.2694,83.82414
"46078",628.94464,87.36706,84.14897
"46079",628.95795,87.183945,84.196075
"46080",628.97125,86.79576,84.03239
"46081",628.98456,86.28062,83.72961
"46082",628.99786,85.711754,83.35701
"46083",629.01117,85.1429,82.966644
"46084",629.0245,84.593575,82.57803
"46085",629.0378,84.07599,82.203995
"46086",629.0511,83.59258,81.84796
"46087",629.0644,83.16289,81.53053
"46088",629.0777,82.80644,81.27293
"46089",629.091,82.54276,81.09695
"46090",629.1043,82.388954,81.0226
"46091",629.1176,82.34257,81.050865
"46092",629.1309,82.374306,81.15581
"46093",629.1442,82.43778,81.29348
"46094",629.15753,82.48905,81.42093
"46095",629.17084,82.48173,81.49139
"46096",629.18414,82.40116,81.48837
"46097",629.19745,82.22781,81.39006
"46098",629.21075,81.97391,81.20577
"46099",629.22406,81.654076,80.947624
"46100",629.23737,81.290306,80.635544
"46101",629.2507,80.89235,80.27791
"46102",629.264,80.482185,79.89563
"46103",629.2773,80.06714,79.49565
"46104",629.2906,79.6643,79.09491
"46105",629.3039,79.273674,78.693794
"46106",629.3172,78.90257,78.299995
"46107",629.3305,78.55833,77.921455
"46108",629.3438,78.25803,77.57611
"46109",629.3571,77.99924,77.26288
"46110",629.3704,77.78439,76.98551
"46111",629.3837,77.61593,76.74781
"46112",629.39703,77.49386,76.55124
"46113",629.41034,77.401085,76.38015
"46114",629.42365,77.332726,76.230576
"46115",629.43695,77.281456,76.095955
"46116",629.45026,77.23506,75.96461
"46117",629.46356,77.18379,75.826935
"46118",629.47687,77.1252,75.680336
"46119",629.4902,77.06416,75.529465
"46120",629.5035,77.00069,75.374245
"46121",629.5168,76.927444,75.207275
"46122",629.5301,76.841995,75.02581
"46123",629.5434,76.74189,74.82702
"46124",629.5567,76.63447,74.61778
"46125",629.57,76.52216,74.40031
"46126",629.5833,76.41718,74.186646
"46127",629.5966,76.32929,73.98679
"46128",629.6099,76.265816,73.80861
"46129",629.6232,76.23651,73.66261
"46130",629.63654,76.27314,73.581635
"46131",629.64984,76.4416,73.63363
"46132",629.66315,76.83223,73.91306
"46133",629.67645,77.53536,74.517204
"46134",629.68976,78.59495,75.49977
"46135",629.70306,79.98657,76.84749
"46136",629.7164,81.602806,78.4633
"46137",629.7297,83.265434,80.17602
"46138",629.743,84.79866,81.81129
"46139",629.7563,86.046234,83.20882
"46140",629.7696,86.91539,84.266914
"46141",629.7829,87.37682,84.94445
"46142",629.7962,87.43786,85.23601
"46143",629.8095,87.16197,85.19255
"46144",629.8228,86.65415,84.90854
"46145",629.8361,86.02182,84.484146
"46146",629.8494,85.35775,84.008255
"46147",629.86273,84.72297,83.5409
"46148",629.87604,84.14435,83.10987
"46149",629.88934,83.62188,82.71691
"46150",629.90265,83.15068,82.358894
"46151",629.91595,82.757614,82.064285
"46152",629.92926,82.46952,81.862366
"46153",629.94257,82.32304,81.79305
"46154",629.9559,82.340126,81.88274
"46155",629.9692,82.51835,82.13409
"46156",629.9825,82.81621,82.51064
"46157",629.9958,83.177536,82.95998
"46158",630.0091,83.54131,83.42305
"46159",630.0224,83.8465,83.8389
"46160",630.0357,84.04425,84.15685
"46161",630.049,84.11749,84.356476
"46162",630.0623,84.068665,84.43632
"46163",630.0756,83.90509,84.39989
"46164",630.0889,83.63897,84.2558
"46165",630.10223,83.29229,84.022835
"46166",630.11554,82.9041,83.737526
"46167",630.12885,82.51591,83.44009
"46168",630.14215,82.17166,83.17446
"46169",630.15546,81.89334,82.964005
"46170",630.16876,81.688255,82.818085
"46171",630.18207,81.54665,82.72924
"46172",630.1954,81.45388,82.6848
"46173",630.2087,81.39773,82.67408
"46174",630.222,81.373314,82.693344
"46175",630.2353,81.38552,82.74847
"46176",630.2486,81.427025,82.83327
"46177",630.2619,81.47341,82.92425
"46178",630.2752,81.51736,83.01424
"46179",630.2885,81.55154,83.09583
"46180",630.3018,81.566185,83.158966
"46181",630.3151,81.56374,83.20547
"46182",630.3284,81.549095,83.239685
"46183",630.34174,81.5198,83.2588
"46184",630.35504,81.47341,83.2599
"46185",630.36835,81.40505,83.23759
"46186",630.38165,81.322044,83.19849
"46187",630.39496,81.234146,83.1519
"46188",630.40826,81.15114,83.10746
"46189",630.4216,81.07301,83.06531
"46190",630.4349,81.02174,83.04757
"46191",630.4482,81.041275,83.09903
"46192",630.4615,81.21706,83.30735
"46193",630.4748,81.64187,83.770195
"46194",630.4881,82.39872,84.578354
"46195",630.5014,83.53155,85.78614
"46196",630.5147,85.0013,87.36625
"46197",630.528,86.67368,89.19492
"46198",630.5413,88.36317,91.09296
"46199",630.5546,89.89151,92.882645
"46200",630.56793,91.090256,94.3905
"46201",630.58124,91.8642,95.51102
"46202",630.59454,92.18646,96.20404
"46203",630.60785,92.11078,96.509186
"46204",630.62115,91.71038,96.48725
"46205",630.63446,91.08537,96.228195
"46206",630.64777,90.32609,95.81533
"46207",630.6611,89.515526,95.32746
"46208",630.6744,88.69764,94.80694
"46209",630.6877,87.904175,94.28528
"46210",630.701,87.15221,93.78032
"46211",630.7143,86.46372,93.31534
"46212",630.7276,85.86557,92.919174
"46213",630.7409,85.37484,92.61174
"46214",630.7542,84.998856,92.40372
"46215",630.7675,84.73762,92.29869
"46216",630.7808,84.5716,92.28072
"46217",630.7941,84.454414,92.3064
"46218",630.80743,84.34455,92.33573
"46219",630.82074,84.2005,92.327446
"46220",630.83405,83.97833,92.23654
"46221",630.84735,83.65118,92.03371
"46222",630.86066,83.20195,91.69858
"46223",630.87396,82.64286,91.23955
"46224",630.88727,81.99588,90.675156
"46225",630.9006,81.29519,90.036835
"46226",630.9139,80.57252,89.35464
"46227",630.9272,79.86694,88.666954
"46228",630.9405,79.19798,87.993835
"46229",630.9538,78.58518,87.35597
"46230",630.9671,78.04074,86.76732
"46231",630.9804,77.5671,86.23245
"46232",630.9937,77.15938,85.7487
"46233",631.007,76.81758,85.31814
"46234",631.0203,76.53681,84.93792
"46235",631.0336,76.31953,84.61241
"46236",631.04694,76.14618,84.32405
"46237",631.06024,76.00702,84.06446
"46238",631.07355,75.8996,83.83226
"46239",631.08685,75.81415,83.618675
"46240",631.10016,75.74334,83.41706
"46241",631.11346,75.68963,83.23033
"46242",631.1268,75.63836,83.044365
"46243",631.1401,75.579765,82.84947
"46244",631.1534,75.50164,82.63322
"46245",631.1667,75.39422,82.38522
"46246",631.18,75.245285,82.09236
"46247",631.1933,75.06462,81.763115
"46248",631.2066,74.8571,81.40137
"46249",631.2199,74.634926,81.01848
"46250",631.2332,74.41276,80.628654
"46251",631.2465,74.232086,80.273384
"46252",631.2598,74.144196,80.00525
"46253",631.27313,74.24185,79.919914
"46254",631.28644,74.62516,80.12328
"46255",631.29974,75.37957,80.70973
"46256",631.31305,76.5124,81.69817
"46257",631.32635,77.95773,83.03452
"46258",631.33966,79.554436,84.567406
"46259",631.35297,81.09743,86.09647
"46260",631.3663,82.38163,87.41497
"46261",631.3796,83.265434,88.3732
"46262",631.3929,83.6878,88.897606
"46263",631.4062,83.67559,89.00064
"46264",631.4195,83.302055,88.74197
"46265",631.4328,82.67216,88.215256
"46266",631.4461,81.898224,87.524826
"46267",631.4594,81.08522,86.77114
"46268",631.4727,80.306404,86.02624
"46269",631.486,79.603264,85.33267
"46270",631.4993,78.98314,84.70015
"46271",631.51263,78.450905,84.13614
"46272",631.52594,77.99924,83.63606
"46273",631.53925,77.628136,83.20244
"46274",631.55255,77.3547,82.85488
"46275",631.56586,77.196,82.61352
"46276",631.57916,77.14717,82.477066
"46277",631.59247,77.18623,82.42698
"46278",631.6058,77.25948,82.4123
"46279",631.6191,77.315636,82.38281
"46280",631.6324,77.31075,82.294044
"46281",631.6457,77.22041,82.11967
"46282",631.659,77.02754,81.839935
"46283",631.6723,76.74433,81.46384
"46284",631.6856,76.387886,81.00565
"46285",631.6989,75.98016,80.485054
"46286",631.7122,75.55047,79.92974
"46287",631.7255,75.11833,79.35856
"46288",631.73883,74.703285,78.79096
"46289",631.75214,74.32487,78.247025
"46290",631.76544,73.99039,77.7352
"46291",631.77875,73.7145,77.271515
"46292",631.79205,73.49966,76.86025
"46293",631.80536,73.34585,76.50331
"46294",631.81866,73.253075,76.2026
"46295",631.832,73.21889,75.95757
"46296",631.8453,73.22865,75.75543
"46297",631.8586,73.27993,75.59511
"46298",631.8719,73.36538,75.47056
"46299",631.8852,73.477684,75.375534
"46300",631.8985,73.61196,75.30599
"46301",631.9118,73.75601,75.25042
"46302",631.9251,73.9025,75.20178
"46303",631.9384,74.039215,75.14796
"46304",631.9517,74.158844,75.081314
"46305",631.965,74.26627,75.00621
"46306",631.97833,74.35905,74.91981
"46307",631.99164,74.43229,74.81677
"46308",632.00494,74.48356,74.69405
"46309",632.01825,74.52018,74.55829
"46310",632.03156,74.53727,74.40414
"46311",632.04486,74.55436,74.25052
"46312",632.05817,74.581215,74.1072
"46313",632.0715,74.65934,74.01599
"46314",632.0848,74.84001,74.02977
"46315",632.0981,75.211105,74.23962
"46316",632.1114,75.85809,74.73695
"46317",632.1247,76.84444,75.593864
"46318",632.138,78.15549,76.806305
"46319",632.1513,79.691154,78.28433
"46320",632.1646,81.290306,79.87383
"46321",632.1779,82.760056,81.3839
"46322",632.1912,83.92706,82.63716
"46323",632.2045,84.69367,83.52649
"46324",632.21783,85.04036,84.01985
"46325",632.23114,85.00618,84.14318
"46326",632.24445,84.6717,83.96514
"46327",632.25775,84.14923,83.58866
"46328",632.27106,83.543755,83.11285
"46329",632.28436,82.93828,82.61811
"46330",632.29767,82.388954,82.16061
"46331",632.311,81.90799,81.754295
"46332",632.3243,81.49294,81.39887
"46333",632.3376,81.13649,81.08907
"46334",632.3509,80.8362,80.824295
"46335",632.3642,80.601814,80.61604
"46336",632.3775,80.445564,80.4786
"46337",632.3908,80.37232,80.41928
"46338",632.4041,80.37232,80.430916
"46339",632.4174,80.41627,80.486496
"46340",632.4307,80.465096,80.54833
"46341",632.44403,80.479744,80.577515
"46342",632.45734,80.430916,80.54368
"46343",632.47064,80.30152,80.42775
"46344",632.48395,80.08911,80.22476
"46345",632.49725,79.801025,79.93946
"46346",632.51056,79.466545,79.59876
"46347",632.52386,79.10033,79.21587
"46348",632.5372,78.71702,78.80445
"46349",632.5505,78.3386,78.38594
"46350",632.5638,77.97482,77.970245
"46351",632.5771,77.6379,77.57004
"46352",632.5904,77.34005,77.19837
"46353",632.6037,77.08858,76.86378
"46354",632.617,76.88838,76.5726
"46355",632.6303,76.734566,76.32155
"46356",632.6436,76.6247,76.10964
"46357",632.6569,76.55146,75.93092
"46358",632.6702,76.5124,75.784096
"46359",632.68353,76.50263,75.665344
"46360",632.69684,76.51728,75.5707
"46361",632.71014,76.53925,75.48384
"46362",632.72345,76.56611,75.40255
"46363",632.73676,76.592964,75.3221
"46364",632.75006,76.62226,75.24493
"46365",632.76337,76.65156,75.16867
"46366",632.7767,76.67841,75.09089
"46367",632.79,76.70283,75.011505
"46368",632.8033,76.71015,74.915794
"46369",632.8166,76.69062,74.79346
"46370",632.8299,76.64179,74.64121
"46371",632.8432,76.578316,74.47279
"46372",632.8565,76.507515,74.29507
"46373",632.8698,76.44404,74.12245
"46374",632.8831,76.4123,73.97959
"46375",632.8964,76.46113,73.916306
"46376",632.9097,76.654,73.99859
"46377",632.92303,77.069046,74.309074
"46378",632.93634,77.77951,74.92795
"46379",632.94965,78.78783,75.866875
"46380",632.96295,80.0354,77.07657
"46381",632.97626,81.392845,78.43512
"46382",632.98956,82.69413,79.77993
"46383",633.00287,83.773254,80.943245
"46384",633.0162,84.52766,81.81556
"46385",633.0295,84.91829,82.34768
"46386",633.0428,84.972,82.555084
"46387",633.0561,84.75227,82.49073
"46388",633.0694,84.349434,82.2364
"46389",633.0827,83.85626,81.87914
"46390",633.096,83.34356,81.486946
"46391",633.1093,82.865036,81.11291
"46392",633.1226,82.43534,80.77274
"46393",633.1359,82.056915,80.47042
"46394",633.14923,81.722435,80.20022
"46395",633.16254,81.43923,79.97084
"46396",633.17584,81.21217,79.78876
"46397",633.18915,81.05592,79.67039
"46398",633.20245,80.9778,79.62526
"46399",633.21576,80.970474,79.64849
"46400",633.22906,81.02174,79.73009
"46401",633.2424,81.10231,79.84258
"46402",633.2557,81.17311,79.94783
"46403",633.269,81.19508,80.00646
"46404",633.2823,81.143814,79.99254
"46405",633.2956,81.007095,79.89156
"46406",633.3089,80.780045,79.695984
"46407",633.3222,80.479744,79.42006
"46408",633.3355,80.130615,79.08592
"46409",633.3488,79.74975,78.70914
"46410",633.3621,79.37133,78.3229
"46411",633.3754,79.01976,77.95168
"46412",633.38873,78.70725,77.60854
"46413",633.40204,78.4387,77.29959
"46414",633.41534,78.221405,77.03351
"46415",633.42865,78.04562,76.80215
"46416",633.44196,77.891815,76.587265
"46417",633.45526,77.7551,76.38467
"46418",633.46857,77.642784,76.2022
"46419",633.4819,77.557335,76.04309
"46420",633.4952,77.49142,75.90084
"46421",633.5085,77.44747,75.7785
"46422",633.5218,77.418175,75.66944
"46423",633.5351,77.39376,75.56435
"46424",633.5484,77.36202,75.451164
"46425",633.5617,77.32052,75.327225
"46426",633.575,77.27169,75.194664
"46427",633.5883,77.222855,75.06057
"46428",633.6016,77.17403,74.92496
"46429",633.6149,77.120316,74.782936
"46430",633.62823,77.06416,74.636795
"46431",633.64154,76.998245,74.47913
"46432",633.65485,76.92012,74.307205
"46433",633.66815,76.83467,74.12551
"46434",633.68146,76.749214,73.94114
"46435",633.69476,76.66621,73.756546
"46436",633.70807,76.59785,73.58401
"46437",633.7214,76.54902,73.42886
"46438",633.7347,76.54902,73.32102
"46439",633.748,76.67109,73.33525
"46440",633.7613,76.998245,73.55838
"46441",633.7746,77.591515,74.057846
"46442",633.7879,78.47288,74.863945
"46443",633.8012,79.588615,75.93196
"46444",633.8145,80.82399,77.15448
"46445",633.8278,82.00809,78.36433
"46446",633.8411,82.99443,79.41342
"46447",633.85443,83.69268,80.205246
"46448",633.86774,84.07355,80.70151
"46449",633.88104,84.15411,80.90937
"46450",633.89435,83.99542,80.88049
"46451",633.90765,83.67071,80.68063
"46452",633.92096,83.25811,80.382744
"46453",633.93427,82.82109,80.04754
"46454",633.9476,82.408485,79.72309
"46455",633.9609,82.05203,79.4419
"46456",633.9742,81.75418,79.208176
"46457",633.9875,81.50759,79.0164
"46458",634.0008,81.31716,78.873085
"46459",634.0141,81.18532,78.7824
"46460",634.0274,81.12184,78.75597
"46461",634.0407,81.13649,78.80567
"46462",634.054,81.234146,78.93884
"46463",634.0673,81.38308,79.12634
"46464",634.0806,81.54177,79.328255
"46465",634.09393,81.671165,79.50583
"46466",634.10724,81.73464,79.62153
"46467",634.12054,81.71999,79.66109
"46468",634.13385,81.62234,79.61718
"46469",634.14716,81.449,79.49454
"46470",634.16046,81.2195,79.31032
"46471",634.17377,80.94606,79.07499
"46472",634.1871,80.65797,78.81646
"46473",634.2004,80.37232,78.55138
"46474",634.2137,80.09155,78.28224
"46475",634.227,79.823,78.01655
"46476",634.2403,79.57397,77.761986
"46477",634.2536,79.35424,77.528946
"46478",634.2669,79.166245,77.32077
"46479",634.2802,79.012436,77.14091
"46480",634.2935,78.905014,77.002625
"46481",634.3068,78.84154,76.90493
"46482",634.3201,78.802475,76.829666
"46483",634.33344,78.77806,76.76783
"46484",634.34674,78.77074,76.72232
"46485",634.36005,78.768295,76.681465
"46486",634.37335,78.76341,76.63809
"46487",634.38666,78.751205,76.58724
"46488",634.39996,78.73167,76.52868
"46489",634.41327,78.695045,76.45242
"46490",634.4266,78.63889,76.35549
"46491",634.4399,78.56809,76.24216
"46492",634.4532,78.487526,76.116844
"46493",634.4665,78.39231,75.974365
"46494",634.4798,78.29221,75.82403
"46495",634.4931,78.187225,75.66567
"46496",634.5064,78.08469,75.506485
"46497",634.5197,77.98459,75.346535
"46498",634.533,77.90646,75.20543
"46499",634.5463,77.88205,75.11559
"46500",634.55963,77.9675,75.13486
"46501",634.57294,78.23605,75.3399
"46502",634.58624,78.74387,75.792595
"46503",634.59955,79.51293,76.5224
"46504",634.61285,80.48951,77.48376
"46505",634.62616,81.57839,78.58794
"46506",634.63947,82.63554,79.694405
"46507",634.6528,83.529106,80.670334
"46508",634.6661,84.15411,81.405624
"46509",634.6794,84.48615,81.86748
"46510",634.6927,84.53742,82.05894
"46511",634.706,84.35676,82.020065
"46512",634.7193,84.017395,81.81685
"46513",634.7326,83.595024,81.52002
"46514",634.7459,83.14824,81.18558
"46515",634.7592,82.7161,80.85182
"46516",634.7725,82.32548,80.546074
"46517",634.7858,81.98367,80.27694
"46518",634.79913,81.69802,80.053276
"46519",634.81244,81.480736,79.88905
"46520",634.82574,81.339134,79.793724
"46521",634.83905,81.28054,79.77698
"46522",634.85236,81.304955,79.84141
"46523",634.86566,81.40017,79.9774
"46524",634.87897,81.54177,80.16276
"46525",634.8923,81.69314,80.362305
"46526",634.9056,81.81033,80.53241
"46527",634.9189,81.87381,80.65246
"46528",634.9322,81.85916,80.696365
"46529",634.9455,81.75906,80.654366
"46530",634.9588,81.58083,80.531105
"46531",634.9721,81.33669,80.336365
"46532",634.9854,81.05348,80.094925
"46533",634.9987,80.75319,79.82755
"46534",635.012,80.44312,79.54102
"46535",635.0253,80.14038,79.25213
"46536",635.03864,79.869385,78.98552
"46537",635.05194,79.63012,78.74217
"46538",635.06525,79.429924,78.53042
"46539",635.07855,79.27123,78.35391
"46540",635.09186,79.15648,78.216385
"46541",635.10516,79.07347,78.10702
"46542",635.11847,79.0222,78.026794
"46543",635.1318,79.00023,77.974266
"46544",635.1451,78.99779,77.94058
"46545",635.1584,79.00755,77.91903
"46546",635.1717,79.02464,77.905106
"46547",635.185,79.04173,77.891716
"46548",635.1983,79.04906,77.869095
"46549",635.2116,79.046616,77.83694
"46550",635.2249,79.03441,77.79494
"46551",635.2382,79.01976,77.750114
"46552",635.2515,78.992905,77.69263
"46553",635.26483,78.958725,77.626976
"46554",635.27814,78.91966,77.555374
"46555",635.29144,78.8806,77.48255
"46556",635.30475,78.84642,77.41339
"46557",635.31805,78.83177,77.36269
"46558",635.33136,78.87816,77.372574
"46559",635.34467,79.046616,77.505974
"46560",635.358,79.40551,77.835075
"46561",635.3713,80.008545,78.41953
"46562",635.3846,80.85573,79.26698
"46563",635.3979,81.881134,80.31913
"46564",635.4112,82.97246,81.46924
"46565",635.4245,83.980774,82.57044
"46566",635.4378,84.76936,83.48343
"46567",635.4511,85.262535,84.12564
"46568",635.4644,85.452965,84.48052
"46569",635.4777,85.37484,84.5728
"46570",635.491,85.09407,84.45999
"46571",635.50433,84.698555,84.22366
"46572",635.51764,84.263985,83.93592
"46573",635.53094,83.84161,83.6468
"46574",635.54425,83.458305,83.38354
"46575",635.55756,83.123825,83.15713
"46576",635.57086,82.82597,82.956894
"46577",635.58417,82.55985,82.77908
"46578",635.5975,82.3328,82.63203
"46579",635.6108,82.15701,82.52914
"46580",635.6241,82.04471,82.48424
"46581",635.6374,82.00809,82.51151
"46582",635.6507,82.0325,82.59868
"46583",635.664,82.08133,82.71102
"46584",635.6773,82.13016,82.82489
"46585",635.6906,82.14969,82.91099
"46586",635.7039,82.11063,82.9391
"46587",635.7172,82.003204,82.89764
"46588",635.7305,81.82254,82.77957
"46589",635.74384,81.56863,82.58261
"46590",635.75714,81.25613,82.31913
"46591",635.77045,80.90456,82.00681
"46592",635.78375,80.54322,81.673744
"46593",635.79706,80.19409,81.34159
"46594",635.81036,79.86694,81.02051
"46595",635.82367,79.56664,80.71605
"46596",635.837,79.290764,80.42663
"46597",635.8503,79.04906,80.16276
"46598",635.8636,78.84154,79.92552
"46599",635.8769,78.675514,79.7233
"46600",635.8902,78.54368,79.55007
"46601",635.9035,78.44846,79.40935
"46602",635.9168,78.380104,79.2925
"46603",635.9301,78.331276,79.193054
"46604",635.9434,78.2971,79.10673
"46605",635.9567,78.27024,79.02666
"46606",635.97003,78.24582,78.94818
"46607",635.98334,78.21896,78.86651
"46608",635.99664,78.18967,78.781555
"46609",636.00995,78.153046,78.68836
"46610",636.02325,78.10422,78.58182
"46611",636.03656,78.0383,78.45666
"46612",636.04987,77.962616,78.31967
"46613",636.0632,77.88449,78.17788
"46614",636.0765,77.80881,78.03609
"46615",636.0898,77.74288,77.90169
"46616",636.1031,77.696495,77.78477
"46617",636.1164,77.67452,77.69081
"46618",636.1297,77.71114,77.65476
"46619",636.143,77.90402,77.776115
"46620",636.1563,78.34348,78.15008
"46621",636.1696,79.07591,78.83074
"46622",636.1829,80.079346,79.8053
"46623",636.1962,81.270775,80.99921
"46624",636.20953,82.49882,82.26696
"46625",636.22284,83.597466,83.443695
"46626",636.23615,84.44221,84.400856
"46627",636.24945,84.97688,85.07435
"46628",636.26276,85.19905,85.45204
"46629",636.27606,85.1429,85.55836
"46630",636.28937,84.89143,85.467606
"46631",636.3027,84.525215,85.25424
"46632",636.316,84.122375,84.99281
"46633",636.3293,83.74151,84.74077
"46634",636.3426,83.4168,84.53298
"46635",636.3559,83.1458,84.36875
"46636",636.3692,82.91142,84.23268
"46637",636.3825,82.69657,84.10881
"46638",636.3958,82.48417,83.980675
"46639",636.4091,82.28397,83.85811
"46640",636.4224,82.11063,83.756134
"46641",636.4357,81.991,83.70246
"46642",636.44904,81.92264,83.69632
"46643",636.46234,81.88846,83.72222
"46644",636.47565,81.8616,83.75438
"46645",636.48895,81.80301,83.75396
"46646",636.50226,81.6907,83.69799
"46647",636.51556,81.514915,83.57504
"46648",636.5289,81.28542,83.39289
"46649",636.5422,81.00954,83.15717
"46650",636.5555,80.69703,82.87621
"46651",636.5688,80.360115,82.56108
"46652",636.5821,80.01099,82.223206
"46653",636.5954,79.6643,81.87686
"46654",636.6087,79.31518,81.51725
"46655",636.622,78.975815,81.15649
"46656",636.6353,78.66819,80.81686
"46657",636.6486,78.40696,80.51401
"46658",636.6619,78.18967,80.24693
"46659",636.67523,78.01633,80.01702
"46660",636.68854,77.891815,79.83052
"46661",636.70184,77.79904,79.67187
"46662",636.71515,77.72335,79.5274
"46663",636.72845,77.662315,79.39522
"46664",636.74176,77.608604,79.268456
"46665",636.75507,77.55489,79.140015
"46666",636.7684,77.50118,79.009895
"46667",636.7817,77.46212,78.892746
"46668",636.795,77.437706,78.789024
"46669",636.8083,77.420616,78.691864
"46670",636.8216,77.41085,78.601494
"46671",636.8349,77.39864,78.50838
"46672",636.8482,77.36446,78.39291
"46673",636.8615,77.31075,78.256836
"46674",636.8748,77.24727,78.109314
"46675",636.8881,77.17647,77.95249
"46676",636.9014,77.11299,77.80078
"46677",636.91473,77.069046,77.66662
"46678",636.92804,77.07149,77.57747
"46679",636.94135,77.171585,77.58605
"46680",636.95465,77.454796,77.780876
"46681",636.96796,77.98215,78.22869
"46682",636.98126,78.79027,78.973755
"46683",636.99457,79.84985,79.99554
"46684",637.0079,81.06325,81.20424
"46685",637.0212,82.28397,82.45819
"46686",637.0345,83.353325,83.598915
"46687",637.0478,84.159,84.50938
"46688",637.0611,84.644844,85.12519
"46689",637.0744,84.8304,85.455894
"46690",637.0877,84.7596,85.53604
"46691",637.101,84.51057,85.435745
"46692",637.1143,84.16144,85.22757
"46693",637.1276,83.78546,84.981636
"46694",637.1409,83.42657,84.741035
"46695",637.15424,83.10918,84.53072
"46696",637.16754,82.8333,84.352005
"46697",637.18085,82.58427,84.19151
"46698",637.19415,82.34745,84.03545
"46699",637.20746,82.125275,83.886635
"46700",637.22076,81.92508,83.75285
"46701",637.2341,81.77127,83.6592
"46702",637.2474,81.668724,83.61201
"46703",637.2607,81.617455,83.612885
"46704",637.274,81.59304,83.639015
"46705",637.2873,81.56863,83.66438
"46706",637.3006,81.50759,83.65237
"46707",637.3139,81.3904,83.58229
"46708",637.3272,81.21706,83.45239
"46709",637.3405,80.9778,83.25117
"46710",637.3538,80.68482,82.98875
"46711",637.3671,80.35767,82.683
"46712",637.38043,80.00366,82.340164
"46713",637.39374,79.639885,81.9765
"46714",637.40704,79.27856,81.60392
"46715",637.42035,78.93431,81.23713
"46716",637.43365,78.61692,80.88644
"46717",637.44696,78.328835,80.55513
"46718",637.46027,78.08469,80.25876
"46719",637.4736,77.87961,79.99383
"46720",637.4869,77.713585,79.76154
"46721",637.5002,77.58419,79.5607
"46722",637.5135,77.48409,79.38511
"46723",637.5268,77.41329,79.23569
"46724",637.5401,77.36446,79.106026
"46725",637.5534,77.330284,78.98949
"46726",637.5667,77.30831,78.88409
"46727",637.58,77.29122,78.78288
"46728",637.5933,77.28634,78.69335
"46729",637.6066,77.281456,78.60367
"46730",637.61993,77.26925,78.50651
"46731",637.63324,77.242386,78.39431
"46732",637.64655,77.20332,78.26907
"46733",637.65985,77.14229,78.12064
"46734",637.67316,77.07149,77.96054
"46735",637.68646,76.998245,77.795784
"46736",637.69977,76.94209,77.64583
"46737",637.7131,76.90547,77.51365
"46738",637.7264,76.90303,77.414505
"46739",637.7397,76.96895,77.383644
"46740",637.753,77.17647,77.496445
"46741",637.7663,77.60616,77.837906
"46742",637.7796,78.314186,78.47112
"46743",637.7929,79.29809,79.40234
"46744",637.8062,80.49195,80.57427
"46745",637.8195,81.76395,81.86164
"46746",637.8328,82.950485,83.1033
"46747",637.8461,83.92218,84.1672
"46748",637.85944,84.58869,84.956276
"46749",637.87274,84.93782,85.4488
"46750",637.88605,84.99397,85.659256
"46751",637.89935,84.823074,85.64442
"46752",637.91266,84.49592,85.46798
"46753",637.92596,84.085754,85.19831
"46754",637.9393,83.66094,84.90118
"46755",637.9526,83.25811,84.61275
"46756",637.9659,82.89433,84.350784
"46757",637.9792,82.5745,84.1214
"46758",637.9925,82.2913,83.91865
"46759",638.0058,82.04227,83.74122
"46760",638.0191,81.83475,83.59752
"46761",638.0324,81.67605,83.496155
"46762",638.0457,81.57839,83.450874
"46763",638.059,81.53689,83.458694
"46764",638.0723,81.529564,83.4994
"46765",638.08563,81.529564,83.547195
"46766",638.09894,81.497826,83.563255
"46767",638.11224,81.41238,83.52461
"46768",638.12555,81.25857,83.41494
"46769",638.13885,81.03883,83.234535
"46770",638.15216,80.75319,82.98135
"46771",638.16547,80.42359,82.67529
"46772",638.1788,80.062256,82.327194
"46773",638.1921,79.691154,81.95804
"46774",638.2054,79.3225,81.579735
"46775",638.2187,78.96849,81.20455
"46776",638.232,78.63889,80.84272
"46777",638.2453,78.34348,80.504776
"46778",638.2586,78.08713,80.196655
"46779",638.2719,77.872284,79.922035
"46780",638.2852,77.70382,79.68708
"46781",638.2985,77.5671,79.47861
"46782",638.3118,77.46212,79.2976
"46783",638.32513,77.383995,79.14017
"46784",638.33844,77.32784,79.002266
"46785",638.35175,77.298546,78.889465
"46786",638.36505,77.29366,78.80016
"46787",638.37836,77.30099,78.722916
"46788",638.39166,77.30831,78.6459
"46789",638.40497,77.31808,78.57155
"46790",638.4183,77.315636,78.4853
"46791",638.4316,77.30343,78.389206
"46792",638.4449,77.28634,78.28785
"46793",638.4582,77.25704,78.17375
"46794",638.4715,77.22041,78.05141
"46795",638.4848,77.16914,77.91328
"46796",638.4981,77.10811,77.76378
"46797",638.5114,77.04219,77.60749
"46798",638.5247,76.978714,77.451584
"46799",638.538,76.925,77.30346
"46800",638.55133,76.895706,77.17807
"46801",638.56464,76.93721,77.12257
"46802",638.57794,77.11299,77.20264
"46803",638.59125,77.51095,77.510376
"46804",638.60455,78.19455,78.116196
"46805",638.61786,79.18089,79.04612
"46806",638.63116,80.42115,80.26078
"46807",638.6445,81.7908,81.64359
"46808",638.6578,83.12871,83.03746
"46809",638.6711,84.27375,84.28027
"46810",638.6844,85.10872,85.248795
"46811",638.6977,85.58724,85.88696
"46812",638.711,85.72396,86.19828
"46813",638.7243,85.56771,86.2209
"46814",638.7376,85.20882,86.035995
"46815",638.7509,84.73762,85.72757
"46816",638.7642,84.2298,85.3678
"46817",638.7775,83.736626,85.006805
"46818",638.79083,83.284966,84.67191
"46819",638.80414,82.88701,84.37661
"46820",638.81744,82.53788,84.1177
"46821",638.83075,82.23758,83.896706
"46822",638.84406,81.988556,83.717606
"46823",638.85736,81.80301,83.5942
"46824",638.87067,81.6907,83.53823
"46825",638.884,81.64431,83.54468
"46826",638.8973,81.64675,83.5985
"46827",638.9106,81.6614,83.66461
"46828",638.9239,81.651634,83.706764
"46829",638.9372,81.58572,83.69246
"46830",638.9505,81.446556,83.60285
"46831",638.9638,81.22438,83.42588
"46832",638.9771,80.92897,83.16873
"46833",638.9904,80.57496,82.84375
"46834",639.0037,80.181885,82.46864
"46835",639.017,79.76929,82.06173
"46836",639.03033,79.3518,81.63703
"46837",639.04364,78.94896,81.213936
"46838",639.05695,78.57786,80.80999
"46839",639.07025,78.24826,80.43595
"46840",639.08356,77.96506,80.09801
"46841",639.09686,77.730675,79.80003
"46842",639.11017,77.54269,79.54113
"46843",639.1235,77.401085,79.32274
"46844",639.1368,77.298546,79.138985
"46845",639.1501,77.23262,78.98864
"46846",639.1634,77.196,78.86554
"46847",639.1767,77.18623,78.76815
"46848",639.19,77.188675,78.68266
"46849",639.2033,77.196,78.602135
"46850",639.2166,77.20088,78.519394
"46851",639.2299,77.20332,78.434364
"46852",639.2432,77.19356,78.337204
"46853",639.25653,77.17647,78.232414
"46854",639.26984,77.14229,78.11
"46855",639.28314,77.0959,77.97431
"46856",639.29645,77.03731,77.82497
"46857",639.30975,76.97139,77.666466
"46858",639.32306,76.90059,77.50102
"46859",639.33636,76.82735,77.330925
"46860",639.3497,76.75166,77.1561
"46861",639.363,76.6833,76.98622
"46862",639.3763,76.627144,76.82642
"46863",639.3896,76.59785,76.69173
"46864",639.4029,76.61982,76.60738
"46865",639.4162,76.74433,76.62627
"46866",639.4295,77.0544,76.834595
"46867",639.4428,77.63302,77.32117
"46868",639.4561,78.521706,78.13589
"46869",639.4694,79.70092,79.268906
"46870",639.4827,81.075455,80.634094
"46871",639.49603,82.48905,82.0813
"46872",639.50934,83.76837,83.4384
"46873",639.52264,84.754715,84.5425
"46874",639.53595,85.367516,85.30389
"46875",639.54926,85.60189,85.70599
"46876",639.56256,85.51156,85.79072
"46877",639.57587,85.172195,85.62359
"46878",639.5892,84.67902,85.292046
"46879",639.6025,84.1297,84.88894
"46880",639.6158,83.58526,84.47355
"46881",639.6291,83.072556,84.07288
"46882",639.6424,82.60624,83.70258
"46883",639.6557,82.18631,83.3641
"46884",639.669,81.812775,83.05888
"46885",639.6823,81.495384,82.79814
"46886",639.6956,81.25613,82.60561
"46887",639.7089,81.109634,82.498375
"46888",639.7222,81.06081,82.48422
"46889",639.73553,81.08522,82.54179
"46890",639.74884,81.1487,82.639175
"46891",639.76215,81.19508,82.72146
"46892",639.77545,81.17799,82.741714
"46893",639.78876,81.08766,82.688194
"46894",639.80206,80.91676,82.551285
"46895",639.81537,80.66773,82.3309
"46896",639.8287,80.35035,82.034386
"46897",639.842,79.98169,81.676674
"46898",639.8553,79.58129,81.2757
"46899",639.8686,79.168686,80.85001
"46900",639.8819,78.77074,80.42609
"46901",639.8952,78.399635,80.01657
"46902",639.9085,78.07736,79.64429
"46903",639.9218,77.80881,79.31565
"46904",639.9351,77.58907,79.02744
"46905",639.9484,77.41329,78.77632
"46906",639.96173,77.28878,78.57098
"46907",639.97504,77.205765,78.40324
"46908",639.98834,77.16182,78.27197
"46909",640.00165,77.14717,78.16863
"46910",640.01495,77.152054,78.084366
"46911",640.02826,77.16426,78.007576
"46912",640.04156,77.18623,77.94093
"46913",640.0549,77.21309,77.87986
"46914",640.0682,77.239944,77.819626
"46915",640.0815,77.26681,77.76024
"46916",640.0948,77.28634,77.69436
"46917",640.1081,77.28878,77.612
"46918",640.1214,77.27413,77.51263
"46919",640.1347,77.239944,77.39326
"46920",640.148,77.18135,77.24841
"46921",640.1613,77.103226,77.08221
"46922",640.1746,77.02266,76.91112
"46923",640.1879,76.95186,76.74728
"46924",640.20123,76.893265,76.59343
"46925",640.21454,76.8542,76.45728
"46926",640.22784,76.839554,76.34433
"46927",640.24115,76.84932,76.25533
"46928",640.25446,76.91524,76.22279
"46929",640.26776,77.10811,76.31927
"46930",640.28107,77.523155,76.64394
"46931",640.2944,78.23605,77.27944
"46932",640.3077,79.27123,78.2595
"46933",640.321,80.5774,79.54289
"46934",640.3343,82.0325,81.01604
"46935",640.3476,83.46075,82.5078
"46936",640.3609,84.69123,83.84643
"46937",640.3742,85.59701,84.8988
"46938",640.3875,86.11215,85.58885
"46939",640.4008,86.24399,85.91169
"46940",640.4141,86.05112,85.91394
"46941",640.4274,85.62142,85.67334
"46942",640.44073,85.05745,85.285034
"46943",640.45404,84.44953,84.83516
"46944",640.46735,83.86359,84.38826
"46945",640.48065,83.32891,83.97432
"46946",640.49396,82.85771,83.60715
"46947",640.50726,82.442665,83.2814
"46948",640.52057,82.09354,83.008606
"46949",640.5339,81.81766,82.79815
"46950",640.5472,81.634544,82.67184
"46951",640.5605,81.54421,82.63258
"46952",640.5738,81.53933,82.67596
"46953",640.5871,81.59304,82.77777
"46954",640.6004,81.66384,82.89835
"46955",640.6137,81.705345,82.99185
"46956",640.627,81.68093,83.02073
"46957",640.6403,81.56863,82.96095
"46958",640.6536,81.358665,82.80001
"46959",640.66693,81.06081,82.54461
"46960",640.68024,80.68726,82.204216
"46961",640.69354,80.26734,81.80577
"46962",640.70685,79.82788,81.374664
"46963",640.72015,79.38842,80.929825
"46964",640.73346,78.96361,80.4859
"46965",640.74677,78.56565,80.05556
"46966",640.7601,78.21164,79.65672
"46967",640.7734,77.90646,79.29566
"46968",640.7867,77.65011,78.973885
"46969",640.8,77.44991,78.70026
"46970",640.8133,77.30587,78.476524
"46971",640.8266,77.21309,78.29955
"46972",640.8399,77.15694,78.15631
"46973",640.8532,77.137405,78.047935
"46974",640.8665,77.13985,77.96092
"46975",640.8798,77.16182,77.89352
"46976",640.8931,77.18379,77.8268
"46977",640.90643,77.20088,77.75588
"46978",640.91974,77.21309,77.68062
"46979",640.93304,77.21553,77.59597
"46980",640.94635,77.20088,77.49431
"46981",640.95966,77.17891,77.384865
"46982",640.97296,77.14717,77.26497
"46983",640.98627,77.103226,77.131874
"46984",640.9996,77.04463,76.98276
"46985",641.0129,76.97627,76.822044
"46986",641.0262,76.893265,76.64455
"46987",641.0395,76.80293,76.45713
"46988",641.0528,76.71015,76.26444
"46989",641.0661,76.63203,76.08351
"46990",641.0794,76.59052,75.93676
"46991",641.0927,76.63447,75.87416
"46992",641.106,76.841995,75.97652
"46993",641.1193,77.30587,76.341705
"46994",641.1326,78.09445,77.0461
"46995",641.14594,79.21263,78.10473
"46996",641.15924,80.58961,79.4571
"46997",641.17255,82.07889,80.964806
"46998",641.18585,83.49737,82.44825
"46999",641.19916,84.67414,83.734314
"47000",641.21246,85.49691,84.70315
"47001",641.22577,85.92172,85.299736
"47002",641.2391,85.97543,85.5385
"47003",641.2524,85.71908,85.46887
"47004",641.2657,85.24544,85.17395
"47005",641.279,84.65217,84.7446
"47006",641.2923,84.02472,84.26253
"47007",641.3056,83.42657,83.790146
"47008",641.3189,82.89189,83.36255
"47009",641.3322,82.43534,82.99637
"47010",641.3455,82.054474,82.691605
"47011",641.3588,81.75662,82.457954
"47012",641.37213,81.55398,82.3102
"47013",641.38544,81.449,82.253784
"47014",641.39874,81.444115,82.29418
"47015",641.41205,81.529564,82.42476
"47016",641.42535,81.66628,82.609276
"47017",641.43866,81.812775,82.80784
"47018",641.45197,81.9202,82.97191
"47019",641.4653,81.94461,83.05633
"47020",641.4786,81.86893,83.04141
"47021",641.4919,81.688255,82.91914
"47022",641.5052,81.41238,82.69602
"47023",641.5185,81.06081,82.38859
"47024",641.5318,80.66041,82.02134
"47025",641.5451,80.23804,81.619606
"47026",641.5584,79.81323,81.20224
"47027",641.5717,79.40063,80.7838
"47028",641.585,79.01732,80.38176
"47029",641.5983,78.675514,80.00925
"47030",641.61163,78.38987,79.68221
"47031",641.62494,78.16525,79.40728
"47032",641.63824,77.996796,79.18149
"47033",641.65155,77.88693,79.009026
"47034",641.66486,77.81857,78.87463
"47035",641.67816,77.78195,78.769844
"47036",641.69147,77.7673,78.68588
"47037",641.7048,77.77219,78.620995
"47038",641.7181,77.78439,78.56358
"47039",641.7314,77.80148,78.51144
"47040",641.7447,77.80881,78.45006
"47041",641.758,77.80148,78.37426
"47042",641.7713,77.78195,78.286026
"47043",641.7846,77.74532,78.180084
"47044",641.7979,77.68917,78.053474
"47045",641.8112,77.61349,77.90558
"47046",641.8245,77.52071,77.73823
"47047",641.8378,77.41329,77.55333
"47048",641.85114,77.296104,77.35531
"47049",641.86444,77.18379,77.1585
"47050",641.87775,77.09102,76.97772
"47051",641.89105,77.04463,76.84043
"47052",641.90436,77.10811,76.811554
"47053",641.91766,77.36202,76.9751
"47054",641.93097,77.891815,77.422455
"47055",641.9443,78.73411,78.19887
"47056",641.9576,79.871826,79.29703
"47057",641.9709,81.21706,80.63825
"47058",641.9842,82.616005,82.07523
"47059",641.9975,83.89288,83.43386
"47060",642.0108,84.90364,84.56627
"47061",642.0241,85.55062,85.366486
"47062",642.0374,85.80698,85.796295
"47063",642.0507,85.70443,85.87521
"47064",642.064,85.313805,85.66285
"47065",642.07733,84.74494,85.26004
"47066",642.09064,84.09064,84.75401
"47067",642.10394,83.4168,84.20801
"47068",642.11725,82.777145,83.675125
"47069",642.13055,82.18875,83.173515
"47070",642.14386,81.67605,82.72921
"47071",642.15717,81.25613,82.361664
"47072",642.1705,80.955826,82.10062
"47073",642.1838,80.79469,81.96935
"47074",642.1971,80.78737,81.98686
"47075",642.2104,80.91432,82.13842
"47076",642.2237,81.13893,82.3916
"47077",642.237,81.409935,82.6982
"47078",642.2503,81.66384,82.99616
"47079",642.2636,81.846954,83.23127
"47080",642.2769,81.92264,83.36467
"47081",642.2902,81.866486,83.3686
"47082",642.3035,81.67849,83.23893
"47083",642.31683,81.37087,82.983765
"47084",642.33014,80.97536,82.63109
"47085",642.34344,80.53834,82.22455
"47086",642.35675,80.09155,81.794586
"47087",642.37006,79.66186,81.36775
"47088",642.38336,79.26391,80.959236
"47089",642.39667,78.91478,80.587105
"47090",642.41,78.61936,80.257774
"47091",642.4233,78.37522,79.97049
"47092",642.4366,78.184784,79.72928
"47093",642.4499,78.05539,79.54316
"47094",642.4632,77.98215,79.40915
"47095",642.4765,77.95773,79.32168
"47096",642.4898,77.96994,79.270065
"47097",642.5031,78.00656,79.24325
"47098",642.5164,78.05539,79.22978
"47099",642.5297,78.1091,79.222725
"47100",642.543,78.153046,79.20758
"47101",642.55634,78.18234,79.17916
"47102",642.56964,78.19211,79.132126
"47103",642.58295,78.1799,79.06342
"47104",642.59625,78.14572,78.97237
"47105",642.60956,78.08469,78.853386
"47106",642.62286,78.011444,78.72029
"47107",642.63617,77.92355,78.57026
"47108",642.6495,77.84543,78.427246
"47109",642.6628,77.803925,78.31841
"47110",642.6761,77.86252,78.30838
"47111",642.6894,78.1091,78.48817
"47112",642.7027,78.63645,78.95643
"47113",642.716,79.49096,79.768326
"47114",642.7293,80.64576,80.90722
"47115",642.7426,82.005646,82.287285
"47116",642.7559,83.40215,83.74647
"47117",642.7692,84.65705,85.10768
"47118",642.78253,85.6141,86.21026
"47119",642.79584,86.185394,86.95699
"47120",642.80914,86.346535,87.311424
"47121",642.82245,86.14633,87.30955
"47122",642.83575,85.67025,87.025536
"47123",642.84906,85.02083,86.55331
"47124",642.86237,84.29084,85.98022
"47125",642.8757,83.563286,85.38675
"47126",642.889,82.879684,84.8145
"47127",642.9023,82.25468,84.27948
"47128",642.9156,81.705345,83.800606
"47129",642.9289,81.23903,83.38758
"47130",642.9422,80.88014,83.06741
"47131",642.9555,80.65797,82.87274
"47132",642.9688,80.59205,82.827385
"47133",642.9821,80.66285,82.91669
"47134",642.9954,80.8362,83.11075
"47135",643.0087,81.05104,83.35172
"47136",643.02203,81.24391,83.57744
"47137",643.03534,81.358665,83.731064
"47138",643.04865,81.356224,83.77108
"47139",643.06195,81.231705,83.68894
"47140",643.07526,80.98512,83.48085
"47141",643.08856,80.64576,83.17227
"47142",643.10187,80.2478,82.794495
"47143",643.1152,79.823,82.37743
"47144",643.1285,79.40063,81.94953
"47145",643.1418,79.01488,81.54505
"47146",643.1551,78.66819,81.16758
"47147",643.1684,78.37522,80.83299
"47148",643.1817,78.133514,80.54051
"47149",643.195,77.960175,80.308846
"47150",643.2083,77.84543,80.130356
"47151",643.2216,77.78439,80.00199
"47152",643.2349,77.7673,79.915665
"47153",643.2482,77.78439,79.86298
"47154",643.26154,77.823456,79.83281
"47155",643.27484,77.874725,79.81606
"47156",643.28815,77.93088,79.8058
"47157",643.30145,77.98215,79.79241
"47158",643.31476,78.02365,79.77086
"47159",643.32806,78.04562,79.73107
"47160",643.3414,78.04562,79.67
"47161",643.3547,78.01633,79.57963
"47162",643.368,77.95529,79.456604
"47163",643.3813,77.86984,79.30726
"47164",643.3946,77.77219,79.143036
"47165",643.4079,77.6672,78.96843
"47166",643.4212,77.58175,78.81008
"47167",643.4345,77.557335,78.7101
"47168",643.4478,77.67452,78.75095
"47169",643.4611,78.0383,79.04206
"47170",643.4744,78.74143,79.68389
"47171",643.48773,79.82544,80.72857
"47172",643.50104,81.25124,82.14892
"47173",643.51434,82.882126,83.8189
"47174",643.52765,84.52033,85.54717
"47175",643.54095,85.95346,87.12156
"47176",643.55426,87.01305,88.36719
"47177",643.56757,87.61852,89.19182
"47178",643.5809,87.767456,89.57883
"47179",643.5942,87.535515,89.589615
"47180",643.6075,87.02281,89.31239
"47181",643.6208,86.35386,88.8629
"47182",643.6341,85.64095,88.34855
"47183",643.6474,84.95247,87.83634
"47184",643.6607,84.32014,87.35877
"47185",643.674,83.758606,86.93224
"47186",643.6873,83.26055,86.55164
"47187",643.7006,82.81621,86.20919
"47188",643.7139,82.425575,85.90656
"47189",643.72723,82.1033,85.66009
"47190",643.74054,81.85916,85.481674
"47191",643.75385,81.69558,85.37619
"47192",643.76715,81.59548,85.32908
"47193",643.78046,81.52224,85.305695
"47194",643.79376,81.44167,85.2727
"47195",643.80707,81.322044,85.19812
"47196",643.8204,81.14137,85.05876
"47197",643.8337,80.88258,84.83564
"47198",643.847,80.54322,84.52386
"47199",643.8603,80.130615,84.12823
"47200",643.8736,79.65942,83.66111
"47201",643.8869,79.15648,83.14753
"47202",643.9002,78.6511,82.61579
"47203",643.9135,78.16281,82.08535
"47204",643.9268,77.71603,81.581154
"47205",643.9401,77.31808,81.11183
"47206",643.9534,76.97627,80.68622
"47207",643.96674,76.69306,80.30852
"47208",643.98004,76.46845,79.98057
"47209",643.99335,76.30244,79.70419
"47210",644.00665,76.18768,79.47389
"47211",644.01996,76.11932,79.2864
"47212",644.03326,76.087585,79.13339
"47213",644.0466,76.085144,79.00869
"47214",644.0599,76.10712,78.908325
"47215",644.0732,76.13397,78.81353
"47216",644.0865,76.16571,78.72446
"47217",644.0998,76.190125,78.62905
"47218",644.1131,76.207214,78.527084
"47219",644.1264,76.209656,78.411
"47220",644.1397,76.19501,78.27791
"47221",644.153,76.155945,78.11994
"47222",644.1663,76.104675,77.94855
"47223",644.1796,76.036316,77.75846
"47224",644.19293,75.95575,77.55403
"47225",644.20624,75.877625,77.349525
"47226",644.21954,75.81415,77.15723
"47227",644.23285,75.78729,76.999565
"47228",644.24615,75.85809,76.93872
"47229",644.25946,76.112,77.063194
"47230",644.27277,76.65156,77.481255
"47231",644.2861,77.557335,78.282394
"47232",644.2994,78.839096,79.48782
"47233",644.3127,80.41627,81.02872
"47234",644.326,82.11307,82.738525
"47235",644.3393,83.717094,84.408585
"47236",644.3526,85.02815,85.8358
"47237",644.3659,85.91684,86.881615
"47238",644.3792,86.33189,87.48156
"47239",644.3925,86.30991,87.657455
"47240",644.4058,85.94614,87.49086
"47241",644.4191,85.36263,87.09317
"47242",644.43243,84.681465,86.57958
"47243",644.44574,84.00763,86.05204
"47244",644.45905,83.41436,85.58401
"47245",644.47235,82.92119,85.19753
"47246",644.48566,82.52567,84.8933
"47247",644.49896,82.20096,84.647514
"47248",644.51227,81.92752,84.442856
"47249",644.5256,81.70046,84.27603
"47250",644.5389,81.53933,84.16804
"47251",644.5522,81.45144,84.12825
"47252",644.5655,81.42458,84.14675
"47253",644.5788,81.42458,84.19127
"47254",644.5921,81.41482,84.22602
"47255",644.6054,81.358665,84.21408
"47256",644.6187,81.22438,84.12225
"47257",644.632,81.00954,83.94567
"47258",644.6453,80.723885,83.69157
"47259",644.6586,80.37476,83.36507
"47260",644.67194,79.96704,82.969055
"47261",644.68524,79.520256,82.52124
"47262",644.69855,79.0515,82.03749
"47263",644.71185,78.58518,81.541534
"47264",644.72516,78.1384,81.05054
"47265",644.73846,77.72579,80.57976
"47266",644.7518,77.35958,80.14248
"47267",644.7651,77.04707,79.74746
"47268",644.7784,76.788284,79.39639
"47269",644.7917,76.58076,79.0885
"47270",644.805,76.422066,78.82296
"47271",644.8183,76.314644,78.60373
"47272",644.8316,76.24872,78.42264
"47273",644.8449,76.21454,78.27123
"47274",644.8582,76.20477,78.14317
"47275",644.8715,76.207214,78.027016
"47276",644.8848,76.21942,77.9207
"47277",644.89813,76.23163,77.814766
"47278",644.91144,76.243835,77.70921
"47279",644.92474,76.24628,77.59428
"47280",644.93805,76.23895,77.46965
"47281",644.95135,76.2121,77.325264
"47282",644.96466,76.16327,77.158066
"47283",644.97797,76.09491,76.96981
"47284",644.9913,76.01434,76.76721
"47285",645.0046,75.928894,76.55721
"47286",645.0179,75.843445,76.34454
"47287",645.0312,75.76776,76.13897
"47288",645.0445,75.7116,75.950554
"47289",645.0578,75.69207,75.79701
"47290",645.0711,75.74822,75.718544
"47291",645.0844,75.96307,75.80053
"47292",645.0977,76.4416,76.1529
"47293",645.111,77.25216,76.852264
"47294",645.1243,78.4094,77.92364
"47295",645.13763,79.84253,79.30706
"47296",645.15094,81.39773,80.85734
"47297",645.16425,82.865036,82.368324
"47298",645.17755,84.06378,83.6566
"47299",645.19086,84.86702,84.58683
"47300",645.20416,85.23811,85.110016
"47301",645.21747,85.22102,85.256615
"47302",645.2308,84.90852,85.10727
"47303",645.2441,84.420235,84.77237
"47304",645.2574,83.88312,84.37338
"47305",645.2707,83.38506,83.99667
"47306",645.284,82.98711,83.7045
"47307",645.2973,82.703896,83.51463
"47308",645.3106,82.513466,83.4087
"47309",645.3239,82.371864,83.34564
"47310",645.3372,82.2449,83.2928
"47311",645.3505,82.13504,83.25309
"47312",645.36383,82.04471,83.22948
"47313",645.37714,81.99588,83.244545
"47314",645.39044,81.991,83.30203
"47315",645.40375,82.00809,83.38134
"47316",645.41705,82.00809,83.44409
"47317",645.43036,81.951935,83.45069
"47318",645.44366,81.80057,83.36032
"47319",645.457,81.54177,83.15779
"47320",645.4703,81.180435,82.844635
"47321",645.4836,80.73609,82.43718
"47322",645.4969,80.22095,81.94504
"47323",645.5102,79.66674,81.397736
"47324",645.5235,79.09544,80.816025
"47325",645.5368,78.52659,80.2189
"47326",645.5501,77.97482,79.62109
"47327",645.5634,77.454796,79.03778
"47328",645.5767,76.978714,78.48216
"47329",645.59,76.558784,77.96782
"47330",645.60333,76.21454,77.51604
"47331",645.61664,75.945984,77.12919
"47332",645.62994,75.76288,76.8194
"47333",645.64325,75.66033,76.58444
"47334",645.65656,75.62859,76.41709
"47335",645.66986,75.66033,76.312225
"47336",645.68317,75.74334,76.25962
"47337",645.6965,75.8703,76.25356
"47338",645.7098,76.02655,76.28076
"47339",645.7231,76.19501,76.32505
"47340",645.7364,76.368355,76.37949
"47341",645.7497,76.53681,76.43446
"47342",645.763,76.68574,76.47517
"47343",645.7763,76.807816,76.493675
"47344",645.7896,76.90547,76.49158
"47345",645.8029,76.981155,76.47056
"47346",645.8162,77.0251,76.420166
"47347",645.8295,77.03731,76.33941
"47348",645.84283,77.01289,76.22241
"47349",645.85614,76.95674,76.072914
"47350",645.86945,76.87129,75.892365
"47351",645.88275,76.788284,75.711586
"47352",645.89606,76.74189,75.56483
"47353",645.90936,76.788284,75.50941
"47354",645.92267,77.01778,75.638535
"47355",645.936,77.506065,76.03363
"47356",645.9493,78.30198,76.75161
"47357",645.9626,79.40063,77.797195
"47358",645.9759,80.726326,79.104164
"47359",645.9892,82.12039,80.52093
"47360",646.0025,83.404594,81.87139
"47361",646.0158,84.41779,82.99098
"47362",646.0291,85.06966,83.7809
"47363",646.0424,85.333336,84.203
"47364",646.0557,85.25277,84.2891
"47365",646.06903,84.91341,84.113884
"47366",646.08234,84.41291,83.76693
"47367",646.09564,83.84894,83.34086
"47368",646.10895,83.302055,82.91425
"47369",646.12225,82.81865,82.534035
"47370",646.13556,82.406044,82.20951
"47371",646.14886,82.056915,81.93557
"47372",646.1622,81.761505,81.70444
"47373",646.1755,81.50759,81.50557
"47374",646.1888,81.31228,81.35737
"47375",646.2021,81.180435,81.26653
"47376",646.2154,81.126724,81.24971
"47377",646.2287,81.14137,81.29957
"47378",646.242,81.197525,81.39139
"47379",646.2553,81.25857,81.48985
"47380",646.2686,81.290306,81.56092
"47381",646.2819,81.25613,81.56706
"47382",646.2952,81.143814,81.494
"47383",646.30853,80.94606,81.33199
"47384",646.32184,80.672615,81.08811
"47385",646.33514,80.325935,80.76245
"47386",646.34845,79.92798,80.37468
"47387",646.36176,79.51049,79.95494
"47388",646.37506,79.10765,79.536804
"47389",646.38837,78.72434,79.12561
"47390",646.4017,78.37522,78.736626
"47391",646.415,78.065155,78.375786
"47392",646.4283,77.786835,78.037
"47393",646.4416,77.53292,77.71393
"47394",646.4549,77.30831,77.412224
"47395",646.4682,77.10811,77.12791
"47396",646.4815,76.93721,76.86664
"47397",646.4948,76.80049,76.63421
"47398",646.5081,76.70283,76.43656
"47399",646.5214,76.64179,76.27249
"47400",646.5347,76.61982,76.14558
"47401",646.54803,76.627144,76.04727
"47402",646.56134,76.64912,75.963844
"47403",646.57465,76.66621,75.87622
"47404",646.58795,76.67597,75.78181
"47405",646.60126,76.67597,75.67793
"47406",646.61456,76.67353,75.57162
"47407",646.62787,76.66132,75.45546
"47408",646.6412,76.64423,75.33404
"47409",646.6545,76.61982,75.20476
"47410",646.6678,76.59785,75.077156
"47411",646.6811,76.58564,74.95863
"47412",646.6944,76.59052,74.85682
"47413",646.7077,76.61738,74.77713
"47414",646.721,76.700386,74.75443
"47415",646.7343,76.89082,74.84176
"47416",646.7476,77.26925,75.123024
"47417",646.7609,77.89914,75.66758
"47418",646.77423,78.80736,76.51015
"47419",646.78754,79.96216,77.62768
"47420",646.80084,81.24635,78.91069
"47421",646.81415,82.50126,80.204544
"47422",646.82745,83.57061,81.35206
"47423",646.84076,84.33967,82.2327
"47424",646.85406,84.76692,82.79556
"47425",646.8674,84.86214,83.03974
"47426",646.8807,84.68879,83.01833
"47427",646.894,84.3299,82.80597
"47428",646.9073,83.87579,82.48717
"47429",646.9206,83.404594,82.137085
"47430",646.9339,82.95781,81.79669
"47431",646.9472,82.562294,81.49361
"47432",646.9605,82.20828,81.219666
"47433",646.9738,81.89334,80.97373
"47434",646.9871,81.62234,80.761894
"47435",647.0004,81.409935,80.60019
"47436",647.01373,81.270775,80.50509
"47437",647.02704,81.214615,80.48864
"47438",647.04034,81.22682,80.5388
"47439",647.05365,81.27566,80.62598
"47440",647.06696,81.31472,80.7049
"47441",647.08026,81.31228,80.743546
"47442",647.09357,81.248795,80.72107
"47443",647.1069,81.109634,80.62093
"47444",647.1202,80.89479,80.440765
"47445",647.1335,80.61646,80.1904
"47446",647.1468,80.28687,79.88007
"47447",647.1601,79.92798,79.53014
"47448",647.1734,79.55688,79.15679
"47449",647.1867,79.1931,78.77917
"47450",647.2,78.8513,78.412155
"47451",647.2133,78.54856,78.07352
"47452",647.2266,78.294655,77.774254
"47453",647.2399,78.08957,77.51588
"47454",647.25323,77.94064,77.30725
"47455",647.26654,77.84299,77.14524
"47456",647.27985,77.79172,77.026566
"47457",647.29315,77.769745,76.935585
"47458",647.30646,77.77707,76.873215
"47459",647.31976,77.80881,76.83549
"47460",647.33307,77.86008,76.81828
"47461",647.3464,77.91867,76.810005
"47462",647.3597,77.977264,76.80356
"47463",647.373,78.028534,76.79162
"47464",647.3863,78.065155,76.76663
"47465",647.3996,78.07736,76.718376
"47466",647.4129,78.0676,76.64853
"47467",647.4262,78.04074,76.56129
"47468",647.4395,78.00168,76.461
"47469",647.4528,77.94797,76.34484
"47470",647.4661,77.88205,76.2148
"47471",647.47943,77.81613,76.082695
"47472",647.49274,77.752655,75.95097
"47473",647.50604,77.7087,75.83679
"47474",647.51935,77.72579,75.78228
"47475",647.53265,77.874725,75.860146
"47476",647.54596,78.23117,76.15018
"47477",647.55927,78.84398,76.70771
"47478",647.5726,79.725334,77.55294
"47479",647.5859,80.80202,78.62104
"47480",647.5992,81.94949,79.79358
"47481",647.6125,83.018845,80.92385
"47482",647.6258,83.88312,81.88246
"47483",647.6391,84.454414,82.5751
"47484",647.6524,84.7132,82.97309
"47485",647.6657,84.68391,83.09108
"47486",647.679,84.43,82.98354
"47487",647.6923,84.03204,82.72402
"47488",647.7056,83.57061,82.38859
"47489",647.71893,83.1165,82.04606
"47490",647.73224,82.703896,81.73084
"47491",647.74554,82.34501,81.45645
"47492",647.75885,82.037384,81.22211
"47493",647.77216,81.78104,81.02943
"47494",647.78546,81.583275,80.88732
"47495",647.79877,81.45632,80.809845
"47496",647.8121,81.41482,80.81385
"47497",647.8254,81.461205,80.90445
"47498",647.8387,81.56863,81.05753
"47499",647.852,81.688255,81.22618
"47500",647.8653,81.78348,81.37416
"47501",647.8786,81.812775,81.45919
"47502",647.8919,81.76395,81.46701
"47503",647.9052,81.62478,81.382965
"47504",647.9185,81.40261,81.21157
"47505",647.9318,81.109634,80.962425
"47506",647.9451,80.77516,80.66263
"47507",647.95844,80.41627,80.32796
"47508",647.97174,80.05249,79.97719
"47509",647.98505,79.68627,79.61261
"47510",647.99835,79.34203,79.25857
"47511",648.01166,79.03197,78.92794
"47512",648.02496,78.75853,78.62425
"47513",648.03827,78.536354,78.36328
"47514",648.0516,78.380104,78.16129
"47515",648.0649,78.28489,78.01546
"47516",648.0782,78.23361,77.91058
"47517",648.0915,78.21652,77.838295
"47518",648.1048,78.221405,77.787445
"47519",648.1181,78.24338,77.75384
"47520",648.1314,78.2678,77.723366
"47521",648.1447,78.28733,77.68877
"47522",648.158,78.29221,77.64013
"47523",648.1713,78.27268,77.56723
"47524",648.18463,78.22385,77.46442
"47525",648.19794,78.153046,77.33811
"47526",648.21124,78.065155,77.192505
"47527",648.22455,77.960175,77.02706
"47528",648.23785,77.84299,76.84613
"47529",648.25116,77.72823,76.66397
"47530",648.26447,77.65499,76.51974
"47531",648.2778,77.68917,76.48064
"47532",648.2911,77.90158,76.620834
"47533",648.3044,78.345924,76.9996
"47534",648.3177,79.027084,77.629074
"47535",648.331,79.87915,78.45074
"47536",648.3443,80.79225,79.36006
"47537",648.3576,81.636986,80.22955
"47538",648.3709,82.31083,80.95455
"47539",648.3842,82.7454,81.461334
"47540",648.3975,82.92607,81.7278
"47541",648.4108,82.87724,81.77041
"47542",648.42413,82.65507,81.638145
"47543",648.43744,82.32304,81.389084
"47544",648.45074,81.94217,81.08081
"47545",648.46405,81.5613,80.760635
"47546",648.47736,81.19997,80.44809
"47547",648.49066,80.87038,80.156
"47548",648.50397,80.567635,79.880455
"47549",648.5173,80.29664,79.6272
"47550",648.5306,80.079346,79.419174
"47551",648.5439,79.92554,79.267845
"47552",648.5572,79.852295,79.192276
"47553",648.5705,79.85474,79.1901
"47554",648.5838,79.91333,79.244156
"47555",648.5971,79.991455,79.31957
"47556",648.6104,80.05005,79.3779
"47557",648.6237,80.0647,79.39411
"47558",648.637,80.01587,79.347305
"47559",648.6503,79.903564,79.2355
"47560",648.66364,79.725334,79.05425
"47561",648.67694,79.500725,78.82106
"47562",648.69025,79.24681,78.551544
"47563",648.70355,78.96849,78.24969
"47564",648.71686,78.68772,77.93668
"47565",648.73016,78.42161,77.62956
"47566",648.74347,78.19211,77.35074
"47567",648.7568,78.00412,77.106255
"47568",648.7701,77.86252,76.90228
"47569",648.7834,77.769745,76.742714
"47570",648.7967,77.71847,76.62174
"47571",648.81,77.71114,76.54312
"47572",648.8233,77.738,76.49845
"47573",648.8366,77.79172,76.48148
"47574",648.8499,77.86496,76.48572
"47575",648.8632,77.943085,76.49712
"47576",648.8765,78.013885,76.50365
"47577",648.88983,78.065155,76.49285
"47578",648.90314,78.099335,76.46657
"47579",648.91644,78.11398,76.42182
"47580",648.92975,78.118866,76.36777
"47581",648.94305,78.12131,76.311424
"47582",648.95636,78.135956,76.267365
"47583",648.96967,78.187225,76.26038
"47584",648.983,78.32639,76.3429
"47585",648.9963,78.61692,76.58113
"47586",649.0096,79.10277,77.02376
"47587",649.0229,79.78882,77.68177
"47588",649.0362,80.635994,78.52235
"47589",649.0495,81.54421,79.45044
"47590",649.0628,82.388954,80.34344
"47591",649.0761,83.05791,81.08704
"47592",649.0894,83.48516,81.609856
"47593",649.1027,83.64141,81.875015
"47594",649.116,83.55352,81.90092
"47595",649.12933,83.26299,81.721436
"47596",649.14264,82.84306,81.40347
"47597",649.15594,82.354774,81.00403
"47598",649.16925,81.85916,80.582
"47599",649.18256,81.38796,80.1689
"47600",649.19586,80.95827,79.78258
"47601",649.20917,80.58228,79.43654
"47602",649.2225,80.26002,79.13247
"47603",649.2358,80.0061,78.88668
"47604",649.2491,79.82788,78.70865
"47605",649.2624,79.73998,78.61537
"47606",649.2757,79.744865,78.61213
"47607",649.289,79.835205,78.694496
"47608",649.3023,79.974365,78.82851
"47609",649.3156,80.11597,78.96931
"47610",649.3289,80.216064,79.07303
"47611",649.3422,80.233154,79.09687
"47612",649.3555,80.14526,79.016266
"47613",649.36884,79.94751,78.82305
"47614",649.38214,79.66674,78.54064
"47615",649.39545,79.32006,78.18355
"47616",649.40875,78.93675,77.77899
"47617",649.42206,78.538795,77.34781
"47618",649.43536,78.14328,76.90663
"47619",649.44867,77.7673,76.47263
"47620",649.462,77.420616,76.056175
"47621",649.4753,77.11055,75.665504
"47622",649.4886,76.841995,75.306656
"47623",649.5019,76.61494,74.98091
"47624",649.5152,76.439156,74.69935
"47625",649.5285,76.3122,74.46112
"47626",649.5418,76.226746,74.26042
"47627",649.5551,76.1828,74.098564
"47628",649.5684,76.16815,73.96463
"47629",649.5817,76.175476,73.85221
"47630",649.59503,76.19989,73.75711
"47631",649.60834,76.23407,73.67254
"47632",649.62164,76.27314,73.593925
"47633",649.63495,76.32441,73.52873
"47634",649.64825,76.402534,73.492
"47635",649.66156,76.53681,73.513855
"47636",649.67487,76.78584,73.65466
"47637",649.6882,77.20332,73.9717
"47638",649.7015,77.81613,74.497116
"47639",649.7148,78.60227,75.21501
"47640",649.7281,79.50561,76.07467
"47641",649.7414,80.40894,76.962555
"47642",649.7547,81.197525,77.763916
"47643",649.768,81.78592,78.38973
"47644",649.7813,82.144806,78.80443
"47645",649.7946,82.27909,79.00574
"47646",649.8079,82.22293,79.0208
"47647",649.8212,82.037384,78.90472
"47648",649.83453,81.778595,78.709595
"47649",649.84784,81.49294,78.47952
"47650",649.86115,81.21217,78.24541
"47651",649.87445,80.95094,78.02206
"47652",649.88776,80.71412,77.81495
"47653",649.90106,80.51392,77.63707
"47654",649.91437,80.36744,77.506645
"47655",649.9277,80.29664,77.44733
"47656",649.941,80.31617,77.47613
"47657",649.9543,80.4358,77.60564
"47658",649.9676,80.635994,77.81945
"47659",649.9809,80.87526,78.07859
"47660",649.9942,81.109634,78.34032
"47661",650.0075,81.31228,78.57764
"47662",650.0208,81.446556,78.75292
"47663",650.0341,81.49294,78.84451
"47664",650.0474,81.45144,78.84966
"47665",650.0607,81.32937,78.77295
"47666",650.07404,81.14137,78.626495
"47667",650.08734,80.91188,78.43267
"47668",650.10065,80.66529,78.21458
"47669",650.11395,80.42115,77.99123
"47670",650.12726,80.18921,77.772446
"47671",650.14056,79.96704,77.55619
"47672",650.1539,79.77173,77.35985
"47673",650.1672,79.60082,77.18181
"47674",650.1805,79.466545,77.03506
"47675",650.1938,79.35912,76.910965
"47676",650.2071,79.293205,76.82502
"47677",650.2204,79.25414,76.76387
"47678",650.2337,79.234604,76.72102
"47679",650.247,79.22972,76.69222
"47680",650.2603,79.234604,76.673035
"47681",650.2736,79.24193,76.65644
"47682",650.2869,79.24925,76.640076
"47683",650.30023,79.26147,76.62883
"47684",650.31354,79.273674,76.61796
"47685",650.32684,79.30053,76.622116
"47686",650.34015,79.36889,76.66862
"47687",650.35345,79.52514,76.805145
"47688",650.36676,79.82056,77.085724
"47689",650.38007,80.29908,77.55864
"47690",650.3934,80.96315,78.232056
"47691",650.4067,81.76395,79.06295
"47692",650.42,82.59647,79.9506
"47693",650.4333,83.34356,80.778824
"47694",650.4466,83.90265,81.4424
"47695",650.4599,84.224915,81.88662
"47696",650.4732,84.30305,82.09678
"47697",650.4865,84.17853,82.10673
"47698",650.4998,83.914856,81.97363
"47699",650.5131,83.57061,81.751724
"47700",650.5264,83.19951,81.4922
"47701",650.53973,82.845505,81.23818
"47702",650.55304,82.530556,81.01215
"47703",650.56635,82.24979,80.81046
"47704",650.57965,82.00809,80.63907
"47705",650.59296,81.80301,80.49674
"47706",650.60626,81.636986,80.38706
"47707",650.61957,81.52224,80.32347
"47708",650.6329,81.478294,80.327095
"47709",650.6462,81.50271,80.397705
"47710",650.6595,81.57839,80.52035
"47711",650.6728,81.67361,80.66489
"47712",650.6861,81.74929,80.79287
"47713",650.6994,81.778595,80.87684
"47714",650.7127,81.74197,80.89579
"47715",650.726,81.64675,80.85501
"47716",650.7393,81.4905,80.75022
"47717",650.7526,81.28054,80.58684
"47718",650.7659,81.02174,80.36806
"47719",650.77924,80.73365,80.11189
"47720",650.79254,80.43336,79.834526
"47721",650.80585,80.13306,79.54777
"47722",650.81915,79.85962,79.27849
"47723",650.83246,79.62035,79.034836
"47724",650.84576,79.42748,78.8301
"47725",650.8591,79.26635,78.65108
"47726",650.8724,79.132065,78.493866
"47727",650.8857,79.0222,78.35688
"47728",650.899,78.93919,78.24332
"47729",650.9123,78.87572,78.14669
"47730",650.9256,78.836655,78.072495
"47731",650.9389,78.80736,78.00684
"47732",650.9522,78.785385,77.9476
"47733",650.9655,78.75853,77.88279
"47734",650.9788,78.72678,77.81225
"47735",650.9921,78.68772,77.7334
"47736",651.00543,78.64866,77.65333
"47737",651.01874,78.61692,77.57936
"47738",651.03204,78.59495,77.51417
"47739",651.04535,78.61448,77.48979
"47740",651.05865,78.7219,77.55392
"47741",651.07196,78.97826,77.77033
"47742",651.08527,79.432365,78.19251
"47743",651.0986,80.09155,78.83396
"47744",651.1119,80.89479,79.64006
"47745",651.1252,81.74197,80.5152
"47746",651.1385,82.49882,81.326485
"47747",651.1518,83.055466,81.96122
"47748",651.1651,83.36065,82.361885
"47749",651.1784,83.41436,82.520615
"47750",651.1917,83.265434,82.478386
"47751",651.205,82.97978,82.29478
"47752",651.2183,82.63554,82.04365
"47753",651.2316,82.28886,81.77933
"47754",651.24493,81.986115,81.54811
"47755",651.25824,81.73708,81.361145
"47756",651.27155,81.53689,81.21523
"47757",651.28485,81.3782,81.10457
"47758",651.29816,81.23903,81.00847
"47759",651.31146,81.11696,80.92512
"47760",651.32477,81.02174,80.86481
"47761",651.3381,80.970474,80.84547
"47762",651.3514,80.970474,80.87579
"47763",651.3647,81.02174,80.95739
"47764",651.378,81.092545,81.06012
"47765",651.3913,81.1487,81.15041
"47766",651.4046,81.160904,81.19852
"47767",651.4179,81.10719,81.18108
"47768",651.4312,80.98512,81.09361
"47769",651.4445,80.80202,80.94129
"47770",651.4578,80.57984,80.74418
"47771",651.4711,80.33082,80.513275
"47772",651.48444,80.06958,80.262375
"47773",651.49774,79.80591,80.00088
"47774",651.51105,79.551994,79.7409
"47775",651.52435,79.3225,79.497406
"47776",651.53766,79.11986,79.27359
"47777",651.55096,78.94408,79.070305
"47778",651.5643,78.79271,78.88594
"47779",651.5776,78.675514,78.73102
"47780",651.5909,78.58762,78.60174
"47781",651.6042,78.53147,78.50145
"47782",651.6175,78.502174,78.42626
"47783",651.6308,78.49241,78.36969
"47784",651.6441,78.48997,78.32014
"47785",651.6574,78.487526,78.27051
"47786",651.6707,78.48264,78.21836
"47787",651.684,78.46311,78.15141
"47788",651.6973,78.433815,78.07409
"47789",651.71063,78.399635,77.99097
"47790",651.72394,78.363014,77.904335
"47791",651.73724,78.32639,77.81656
"47792",651.75055,78.294655,77.73252
"47793",651.76385,78.27512,77.6597
"47794",651.77716,78.28977,77.620445
"47795",651.79047,78.380104,77.65733
"47796",651.8038,78.6096,77.836205
"47797",651.8171,79.04173,78.22489
"47798",651.8304,79.68383,78.83704
"47799",651.8437,80.48707,79.6304
"47800",651.857,81.358665,80.51722
"47801",651.8703,82.16678,81.36779
"47802",651.8836,82.78935,82.058075
"47803",651.8969,83.16533,82.52122
"47804",651.9102,83.29717,82.751976
"47805",651.9235,83.21904,82.77688
"47806",651.9368,82.99443,82.65286
"47807",651.95013,82.69901,82.45102
"47808",651.96344,82.391396,82.227745
"47809",651.97675,82.10574,82.01682
"47810",651.99005,81.86893,81.84581
"47811",652.00336,81.68093,81.71622
"47812",652.01666,81.53445,81.62226
"47813",652.02997,81.409935,81.5457
"47814",652.0433,81.304955,81.48478
"47815",652.0566,81.21706,81.43766
"47816",652.0699,81.15602,81.41466
"47817",652.0832,81.13161,81.42637
"47818",652.0965,81.143814,81.47394
"47819",652.1098,81.18288,81.548744
"47820",652.1231,81.20973,81.612564
"47821",652.1364,81.20973,81.65037
"47822",652.1497,81.15846,81.6369
"47823",652.163,81.0486,81.56324
"47824",652.17633,80.8777,81.42511
"47825",652.18964,80.66529,81.24013
"47826",652.20294,80.428474,81.0241
"47827",652.21625,80.177,80.78602
"47828",652.22955,79.92554,80.540085
"47829",652.24286,79.68139,80.29361
"47830",652.25616,79.45678,80.059044
"47831",652.2695,79.2517,79.83699
"47832",652.2828,79.06859,79.63049
"47833",652.2961,78.91234,79.44514
"47834",652.3094,78.78294,79.28175
"47835",652.3227,78.6804,79.141174
"47836",652.336,78.60471,79.024254
"47837",652.3493,78.551,78.92694
"47838",652.3626,78.51194,78.8426
"47839",652.3759,78.487526,78.77168
"47840",652.3892,78.470436,78.70733
"47841",652.4025,78.45823,78.64732
"47842",652.41583,78.44358,78.584496
"47843",652.42914,78.42161,78.513885
"47844",652.44244,78.39231,78.435265
"47845",652.45575,78.35325,78.34596
"47846",652.46906,78.311745,78.253
"47847",652.48236,78.260475,78.14897
"47848",652.49567,78.2092,78.043335
"47849",652.509,78.15793,77.936104
"47850",652.5223,78.116425,77.837036
"47851",652.5356,78.09445,77.7562
"47852",652.5489,78.12863,77.730835
"47853",652.5622,78.28245,77.82617
"47854",652.5755,78.6218,78.111855
"47855",652.5888,79.17845,78.625435
"47856",652.6021,79.92798,79.34929
"47857",652.6154,80.8069,80.22596
"47858",652.6287,81.6907,81.13497
"47859",652.642,82.44755,81.94466
"47860",652.65533,82.97734,82.550934
"47861",652.66864,83.245895,82.91253
"47862",652.68195,83.2752,83.04327
"47863",652.69525,83.13359,83.004005
"47864",652.70856,82.88457,82.852905
"47865",652.72186,82.59403,82.65251
"47866",652.73517,82.320595,82.46014
"47867",652.7485,82.08865,82.30071
"47868",652.7618,81.90311,82.180435
"47869",652.7751,81.74685,82.08365
"47870",652.7884,81.617455,82.00884
"47871",652.8017,81.497826,81.93976
"47872",652.815,81.392845,81.881584
"47873",652.8283,81.30984,81.8421
"47874",652.8416,81.26345,81.83665
"47875",652.8549,81.25857,81.87125
"47876",652.8682,81.28298,81.93499
"47877",652.88153,81.30984,82.00194
"47878",652.89484,81.31228,82.04531
"47879",652.90814,81.27566,82.0497
"47880",652.92145,81.1902,82.004105
"47881",652.93475,81.05104,81.90214
"47882",652.94806,80.86305,81.746994
"47883",652.96136,80.635994,81.546906
"47884",652.9747,80.38209,81.312874
"47885",652.988,80.11597,81.05869
"47886",653.0013,79.852295,80.798645
"47887",653.0146,79.59594,80.537674
"47888",653.0279,79.35668,80.28579
"47889",653.0412,79.14183,80.050835
"47890",653.0545,78.95384,79.83603
"47891",653.0678,78.79759,79.64709
"47892",653.0811,78.675514,79.487434
"47893",653.0944,78.58274,79.35327
"47894",653.1077,78.51194,79.23818
"47895",653.12103,78.46067,79.14041
"47896",653.13434,78.42161,79.053246
"47897",653.14764,78.380104,78.96242
"47898",653.16095,78.33616,78.86785
"47899",653.17426,78.294655,78.77435
"47900",653.18756,78.2678,78.69421
"47901",653.20087,78.24826,78.62054
"47902",653.2142,78.23117,78.548706
"47903",653.2275,78.21164,78.4739
"47904",653.2408,78.18234,78.38872
"47905",653.2541,78.133514,78.28309
"47906",653.2674,78.0676,78.158844
"47907",653.2807,77.98703,78.01789
"47908",653.294,77.89426,77.86221
"47909",653.3073,77.806366,77.70852
"47910",653.3206,77.73556,77.56916
"47911",653.3339,77.69161,77.45445
"47912",653.3472,77.69894,77.38964
"47913",653.36053,77.79904,77.41784
"47914",653.37384,78.048065,77.59808
"47915",653.38715,78.49241,77.98143
"47916",653.40045,79.15404,78.59595
"47917",653.41376,80.00366,79.419136
"47918",653.42706,80.94606,80.36165
"47919",653.44037,81.85428,81.29943
"47920",653.4537,82.59647,82.09957
"47921",653.467,83.09453,82.678764
"47922",653.4803,83.32403,83.00497
"47923",653.4936,83.3167,83.10152
"47924",653.5069,83.13359,83.02205
"47925",653.5202,82.845505,82.83189
"47926",653.5335,82.51835,82.59365
"47927",653.5468,82.21805,82.37205
"47928",653.5601,81.971466,82.19478
"47929",653.5734,81.778595,82.063515
"47930",653.58673,81.62234,81.96284
"47931",653.60004,81.48806,81.87926
"47932",653.61334,81.36843,81.80613
"47933",653.62665,81.26589,81.74635
"47934",653.63995,81.197525,81.717545
"47935",653.65326,81.17799,81.735435
"47936",653.66656,81.20729,81.801544
"47937",653.6799,81.25857,81.89055
"47938",653.6932,81.30984,81.98115
"47939",653.7065,81.33181,82.04405
"47940",653.7198,81.30251,82.05637
"47941",653.7331,81.20973,82.004295
"47942",653.7464,81.05592,81.88829
"47943",653.7597,80.85573,81.72109
"47944",653.773,80.61402,81.50613
"47945",653.7863,80.34058,81.25188
"47946",653.7996,80.05493,80.97687
"47947",653.8129,79.76929,80.69294
"47948",653.82623,79.49828,80.41473
"47949",653.83954,79.25414,80.15491
"47950",653.85284,79.04906,79.92651
"47951",653.86615,78.8806,79.72834
"47952",653.87946,78.74387,79.55663
"47953",653.89276,78.63157,79.405075
"47954",653.90607,78.54124,79.27198
"47955",653.9194,78.470436,79.155594
"47956",653.9327,78.41428,79.05164
"47957",653.946,78.37522,78.96303
"47958",653.9593,78.345924,78.88296
"47959",653.9726,78.31663,78.80197
"47960",653.9859,78.28977,78.72251
"47961",653.9992,78.25803,78.63733
"47962",654.0125,78.21652,78.54138
"47963",654.0258,78.17502,78.444145
"47964",654.0391,78.13107,78.34317
"47965",654.0524,78.082245,78.23594
"47966",654.06573,78.028534,78.1223
"47967",654.07904,77.96994,78.0021
"47968",654.09235,77.90402,77.87274
"47969",654.10565,77.83322,77.73644
"47970",654.11896,77.75754,77.59305
"47971",654.13226,77.68917,77.454605
"47972",654.14557,77.63058,77.3238
"47973",654.1589,77.5671,77.18628
"47974",654.1722,77.4963,77.03945
"47975",654.1855,77.437706,76.90262
"47976",654.1988,77.41085,76.79569
"47977",654.2121,77.45724,76.76117
"47978",654.2254,77.65011,76.87458
"47979",654.2387,78.06027,77.21131
"47980",654.252,78.71458,77.805
"47981",654.2653,79.571526,78.62178
"47982",654.2786,80.552986,79.58985
"47983",654.29193,81.53445,80.58859
"47984",654.30524,82.37675,81.47884
"47985",654.31854,82.98222,82.15859
"47986",654.33185,83.30938,82.57894
"47987",654.34515,83.38018,82.75316
"47988",654.35846,83.24101,82.71962
"47989",654.37177,82.96513,82.54502
"47990",654.3851,82.62821,82.30076
"47991",654.3984,82.28886,82.04353
"47992",654.4117,81.97635,81.80255
"47993",654.425,81.71267,81.60063
"47994",654.4383,81.48806,81.42954
"47995",654.4516,81.29275,81.28073
"47996",654.4649,81.11696,81.14534
"47997",654.4782,80.972916,81.0362
"47998",654.4915,80.87038,80.964066
"47999",654.5048,80.82155,80.94244
"48000",654.5181,80.82399,80.97055
"48001",654.53143,80.86305,81.03536
"48002",654.54474,80.89967,81.09895
"48003",654.55804,80.91432,81.141716
"48004",654.57135,80.89235,81.148315
"48005",654.58466,80.81911,81.10296
"48006",654.59796,80.68482,80.99427
"48007",654.61127,80.50416,80.83501
"48008",654.6246,80.274666,80.62127
"48009",654.6379,80.008545,80.36373
"48010",654.6512,79.71557,80.07102
"48011",654.6645,79.42016,79.76672
"48012",654.6778,79.14183,79.470276
"48013",654.6911,78.887924,79.18955
"48014",654.7044,78.66331,78.93018
"48015",654.7177,78.4802,78.70531
"48016",654.731,78.33616,78.51377
"48017",654.7443,78.23117,78.35679
"48018",654.7576,78.15793,78.22827
"48019",654.77094,78.12131,78.13409
"48020",654.78424,78.11154,78.06561
"48021",654.79755,78.116425,78.01148
"48022",654.81085,78.135956,77.97215
"48023",654.82416,78.16281,77.94076
"48024",654.83746,78.18967,77.9102
"48025",654.85077,78.20676,77.87072
"48026",654.8641,78.22385,77.83177
"48027",654.8774,78.23605,77.788475
"48028",654.8907,78.24094,77.738235
"48029",654.904,78.238495,77.680824
"48030",654.9173,78.22385,77.61113
"48031",654.9306,78.204315,77.536095
"48032",654.9439,78.17502,77.45068
"48033",654.9572,78.14328,77.361916
"48034",654.9705,78.11154,77.272156
"48035",654.9838,78.08713,77.18873
"48036",654.99713,78.07248,77.1143
"48037",655.01044,78.0676,77.04919
"48038",655.02374,78.09201,77.013214
"48039",655.03705,78.1799,77.04148
"48040",655.05035,78.39475,77.199455
"48041",655.06366,78.79027,77.54481
"48042",655.07697,79.412834,78.12957
"48043",655.0903,80.24292,78.94131
"48044",655.1036,81.214615,79.92059
"48045",655.1169,82.20828,80.95222
"48046",655.1302,83.09697,81.90991
"48047",655.1435,83.78058,82.6903
"48048",655.1568,84.20294,83.230804
"48049",655.1701,84.36408,83.523285
"48050",655.1834,84.30793,83.60351
"48051",655.1967,84.085754,83.51595
"48052",655.21,83.773254,83.33113
"48053",655.2233,83.424126,83.099915
"48054",655.23663,83.08232,82.86511
"48055",655.24994,82.76982,82.64893
"48056",655.26324,82.48661,82.45228
"48057",655.27655,82.23514,82.27851
"48058",655.28986,82.02518,82.1384
"48059",655.30316,81.86893,82.04543
"48060",655.31647,81.78104,82.015945
"48061",655.3298,81.77127,82.06184
"48062",655.3431,81.84207,82.18799
"48063",655.3564,81.969025,82.372505
"48064",655.3697,82.11063,82.57564
"48065",655.383,82.22781,82.75878
"48066",655.3963,82.286415,82.887
"48067",655.4096,82.266884,82.93892
"48068",655.4229,82.161896,82.90477
"48069",655.4362,81.97391,82.78434
"48070",655.4495,81.71999,82.59211
"48071",655.4628,81.4197,82.345566
"48072",655.47614,81.0901,82.06033
"48073",655.48944,80.75075,81.75504
"48074",655.50275,80.41871,81.446465
"48075",655.51605,80.111084,81.151924
"48076",655.52936,79.83032,80.87463
"48077",655.54266,79.588615,80.627625
"48078",655.55597,79.37377,80.399925
"48079",655.5693,79.1931,80.199684
"48080",655.5826,79.04906,80.030426
"48081",655.5959,78.94408,79.89573
"48082",655.6092,78.873276,79.79193
"48083",655.6225,78.83177,79.71522
"48084",655.6358,78.81468,79.66162
"48085",655.6491,78.8098,79.6197
"48086",655.6624,78.81224,79.584946
"48087",655.6757,78.81224,79.54783
"48088",655.689,78.8098,79.50827
"48089",655.70233,78.79759,79.45887
"48090",655.71564,78.77318,79.39688
"48091",655.72894,78.73167,79.31703
"48092",655.74225,78.68284,79.22857
"48093",655.75555,78.61936,79.12393
"48094",655.76886,78.54856,79.00999
"48095",655.78217,78.470436,78.886505
"48096",655.7955,78.382545,78.75082
"48097",655.8088,78.29954,78.61726
"48098",655.8221,78.22629,78.490875
"48099",655.8354,78.17258,78.38174
"48100",655.8487,78.17746,78.32951
"48101",655.862,78.2971,78.3922
"48102",655.8753,78.6096,78.65148
"48103",655.8886,79.17357,79.172005
"48104",655.9019,80.008545,79.981155
"48105",655.9152,81.06813,81.04101
"48106",655.9285,82.23758,82.243835
"48107",655.94183,83.370415,83.446594
"48108",655.95514,84.32746,84.508965
"48109",655.96844,85.013504,85.33024
"48110",655.98175,85.399254,85.87266
"48111",655.99506,85.49935,86.14148
"48112",656.00836,85.365074,86.179054
"48113",656.02167,85.0721,86.053734
"48114",656.035,84.69367,85.83381
"48115",656.0483,84.29084,85.57765
"48116",656.0616,83.895325,85.31622
"48117",656.0749,83.526665,85.06929
"48118",656.0882,83.194626,84.84746
"48119",656.1015,82.90898,84.661644
"48120",656.1148,82.6746,84.518166
"48121",656.1281,82.496376,84.42352
"48122",656.1414,82.38407,84.38923
"48123",656.1547,82.32792,84.40758
"48124",656.168,82.31815,84.47056
"48125",656.18134,82.33524,84.56009
"48126",656.19464,82.35233,84.650154
"48127",656.20795,82.340126,84.71146
"48128",656.22125,82.27665,84.72111
"48129",656.23456,82.15213,84.66773
"48130",656.24786,81.95438,84.53723
"48131",656.26117,81.6907,84.334625
"48132",656.2745,81.373314,84.070076
"48133",656.2878,81.01686,83.75654
"48134",656.3011,80.62379,83.39524
"48135",656.3144,80.216064,83.00701
"48136",656.3277,79.81323,82.61093
"48137",656.341,79.429924,82.22179
"48138",656.3543,79.080795,81.85484
"48139",656.3676,78.768295,81.51362
"48140",656.3809,78.49729,81.204124
"48141",656.3942,78.277565,80.93744
"48142",656.40753,78.099335,80.70538
"48143",656.42084,77.95529,80.501945
"48144",656.43414,77.84299,80.325745
"48145",656.44745,77.75998,80.17533
"48146",656.46075,77.69161,80.036964
"48147",656.47406,77.6379,79.91112
"48148",656.48737,77.593956,79.79336
"48149",656.5007,77.557335,79.68155
"48150",656.514,77.51583,79.56371
"48151",656.5273,77.471886,79.44214
"48152",656.5406,77.420616,79.31187
"48153",656.5539,77.3547,79.165344
"48154",656.5672,77.27413,79.00211
"48155",656.5805,77.188675,78.831474
"48156",656.5938,77.103226,78.65817
"48157",656.6071,77.02022,78.48464
"48158",656.6204,76.944534,78.31584
"48159",656.6337,76.88594,78.161766
"48160",656.64703,76.85176,78.03027
"48161",656.66034,76.86397,77.9441
"48162",656.67365,76.97627,77.958405
"48163",656.68695,77.25948,78.147125
"48164",656.70026,77.786835,78.58884
"48165",656.71356,78.59495,79.32779
"48166",656.72687,79.656975,80.34591
"48167",656.7402,80.87038,81.54859
"48168",656.7535,82.09598,82.80139
"48169",656.7668,83.177536,83.94845
"48170",656.7801,83.99298,84.86319
"48171",656.7934,84.47639,85.471375
"48172",656.8067,84.63264,85.76751
"48173",656.82,84.51789,85.79753
"48174",656.8333,84.20538,85.626205
"48175",656.8466,83.775696,85.327934
"48176",656.8599,83.30938,84.97961
"48177",656.8732,82.85039,84.62403
"48178",656.88654,82.425575,84.28829
"48179",656.89984,82.037384,83.9759
"48180",656.91315,81.6907,83.69288
"48181",656.92645,81.3904,83.44542
"48182",656.93976,81.15358,83.252045
"48183",656.95306,80.99489,83.1294
"48184",656.9664,80.919205,83.08481
"48185",656.9797,80.919205,83.11353
"48186",656.993,80.96803,83.191086
"48187",657.0063,81.02907,83.28237
"48188",657.0196,81.06569,83.35115
"48189",657.0329,81.04372,83.36248
"48190",657.0462,80.94606,83.29744
"48191",657.0595,80.762955,83.1439
"48192",657.0728,80.50172,82.9065
"48193",657.0861,80.17456,82.595024
"48194",657.0994,79.80347,82.229385
"48195",657.11273,79.41039,81.83017
"48196",657.12604,79.012436,81.41379
"48197",657.13934,78.63157,81.00206
"48198",657.15265,78.27512,80.60285
"48199",657.16595,77.95773,80.23156
"48200",657.17926,77.68673,79.896736
"48201",657.19257,77.454796,79.592514
"48202",657.2059,77.264366,79.32255
"48203",657.2192,77.120316,79.09301
"48204",657.2325,77.01778,78.90048
"48205",657.2458,76.946976,78.73649
"48206",657.2591,76.90547,78.59958
"48207",657.2724,76.895706,78.49311
"48208",657.2857,76.90547,78.40587
"48209",657.299,76.927444,78.33114
"48210",657.3123,76.95186,78.25954
"48211",657.3256,76.978714,78.19114
"48212",657.3389,76.998245,78.11626
"48213",657.35223,77.00069,78.024895
"48214",657.36554,76.99336,77.92384
"48215",657.37885,76.97139,77.807915
"48216",657.39215,76.93965,77.68153
"48217",657.40546,76.89815,77.544395
"48218",657.41876,76.84932,77.398636
"48219",657.43207,76.79561,77.24647
"48220",657.4454,76.754105,77.10483
"48221",657.4587,76.73945,76.98874
"48222",657.472,76.788284,76.935684
"48223",657.4853,76.97627,77.02331
"48224",657.4986,77.37667,77.329216
"48225",657.5119,78.05051,77.921074
"48226",657.5252,79.00511,78.81476
"48227",657.5385,80.181885,79.96044
"48228",657.5518,81.45632,81.24056
"48229",657.5651,82.67216,82.50191
"48230",657.5784,83.67315,83.5864
"48231",657.59174,84.37141,84.399445
"48232",657.60504,84.72541,84.89005
"48233",657.61835,84.75716,85.069466
"48234",657.63165,84.53254,84.99351
"48235",657.64496,84.14191,84.744514
"48236",657.65826,83.66338,84.395424
"48237",657.6716,83.16777,84.01429
"48238",657.6849,82.701454,83.646965
"48239",657.6982,82.27177,83.3017
"48240",657.7115,81.881134,82.982056
"48241",657.7248,81.53689,82.696594
"48242",657.7381,81.25124,82.45898
"48243",657.7514,81.03883,82.28567
"48244",657.7647,80.919205,82.1985
"48245",657.778,80.89479,82.20281
"48246",657.7913,80.95094,82.28693
"48247",657.8046,81.04372,82.40942
"48248",657.81793,81.13893,82.53725
"48249",657.83124,81.1902,82.62411
"48250",657.84454,81.17067,82.64177
"48251",657.85785,81.05592,82.56361
"48252",657.87115,80.850845,82.391525
"48253",657.88446,80.56519,82.13246
"48254",657.89777,80.218506,81.80344
"48255",657.9111,79.83276,81.42452
"48256",657.9244,79.432365,81.0189
"48257",657.9377,79.03441,80.6032
"48258",657.951,78.658424,80.197044
"48259",657.9643,78.314186,79.81088
"48260",657.9776,78.00168,79.445694
"48261",657.9909,77.73556,79.11713
"48262",658.0042,77.523155,78.83396
"48263",658.0175,77.366905,78.60031
"48264",658.0308,77.25948,78.41061
"48265",658.0441,77.205765,78.27125
"48266",658.05743,77.19356,78.17172
"48267",658.07074,77.20088,78.09135
"48268",658.08405,77.21553,78.018524
"48269",658.09735,77.2375,77.95348
"48270",658.11066,77.25948,77.88914
"48271",658.12396,77.279015,77.82303
"48272",658.13727,77.29366,77.75265
"48273",658.1506,77.296104,77.67052
"48274",658.1639,77.2839,77.573814
"48275",658.1772,77.2546,77.45964
"48276",658.1905,77.21065,77.329895
"48277",658.2038,77.15938,77.19146
"48278",658.2171,77.103226,77.04654
"48279",658.2304,77.049515,76.902306
"48280",658.2437,76.998245,76.758835
"48281",658.257,76.9543,76.621086
"48282",658.2703,76.929886,76.501495
"48283",658.2836,76.95918,76.43485
"48284",658.29694,77.09102,76.471664
"48285",658.31024,77.418175,76.70792
"48286",658.32355,77.99924,77.2083
"48287",658.33685,78.86595,78.01249
"48288",658.35016,79.971924,79.08302
"48289",658.36346,81.20485,80.31507
"48290",658.3768,82.41581,81.56368
"48291",658.3901,83.45342,82.67679
"48292",658.4034,84.20538,83.53667
"48293",658.4167,84.62043,84.08313
"48294",658.43,84.70832,84.31541
"48295",658.4433,84.51789,84.27211
"48296",658.4566,84.1297,84.0251
"48297",658.4699,83.62188,83.64633
"48298",658.4832,83.07744,83.21507
"48299",658.4965,82.55741,82.791214
"48300",658.5098,82.08377,82.39749
"48301",658.52313,81.668724,82.04756
"48302",658.53644,81.307396,81.73838
"48303",658.54974,81.00954,81.48138
"48304",658.56305,80.78981,81.2932
"48305",658.57635,80.65308,81.18115
"48306",658.58966,80.61402,81.1625
"48307",658.60297,80.655525,81.22319
"48308",658.6163,80.75075,81.3389
"48309",658.6296,80.85573,81.46734
"48310",658.6429,80.92897,81.56732
"48311",658.6562,80.93385,81.601234
"48312",658.6695,80.850845,81.54741
"48313",658.6828,80.672615,81.39577
"48314",658.6961,80.4065,81.15067
"48315",658.7094,80.076904,80.83378
"48316",658.7227,79.7058,80.46508
"48317",658.736,79.31518,80.06526
"48318",658.7493,78.93675,79.665436
"48319",658.76263,78.58274,79.2782
"48320",658.77594,78.260475,78.911644
"48321",658.78925,77.977264,78.57407
"48322",658.80255,77.74288,78.27648
"48323",658.81586,77.55245,78.01552
"48324",658.82916,77.40841,77.79499
"48325",658.84247,77.30587,77.611465
"48326",658.8558,77.24483,77.46623
"48327",658.8691,77.21309,77.3484
"48328",658.8824,77.21065,77.258865
"48329",658.8957,77.225296,77.18635
"48330",658.909,77.24971,77.124054
"48331",658.9223,77.279015,77.06741
"48332",658.9356,77.31075,77.01412
"48333",658.9489,77.33761,76.95694
"48334",658.9622,77.349815,76.88595
"48335",658.9755,77.34493,76.79825
"48336",658.98883,77.32296,76.693306
"48337",659.00214,77.28634,76.57303
"48338",659.01544,77.242386,76.444275
"48339",659.02875,77.19356,76.30927
"48340",659.04205,77.14961,76.17763
"48341",659.05536,77.11055,76.04949
"48342",659.06866,77.08125,75.9299
"48343",659.082,77.07637,75.83381
"48344",659.0953,77.137405,75.80348
"48345",659.1086,77.330284,75.906906
"48346",659.1219,77.72823,76.22143
"48347",659.1352,78.382545,76.80475
"48348",659.1485,79.29809,77.66975
"48349",659.1618,80.40162,78.75134
"48350",659.1751,81.57351,79.93578
"48351",659.1884,82.66239,81.07384
"48352",659.2017,83.54131,82.03596
"48353",659.215,84.122375,82.727684
"48354",659.22833,84.386055,83.120186
"48355",659.24164,84.36164,83.232834
"48356",659.25494,84.10773,83.11522
"48357",659.26825,83.70733,82.843185
"48358",659.28156,83.23369,82.4854
"48359",659.29486,82.75273,82.10549
"48360",659.30817,82.30106,81.739845
"48361",659.3215,81.89578,81.40647
