"","Time..s.","PPG.trace","Preprocessed.PPG"
"25240",351.2001,82.074005,84.201996
"25241",351.2134,81.06081,83.25361
"25242",351.22678,80.31617,82.54212
"25243",351.24008,79.87671,82.11254
"25244",351.25345,79.74731,81.97929
"25245",351.26675,79.888916,82.113
"25246",351.28012,80.22827,82.44888
"25247",351.29343,80.66041,82.88815
"25248",351.3068,81.092545,83.34093
"25249",351.3201,81.43435,83.71687
"25250",351.33347,81.617455,83.9448
"25251",351.34677,81.58816,83.96605
"25252",351.36014,81.33669,83.76421
"25253",351.37344,80.86305,83.332344
"25254",351.3868,80.19653,82.692795
"25255",351.40012,79.39086,81.893265
"25256",351.41348,78.519264,81.00263
"25257",351.4268,77.628136,80.06523
"25258",351.44016,76.756546,79.11952
"25259",351.45346,75.9411,78.20272
"25260",351.46683,75.1989,77.33368
"25261",351.48013,74.54215,76.5269
"25262",351.4935,73.985504,75.7997
"25263",351.5068,73.53384,75.16008
"25264",351.52017,73.18471,74.60889
"25265",351.53348,72.92836,74.139565
"25266",351.54684,72.7599,73.75012
"25267",351.56015,72.674446,73.438416
"25268",351.57352,72.66224,73.19728
"25269",351.58682,72.71595,73.02168
"25270",351.6002,72.82338,72.90149
"25271",351.6135,72.972305,72.82615
"25272",351.62686,73.14809,72.78232
"25273",351.64017,73.33364,72.75375
"25274",351.65353,73.51186,72.723656
"25275",351.66684,73.67788,72.68692
"25276",351.6802,73.81949,72.63097
"25277",351.6935,73.92691,72.54525
"25278",351.70688,73.99771,72.42627
"25279",351.72018,74.03677,72.27776
"25280",351.73355,74.05875,72.11339
"25281",351.74686,74.12222,71.9912
"25282",351.76022,74.34196,72.02726
"25283",351.77353,74.92058,72.42907
"25284",351.7869,76.0827,73.432465
"25285",351.8002,78.00412,75.23147
"25286",351.81357,80.71412,77.8791
"25287",351.82687,84.06622,81.25352
"25288",351.84024,87.711296,85.02566
"25289",351.85355,91.20256,88.757904
"25290",351.8669,94.10788,92.013306
"25291",351.88022,96.114746,94.461044
"25292",351.8936,97.07912,95.929
"25293",351.9069,97.022964,96.40657
"25294",351.92026,96.09766,96.01323
"25295",351.93356,94.53025,94.948875
"25296",351.94693,92.57954,93.45223
"25297",351.96024,90.477455,91.74326
"25298",351.9736,88.39735,89.99058
"25299",351.9869,86.45396,88.3096
"25300",352.00027,84.69123,86.74856
"25301",352.01358,83.12871,85.332634
"25302",352.02695,81.78836,84.09006
"25303",352.04025,80.709236,83.06682
"25304",352.05362,79.94507,82.324814
"25305",352.06693,79.54223,81.92026
"25306",352.0803,79.50805,81.87177
"25307",352.0936,79.79614,82.14449
"25308",352.10696,80.32105,82.66303
"25309",352.12027,80.970474,83.32249
"25310",352.13364,81.619896,84.002235
"25311",352.14694,82.15213,84.58509
"25312",352.1603,82.4622,84.96241
"25313",352.1736,82.48173,85.05888
"25314",352.18698,82.20096,84.85567
"25315",352.2003,81.63943,84.362915
"25316",352.21365,80.85817,83.63289
"25317",352.22696,79.94263,82.74416
"25318",352.24033,78.96849,81.768234
"25319",352.25363,77.98703,80.75454
"25320",352.267,77.049515,79.75412
"25321",352.2803,76.192566,78.80497
"25322",352.29367,75.423515,77.91694
"25323",352.30698,74.73991,77.09032
"25324",352.32034,74.144196,76.33023
"25325",352.33365,73.633934,75.63698
"25326",352.34702,73.216446,75.02055
"25327",352.36032,72.89906,74.49119
"25328",352.3737,72.689095,74.05932
"25329",352.387,72.58167,73.723434
"25330",352.40036,72.552376,73.46231
"25331",352.41367,72.589,73.26619
"25332",352.42703,72.672005,73.1176
"25333",352.44034,72.79408,73.01068
"25334",352.4537,72.9308,72.92222
"25335",352.467,73.0724,72.84291
"25336",352.48038,73.20424,72.75826
"25337",352.49368,73.31899,72.66065
"25338",352.50705,73.40688,72.539764
"25339",352.52036,73.46792,72.39477
"25340",352.53372,73.514305,72.23703
"25341",352.54703,73.59487,72.11492
"25342",352.5604,73.829254,72.14915
"25343",352.5737,74.41764,72.5447
"25344",352.58707,75.59197,73.544586
"25345",352.60037,77.52804,75.3429
"25346",352.61374,80.24292,77.98054
"25347",352.62704,83.56817,81.31338
"25348",352.6404,87.16197,85.018684
"25349",352.65372,90.57267,88.65319
"25350",352.66708,93.37789,91.78881
"25351",352.6804,95.274895,94.103874
"25352",352.69376,96.12695,95.43327
"25353",352.70706,95.96582,95.77611
"25354",352.72043,94.940414,95.24963
"25355",352.73373,93.29,94.06611
"25356",352.7471,91.268486,92.45991
"25357",352.7604,89.110245,90.65381
"25358",352.77377,86.98619,88.81445
"25359",352.78708,84.996414,87.04299
"25360",352.80045,83.17998,85.38269
"25361",352.81375,81.56374,83.86583
"25362",352.82712,80.184326,82.53528
"25363",352.84042,79.10033,81.45704
"25364",352.8538,78.380104,80.7087
"25365",352.8671,78.0798,80.35778
"25366",352.88046,78.19943,80.417404
"25367",352.89377,78.677956,80.83966
"25368",352.90714,79.40307,81.52346
"25369",352.92044,80.23804,82.339775
"25370",352.9338,81.05104,83.16022
"25371",352.9471,81.71755,83.85957
"25372",352.96048,82.142365,84.33806
"25373",352.9738,82.27421,84.53685
"25374",352.98715,82.108185,84.441895
"25375",353.00046,81.66628,84.06587
"25376",353.01382,81.00221,83.45387
"25377",353.02713,80.17944,82.66242
"25378",353.0405,79.259026,81.74761
"25379",353.0538,78.294655,80.760086
"25380",353.06717,77.330284,79.742424
"25381",353.08047,76.40742,78.73613
"25382",353.09384,75.562675,77.77912
"25383",353.10715,74.82292,76.9007
"25384",353.1205,74.20035,76.11635
"25385",353.13382,73.704735,75.4395
"25386",353.1472,73.338524,74.876564
"25387",353.1605,73.09926,74.42913
"25388",353.17386,72.98451,74.09874
"25389",353.18716,72.98451,73.87951
"25390",353.20053,73.08461,73.760376
"25391",353.21384,73.26528,73.724945
"25392",353.2272,73.494774,73.74398
"25393",353.2405,73.74624,73.79216
"25394",353.25388,74.00015,73.85065
"25395",353.26718,74.23453,73.89753
"25396",353.28055,74.43473,73.917564
"25397",353.29385,74.60563,73.91455
"25398",353.30722,74.80095,73.9413
"25399",353.32053,75.142746,74.12063
"25400",353.3339,75.81903,74.64513
"25401",353.3472,77.04463,75.740074
"25402",353.36057,78.97826,77.581345
"25403",353.37387,81.62722,80.19838
"25404",353.38724,84.81819,83.4402
"25405",353.40054,88.21179,86.98437
"25406",353.4139,91.38567,90.41487
"25407",353.42722,93.93454,93.31954
"25408",353.44058,95.58495,95.40541
"25409",353.4539,96.22949,96.53698
"25410",353.46725,95.91211,96.72677
"25411",353.48056,94.79393,96.10584
"25412",353.49393,93.09956,94.87379
"25413",353.50723,91.07561,93.25919
"25414",353.5206,88.93202,91.46172
"25415",353.5339,86.80553,89.61435
"25416",353.54727,84.78645,87.807945
"25417",353.56058,82.92119,86.092255
"25418",353.57394,81.24391,84.50626
"25419",353.58725,79.81079,83.112015
"25420",353.60062,78.712135,82.00745
"25421",353.61392,78.028534,81.2836
"25422",353.6273,77.803925,80.99738
"25423",353.6406,78.02365,81.14848
"25424",353.65396,78.6096,81.67267
"25425",353.66727,79.432365,82.45199
"25426",353.68063,80.3357,83.337585
"25427",353.69394,81.17311,84.185486
"25428",353.7073,81.81766,84.86669
"25429",353.7206,82.178986,85.28482
"25430",353.73398,82.21561,85.389534
"25431",353.74728,81.93729,85.18045
"25432",353.76065,81.3904,84.69411
"25433",353.77396,80.63111,83.978264
"25434",353.78732,79.73754,83.104416
"25435",353.80063,78.77318,82.13185
"25436",353.814,77.79904,81.11938
"25437",353.8273,76.86153,80.11308
"25438",353.84067,76.00702,79.1605
"25439",353.85397,75.26238,78.291084
"25440",353.86734,74.64713,77.52779
"25441",353.88065,74.16373,76.877106
"25442",353.894,73.812164,76.34316
"25443",353.90732,73.585106,75.92274
"25444",353.9207,73.46792,75.60509
"25445",353.934,73.443504,75.37655
"25446",353.94736,73.48745,75.21561
"25447",353.96066,73.57778,75.102425
"25448",353.97403,73.69253,75.01648
"25449",353.98734,73.81705,74.94389
"25450",354.0007,73.94156,74.87519
"25451",354.014,74.0856,74.82991
"25452",354.02737,74.32975,74.88924
"25453",354.04068,74.83269,75.21498
"25454",354.05405,75.81415,76.034966
"25455",354.06735,77.45724,77.54725
"25456",354.08072,79.84985,79.860405
"25457",354.09402,82.92119,82.92705
"25458",354.1074,86.41001,86.50716
"25459",354.1207,89.901276,90.19873
"25460",354.13406,92.95064,93.55751
"25461",354.14737,95.201645,96.21323
"25462",354.16074,96.44434,97.93098
"25463",354.17404,96.63233,98.63285
"25464",354.1874,95.88037,98.40065
"25465",354.2007,94.4033,97.41984
"25466",354.21408,92.45258,95.91923
"25467",354.2274,90.27726,94.13305
"25468",354.24075,88.0824,92.25935
"25469",354.25406,85.980316,90.40985
"25470",354.26743,84.02716,88.64358
"25471",354.28073,82.247345,86.98961
"25472",354.2941,80.66529,85.47778
"25473",354.3074,79.32983,84.16311
"25474",354.32077,78.32151,83.13385
"25475",354.33408,77.72579,82.48568
"25476",354.34744,77.57931,82.26813
"25477",354.36075,77.86252,82.47569
"25478",354.3741,78.487526,83.033905
"25479",354.38742,79.32006,83.819176
"25480",354.4008,80.20386,84.681725
"25481",354.4141,80.99245,85.476685
"25482",354.42746,81.55642,86.07167
"25483",354.44077,81.81033,86.37422
"25484",354.45413,81.722435,86.342896
"25485",354.46744,81.31228,85.986565
"25486",354.4808,80.635994,85.35129
"25487",354.4941,79.77417,84.50934
"25488",354.50748,78.80492,83.53303
"25489",354.52078,77.7966,82.487366
"25490",354.53415,76.8127,81.43461
"25491",354.54745,75.90204,80.42435
"25492",354.56082,75.09392,79.48817
"25493",354.57413,74.40055,78.64149
"25494",354.5875,73.84146,77.90742
"25495",354.6008,73.411766,77.28527
"25496",354.61417,73.10658,76.77421
"25497",354.62747,72.91615,76.36836
"25498",354.64084,72.8185,76.04934
"25499",354.65414,72.798965,75.80539
"25500",354.6675,72.84291,75.624306
"25501",354.68082,72.938126,75.495865
"25502",354.69418,73.06508,75.40214
"25503",354.7075,73.25063,75.37098
"25504",354.72086,73.58755,75.49698
"25505",354.73416,74.246735,75.95578
"25506",354.74753,75.43084,76.9601
"25507",354.76083,77.330284,78.71676
"25508",354.7742,80.01343,81.316475
"25509",354.7875,83.35821,84.661674
"25510",354.80087,87.04967,88.45808
"25511",354.81418,90.66056,92.28927
"25512",354.82755,93.751434,95.71329
"25513",354.84085,95.96338,98.354965
"25514",354.85422,97.1133,100.00374
"25515",354.86752,97.198746,100.62398
"25516",354.8809,96.36378,100.32647
"25517",354.8942,94.854965,99.329025
"25518",354.90756,92.94087,97.87915
"25519",354.92087,90.87541,96.218094
"25520",354.93423,88.84413,94.52667
"25521",354.94754,86.94713,92.90605
"25522",354.9609,85.21858,91.3946
"25523",354.9742,83.6585,89.9976
"25524",354.98758,82.266884,88.72031
"25525",355.0009,81.06813,87.59239
"25526",355.01425,80.11841,86.67605
"25527",355.02756,79.47387,86.03521
"25528",355.04092,79.17601,85.72091
"25529",355.05423,79.21019,85.72934
"25530",355.0676,79.517815,86.01228
"25531",355.0809,79.99634,86.47574
"25532",355.09427,80.51392,86.99321
"25533",355.10757,80.9485,87.44385
"25534",355.12094,81.19508,87.72007
"25535",355.13425,81.180435,87.74277
"25536",355.1476,80.87282,87.47204
"25537",355.16092,80.28443,86.91093
"25538",355.1743,79.47875,86.114136
"25539",355.1876,78.519264,85.13836
"25540",355.20096,77.488976,84.0618
"25541",355.21426,76.44892,82.943275
"25542",355.22763,75.45281,81.8362
"25543",355.24094,74.529945,80.77123
"25544",355.2543,73.70962,79.77997
"25545",355.2676,73.00893,78.882706
"25546",355.28098,72.43275,78.08806
"25547",355.29428,71.990845,77.40968
"25548",355.30765,71.67101,76.83957
"25549",355.32095,71.465935,76.37421
"25550",355.33432,71.35119,75.99277
"25551",355.34763,71.31457,75.68587
"25552",355.361,71.33654,75.43642
"25553",355.3743,71.42199,75.25113
"25554",355.38766,71.57824,75.13931
"25555",355.40097,71.84924,75.14714
"25556",355.41434,72.33753,75.38072
"25557",355.42764,73.22865,76.032394
"25558",355.441,74.72282,77.31496
"25559",355.4543,76.964066,79.3913
"25560",355.46768,79.94751,82.27987
"25561",355.481,83.475395,85.806114
"25562",355.49435,87.166855,89.60618
"25563",355.50766,90.55314,93.21642
"25564",355.52103,93.2021,96.195175
"25565",355.53433,94.85252,98.25816
"25566",355.5477,95.42382,99.2936
"25567",355.561,95.011215,99.36299
"25568",355.57437,93.83688,98.65776
"25569",355.58768,92.171814,97.425095
"25570",355.60104,90.27726,95.91091
"25571",355.61435,88.36805,94.32287
"25572",355.62772,86.57847,92.794785
"25573",355.64102,84.95491,91.3768
"25574",355.6544,83.47784,90.054565
"25575",355.6677,82.108185,88.793594
"25576",355.68106,80.848404,87.59969
"25577",355.69437,79.73022,86.50802
"25578",355.70773,78.8098,85.57917
"25579",355.72104,78.14816,84.88034
"25580",355.7344,77.79904,84.47335
"25581",355.7477,77.75021,84.35574
"25582",355.76108,77.93576,84.470985
"25583",355.77438,78.25559,84.72631
"25584",355.78775,78.6096,85.0258
"25585",355.80106,78.89281,85.265564
"25586",355.81442,78.99779,85.335945
"25587",355.82773,78.87816,85.185
"25588",355.8411,78.52903,84.80081
"25589",355.8544,77.979706,84.20552
"25590",355.86777,77.27413,83.43681
"25591",355.88107,76.47578,82.553276
"25592",355.89444,75.64324,81.61061
"25593",355.90775,74.830246,80.66147
"25594",355.9211,74.073395,79.743065
"25595",355.93442,73.40444,78.88891
"25596",355.94778,72.850235,78.12859
"25597",355.9611,72.42542,77.480354
"25598",355.97446,72.12024,76.93846
"25599",355.98776,71.93225,76.50423
"25600",356.00113,71.84436,76.164215
"25601",356.01443,71.83215,75.89714
"25602",356.0278,71.87366,75.683395
"25603",356.0411,71.94934,75.50513
"25604",356.05447,72.042114,75.34631
"25605",356.06778,72.14465,75.200165
"25606",356.08115,72.254524,75.06456
"25607",356.09445,72.41566,74.98364
"25608",356.10782,72.73548,75.06645
"25609",356.12112,73.39712,75.50107
"25610",356.1345,74.62272,76.52033
"25611",356.1478,76.58808,78.31766
"25612",356.16116,79.31518,80.93813
"25613",356.17447,82.63065,84.23221
"25614",356.18784,86.170746,87.85451
"25615",356.20114,89.45937,91.33597
"25616",356.2145,92.07416,94.24636
"25617",356.2278,93.731895,96.28142
"25618",356.24118,94.347145,97.32579
"25619",356.2545,94.00534,97.432335
"25620",356.26785,92.92378,96.788445
"25621",356.28116,91.37347,95.642
"25622",356.29453,89.61562,94.23958
"25623",356.30783,87.86511,92.78956
"25624",356.3212,86.26597,91.4362
"25625",356.3345,84.85481,90.220856
"25626",356.34787,83.60723,89.124985
"25627",356.36118,82.4622,88.092674
"25628",356.37454,81.38552,87.09294
"25629",356.38785,80.38453,86.13525
"25630",356.4012,79.50561,85.26834
"25631",356.41452,78.81468,84.561966
"25632",356.4279,78.363014,84.07326
"25633",356.4412,78.15549,83.814575
"25634",356.45456,78.14328,83.74473
"25635",356.46786,78.25071,83.794136
"25636",356.48123,78.39231,83.88107
"25637",356.49454,78.48264,83.921165
"25638",356.5079,78.44602,83.83713
"25639",356.5212,78.24338,83.58592
"25640",356.53458,77.857635,83.14529
"25641",356.54788,77.298546,82.51925
"25642",356.56125,76.58808,81.724365
"25643",356.57455,75.77753,80.80719
"25644",356.58792,74.92058,79.81829
"25645",356.60123,74.07095,78.80994
"25646",356.6146,73.272606,77.82631
"25647",356.6279,72.55726,76.900734
"25648",356.64127,71.94202,76.0529
"25649",356.65457,71.431755,75.29083
"25650",356.66794,71.02403,74.61536
"25651",356.68124,70.72129,74.03212
"25652",356.6946,70.52842,73.549286
"25653",356.70792,70.433205,73.15808
"25654",356.72128,70.42588,72.85179
"25655",356.7346,70.47715,72.60387
"25656",356.74796,70.56992,72.39905
"25657",356.76126,70.67979,72.21422
"25658",356.77463,70.78722,72.03039
"25659",356.78793,70.87755,71.832825
"25660",356.8013,70.93858,71.60878
"25661",356.8146,70.97032,71.357346
"25662",356.82797,70.98497,71.08981
"25663",356.84128,71.03868,70.8618
"25664",356.85464,71.2462,70.789276
"25665",356.86795,71.81262,71.08214
"25666",356.88132,72.96254,71.9762
"25667",356.89462,74.85954,73.65328
"25668",356.908,77.523155,76.15626
"25669",356.9213,80.77272,79.32842
"25670",356.93466,84.23468,82.81453
"25671",356.94797,87.45983,86.17201
"25672",356.96133,90.03555,88.98085
"25673",356.97464,91.70306,90.96197
"25674",356.988,92.37202,91.99665
"25675",357.0013,92.137634,92.148895
"25676",357.01468,91.20744,91.59801
"25677",357.02798,89.85245,90.59325
"25678",357.04135,88.31922,89.36791
"25679",357.05466,86.81041,88.11908
"25680",357.06802,85.45541,86.9769
"25681",357.08133,84.2884,85.98037
"25682",357.0947,83.2752,85.10118
"25683",357.108,82.357216,84.285545
"25684",357.12137,81.495384,83.497375
"25685",357.13467,80.68726,82.735985
"25686",357.14804,79.96216,82.03236
"25687",357.16135,79.37621,81.44523
"25688",357.1747,78.96605,81.01557
"25689",357.18802,78.73655,80.75376
"25690",357.2014,78.65598,80.63371
"25691",357.2147,78.66575,80.60148
"25692",357.22806,78.70237,80.596405
"25693",357.24136,78.70481,80.5583
"25694",357.25473,78.6218,80.434814
"25695",357.26804,78.41184,80.181786
"25696",357.2814,78.05783,79.778145
"25697",357.2947,77.55489,79.214516
"25698",357.30807,76.925,78.50822
"25699",357.32138,76.190125,77.677246
"25700",357.33475,75.39178,76.75984
"25701",357.34805,74.56657,75.79063
"25702",357.36142,73.75113,74.8054
"25703",357.37473,72.972305,73.8313
"25704",357.3881,72.26185,72.90123
"25705",357.4014,71.641716,72.039276
"25706",357.41476,71.13634,71.272705
"25707",357.42807,70.7628,70.62218
"25708",357.44144,70.5333,70.10402
"25709",357.45474,70.45762,69.7325
"25710",357.4681,70.52842,69.5051
"25711",357.4814,70.71641,69.397095
"25712",357.49478,70.99718,69.38775
"25713",357.5081,71.34875,69.45798
"25714",357.52145,71.74181,69.58069
"25715",357.53476,72.13977,69.72058
"25716",357.54813,72.50599,69.84117
"25717",357.56143,72.816055,69.91705
"25718",357.5748,73.05531,69.931816
"25719",357.5881,73.214005,69.87349
"25720",357.60147,73.3019,69.74933
"25721",357.61478,73.3312,69.56931
"25722",357.62814,73.31411,69.34383
"25723",357.64145,73.27505,69.09583
"25724",357.65482,73.233536,68.84417
"25725",357.66812,73.19203,68.59122
"25726",357.6815,73.162735,68.349174
"25727",357.6948,73.14809,68.120865
"25728",357.70816,73.179825,67.938484
"25729",357.72147,73.338524,67.884056
"25730",357.73483,73.81705,68.15441
"25731",357.74814,74.85222,68.99637
"25732",357.7615,76.595406,70.57869
"25733",357.7748,79.06615,72.94304
"25734",357.78818,82.09598,75.94369
"25735",357.80148,85.35531,79.26852
"25736",357.81485,88.43397,82.51453
"25737",357.82816,90.95598,85.300095
"25738",357.84152,92.67719,87.363686
"25739",357.85483,93.52682,88.609474
"25740",357.8682,93.558556,89.06393
"25741",357.8815,92.93355,88.862625
"25742",357.89487,91.8642,88.19745
"25743",357.90817,90.57511,87.27912
"25744",357.92154,89.25674,86.29122
"25745",357.93484,88.03357,85.35733
"25746",357.9482,86.959335,84.53415
"25747",357.96152,86.029144,83.821434
"25748",357.97488,85.20393,83.18463
"25749",357.9882,84.44709,82.59041
"25750",358.00156,83.758606,82.04089
"25751",358.01486,83.15556,81.555305
"25752",358.02823,82.6746,81.17295
"25753",358.04153,82.340126,80.92206
"25754",358.0549,82.159454,80.814514
"25755",358.0682,82.09354,80.81608
"25756",358.08157,82.08621,80.874176
"25757",358.09488,82.07156,80.92472
"25758",358.10825,81.99344,80.91133
"25759",358.12155,81.81766,80.797844
"25760",358.13492,81.52468,80.56167
"25761",358.14822,81.1194,80.20403
"25762",358.1616,80.61402,79.733635
"25763",358.1749,80.03784,79.17664
"25764",358.18826,79.41039,78.55038
"25765",358.20157,78.75853,77.88009
"25766",358.21494,78.10666,77.18942
"25767",358.22824,77.48165,76.50525
"25768",358.2416,76.90791,75.85281
"25769",358.2549,76.39277,75.24104
"25770",358.26828,75.94354,74.67909
"25771",358.2816,75.56512,74.173904
"25772",358.29495,75.25506,73.72526
"25773",358.30826,75.01091,73.33283
"25774",358.32162,74.83269,72.9987
"25775",358.33493,74.70573,72.710266
"25776",358.3483,74.62516,72.46426
"25777",358.3616,74.5861,72.25723
"25778",358.37497,74.57877,72.08073
"25779",358.38828,74.598305,71.93085
"25780",358.40164,74.64469,71.80843
"25781",358.41495,74.703285,71.69968
"25782",358.4283,74.776535,71.60741
"25783",358.44162,74.85222,71.51986
"25784",358.455,74.92302,71.429794
"25785",358.4683,74.97917,71.32729
"25786",358.48166,75.020676,71.2119
"25787",358.49496,75.04753,71.08315
"25788",358.50833,75.0573,70.938156
"25789",358.52164,75.052414,70.77882
"25790",358.535,75.037766,70.60956
"25791",358.5483,75.00847,70.42519
"25792",358.56168,74.969406,70.23015
"25793",358.57498,74.92058,70.02412
"25794",358.58835,74.86931,69.81412
"25795",358.60165,74.83269,69.617165
"25796",358.61502,74.844894,69.467896
"25797",358.62833,74.9987,69.46061
"25798",358.6417,75.457695,69.76331
"25799",358.655,76.4123,70.57597
"25800",358.66837,77.97482,72.02638
"25801",358.68167,80.113525,74.1018
"25802",358.69504,82.6453,76.63712
"25803",358.70834,85.26986,79.344345
"25804",358.7217,87.638054,81.87722
"25805",358.73502,89.478905,83.95676
"25806",358.74838,90.650795,85.424866
"25807",358.7617,91.16106,86.26797
"25808",358.77505,91.0927,86.54839
"25809",358.78836,90.582436,86.38478
"25810",358.80173,89.79141,85.92446
"25811",358.81503,88.87099,85.31002
"25812",358.8284,87.94324,84.659485
"25813",358.8417,87.078964,84.04344
"25814",358.85507,86.31724,83.50293
"25815",358.86838,85.643394,83.0265
"25816",358.88174,85.02571,82.58517
"25817",358.89505,84.45197,82.16848
"25818",358.90842,83.92218,81.77781
"25819",358.92172,83.46807,81.446266
"25820",358.9351,83.11894,81.20551
"25821",358.9484,82.896774,81.08081
"25822",358.96176,82.79668,81.071236
"25823",358.97507,82.77959,81.14154
"25824",358.98843,82.78935,81.23817
"25825",359.00174,82.777145,81.313126
"25826",359.0151,82.703896,81.32666
"25827",359.0284,82.53788,81.24514
"25828",359.04178,82.269325,81.05589
"25829",359.05508,81.89578,80.753265
"25830",359.06845,81.43191,80.34863
"25831",359.08176,80.907,79.86847
"25832",359.09512,80.34547,79.33528
"25833",359.10843,79.77417,78.77478
"25834",359.1218,79.21507,78.208626
"25835",359.1351,78.68284,77.65186
"25836",359.14847,78.18967,77.11753
"25837",359.16177,77.75021,76.621506
"25838",359.17514,77.36935,76.170334
"25839",359.18845,77.051956,75.77074
"25840",359.2018,76.790726,75.41738
"25841",359.21512,76.5832,75.109566
"25842",359.2285,76.422066,74.84166
"25843",359.2418,76.299995,74.60778
"25844",359.25516,76.21454,74.4067
"25845",359.26846,76.15839,74.232254
"25846",359.28183,76.12665,74.08047
"25847",359.29514,76.10712,73.939896
"25848",359.3085,76.09979,73.81092
"25849",359.3218,76.09491,73.68416
"25850",359.33517,76.09003,73.55724
"25851",359.34848,76.08026,73.42529
"25852",359.36185,76.06073,73.28327
"25853",359.37515,76.03143,73.130875
"25854",359.38852,75.98993,72.965355
"25855",359.40182,75.945984,72.7961
"25856",359.4152,75.90448,72.62791
"25857",359.4285,75.8703,72.465744
"25858",359.44186,75.84589,72.31228
"25859",359.45517,75.83368,72.17026
"25860",359.46854,75.83612,72.0425
"25861",359.48184,75.843445,71.91971
"25862",359.4952,75.85321,71.79958
"25863",359.5085,75.860535,71.67732
"25864",359.52188,75.860535,71.547966
"25865",359.5352,75.85077,71.408844
"25866",359.54855,75.84589,71.2743
"25867",359.56186,75.88739,71.18599
"25868",359.57523,76.08026,71.25034
"25869",359.58853,76.58076,71.62835
"25870",359.6019,77.55245,72.493195
"25871",359.6152,79.063705,73.92796
"25872",359.62857,81.04616,75.88116
"25873",359.64188,83.29229,78.15998
"25874",359.65524,85.50912,80.47969
"25875",359.66855,87.40612,82.54885
"25876",359.68192,88.7831,84.15727
"25877",359.69522,89.57412,85.22276
"25878",359.7086,89.80606,85.7539
"25879",359.7219,89.583885,85.838165
"25880",359.73526,89.02724,85.58102
"25881",359.74857,88.272835,85.10872
"25882",359.76193,87.44274,84.537155
"25883",359.77524,86.64927,83.97627
"25884",359.7886,85.9559,83.49069
"25885",359.8019,85.37484,83.09575
"25886",359.81528,84.88899,82.77786
"25887",359.82858,84.46662,82.50827
"25888",359.84195,84.07599,82.25722
"25889",359.85526,83.71465,82.023254
"25890",359.86862,83.40948,81.83416
"25891",359.88193,83.17998,81.711205
"25892",359.8953,83.0457,81.6763
"25893",359.9086,83.004196,81.72997
"25894",359.92197,83.02861,81.84827
"25895",359.93527,83.075,81.989296
"25896",359.94864,83.106735,82.11713
"25897",359.96194,83.08232,82.1898
"25898",359.9753,82.97246,82.176254
"25899",359.98862,82.757614,82.0543
"25900",360.00198,82.43534,81.8182
"25901",360.0153,82.01785,81.476814
"25902",360.02866,81.529564,81.05158
"25903",360.04196,81.007095,80.57691
"25904",360.05533,80.4773,80.07859
"25905",360.06863,79.96216,79.57836
"25906",360.082,79.47631,79.09133
"25907",360.0953,79.03441,78.633064
"25908",360.10867,78.63157,78.20005
"25909",360.12198,78.2678,77.79352
"25910",360.13535,77.945526,77.417114
"25911",360.14865,77.6672,77.074585
"25912",360.16202,77.435265,76.76975
"25913",360.17532,77.24971,76.50405
"25914",360.1887,77.103226,76.27162
"25915",360.202,76.981155,76.05903
"25916",360.21536,76.8835,75.867035
"25917",360.22867,76.805374,75.69152
"25918",360.24203,76.74433,75.53065
"25919",360.25534,76.6955,75.38008
"25920",360.2687,76.65888,75.2402
"25921",360.282,76.62226,75.09917
"25922",360.29538,76.58564,74.95699
"25923",360.3087,76.53925,74.80391
"25924",360.32205,76.490425,74.646935
"25925",360.33536,76.439156,74.48599
"25926",360.34872,76.38056,74.316124
"25927",360.36203,76.31953,74.14198
"25928",360.3754,76.26093,73.968376
"25929",360.3887,76.20233,73.79293
"25930",360.40207,76.14618,73.6181
"25931",360.41537,76.09003,73.44152
"25932",360.42874,76.04364,73.27295
"25933",360.44205,76.0119,73.11758
"25934",360.4554,75.98505,72.966095
"25935",360.46872,75.96063,72.816216
"25936",360.4821,75.95087,72.68022
"25937",360.4954,75.96796,72.57078
"25938",360.50876,76.08026,72.55708
"25939",360.52206,76.42695,72.78128
"25940",360.53543,77.16914,73.41182
"25941",360.54874,78.40208,74.55629
"25942",360.5621,80.09888,76.203156
"25943",360.5754,82.12039,78.22776
"25944",360.58878,84.22247,80.3961
"25945",360.60208,86.134125,82.439705
"25946",360.61545,87.63561,84.13288
"25947",360.62875,88.6244,85.360275
"25948",360.64212,89.09071,86.0961
"25949",360.65543,89.08827,86.37775
"25950",360.6688,88.71473,86.28821
"25951",360.6821,88.097046,85.942856
"25952",360.69547,87.34997,85.44881
"25953",360.70877,86.58335,84.91188
"25954",360.72214,85.872894,84.40715
"25955",360.73544,85.25277,83.97055
"25956",360.7488,84.72297,83.6049
"25957",360.76212,84.263985,83.2935
"25958",360.77548,83.8465,83.00926
"25959",360.7888,83.46807,82.75104
"25960",360.80215,83.14824,82.53958
"25961",360.81546,82.913864,82.40359
"25962",360.82883,82.791794,82.372574
"25963",360.84213,82.77959,82.44761
"25964",360.8555,82.85771,82.612595
"25965",360.8688,82.97246,82.81664
"25966",360.88217,83.07744,83.01451
"25967",360.89548,83.11894,83.15218
"25968",360.90884,83.06523,83.19594
"25969",360.92215,82.90654,83.13303
"25970",360.93552,82.64286,82.96018
"25971",360.94882,82.28397,82.68388
"25972",360.9622,81.846954,82.31824
"25973",360.9755,81.36111,81.89011
"25974",360.98886,80.8362,81.40773
"25975",361.00217,80.2942,80.89186
"25976",361.01553,79.7522,80.359055
"25977",361.02884,79.22728,79.82639
"25978",361.0422,78.73411,79.309074
"25979",361.0555,78.29221,78.82762
"25980",361.06888,77.91379,78.39583
"25981",361.08218,77.60128,78.01813
"25982",361.09555,77.34493,77.68682
"25983",361.10886,77.14717,77.40609
"25984",361.12222,76.98604,77.15581
"25985",361.13553,76.85176,76.927345
"25986",361.1489,76.74189,76.71909
"25987",361.1622,76.654,76.52939
"25988",361.17557,76.58808,76.35891
"25989",361.18887,76.53681,76.20102
"25990",361.20224,76.48554,76.04153
"25991",361.21555,76.43427,75.88043
"25992",361.2289,76.383,75.717735
"25993",361.24222,76.32441,75.54611
"25994",361.25558,76.26093,75.367775
"25995",361.2689,76.19501,75.185005
"25996",361.28226,76.12909,75.00018
"25997",361.29556,76.06073,74.81086
"25998",361.30893,75.99725,74.62428
"25999",361.32224,75.93866,74.440605
"26000",361.3356,75.88739,74.26242
"26001",361.3489,75.841,74.08752
"26002",361.36227,75.79462,73.91116
"26003",361.37558,75.74822,73.73335
"26004",361.38895,75.69695,73.54922
"26005",361.40225,75.64324,73.36104
"26006",361.41562,75.58953,73.17118
"26007",361.42892,75.53826,72.982086
"26008",361.4423,75.508965,72.81336
"26009",361.4556,75.54803,72.71208
"26010",361.46896,75.76288,72.78781
"26011",361.48227,76.30976,73.202286
"26012",361.49564,77.3254,74.10261
"26013",361.50894,78.86107,75.554695
"26014",361.5223,80.84108,77.499115
"26015",361.5356,83.075,79.759315
"26016",361.54898,85.29183,82.07224
"26017",361.5623,87.23033,84.17611
"26018",361.57565,88.71961,85.891335
"26019",361.58896,89.67666,87.120865
"26020",361.60233,90.10635,87.85296
"26021",361.61563,90.072174,88.134605
"26022",361.629,89.671776,88.048965
"26023",361.6423,89.01259,87.692024
"26024",361.65567,88.21423,87.17531
"26025",361.66898,87.37682,86.59459
"26026",361.68234,86.573586,86.02188
"26027",361.69565,85.838715,85.49243
"26028",361.709,85.172195,85.00837
"26029",361.72232,84.56672,84.56452
"26030",361.7357,84.02716,84.16767
"26031",361.749,83.56817,83.834526
"26032",361.76236,83.22392,83.60178
"26033",361.77567,83.02617,83.504776
"26034",361.78903,82.98222,83.5554
"26035",361.80234,83.072556,83.73892
"26036",361.8157,83.243454,84.00584
"26037",361.829,83.43633,84.30007
"26038",361.84238,83.595024,84.56615
"26039",361.85568,83.67071,84.75417
"26040",361.86905,83.62676,84.824936
"26041",361.88235,83.458305,84.76981
"26042",361.89572,83.15556,84.57514
"26043",361.90903,82.72343,84.241615
"26044",361.9224,82.18387,83.78716
"26045",361.9357,81.57107,83.24261
"26046",361.94907,80.91432,82.63496
"26047",361.96237,80.24048,81.989685
"26048",361.97574,79.57641,81.33313
"26049",361.98904,78.94896,80.692444
"26050",362.0024,78.3679,80.07854
"26051",362.01572,77.83566,79.4953
"26052",362.02908,77.36202,78.954025
"26053",362.0424,76.95186,78.461426
"26054",362.05576,76.60273,78.017044
"26055",362.06906,76.3122,77.62035
"26056",362.08243,76.0827,77.27561
"26057",362.09573,75.914246,76.98474
"26058",362.1091,75.79462,76.737434
"26059",362.1224,75.70672,76.51812
"26060",362.13577,75.63836,76.3156
"26061",362.14908,75.579765,76.120705
"26062",362.16245,75.51629,75.9191
"26063",362.17575,75.44305,75.70574
"26064",362.18912,75.3576,75.47789
"26065",362.20242,75.2575,75.23272
"26066",362.2158,75.140305,74.96732
"26067",362.2291,75.001144,74.6763
"26068",362.24246,74.847336,74.36628
"26069",362.25577,74.70084,74.05877
"26070",362.26913,74.56657,73.758896
"26071",362.28244,74.44694,73.469475
"26072",362.2958,74.35172,73.20073
"26073",362.3091,74.288246,72.96075
"26074",362.32248,74.25407,72.74808
"26075",362.3358,74.246735,72.56119
"26076",362.34915,74.27116,72.40582
"26077",362.36246,74.31754,72.273186
"26078",362.37582,74.38102,72.15909
"26079",362.38913,74.45182,72.0543
"26080",362.4025,74.53483,71.96393
"26081",362.4158,74.652016,71.91033
"26082",362.42917,74.87663,71.96783
"26083",362.44247,75.34539,72.27648
"26084",362.45584,76.20233,72.98797
"26085",362.46915,77.54513,74.21209
"26086",362.4825,79.378654,75.9689
"26087",362.49582,81.56863,78.13946
"26088",362.5092,83.88556,80.50541
"26089",362.5225,86.065765,82.80704
"26090",362.53586,87.87976,84.810585
"26091",362.54916,89.18837,86.36543
"26092",362.56253,89.94766,87.411865
"26093",362.57584,90.18448,87.95955
"26094",362.5892,89.9794,88.07274
"26095",362.6025,89.43252,87.837715
"26096",362.61588,88.65858,87.35854
"26097",362.62918,87.7699,86.74045
"26098",362.64255,86.83971,86.05307
"26099",362.65585,85.924164,85.351265
"26100",362.66922,85.04036,84.65259
"26101",362.68253,84.19806,83.9678
"26102",362.6959,83.42657,83.32749
"26103",362.7092,82.760056,82.76806
"26104",362.72256,82.247345,82.3416
"26105",362.73587,81.934845,82.09933
"26106",362.74924,81.846954,82.0719
"26107",362.76254,81.97635,82.25901
"26108",362.7759,82.27421,82.61863
"26109",362.7892,82.65995,83.07544
"26110",362.80258,83.04814,83.54675
"26111",362.8159,83.36065,83.95451
"26112",362.82925,83.53643,84.23531
"26113",362.84256,83.53643,84.345825
"26114",362.85593,83.35088,84.27079
"26115",362.86923,82.984665,84.009285
"26116",362.8826,82.4744,83.59229
"26117",362.8959,81.866486,83.0617
"26118",362.90927,81.20729,82.46083
"26119",362.92258,80.52857,81.81984
"26120",362.93594,79.87671,81.184494
"26121",362.94925,79.27856,80.58249
"26122",362.96262,78.73167,80.013054
"26123",362.97592,78.23605,79.477806
"26124",362.9893,77.803925,78.990555
"26125",363.0026,77.437706,78.55571
"26126",363.01596,77.137405,78.17534
"26127",363.02927,76.88594,77.83442
"26128",363.04263,76.68574,77.5369
"26129",363.05594,76.52705,77.27464
"26130",363.0693,76.40742,77.046486
"26131",363.0826,76.32441,76.85121
"26132",363.09598,76.282906,76.69485
"26133",363.10928,76.280464,76.57625
"26134",363.12265,76.30488,76.48443
"26135",363.13596,76.33906,76.40314
"26136",363.14932,76.368355,76.31803
"26137",363.16263,76.39277,76.22896
"26138",363.176,76.41474,76.13821
"26139",363.1893,76.436714,76.04814
"26140",363.20267,76.46357,75.963646
"26141",363.21597,76.49287,75.88243
"26142",363.22934,76.52216,75.80213
"26143",363.24265,76.53437,75.70566
"26144",363.256,76.524605,75.58759
"26145",363.26932,76.4831,75.437485
"26146",363.28268,76.40986,75.25434
"26147",363.296,76.30244,75.03473
"26148",363.30936,76.16571,74.782455
"26149",363.32266,76.02411,74.521034
"26150",363.33603,75.91913,74.29181
"26151",363.34933,75.95575,74.200905
"26152",363.3627,76.27314,74.391914
"26153",363.376,77.04463,75.04694
"26154",363.38937,78.35569,76.26565
"26155",363.40268,80.184326,78.0429
"26156",363.41605,82.388954,80.25329
"26157",363.42935,84.71809,82.657074
"26158",363.44272,86.89586,84.982285
"26159",363.45602,88.68299,86.98491
"26160",363.4694,89.94278,88.51604
"26161",363.4827,90.616615,89.50059
"26162",363.49606,90.73136,89.947105
"26163",363.50937,90.36027,89.91137
"26164",363.52274,89.6083,89.48316
"26165",363.53604,88.59754,88.77267
"26166",363.5494,87.44518,87.88898
"26167",363.5627,86.239105,86.91556
"26168",363.57608,85.03548,85.9069
"26169",363.5894,83.87579,84.90457
"26170",363.60275,82.79668,83.94657
"26171",363.61606,81.832306,83.069595
"26172",363.62943,81.03639,82.33094
"26173",363.64273,80.45533,81.782265
"26174",363.6561,80.13306,81.47422
"26175",363.6694,80.079346,81.42467
"26176",363.68277,80.2649,81.6127
"26177",363.69608,80.62623,81.98231
"26178",363.70944,81.08766,82.46331
"26179",363.72275,81.5613,82.97094
"26180",363.7361,81.969025,83.42745
"26181",363.74942,82.247345,83.7673
"26182",363.7628,82.35966,83.949844
"26183",363.7761,82.29618,83.960106
"26184",363.78946,82.06424,83.79992
"26185",363.80276,81.68093,83.48112
"26186",363.81613,81.16823,83.02094
"26187",363.82944,80.55787,82.44709
"26188",363.8428,79.89624,81.802895
"26189",363.8561,79.22484,81.12825
"26190",363.86948,78.572975,80.45216
"26191",363.88278,77.960175,79.79477
"26192",363.89615,77.401085,79.171936
"26193",363.90945,76.89082,78.58046
"26194",363.92282,76.419624,78.0121
"26195",363.93613,75.99725,77.477844
"26196",363.9495,75.62859,76.9841
"26197",363.9628,75.31609,76.534996
"26198",363.97617,75.0695,76.14204
"26199",363.98947,74.896164,75.81462
"26200",364.00284,74.793625,75.55259
"26201",364.01614,74.74235,75.338615
"26202",364.0295,74.73502,75.16699
"26203",364.04282,74.75212,75.01956
"26204",364.05618,74.77409,74.87754
"26205",364.0695,74.793625,74.733765
"26206",364.08286,74.81804,74.59548
"26207",364.09616,74.84245,74.45796
"26208",364.10953,74.86931,74.32365
"26209",364.12283,74.90105,74.19505
"26210",364.1362,74.93523,74.06989
"26211",364.1495,74.97429,73.95068
"26212",364.16287,75.018234,73.83758
"26213",364.17618,75.0573,73.72096
"26214",364.18954,75.08171,73.59092
"26215",364.20285,75.09636,73.45187
"26216",364.21622,75.10368,73.30596
"26217",364.22952,75.106125,73.155396
"26218",364.2429,75.125656,73.021996
"26219",364.2562,75.23308,72.9771
"26220",364.26956,75.55535,73.150406
"26221",364.28287,76.27802,73.734184
"26222",364.29623,77.57198,74.911835
"26223",364.30954,79.51537,76.77935
"26224",364.3229,82.05936,79.30819
"26225",364.3362,85.02083,82.334015
"26226",364.34958,88.094604,85.56469
"26227",364.36288,90.951096,88.67413
"26228",364.37625,93.32662,91.391884
"26229",364.38956,95.04295,93.52467
"26230",364.40292,96.01953,94.971344
"26231",364.41623,96.271,95.72343
"26232",364.4296,95.89014,95.85103
"26233",364.4429,94.99901,95.45647
"26234",364.45627,93.75876,94.68494
"26235",364.46957,92.33051,93.68665
"26236",364.48294,90.85344,92.59491
"26237",364.49625,89.41299,91.49363
"26238",364.5096,88.06531,90.44011
"26239",364.52292,86.8275,89.454346
"26240",364.5363,85.69955,88.53975
"26241",364.5496,84.68879,87.7071
"26242",364.56296,83.83429,86.99912
"26243",364.57626,83.18974,86.474396
"26244",364.58963,82.78691,86.17124
"26245",364.60294,82.62821,86.09963
"26246",364.6163,82.6746,86.22815
"26247",364.6296,82.862595,86.499725
"26248",364.64297,83.10918,86.83576
"26249",364.65628,83.336235,87.15998
"26250",364.66965,83.48028,87.40828
"26251",364.68295,83.48516,87.52192
"26252",364.69632,83.3167,87.46237
"26253",364.70963,82.95537,87.20468
"26254",364.723,82.408485,86.75015
"26255",364.7363,81.70779,86.12472
"26256",364.74966,80.89967,85.36997
"26257",364.76297,80.03052,84.52893
"26258",364.77634,79.14183,83.6412
"26259",364.78964,78.2678,82.74035
"26260",364.803,77.43282,81.85124
"26261",364.8163,76.65156,80.98975
"26262",364.82968,75.93622,80.16978
"26263",364.843,75.30877,79.41534
"26264",364.85635,74.77165,78.73162
"26265",364.86966,74.32487,78.12145
"26266",364.88303,73.96353,77.58277
"26267",364.89633,73.6852,77.11581
"26268",364.9097,73.48745,76.72072
"26269",364.923,73.3605,76.39025
"26270",364.93637,73.29214,76.11441
"26271",364.94968,73.27505,75.8877
"26272",364.96304,73.29702,75.699524
"26273",364.97635,73.34341,75.536446
"26274",364.98972,73.40444,75.389465
"26275",365.00302,73.480125,75.25904
"26276",365.0164,73.55581,75.13098
"26277",365.0297,73.63149,75.00529
"26278",365.04306,73.704735,74.87952
"26279",365.05637,73.777985,74.75604
"26280",365.06973,73.8439,74.627525
"26281",365.08304,73.90982,74.50107
"26282",365.0964,73.968414,74.36935
"26283",365.1097,74.019684,74.23213
"26284",365.12308,74.06363,74.089195
"26285",365.13638,74.090485,73.93054
"26286",365.14975,74.10269,73.75808
"26287",365.16306,74.11734,73.58844
"26288",365.17642,74.15396,73.44123
"26289",365.18973,74.2736,73.37818
"26290",365.2031,74.61051,73.53615
"26291",365.2164,75.36004,74.117256
"26292",365.22977,76.71992,75.33214
"26293",365.24307,78.802475,77.312195
"26294",365.25644,81.5906,80.0629
"26295",365.26974,84.89876,83.42076
"26296",365.2831,88.394905,87.06999
"26297",365.29642,91.71038,90.64781
"26298",365.30978,94.50584,93.80922
"26299",365.3231,96.54444,96.30113
"26300",365.33646,97.71633,97.990036
"26301",365.34976,98.03128,98.85862
"26302",365.36313,97.584496,98.97531
"26303",365.37643,96.515144,98.455475
"26304",365.3898,95.00389,97.46032
"26305",365.4031,93.24605,96.17135
"26306",365.41647,91.41985,94.759094
"26307",365.42978,89.652245,93.34836
"26308",365.44315,88.03601,92.03376
"26309",365.45645,86.598,90.84688
"26310",365.46982,85.34066,89.79572
"26311",365.48312,84.244446,88.8664
"26312",365.4965,83.31426,88.068855
"26313",365.5098,82.562294,87.420456
"26314",365.52316,82.02762,86.96585
"26315",365.53647,81.71999,86.72159
"26316",365.54984,81.619896,86.67524
"26317",365.56314,81.671165,86.77713
"26318",365.5765,81.80789,86.96608
"26319",365.5898,81.95682,87.1715
"26320",365.60318,82.0618,87.33763
"26321",365.6165,82.06912,87.409386
"26322",365.62985,81.9324,87.337326
"26323",365.64316,81.636986,87.102295
"26324",365.65652,81.18532,86.70178
"26325",365.66983,80.59693,86.15044
"26326",365.6832,79.89136,85.46352
"26327",365.6965,79.10277,84.67153
"26328",365.70987,78.28245,83.82317
"26329",365.72318,77.452354,82.93941
"26330",365.73654,76.63935,82.04679
"26331",365.74985,75.86786,81.17028
"26332",365.7632,75.157394,80.33069
"26333",365.77652,74.512856,79.53482
"26334",365.7899,73.94888,78.79938
"26335",365.8032,73.460594,78.121994
"26336",365.81656,73.057755,77.5148
"26337",365.82986,72.73792,76.97803
"26338",365.84323,72.50111,76.51427
"26339",365.85654,72.342415,76.12123
"26340",365.8699,72.254524,75.79404
"26341",365.8832,72.22522,75.52269
"26342",365.89658,72.24475,75.299255
"26343",365.90988,72.30335,75.11551
"26344",365.92325,72.39124,74.962875
"26345",365.93655,72.49134,74.825195
"26346",365.94992,72.59876,74.69797
"26347",365.96323,72.70374,74.571655
"26348",365.9766,72.80873,74.44864
"26349",365.9899,72.91127,74.326454
"26350",366.00327,73.00893,74.20259
"26351",366.01657,73.10414,74.07934
"26352",366.02994,73.19447,73.95418
"26353",366.04324,73.270164,73.8172
"26354",366.0566,73.31655,73.65328
"26355",366.06992,73.33608,73.46396
"26356",366.08328,73.3312,73.25083
"26357",366.0966,73.31167,73.0229
"26358",366.10995,73.29214,72.794365
"26359",366.12326,73.321434,72.614044
"26360",366.13663,73.494774,72.57868
"26361",366.14993,73.99283,72.87345
"26362",366.1633,75.03044,73.72334
"26363",366.1766,76.77852,75.316124
"26364",366.18997,79.30053,77.737465
"26365",366.20328,82.48905,80.90413
"26366",366.21664,86.07065,84.56351
"26367",366.22995,89.652245,88.33481
"26368",366.24332,92.843216,91.827415
"26369",366.25662,95.33593,94.72148
"26370",366.27,96.94484,96.80964
"26371",366.2833,97.62112,98.01544
"26372",366.29666,97.425804,98.37079
"26373",366.30997,96.5127,98.00224
"26374",366.32333,95.079575,97.08514
"26375",366.33664,93.33883,95.81563
"26376",366.35,91.48577,94.37941
"26377",366.3633,89.67422,92.92679
"26378",366.37668,88.00427,91.559166
"26379",366.38998,86.522316,90.32735
"26380",366.40335,85.22835,89.2372
"26381",366.41666,84.10773,88.27996
"26382",366.43002,83.16533,87.46593
"26383",366.44333,82.408485,86.808
"26384",366.4567,81.8616,86.33638
"26385",366.47,81.53933,86.07228
"26386",366.48337,81.43923,86.02029
"26387",366.49667,81.52224,86.14827
"26388",366.51004,81.72488,86.398476
"26389",366.52335,81.96658,86.694084
"26390",366.5367,82.176544,86.9655
"26391",366.55002,82.28397,87.140945
"26392",366.5634,82.24002,87.168365
"26393",366.5767,82.01541,87.013756
"26394",366.59006,81.61013,86.671455
"26395",366.60336,81.04372,86.15536
"26396",366.61673,80.343025,85.48728
"26397",366.63004,79.551994,84.70697
"26398",366.6434,78.709694,83.85067
"26399",366.6567,77.85275,82.95341
"26400",366.67007,77.015335,82.04889
"26401",366.68338,76.21698,81.157265
"26402",366.69675,75.47723,80.29929
"26403",366.71005,74.813156,79.49389
"26404",366.72342,74.2272,78.74585
"26405",366.73672,73.72915,78.0674
"26406",366.7501,73.31899,77.46128
"26407",366.7634,72.99184,76.92535
"26408",366.77676,72.74525,76.459755
"26409",366.79007,72.57435,76.06215
"26410",366.80344,72.47425,75.729996
"26411",366.81674,72.44007,75.46063
"26412",366.8301,72.46693,75.251236
"26413",366.8434,72.54017,75.089066
"26414",366.85678,72.64759,74.96336
"26415",366.8701,72.77455,74.860565
"26416",366.88345,72.90639,74.76661
"26417",366.89676,73.040665,74.679214
"26418",366.91013,73.1725,74.593575
"26419",366.92343,73.29946,74.50718
"26420",366.9368,73.411766,74.410095
"26421",366.9501,73.51186,74.30431
"26422",366.96347,73.58022,74.16992
"26423",366.97678,73.619286,74.00837
"26424",366.99014,73.636375,73.826065
"26425",367.00345,73.63882,73.62965
"26426",367.0168,73.65591,73.44795
"26427",367.03012,73.77554,73.36934
"26428",367.0435,74.13687,73.536156
"26429",367.0568,74.95476,74.17082
"26430",367.07016,76.419624,75.47803
"26431",367.08347,78.63645,77.58297
"26432",367.09683,81.54177,80.44568
"26433",367.11014,84.91585,83.867935
"26434",367.1235,88.39979,87.50549
"26435",367.1368,91.58831,90.95651
"26436",367.15018,94.14938,93.87972
"26437",367.16348,95.86328,96.03579
"26438",367.17685,96.637215,97.30545
"26439",367.19016,96.5127,97.70085
"26440",367.20352,95.624016,97.328186
"26441",367.21683,94.16403,96.35645
"26442",367.2302,92.34028,94.97533
"26443",367.2435,90.355385,93.37607
"26444",367.25687,88.38514,91.72943
"26445",367.27017,86.554054,90.160385
"26446",367.28354,84.90852,88.719666
"26447",367.29684,83.458305,87.42284
"26448",367.3102,82.2034,86.276
"26449",367.32352,81.13405,85.275505
"26450",367.33688,80.2649,84.441795
"26451",367.3502,79.639885,83.82506
"26452",367.36356,79.28832,83.46224
"26453",367.37686,79.20531,83.35699
"26454",367.39023,79.35668,83.48353
"26455",367.40353,79.674065,83.78081
"26456",367.4169,80.0647,84.161255
"26457",367.4302,80.43824,84.53682
"26458",367.44357,80.72144,84.83372
"26459",367.45688,80.848404,84.98322
"26460",367.47025,80.76784,84.92917
"26461",367.48355,80.46998,84.655304
"26462",367.49692,79.98169,84.1817
"26463",367.51022,79.34203,83.54147
"26464",367.5236,78.59251,82.771385
"26465",367.5369,77.77951,81.914406
"26466",367.55026,76.944534,81.01004
"26467",367.56357,76.121765,80.09179
"26468",367.57693,75.3283,79.17713
"26469",367.59024,74.581215,78.28406
"26470",367.6036,73.89761,77.43112
"26471",367.6169,73.29214,76.63495
"26472",367.63028,72.77211,75.905304
"26473",367.6436,72.33997,75.2473
"26474",367.65695,72.00549,74.67345
"26475",367.67026,71.76868,74.1868
"26476",367.68362,71.61974,73.78064
"26477",367.69693,71.55871,73.45772
"26478",367.7103,71.58312,73.21834
"26479",367.7236,71.67101,73.0432
"26480",367.73697,71.80286,72.914764
"26481",367.75027,71.9762,72.83194
"26482",367.76364,72.181274,72.78627
"26483",367.77695,72.40345,72.764114
"26484",367.7903,72.62806,72.75133
"26485",367.80362,72.84291,72.73581
"26486",367.817,73.040665,72.70991
"26487",367.8303,73.21156,72.66333
"26488",367.84366,73.39468,72.63431
"26489",367.85696,73.68276,72.71598
"26490",367.87033,74.251625,73.08743
"26491",367.88364,75.30633,73.9625
"26492",367.897,77.01289,75.52239
"26493",367.9103,79.40551,77.82166
"26494",367.92368,82.36454,80.762115
"26495",367.93698,85.60433,84.0758
"26496",367.95035,88.7538,87.4004
"26497",367.96365,91.441826,90.361984
"26498",367.97702,93.402306,92.68002
"26499",367.99033,94.51072,94.20726
"26500",368.0037,94.74265,94.892654
"26501",368.017,94.188446,94.79916
"26502",368.03036,93.00191,94.05601
"26503",368.04367,91.38079,92.8412
"26504",368.05704,89.513084,91.32915
"26505",368.07034,87.57458,89.68793
"26506",368.0837,85.6849,88.03496
"26507",368.09702,83.91974,86.44745
"26508",368.11038,82.31571,84.96591
"26509",368.1237,80.89479,83.617355
"26510",368.13705,79.69848,82.449005
"26511",368.15036,78.77562,81.51672
"26512",368.16373,78.184784,80.88763
"26513",368.17703,77.95529,80.60141
"26514",368.1904,78.08957,80.67179
"26515",368.2037,78.52659,81.04911
"26516",368.21707,79.168686,81.645164
"26517",368.23038,79.89868,82.34918
"26518",368.24374,80.601814,83.04915
"26519",368.25705,81.17799,83.644135
"26520",368.27042,81.55398,84.05693
"26521",368.28372,81.688255,84.23977
"26522",368.2971,81.57351,84.17778
"26523",368.3104,81.2195,83.87294
"26524",368.32376,80.67506,83.36661
"26525",368.33707,79.98413,82.69678
"26526",368.35043,79.202866,81.915016
"26527",368.36374,78.37522,81.06246
"26528",368.3771,77.540245,80.17671
"26529",368.3904,76.73945,79.29905
"26530",368.40378,75.99725,78.45496
"26531",368.41708,75.3283,77.66093
"26532",368.43045,74.74723,76.93387
"26533",368.44376,74.25895,76.28144
"26534",368.45712,73.87564,75.71873
"26535",368.47043,73.60464,75.25634
"26536",368.4838,73.43862,74.89047
"26537",368.4971,73.37026,74.61707
"26538",368.51047,73.38247,74.422104
"26539",368.52377,73.45083,74.28367
"26540",368.53714,73.55337,74.18155
"26541",368.55045,73.67544,74.102165
"26542",368.5638,73.81949,74.04858
"26543",368.57712,73.97818,74.01413
"26544",368.59048,74.1564,74.00417
"26545",368.6038,74.36637,74.03153
"26546",368.61716,74.6984,74.187515
"26547",368.63046,75.30389,74.62733
"26548",368.64383,76.36591,75.5426
"26549",368.65714,78.04562,77.10875
"26550",368.6705,80.39185,79.393906
"26551",368.6838,83.29717,82.31147
"26552",368.69717,86.49546,85.61279
"26553",368.71048,89.64492,88.96523
"26554",368.72385,92.37202,91.99374
"26555",368.73715,94.37888,94.38723
"26556",368.75052,95.484856,95.94254
"26557",368.76382,95.66308,96.60467
"26558",368.7772,94.994125,96.425186
"26559",368.7905,93.65621,95.55584
"26560",368.80386,91.8642,94.19058
"26561",368.81717,89.84024,92.537384
"26562",368.83054,87.765015,90.76967
"26563",368.84384,85.767914,89.01523
"26564",368.8572,83.912415,87.33997
"26565",368.8705,82.22537,85.77519
"26566",368.88388,80.73365,84.35301
"26567",368.8972,79.47387,83.11616
"26568",368.91055,78.504616,82.13046
"26569",368.92386,77.87961,81.458725
"26570",368.93723,77.65499,81.16785
"26571",368.95053,77.821014,81.26059
"26572",368.9639,78.31663,81.68811
"26573",368.9772,79.0222,82.34108
"26574",368.99057,79.818115,83.10644
"26575",369.00388,80.57984,83.86248
"26576",369.01724,81.19997,84.500725
"26577",369.03055,81.59792,84.93618
"26578",369.0439,81.72732,85.11551
"26579",369.05722,81.57839,85.02056
"26580",369.0706,81.17311,84.664604
"26581",369.0839,80.552986,84.08114
"26582",369.09726,79.77905,83.324486
"26583",369.11057,78.91234,82.45087
"26584",369.12393,78.00656,81.5111
"26585",369.13724,77.10567,80.54791
"26586",369.1506,76.24628,79.598076
"26587",369.1639,75.45281,78.68731
"26588",369.17728,74.74235,77.83475
"26589",369.19058,74.13199,77.06009
"26590",369.20395,73.633934,76.37866
"26591",369.21725,73.25796,75.80375
"26592",369.23062,73.0016,75.33671
"26593",369.24393,72.84779,74.9642
"26594",369.2573,72.79408,74.68699
"26595",369.2706,72.8185,74.48622
"26596",369.28397,72.903946,74.34725
"26597",369.29727,73.03578,74.25734
"26598",369.31064,73.20668,74.21061
"26599",369.32394,73.41909,74.21073
"26600",369.3373,73.71694,74.30293
"26601",369.35062,74.22232,74.61197
"26602",369.36398,75.12077,75.32987
"26603",369.3773,76.59785,76.65447
"26604",369.39066,78.76097,78.71128
"26605",369.40396,81.58572,81.49731
"26606",369.41733,84.86702,84.82816
"26607",369.43063,88.26063,88.37386
"26608",369.444,91.36126,91.732635
"26609",369.4573,93.805145,94.53156
"26610",369.47067,95.35302,96.51085
"26611",369.48398,95.92432,97.56193
"26612",369.49734,95.57519,97.710434
"26613",369.51065,94.466774,97.088745
"26614",369.52402,92.83101,95.90507
"26615",369.53732,90.89494,94.36997
"26616",369.5507,88.85634,92.67184
"26617",369.564,86.86656,90.95882
"26618",369.57736,85.00618,89.31301
"26619",369.59067,83.31182,87.77509
"26620",369.60403,81.80057,86.36733
"26621",369.61734,80.499275,85.12231
"26622",369.6307,79.45678,84.09541
"26623",369.644,78.72678,83.34844
"26624",369.65738,78.348366,82.93024
"26625",369.6707,78.34348,82.87374
"26626",369.68405,78.6804,83.15889
"26627",369.69736,79.26879,83.70605
"26628",369.71072,79.98657,84.40098
"26629",369.72403,80.71168,85.12566
"26630",369.7374,81.32693,85.76315
"26631",369.7507,81.7322,86.20989
"26632",369.76407,81.87137,86.40319
"26633",369.77737,81.7322,86.3225
"26634",369.79074,81.33425,85.97868
"26635",369.80405,80.71168,85.397804
"26636",369.8174,79.920654,84.62902
"26637",369.83072,79.02464,83.73053
"26638",369.8441,78.0798,82.75521
"26639",369.8574,77.137405,81.75281
"26640",369.87076,76.23651,80.76246
"26641",369.88406,75.40887,79.81721
"26642",369.89743,74.67643,78.9413
"26643",369.91074,74.05142,78.14993
"26644",369.9241,73.55093,77.46355
"26645",369.9374,73.17738,76.88847
"26646",369.95078,72.918594,76.41648
"26647",369.96408,72.762344,76.03894
"26648",369.97745,72.689095,75.73952
"26649",369.99075,72.67689,75.49884
"26650",370.00412,72.71595,75.30905
"26651",370.01743,72.80141,75.166885
"26652",370.0308,72.94545,75.085976
"26653",370.0441,73.214005,75.13408
"26654",370.05746,73.741356,75.44937
"26655",370.07077,74.73991,76.25234
"26656",370.08414,76.39277,77.74083
"26657",370.09744,78.802475,80.03781
"26658",370.1108,81.90555,83.10346
"26659",370.1241,85.45052,86.707985
"26660",370.13748,89.03456,90.46235
"26661",370.1508,92.22064,93.930756
"26662",370.16415,94.63523,96.72724
"26663",370.17746,96.05859,98.607956
"26664",370.19083,96.43946,99.490654
"26665",370.20413,95.87793,99.442856
"26666",370.2175,94.57664,98.63775
"26667",370.2308,92.78462,97.301254
"26668",370.24417,90.758224,95.67438
"26669",370.25748,88.70008,93.95243
"26670",370.27084,86.751816,92.27605
"26671",370.28415,84.981766,90.71699
"26672",370.29752,83.40948,89.30038
"26673",370.31082,82.02518,88.02262
"26674",370.3242,80.82887,86.8896
"26675",370.3375,79.83032,85.916954
"26676",370.35086,79.08324,85.164566
"26677",370.36417,78.63157,84.68425
"26678",370.37753,78.48997,84.499886
"26679",370.39084,78.641335,84.604065
"26680",370.4042,79.009995,84.93027
"26681",370.4175,79.500725,85.39006
"26682",370.43088,79.99878,85.87251
"26683",370.44418,80.4065,86.2802
"26684",370.45755,80.638435,86.52483
"26685",370.47086,80.638435,86.544785
"26686",370.48422,80.39185,86.31815
"26687",370.49753,79.91089,85.849434
"26688",370.5109,79.23949,85.17525
"26689",370.5242,78.43137,84.34337
"26690",370.53757,77.55489,83.41787
"26691",370.55087,76.646675,82.43324
"26692",370.56424,75.755554,81.43733
"26693",370.57755,74.91081,80.45995
"26694",370.5909,74.141754,79.53186
"26695",370.60422,73.46792,78.67496
"26696",370.61758,72.90639,77.9093
"26697",370.6309,72.45716,77.2384
"26698",370.64426,72.10315,76.64868
"26699",370.65756,71.84436,76.14311
"26700",370.67093,71.692986,75.73688
"26701",370.68423,71.639275,75.42357
"26702",370.6976,71.673454,75.19647
"26703",370.7109,71.78577,75.048584
"26704",370.72427,71.98596,74.99208
"26705",370.73758,72.32288,75.07857
"26706",370.75095,72.94057,75.456345
"26707",370.76425,74.04166,76.33683
"26708",370.77762,75.82391,77.93289
"26709",370.79092,78.382545,80.36102
"26710",370.8043,81.63943,83.56736
"26711",370.8176,85.33578,87.31494
"26712",370.83096,89.04677,91.19267
"26713",370.84427,92.315865,94.74448
"26714",370.85764,94.77684,97.590324
"26715",370.87094,96.20264,99.4779
"26716",370.8843,96.55665,100.33824
"26717",370.8976,95.96094,100.259926
"26718",370.91098,94.65476,99.45253
"26719",370.9243,92.89937,98.1551
"26720",370.93765,90.948654,96.60749
"26721",370.95096,89.01015,95.01113
"26722",370.96432,87.2108,93.49335
"26723",370.97763,85.59945,92.10733
"26724",370.991,84.173645,90.85651
"26725",371.0043,82.89433,89.70762
"26726",371.01767,81.74685,88.65058
"26727",371.03098,80.74586,87.70418
"26728",371.04434,79.937744,86.91937
"26729",371.05765,79.37621,86.355896
"26730",371.071,79.08812,86.04831
"26731",371.08432,79.05394,85.985634
"26732",371.0977,79.21019,86.11232
"26733",371.111,79.466545,86.343994
"26734",371.12436,79.73022,86.590996
"26735",371.13766,79.90112,86.75347
"26736",371.15103,79.91821,86.76747
"26737",371.16434,79.73998,86.586685
"26738",371.1777,79.361565,86.20014
"26739",371.191,78.79515,85.61378
"26740",371.20438,78.07736,84.85834
"26741",371.21768,77.25704,83.977936
"26742",371.23105,76.37568,83.01086
"26743",371.24435,75.474785,81.996704
"26744",371.25772,74.59342,80.97393
"26745",371.27103,73.760895,79.97245
"26746",371.2844,73.0016,79.01819
"26747",371.2977,72.342415,78.140305
"26748",371.31107,71.8053,77.36389
"26749",371.32437,71.38781,76.69032
"26750",371.33774,71.08995,76.12334
"26751",371.35104,70.90196,75.656906
"26752",371.3644,70.79942,75.27005
"26753",371.37772,70.750595,74.9337
"26754",371.39108,70.748146,74.64221
"26755",371.4044,70.79942,74.404366
"26756",371.41776,70.92149,74.23892
"26757",371.43106,71.16319,74.196915
"26758",371.44443,71.656364,74.41394
"26759",371.45773,72.59632,75.093155
"26760",371.4711,74.20035,76.46582
"26761",371.4844,76.60761,78.69185
"26762",371.49777,79.80591,81.784134
"26763",371.51108,83.57305,85.54521
"26764",371.52444,87.51598,89.5998
"26765",371.53775,91.15617,93.47487
"26766",371.55112,94.063934,96.73126
"26767",371.56442,95.96582,99.07265
"26768",371.5778,96.7715,100.37726
"26769",371.5911,96.56397,100.69384
"26770",371.60446,95.56054,100.20803
"26771",371.61777,94.02487,99.15863
"26772",371.63113,92.23041,97.802444
"26773",371.64444,90.40421,96.35845
"26774",371.6578,88.707405,94.98678
"26775",371.6711,87.19859,93.75008
"26776",371.68448,85.875336,92.65177
"26777",371.69778,84.68391,91.64394
"26778",371.71115,83.57549,90.6819
"26779",371.72446,82.53544,89.75358
"26780",371.73782,81.5906,88.88797
"26781",371.75113,80.79225,88.13933
"26782",371.7645,80.20386,87.57569
"26783",371.7778,79.852295,87.2305
"26784",371.79117,79.708244,87.08183
"26785",371.80447,79.71801,87.08248
"26786",371.81784,79.80835,87.16401
"26787",371.83115,79.888916,87.23859
"26788",371.8445,79.88403,87.23023
"26789",371.85782,79.73266,87.07523
"26790",371.8712,79.40551,86.73973
"26791",371.8845,78.890366,86.20601
"26792",371.89786,78.21652,85.49749
"26793",371.91116,77.4255,84.650734
"26794",371.92453,76.575874,83.72066
"26795",371.93784,75.7116,82.74938
"26796",371.9512,74.87175,81.77552
"26797",371.9645,74.090485,80.834
"26798",371.97787,73.38247,79.941315
"26799",371.99118,72.76967,79.12172
"26800",372.00455,72.26429,78.390396
"26801",372.01785,71.88098,77.76535
"26802",372.03122,71.6173,77.247955
"26803",372.04453,71.47082,76.83951
"26804",372.0579,71.42443,76.52658
"26805",372.0712,71.46349,76.29765
"26806",372.08456,71.55871,76.1261
"26807",372.09787,71.6881,75.9917
"26808",372.11124,71.837036,75.88089
"26809",372.12454,72.00305,75.79181
"26810",372.1379,72.183716,75.722565
"26811",372.1512,72.43275,75.72734
"26812",372.16458,72.8893,75.94742
"26813",372.1779,73.77066,76.606575
"26814",372.19125,75.30633,77.94758
"26815",372.20456,77.65255,80.147125
"26816",372.21793,80.80934,83.23056
"26817",372.23123,84.55695,87.00346
"26818",372.2446,88.47059,91.0595
"26819",372.2579,92.05951,94.91313
"26820",372.27127,94.88182,98.112305
"26821",372.28458,96.65186,100.347404
"26822",372.29794,97.289085,101.505
"26823",372.31125,96.91066,101.666855
"26824",372.32462,95.75586,101.04051
"26825",372.33792,94.117645,99.89467
"26826",372.3513,92.27924,98.497444
"26827",372.3646,90.46769,97.06962
"26828",372.37796,88.817276,95.74632
"26829",372.39127,87.3695,94.57408
"26830",372.40463,86.0975,93.53238
"26831",372.41794,84.945145,92.570564
"26832",372.4313,83.85138,91.63133
"26833",372.4446,82.78935,90.68966
"26834",372.45798,81.78348,89.77095
"26835",372.47128,80.89967,88.94288
"26836",372.48465,80.201416,88.272736
"26837",372.49796,79.71801,87.79562
"26838",372.51132,79.449455,87.51826
"26839",372.52463,79.344475,87.39607
"26840",372.538,79.327385,87.3585
"26841",372.5513,79.3225,87.332596
"26842",372.56467,79.24925,87.238174
"26843",372.57797,79.05882,87.024284
"26844",372.59134,78.71702,86.65307
"26845",372.60464,78.21896,86.11492
"26846",372.618,77.58175,85.42205
"26847",372.63132,76.84932,84.61405
"26848",372.64468,76.050964,83.71724
"26849",372.658,75.21599,82.75886
"26850",372.67136,74.390785,81.78416
"26851",372.68466,73.60952,80.82761
"26852",372.69803,72.89906,79.91745
"26853",372.71133,72.28382,79.08031
"26854",372.7247,71.783325,78.338684
"26855",372.738,71.40002,77.69861
"26856",372.75137,71.12901,77.15886
"26857",372.76468,70.963,76.71562
"26858",372.77805,70.89708,76.367294
"26859",372.79135,70.90929,76.09503
"26860",372.80472,70.98253,75.884186
"26861",372.81802,71.10216,75.722015
"26862",372.8314,71.24376,75.585556
"26863",372.8447,71.38537,75.45354
"26864",372.85806,71.519646,75.3186
"26865",372.87137,71.624626,75.15857
"26866",372.88474,71.70275,74.97496
"26867",372.89804,71.766235,74.77916
"26868",372.9114,71.854126,74.60974
"26869",372.9247,72.08118,74.58223
"26870",372.93808,72.65003,74.903625
"26871",372.9514,73.81705,75.84096
"26872",372.96475,75.809265,77.63996
"26873",372.97806,78.71458,80.414314
"26874",372.99142,82.39872,84.05829
"26875",373.00473,86.505226,88.23975
"26876",373.0181,90.51408,92.45189
"26877",373.0314,93.89792,96.1643
"26878",373.04477,96.26612,98.96681
"26879",373.05807,97.45266,100.66167
"26880",373.07144,97.48928,101.24368
"26881",373.08475,96.58106,100.882
"26882",373.0981,95.03075,99.849846
"26883",373.11142,93.153275,98.442085
"26884",373.1248,91.21721,96.91706
"26885",373.1381,89.41543,95.46582
"26886",373.15146,87.84558,94.19021
"26887",373.16476,86.502785,93.09259
"26888",373.17813,85.32357,92.116585
"26889",373.19144,84.2298,91.18917
"26890",373.2048,83.17021,90.261765
"26891",373.2181,82.14725,89.33787
"26892",373.23148,81.21217,88.469894
"26893",373.24478,80.428474,87.724075
"26894",373.25815,79.84985,87.158844
"26895",373.27145,79.48119,86.78549
"26896",373.28482,79.281,86.569084
"26897",373.29813,79.1931,86.45872
"26898",373.3115,79.13695,86.37735
"26899",373.3248,79.046616,86.26005
"26900",373.33817,78.856186,86.039825
"26901",373.35147,78.53391,85.68181
"26902",373.36484,78.06027,85.16235
"26903",373.37814,77.44991,84.49138
"26904",373.3915,76.72968,83.69146
"26905",373.40482,75.93622,82.7958
"26906",373.41818,75.10124,81.83383
"26907",373.4315,74.27116,80.85066
"26908",373.44485,73.47036,79.87084
"26909",373.45816,72.7306,78.92703
"26910",373.47153,72.06897,78.03824
"26911",373.48483,71.51232,77.23375
"26912",373.4982,71.06554,76.52173
"26913",373.5115,70.72373,75.90073
"26914",373.52487,70.4918,75.37891
"26915",373.53818,70.36729,74.95726
"26916",373.55154,70.33555,74.6245
"26917",373.56485,70.38682,74.37375
"26918",373.57822,70.501564,74.18808
"26919",373.59152,70.66758,74.05727
"26920",373.6049,70.87755,73.97559
"26921",373.6182,71.10704,73.92001
"26922",373.63156,71.33898,73.874054
"26923",373.64487,71.55871,73.82312
"26924",373.65823,71.74914,73.749756
"26925",373.67154,71.89319,73.63597
"26926",373.6849,71.98352,73.47296
"26927",373.6982,72.02258,73.261505
"26928",373.71158,72.027466,73.01709
"26929",373.72488,72.02258,72.76306
"26930",373.73825,72.078735,72.569916
"26931",373.75156,72.35706,72.60071
"26932",373.76492,73.10658,73.11139
"26933",373.77823,74.5861,74.37549
"26934",373.7916,76.97383,76.59404
"26935",373.8049,80.274666,79.80031
"26936",373.81827,84.24689,83.78111
"26937",373.83157,88.43641,88.10335
"26938",373.84494,92.298775,92.229355
"26939",373.85825,95.34814,95.663055
"26940",373.8716,97.269554,98.0641
"26941",373.88492,97.98245,99.31667
"26942",373.8983,97.60891,99.50508
"26943",373.9116,96.40772,98.85417
"26944",373.92496,94.696266,97.65546
"26945",373.93826,92.77486,96.193306
"26946",373.95163,90.88274,94.7004
"26947",373.96494,89.16884,93.32659
"26948",373.9783,87.67956,92.12384
"26949",373.9916,86.38804,91.07231
"26950",374.00497,85.223465,90.10736
"26951",374.01828,84.13458,89.18171
"26952",374.03165,83.09697,88.2733
"26953",374.04495,82.13504,87.40815
"26954",374.05832,81.287865,86.62769
"26955",374.07162,80.61646,85.99654
"26956",374.085,80.15503,85.55437
"26957",374.0983,79.89868,85.302864
"26958",374.11166,79.7937,85.19472
"26959",374.12497,79.77417,85.16874
"26960",374.13834,79.76196,85.149475
"26961",374.15164,79.674065,85.05414
"26962",374.165,79.44457,84.81446
"26963",374.1783,79.0515,84.40403
"26964",374.19168,78.487526,83.81042
"26965",374.205,77.77707,83.0527
"26966",374.21835,76.961624,82.167786
"26967",374.23166,76.10712,81.21833
"26968",374.24503,75.25506,80.24462
"26969",374.25833,74.442055,79.28334
"26970",374.2717,73.69741,78.36501
"26971",374.285,73.03334,77.50399
"26972",374.29837,72.44984,76.70278
"26973",374.31168,71.9469,75.9639
"26974",374.32504,71.5465,75.311844
"26975",374.33835,71.2462,74.747375
"26976",374.3517,71.046005,74.27362
"26977",374.36502,70.92882,73.87662
"26978",374.3784,70.88487,73.549194
"26979",374.3917,70.91661,73.29608
"26980",374.40506,71.01671,73.11232
"26981",374.41837,71.17296,72.98784
"26982",374.43173,71.37316,72.9122
"26983",374.44504,71.59289,72.862335
"26984",374.4584,71.81506,72.82179
"26985",374.4717,72.02258,72.77353
"26986",374.48508,72.20325,72.704895
"26987",374.49838,72.36683,72.62483
"26988",374.51175,72.51087,72.530334
"26989",374.52505,72.637825,72.42325
"26990",374.53842,72.73792,72.293274
"26991",374.55173,72.798965,72.12738
"26992",374.5651,72.82582,71.92921
"26993",374.5784,72.80385,71.683044
"26994",374.59177,72.74525,71.39957
"26995",374.60507,72.6598,71.0874
"26996",374.61844,72.59388,70.7921
"26997",374.63174,72.63538,70.60216
"26998",374.6451,72.972305,70.70894
"26999",374.65842,73.87076,71.38778
"27000",374.67178,75.58953,72.915016
"27001",374.6851,78.26536,75.45302
"27002",374.69846,81.83963,78.97308
"27003",374.71176,86.014496,83.20544
"27004",374.72513,90.287025,87.66592
"27005",374.73843,94.09323,91.793594
"27006",374.7518,96.97658,95.117355
"27007",374.7651,98.685585,97.35688
"27008",374.77847,99.18364,98.43886
"27009",374.79178,98.62699,98.4817
"27010",374.80515,97.28176,97.71856
"27011",374.81845,95.47753,96.454384
"27012",374.83182,93.49752,94.958046
"27013",374.84512,91.561455,93.44378
"27014",374.8585,89.8085,92.052124
"27015",374.8718,88.292366,90.84251
"27016",374.88516,86.976425,89.785706
"27017",374.89847,85.79477,88.82206
"27018",374.91183,84.701,87.90937
"27019",374.92514,83.682915,87.03819
"27020",374.9385,82.76982,86.24019
"27021",374.9518,82.01297,85.56989
"27022",374.96518,81.461205,85.08103
"27023",374.9785,81.1194,84.78489
"27024",375.00516,80.91676,84.647255
"27025",375.01852,80.91432,84.67346
"27026",375.03183,80.87282,84.66053
"27027",375.0452,80.73365,84.54864
"27028",375.0585,80.45289,84.2908
"27029",375.07187,80.008545,83.86061
"27030",375.08517,79.40795,83.260284
"27031",375.09854,78.675514,82.509346
"27032",375.11185,77.840546,81.63299
"27033",375.1252,76.946976,80.671936
"27034",375.13852,76.04608,79.67564
"27035",375.1519,75.18181,78.687805
"27036",375.1652,74.38834,77.743774
"27037",375.17856,73.6852,76.86527
"27038",375.19186,73.08461,76.067345
"27039",375.20523,72.584114,75.350746
"27040",375.21854,72.183716,74.7186
"27041",375.2319,71.88098,74.1716
"27042",375.2452,71.68322,73.72012
"27043",375.25858,71.5758,73.3528
"27044",375.27188,71.551384,73.065125
"27045",375.28525,71.59045,72.840164
"27046",375.29855,71.68566,72.67258
"27047",375.31192,71.81262,72.53972
"27048",375.32523,71.96155,72.432785
"27049",375.3386,72.11536,72.33539
"27050",375.3519,72.26917,72.24281
"27051",375.36526,72.410774,72.14282
"27052",375.37857,72.535286,72.03017
"27053",375.39194,72.64515,71.90675
"27054",375.40524,72.73548,71.76724
"27055",375.4186,72.80873,71.61348
"27056",375.43192,72.86488,71.44491
"27057",375.44528,72.89906,71.25612
"27058",375.4586,72.91127,71.046425
"27059",375.47195,72.903946,70.81758
"27060",375.48526,72.87465,70.566536
"27061",375.49863,72.82826,70.297485
"27062",375.51193,72.78432,70.02943
"27063",375.5253,72.79164,69.811264
"27064",375.5386,72.972305,69.76667
"27065",375.55197,73.54116,70.11591
"27066",375.56528,74.75456,71.12748
"27067",375.57864,76.824905,73.033905
"27068",375.59195,79.818115,75.927895
"27069",375.60532,83.580376,79.68447
"27070",375.61862,87.73571,83.95169
"27071",375.632,91.773865,88.23158
"27072",375.6453,95.18211,92.00777
"27073",375.65866,97.58694,94.88703
"27074",375.67197,98.82475,96.67444
"27075",375.68533,98.932175,97.37013
"27076",375.69864,98.089874,97.11946
"27077",375.712,96.568855,96.16375
"27078",375.7253,94.67185,94.78452
"27079",375.73868,92.65766,93.22883
"27080",375.75198,90.721596,91.68832
"27081",375.76535,88.97841,90.28018
"27082",375.77866,87.45251,89.03485
"27083",375.79202,86.11215,87.92738
"27084",375.80533,84.90608,86.912315
"27085",375.8187,83.8172,85.976746
"27086",375.832,82.85283,85.13166
"27087",375.84537,82.06668,84.43466
"27088",375.85867,81.514915,83.94748
"27089",375.87204,81.20973,83.68964
"27090",375.88535,81.129166,83.64687
"27091",375.8987,81.20485,83.75784
"27092",375.91202,81.35134,83.941986
"27093",375.92538,81.480736,84.11361
"27094",375.9387,81.51003,84.18918
"27095",375.95206,81.38308,84.10941
"27096",375.96536,81.075455,83.84501
"27097",375.97873,80.58228,83.385445
"27098",375.99203,79.92554,82.746895
"27099",376.0054,79.14183,81.96086
"27100",376.0187,78.28245,81.07466
"27101",376.03207,77.39376,80.1323
"27102",376.04538,76.50996,79.16705
"27103",376.05875,75.65545,78.20348
"27104",376.07205,74.861984,77.274254
"27105",376.08542,74.14664,76.398346
"27106",376.09872,73.52163,75.59042
"27107",376.1121,73.0016,74.86795
"27108",376.1254,72.59144,74.23909
"27109",376.13876,72.29359,73.70972
"27110",376.15207,72.09827,73.273575
"27111",376.16544,72.00061,72.928986
"27112",376.17874,71.9884,72.666794
"27113",376.1921,72.05188,72.479904
"27114",376.2054,72.166626,72.34627
"27115",376.21878,72.318,72.25285
"27116",376.2321,72.4889,72.183685
"27117",376.24545,72.672005,72.132065
"27118",376.25876,72.84779,72.07886
"27119",376.27213,73.006485,72.014046
"27120",376.28543,73.14076,71.92978
"27121",376.2988,73.25796,71.83263
"27122",376.3121,73.35317,71.717155
"27123",376.32547,73.43374,71.59001
"27124",376.33878,73.50942,71.4605
"27125",376.35214,73.58022,71.328476
"27126",376.36545,73.633934,71.18157
"27127",376.3788,73.66079,71.00949
"27128",376.39212,73.66323,70.813835
"27129",376.4055,73.64614,70.598724
"27130",376.4188,73.62417,70.3782
"27131",376.43216,73.62173,70.17651
"27132",376.44547,73.72915,70.08462
"27133",376.45883,74.11734,70.27685
"27134",376.47214,75.02556,71.001236
"27135",376.4855,76.68818,72.50841
"27136",376.4988,79.23216,74.9489
"27137",376.51218,82.59403,78.28677
"27138",376.52548,86.49546,82.269264
"27139",376.53885,90.4921,86.46889
"27140",376.55215,94.083466,90.38813
"27141",376.56552,96.849625,93.5944
"27142",376.57883,98.55375,95.82507
"27143",376.5922,99.13481,96.98594
"27144",376.6055,98.71488,97.16397
"27145",376.61887,97.513695,96.54762
"27146",376.63217,95.79004,95.37127
"27147",376.64554,93.79782,93.87249
"27148",376.65884,91.7641,92.26995
"27149",376.6722,89.82559,90.69907
"27150",376.68552,88.0531,89.233635
"27151",376.69888,86.46372,87.89592
"27152",376.7122,85.050125,86.68431
"27153",376.72556,83.79767,85.58967
"27154",376.73886,82.718544,84.62922
"27155",376.75223,81.8616,83.85723
"27156",376.76553,81.26589,83.319695
"27157",376.7789,80.95827,83.05163
"27158",376.7922,80.90944,83.032745
"27159",376.80557,81.05592,83.20765
"27160",376.81888,81.30251,83.487236
"27161",376.83224,81.55886,83.78429
"27162",376.84555,81.739525,84.013664
"27163",376.85892,81.778595,84.10709
"27164",376.87222,81.634544,84.01862
"27165",376.8856,81.287865,83.72302
"27166",376.8989,80.7483,83.2237
"27167",376.91226,80.05249,82.55128
"27168",376.92557,79.23949,81.739914
"27169",376.93893,78.345924,80.822586
"27170",376.95224,77.43038,79.855354
"27171",376.9656,76.524605,78.86928
"27172",376.9789,75.65545,77.89152
"27173",376.99228,74.861984,76.96229
"27174",377.00558,74.16617,76.10591
"27175",377.01895,73.58999,75.34743
"27176",377.03226,73.131,74.688126
"27177",377.04562,72.7892,74.131676
"27178",377.05893,72.55482,73.67196
"27179",377.0723,72.413216,73.2977
"27180",377.0856,72.3473,72.99469
"27181",377.09897,72.35218,72.76042
"27182",377.11227,72.42054,72.58978
"27183",377.12564,72.54261,72.47499
"27184",377.13895,72.708626,72.40796
"27185",377.1523,72.901505,72.372986
"27186",377.16562,73.109024,72.35868
"27187",377.179,73.31655,72.35087
"27188",377.1923,73.51186,72.337326
"27189",377.20566,73.68276,72.30547
"27190",377.21896,73.829254,72.254555
"27191",377.23233,73.94888,72.18135
"27192",377.24564,74.0441,72.08747
"27193",377.259,74.124664,71.98192
"27194",377.2723,74.19302,71.86668
"27195",377.28568,74.251625,71.74381
"27196",377.29898,74.302895,71.61545
"27197",377.31235,74.339516,71.47404
"27198",377.32565,74.35905,71.31668
"27199",377.33902,74.36149,71.142845
"27200",377.35233,74.34684,70.951996
"27201",377.3657,74.32487,70.753365
"27202",377.379,74.29557,70.54672
"27203",377.39236,74.29313,70.36602
"27204",377.40567,74.40299,70.29755
"27205",377.41904,74.80827,70.52792
"27206",377.43234,75.757996,71.31541
"27207",377.4457,77.50118,72.92603
"27208",377.459,80.17944,75.52621
"27209",377.47238,83.7293,79.08167
"27210",377.4857,87.87244,83.34135
"27211",377.49905,92.171814,87.886734
"27212",377.51236,96.11963,92.21492
"27213",377.52573,99.2691,95.868126
"27214",377.53903,101.32967,98.53086
"27215",377.5524,102.21347,100.08121
"27216",377.5657,101.98886,100.550766
"27217",377.57907,100.85603,100.10509
"27218",377.59238,99.09819,98.99899
"27219",377.60574,96.99855,97.49617
"27220",377.61905,94.79393,95.822754
"27221",377.63242,92.679634,94.17077
"27222",377.64572,90.76799,92.655365
"27223",377.6591,89.08583,91.30971
"27224",377.6724,87.61608,90.123886
"27225",377.68576,86.31968,89.06549
"27226",377.69907,85.16731,88.11061
"27227",377.71243,84.15411,87.25889
"27228",377.72574,83.31426,86.54885
"27229",377.7391,82.69901,86.03717
"27230",377.7524,82.31571,85.73821
"27231",377.76578,82.13748,85.63235
"27232",377.77908,82.10574,85.667404
"27233",377.79245,82.13992,85.76739
"27234",377.80576,82.16678,85.861115
"27235",377.81912,82.11063,85.87267
"27236",377.83243,81.92264,85.75064
"27237",377.8458,81.57595,85.464035
"27238",377.8591,81.07057,85.007904
"27239",377.87247,80.413826,84.38461
"27240",377.88577,79.635,83.61872
"27241",377.89914,78.77074,82.74305
"27242",377.91245,77.855194,81.78909
"27243",377.9258,76.927444,80.79432
"27244",377.93912,76.0119,79.78276
"27245",377.95248,75.14763,78.79386
"27246",377.9658,74.356606,77.851204
"27247",377.97916,73.65835,76.97659
"27248",377.99246,73.05531,76.175385
"27249",378.00583,72.55726,75.46031
"27250",378.01913,72.16174,74.832214
"27251",378.0325,71.86389,74.28941
"27252",378.0458,71.658806,73.83008
"27253",378.05917,71.54162,73.452225
"27254",378.07248,71.502556,73.148834
"27255",378.08585,71.52941,72.91014
"27256",378.09915,71.60998,72.726
"27257",378.11252,71.72228,72.57611
"27258",378.12582,71.85657,72.45172
"27259",378.1392,71.99573,72.336395
"27260",378.1525,72.14221,72.23274
"27261",378.16586,72.28138,72.12636
"27262",378.17917,72.410774,72.01454
"27263",378.19254,72.518196,71.884796
"27264",378.20584,72.603645,71.736435
"27265",378.2192,72.66956,71.57121
"27266",378.2325,72.72083,71.3934
"27267",378.24588,72.77211,71.21721
"27268",378.2592,72.82094,71.04017
"27269",378.27255,72.87709,70.87198
"27270",378.28586,72.9308,70.7031
"27271",378.29922,72.97963,70.53102
"27272",378.31253,73.01869,70.3507
"27273",378.3259,73.05287,70.16672
"27274",378.3392,73.074844,69.971596
"27275",378.35257,73.08705,69.767395
"27276",378.36588,73.09926,69.563576
"27277",378.37924,73.126114,69.37479
"27278",378.39255,73.24574,69.27961
"27279",378.4059,73.619286,69.442085
"27280",378.41922,74.486,70.109406
"27281",378.4326,76.112,71.563095
"27282",378.4459,78.660866,73.99046
"27283",378.45926,82.125275,77.413025
"27284",378.47256,86.28306,81.63722
"27285",378.48593,90.70695,86.257454
"27286",378.49924,94.87694,90.76204
"27287",378.5126,98.321815,94.67182
"27288",378.5259,100.71198,97.634544
"27289",378.53928,101.908295,99.4781
"27290",378.55258,101.944916,100.199356
"27291",378.56595,100.997635,99.93785
"27292",378.57925,99.32769,98.92408
"27293",378.59262,97.215836,97.416214
"27294",378.60593,94.89647,95.63484
"27295",378.6193,92.56245,93.766335
"27296",378.6326,90.34562,91.942085
"27297",378.64597,88.33387,90.25364
"27298",378.65927,86.55894,88.739136
"27299",378.67264,85.01106,87.396225
"27300",378.68594,83.69512,86.23688
"27301",378.6993,82.61356,85.27079
"27302",378.71262,81.77371,84.51261
"27303",378.72598,81.18776,83.982086
"27304",378.7393,80.87038,83.70182
"27305",378.75266,80.79469,83.653336
"27306",378.76596,80.89967,83.78315
"27307",378.77933,81.10719,84.01878
"27308",378.79263,81.324486,84.270676
"27309",378.806,81.46853,84.45611
"27310",378.8193,81.47585,84.50932
"27311",378.83267,81.307396,84.386986
"27312",378.84598,80.95094,84.07139
"27313",378.85934,80.413826,83.56399
"27314",378.87265,79.73266,82.89575
"27315",378.88602,78.94652,82.10126
"27316",378.89932,78.09445,81.21627
"27317",378.9127,77.208206,80.27048
"27318",378.926,76.31953,79.294556
"27319",378.93936,75.45525,78.31527
"27320",378.95267,74.64225,77.360245
"27321",378.96603,73.90738,76.45795
"27322",378.97934,73.26528,75.62546
"27323",378.9927,72.72816,74.87788
"27324",379.006,72.30091,74.22339
"27325",379.01938,71.98596,73.66785
"27326",379.03268,71.766235,73.19768
"27327",379.04605,71.6466,72.82074
"27328",379.05936,71.61242,72.52551
"27329",379.07272,71.65148,72.30246
"27330",379.08603,71.74914,72.13922
"27331",379.0994,71.89075,72.022995
"27332",379.1127,72.059204,71.938034
"27333",379.12607,72.23743,71.8681
"27334",379.13937,72.4181,71.8062
"27335",379.15274,72.59632,71.74748
"27336",379.16605,72.76967,71.68947
"27337",379.1794,72.9308,71.62466
"27338",379.19272,73.0724,71.54535
"27339",379.2061,73.19203,71.448494
"27340",379.2194,73.27993,71.32365
"27341",379.23276,73.340965,71.17468
"27342",379.24606,73.37759,71.00321
"27343",379.25943,73.39712,70.815796
"27344",379.27274,73.402,70.61434
"27345",379.2861,73.402,70.40816
"27346",379.2994,73.38979,70.189766
"27347",379.31277,73.38003,69.973434
"27348",379.32608,73.38247,69.769005
"27349",379.33945,73.39468,69.57442
"27350",379.35275,73.428856,69.40218
"27351",379.36612,73.53628,69.30426
"27352",379.37943,73.85855,69.424545
"27353",379.3928,74.6276,70.00168
"27354",379.4061,76.11444,71.32063
"27355",379.41946,78.521706,73.606476
"27356",379.43277,81.86893,76.9075
"27357",379.44614,85.9559,81.05288
"27358",379.45944,90.36515,85.64825
"27359",379.4728,94.571754,90.178764
"27360",379.4861,98.075226,94.1376
"27361",379.49948,100.526436,97.15366
"27362",379.5128,101.76181,99.03049
"27363",379.52615,101.81308,99.76181
"27364",379.53946,100.84871,99.479095
"27365",379.55283,99.13481,98.41672
"27366",379.56613,96.96193,96.8418
"27367",379.5795,94.5864,94.99633
"27368",379.5928,92.21088,93.07663
"27369",379.60617,89.97696,91.224304
"27370",379.61948,87.94568,89.50481
"27371",379.63284,86.13901,87.94644
"27372",379.64615,84.55451,86.55379
"27373",379.65952,83.1873,85.3289
"27374",379.67282,82.054474,84.29568
"27375",379.6862,81.18776,83.493164
"27376",379.6995,80.62379,82.96631
"27377",379.71286,80.36988,82.731895
"27378",379.72617,80.38697,82.760544
"27379",379.73953,80.621346,83.00701
"27380",379.75284,80.987564,83.39265
"27381",379.7662,81.3904,83.82635
"27382",379.7795,81.72732,84.20671
"27383",379.79288,81.917755,84.451126
"27384",379.80618,81.89578,84.48908
"27385",379.81955,81.636986,84.28953
"27386",379.83286,81.146255,83.84995
"27387",379.84622,80.465096,83.20461
"27388",379.85953,79.656975,82.411026
"27389",379.8729,78.7805,81.523834
"27390",379.8862,77.87961,80.58483
"27391",379.89957,76.99092,79.62988
"27392",379.91287,76.12665,78.67158
"27393",379.92624,75.31121,77.7351
"27394",379.93954,74.56168,76.83905
"27395",379.9529,73.89273,76.00015
"27396",379.96622,73.31899,75.235565
"27397",379.97958,72.85512,74.56291
"27398",379.9929,72.50111,73.98563
"27399",380.00626,72.24963,73.49982
"27400",380.01956,72.08606,73.09404
"27401",380.03293,71.990845,72.75151
"27402",380.04623,71.96155,72.471924
"27403",380.0596,71.99573,72.2549
"27404",380.0729,72.0885,72.097534
"27405",380.08627,72.217896,71.97969
"27406",380.09958,72.37415,71.89276
"27407",380.11295,72.54017,71.820465
"27408",380.12625,72.71107,71.75824
"27409",380.13962,72.87221,71.691605
"27410",380.15292,73.02602,71.62267
"27411",380.1663,73.17006,71.54878
"27412",380.1796,73.29702,71.46231
"27413",380.19296,73.39468,71.3505
"27414",380.20627,73.45815,71.207565
"27415",380.21964,73.48989,71.034874
"27416",380.23294,73.48745,70.828995
"27417",380.2463,73.45327,70.5913
"27418",380.2596,73.38491,70.31836
"27419",380.27298,73.304344,70.031075
"27420",380.2863,73.2604,69.77789
"27421",380.29965,73.37026,69.67715
"27422",380.31296,73.85123,69.950935
"27423",380.32632,74.969406,70.87697
"27424",380.33963,76.94209,72.69245
"27425",380.353,79.84497,75.49977
"27426",380.3663,83.546196,79.19615
"27427",380.37967,87.70397,83.464745
"27428",380.39297,91.82025,87.82178
"27429",380.40634,95.40185,91.77276
"27430",380.41965,98.075226,94.927444
"27431",380.433,99.64507,97.06214
"27432",380.44632,100.08209,98.11307
"27433",380.4597,99.48882,98.14736
"27434",380.473,98.08011,97.34767
"27435",380.48636,96.10498,95.937546
"27436",380.49966,93.81247,94.148315
"27437",380.51303,91.422295,92.18978
"27438",380.52634,89.10292,90.227356
"27439",380.5397,86.94957,88.358475
"27440",380.553,85.013504,86.63958
"27441",380.56638,83.30938,85.092125
"27442",380.57968,81.849396,83.73556
"27443",380.59305,80.66285,82.606804
"27444",380.60635,79.798584,81.76325
"27445",380.61972,79.293205,81.25158
"27446",380.63303,79.15892,81.09521
"27447",380.6464,79.364006,81.27401
"27448",380.6597,79.84009,81.73022
"27449",380.67307,80.465096,82.35023
"27450",380.68637,81.112076,83.01174
"27451",380.69974,81.67605,83.610466
"27452",380.71304,82.074005,84.0608
"27453",380.7264,82.23514,84.28674
"27454",380.73972,82.13748,84.258934
"27455",380.75308,81.79324,83.98149
"27456",380.7664,81.22438,83.468666
"27457",380.77975,80.46754,82.750084
"27458",380.79306,79.58373,81.88089
"27459",380.80643,78.641335,80.92548
"27460",380.81973,77.679405,79.9211
"27461",380.8331,76.73701,78.90618
"27462",380.8464,75.84589,77.91309
"27463",380.85977,75.028,76.96539
"27464",380.87308,74.29801,76.08003
"27465",380.88644,73.66079,75.264626
"27466",380.89975,73.128555,74.534294
"27467",380.91312,72.72083,73.91184
"27468",380.92642,72.45472,73.41826
"27469",380.9398,72.318,73.045746
"27470",380.9531,72.308235,72.79591
"27471",380.96646,72.410774,72.65808
"27472",380.97977,72.59388,72.60402
"27473",380.99313,72.82826,72.606964
"27474",381.00644,73.091934,72.64652
"27475",381.0198,73.3605,72.69921
"27476",381.0331,73.6144,72.745636
"27477",381.04648,73.83902,72.770706
"27478",381.05978,74.03189,72.77105
"27479",381.07315,74.19058,72.74324
"27480",381.08646,74.31754,72.68866
"27481",381.09982,74.41276,72.6063
"27482",381.11313,74.461586,72.48053
"27483",381.1265,74.44938,72.29525
"27484",381.1398,74.38346,72.05588
"27485",381.15317,74.31266,71.80956
"27486",381.16647,74.34196,71.66113
"27487",381.17984,74.67399,71.81635
"27488",381.19315,75.55779,72.53372
"27489",381.2065,77.208206,74.04532
"27490",381.21982,79.72045,76.47032
"27491",381.2332,82.99931,79.74045
"27492",381.2465,86.76402,83.598885
"27493",381.25986,90.57511,87.621346
"27494",381.27316,93.98337,91.36008
"27495",381.28653,96.6128,94.42649
"27496",381.29984,98.23636,96.5692
"27497",381.3132,98.78813,97.69086
"27498",381.3265,98.336464,97.82632
"27499",381.33987,97.06691,97.129776
"27500",381.35318,95.20409,95.80029
"27501",381.36655,92.99214,94.06348
"27502",381.37985,90.64347,92.12081
"27503",381.39322,88.31678,90.12673
"27504",381.40652,86.11459,88.18445
"27505",381.4199,84.1004,86.361336
"27506",381.4332,82.30839,84.69746
"27507",381.44656,80.77272,83.233925
"27508",381.45987,79.54955,82.034904
"27509",381.47324,78.69749,81.16876
"27510",381.48654,78.26292,80.69349
"27511",381.4999,78.26292,80.639206
"27512",381.5132,78.66819,80.9902
"27513",381.52658,79.39086,81.67125
"27514",381.5399,80.30396,82.565315
"27515",381.55325,81.26589,83.53674
"27516",381.56656,82.142365,84.452774
"27517",381.57993,82.81377,85.191124
"27518",381.59323,83.20195,85.66724
"27519",381.6066,83.265434,85.83078
"27520",381.6199,83.00664,85.67403
"27521",381.63327,82.45487,85.21622
"27522",381.64658,81.671165,84.509224
"27523",381.65994,80.72144,83.611725
"27524",381.67325,79.67895,82.591774
"27525",381.6866,78.60227,81.505066
"27526",381.69992,77.540245,80.39936
"27527",381.7133,76.53437,79.31662
"27528",381.7266,75.60906,78.28301
"27529",381.73996,74.7863,77.32304
"27530",381.75327,74.08072,76.45453
"27531",381.76663,73.497215,75.68605
"27532",381.77994,73.02846,75.014084
"27533",381.7933,72.672005,74.43977
"27534",381.8066,72.42054,73.959305
"27535",381.81998,72.26673,73.568634
"27536",381.83328,72.20569,73.26593
"27537",381.84665,72.2301,73.04677
"27538",381.85995,72.325325,72.899185
"27539",381.87332,72.4889,72.82292
"27540",381.88663,72.70374,72.80304
"27541",381.9,72.94301,72.8143
"27542",381.9133,73.179825,72.83059
"27543",381.92667,73.40688,72.84452
"27544",381.93997,73.61196,72.84357
"27545",381.95334,73.78287,72.81485
"27546",381.96664,73.92203,72.75973
"27547",381.98,74.056305,72.70407
"27548",381.99332,74.23697,72.699
"27549",382.00668,74.598305,72.88024
"27550",382.02,75.355156,73.46829
"27551",382.03336,76.74433,74.71232
"27552",382.04666,78.92943,76.79568
"27553",382.06003,81.917755,79.75055
"27554",382.07333,85.51644,83.409164
"27555",382.0867,89.35439,87.4195
"27556",382.1,92.97261,91.33005
"27557",382.11337,95.94873,94.71156
"27558",382.12668,97.98001,97.24124
"27559",382.15335,98.795456,99.209885
"27560",382.16672,97.74563,98.74741
"27561",382.18002,95.98779,97.54413
"27562",382.1934,93.76608,95.82204
"27563",382.2067,91.319756,93.8059
"27564",382.22006,88.834366,91.674255
"27565",382.23337,86.43931,89.55527
"27566",382.24673,84.210266,87.52745
"27567",382.26004,82.196075,85.64483
"27568",382.2734,80.42359,83.94097
"27569",382.2867,78.95384,82.48446
"27570",382.30008,77.855194,81.35312
"27571",382.3134,77.196,80.6269
"27572",382.32675,77.00801,80.35129
"27573",382.34006,77.279015,80.52879
"27574",382.35342,77.93332,81.09807
"27575",382.36673,78.84398,81.944145
"27576",382.3801,79.86694,82.930984
"27577",382.3934,80.848404,83.90829
"27578",382.40677,81.64919,84.73559
"27579",382.42007,82.176544,85.314476
"27580",382.43344,82.374306,85.58025
"27581",382.44675,82.22781,85.50796
"27582",382.4601,81.76395,85.11371
"27583",382.47342,81.05104,84.455925
"27584",382.4868,80.15747,83.5952
"27585",382.5001,79.13695,82.5796
"27586",382.51346,78.04562,81.4613
"27587",382.52676,76.93477,80.289375
"27588",382.54013,75.85077,79.10959
"27589",382.55344,74.83269,77.961845
"27590",382.5668,73.90982,76.8775
"27591",382.5801,73.09682,75.87418
"27592",382.59348,72.410774,74.97242
"27593",382.60678,71.84192,74.1664
"27594",382.62015,71.38537,73.45491
"27595",382.63345,71.046005,72.846344
"27596",382.64682,70.81651,72.337036
"27597",382.66013,70.70176,71.9353
"27598",382.6735,70.68711,71.63008
"27599",382.6868,70.75792,71.40986
"27600",382.70016,70.89464,71.25777
"27601",382.71347,71.08751,71.16609
"27602",382.72684,71.31701,71.11708
"27603",382.74014,71.570915,71.09964
"27604",382.7535,71.83948,71.1048
"27605",382.7668,72.1178,71.1281
"27606",382.78018,72.42542,71.18941
"27607",382.7935,72.82582,71.3531
"27608",382.80685,73.463036,71.76613
"27609",382.82016,74.5568,72.65562
"27610",382.83353,76.317085,74.245804
"27611",382.84683,78.86595,76.67958
"27612",382.8602,82.14725,79.92544
"27613",382.8735,85.9144,83.75969
"27614",382.88687,89.7499,87.780014
"27615",382.90018,93.19966,91.53446
"27616",382.91354,95.87793,94.62522
"27617",382.92685,97.53811,96.781586
"27618",382.94022,98.09476,97.8863
"27619",382.95352,97.62112,97.97812
"27620",382.9669,96.28809,97.195755
"27621",382.9802,94.3325,95.74916
"27622",382.99356,91.99359,93.85815
"27623",383.00687,89.50088,91.740234
"27624",383.02023,87.01793,89.55419
"27625",383.03354,84.65461,87.41018
"27626",383.0469,82.46952,85.370544
"27627",383.0602,80.49683,83.47503
"27628",383.07358,78.79271,81.78643
"27629",383.08688,77.41573,80.37173
"27630",383.10025,76.422066,79.2973
"27631",383.11356,75.862976,78.6264
"27632",383.12692,75.755554,78.3897
"27633",383.14023,76.07294,78.57445
"27634",383.1536,76.73945,79.11824
"27635",383.1669,77.64034,79.917244
"27636",383.18027,78.64866,80.85182
"27637",383.19357,79.61791,81.77885
"27638",383.20694,80.41627,82.56526
"27639",383.22025,80.9485,83.110504
"27640",383.2336,81.17067,83.36231
"27641",383.24692,81.077896,83.30612
"27642",383.26028,80.69947,82.96138
"27643",383.2736,80.09155,82.37532
"27644",383.28696,79.32006,81.60669
"27645",383.30026,78.44602,80.7114
"27646",383.31363,77.51339,79.73021
"27647",383.32693,76.57343,78.71255
"27648",383.3403,75.667656,77.69969
"27649",383.3536,74.82048,76.71713
"27650",383.36697,74.06363,75.79842
"27651",383.38028,73.41421,74.96349
"27652",383.39365,72.886856,74.23034
"27653",383.40695,72.47669,73.59789
"27654",383.42032,72.18616,73.07225
"27655",383.43362,72.007935,72.64984
"27656",383.447,71.93469,72.32684
"27657",383.4603,71.94934,72.08945
"27658",383.47366,72.044556,71.933075
"27659",383.48697,72.200806,71.84071
"27660",383.50034,72.40833,71.80452
"27661",383.51364,72.65247,71.81142
"27662",383.527,72.9308,71.86014
"27663",383.5403,73.25796,71.966385
"27664",383.55368,73.687645,72.18539
"27665",383.567,74.36881,72.6693
"27666",383.58035,75.50652,73.631035
"27667",383.59366,77.30587,75.28996
"27668",383.60703,79.869385,77.76929
"27669",383.62033,83.140915,81.036736
"27670",383.6337,86.86168,84.85565
"27671",383.647,90.63615,88.84454
"27672",383.66037,94.00778,92.54856
"27673",383.67368,96.59327,95.57179
"27674",383.68704,98.15579,97.652855
"27675",383.70035,98.617226,98.681656
"27676",383.7137,98.058136,98.70435
"27677",383.72702,96.656746,97.86728
"27678",383.7404,94.645,96.37605
"27679",383.7537,92.264595,94.45331
"27680",383.76706,89.73281,92.304794
"27681",383.78036,87.218124,90.09426
"27682",383.79373,84.82063,87.92233
"27683",383.80704,82.598915,85.85126
"27684",383.8204,80.59693,83.93049
"27685",383.8337,78.89525,82.24746
"27686",383.84708,77.56954,80.88723
"27687",383.86038,76.6955,79.93724
"27688",383.87375,76.32685,79.465324
"27689",383.88705,76.473335,79.497025
"27690",383.90042,77.06416,79.977646
"27691",383.91373,77.97482,80.79656
"27692",383.9271,79.05638,81.814835
"27693",383.9404,80.15747,82.88644
"27694",383.95377,81.129166,83.86305
"27695",383.96707,81.8616,84.630775
"27696",383.98044,82.28153,85.10888
"27697",383.99374,82.357216,85.25586
"27698",384.0071,82.09598,85.06828
"27699",384.02042,81.55154,84.58934
"27700",384.03378,80.7776,83.86389
"27701",384.0471,79.83765,82.948235
"27702",384.06046,78.80736,81.91287
"27703",384.07376,77.752655,80.8209
"27704",384.08713,76.7248,79.72282
"27705",384.10043,75.755554,78.65122
"27706",384.1138,74.87663,77.63966
"27707",384.1271,74.09537,76.698296
"27708",384.14047,73.42153,75.83994
"27709",384.15378,72.87465,75.08749
"27710",384.16714,72.46204,74.45222
"27711",384.18045,72.166626,73.921234
"27712",384.19382,71.98352,73.49333
"27713",384.20712,71.90051,73.159805
"27714",384.2205,71.89563,72.90181
"27715",384.2338,71.95178,72.7047
"27716",384.24716,72.078735,72.58014
"27717",384.26047,72.29359,72.547455
"27718",384.27383,72.654915,72.66795
"27719",384.28714,73.304344,73.087845
"27720",384.3005,74.442055,74.01632
"27721",384.3138,76.2707,75.67128
"27722",384.32718,78.922104,78.20615
"27723",384.34048,82.337685,81.58804
"27724",384.35385,86.25132,85.57473
"27725",384.36716,90.23575,89.75451
"27726",384.38052,93.805145,93.643776
"27727",384.39383,96.53712,96.80716
"27728",384.4072,98.177765,98.96459
"27729",384.4205,98.66117,100.01605
"27730",384.43387,98.06302,100.00106
"27731",384.44717,96.585945,99.088455
"27732",384.46054,94.49119,97.51201
"27733",384.47385,92.05707,95.53074
"27734",384.4872,89.5082,93.35866
"27735",384.50052,87.00816,91.155754
"27736",384.5139,84.661934,89.02853
"27737",384.5272,82.52079,87.033066
"27738",384.54056,80.61402,85.20507
"27739",384.55386,78.995346,83.60558
"27740",384.56723,77.74532,82.324165
"27741",384.58054,76.93477,81.44315
"27742",384.5939,76.612495,81.02509
"27743",384.6072,76.77608,81.08282
"27744",384.62057,77.35958,81.565575
"27745",384.63388,78.25315,82.37663
"27746",384.64725,79.30785,83.37675
"27747",384.66055,80.36988,84.417145
"27748",384.67392,81.29519,85.35401
"27749",384.68723,81.97391,86.073204
"27750",384.7006,82.33036,86.49134
"27751",384.7139,82.34501,86.57881
"27752",384.72726,82.02762,86.3347
"27753",384.74057,81.427025,85.79747
"27754",384.75394,80.60914,85.02418
"27755",384.76724,79.64965,84.083725
"27756",384.7806,78.6096,83.03272
"27757",384.7939,77.55489,81.93457
"27758",384.80728,76.52949,80.832756
"27759",384.8206,75.57244,79.76726
"27760",384.83395,74.70084,78.7573
"27761",384.84726,73.93912,77.82998
"27762",384.86063,73.29702,76.99848
"27763",384.87393,72.77699,76.26899
"27764",384.8873,72.38392,75.6502
"27765",384.9006,72.10315,75.131424
"27766",384.91397,71.922485,74.70398
"27767",384.92728,71.82971,74.35878
"27768",384.94064,71.81262,74.086365
"27769",384.95395,71.88098,73.898865
"27770",384.96732,72.078735,73.842896
"27771",384.98062,72.5304,74.04703
"27772",384.994,73.44106,74.72426
"27773",385.0073,75.037766,76.116
"27774",385.02066,77.48409,78.40726
"27775",385.03397,80.77516,81.619705
"27776",385.04733,84.701,85.56976
"27777",385.06064,88.8539,89.86957
"27778",385.074,92.72358,94.01593
"27779",385.0873,95.84375,97.533714
"27780",385.10068,97.897,100.082085
"27781",385.11398,98.74418,101.48854
"27782",385.12735,98.443886,101.774
"27783",385.14066,97.19142,101.09791
"27784",385.15402,95.25292,99.69664
"27785",385.16733,92.90669,97.827065
"27786",385.1807,90.41642,95.74013
"27787",385.194,87.97009,93.619316
"27788",385.20737,85.6849,91.58319
"27789",385.22067,83.617,89.69294
"27790",385.23404,81.795685,87.98466
"27791",385.24734,80.24048,86.485565
"27792",385.2607,78.992905,85.24551
"27793",385.27402,78.10422,84.32535
"27794",385.28738,77.63302,83.79491
"27795",385.3007,77.59884,83.68676
"27796",385.31406,77.95773,83.97062
"27797",385.32736,78.60471,84.55378
"27798",385.34073,79.412834,85.3183
"27799",385.35403,80.23804,86.12515
"27800",385.3674,80.95094,86.8455
"27801",385.3807,81.449,87.37327
"27802",385.39407,81.671165,87.64072
"27803",385.40738,81.58572,87.60749
"27804",385.42075,81.20485,87.27618
"27805",385.43405,80.567635,86.67661
"27806",385.44742,79.7351,85.86182
"27807",385.46072,78.768295,84.886734
"27808",385.4741,77.72335,83.8033
"27809",385.4874,76.66865,82.67745
"27810",385.50076,75.648125,81.552826
"27811",385.51407,74.70817,80.476875
"27812",385.52744,73.88052,79.483864
"27813",385.54074,73.18227,78.594376
"27814",385.5541,72.60853,77.80759
"27815",385.5674,72.15686,77.12494
"27816",385.58078,71.81018,76.53316
"27817",385.5941,71.56603,76.03308
"27818",385.60745,71.41711,75.62059
"27819",385.62076,71.360954,75.29622
"27820",385.63412,71.397575,75.06287
"27821",385.64743,71.54406,74.94052
"27822",385.6608,71.87366,75.005875
"27823",385.6741,72.549934,75.42821
"27824",385.68747,73.812164,76.45763
"27825",385.70078,75.87518,78.32728
"27826",385.71414,78.836655,81.15985
"27827",385.72745,82.59159,84.87843
"27828",385.7408,86.800644,89.16847
"27829",385.75412,90.96086,93.54121
"27830",385.7675,94.5449,97.46777
"27831",385.7808,97.14992,100.52732
"27832",385.79416,98.55619,102.46953
"27833",385.80746,98.74906,103.24228
"27834",385.82083,97.882355,102.96148
"27835",385.83414,96.21973,101.85767
"27836",385.8475,94.063934,100.20875
"27837",385.8608,91.69329,98.2776
"27838",385.87418,89.33486,96.28459
"27839",385.88748,87.14488,94.38633
"27840",385.90085,85.19173,92.65645
"27841",385.91415,83.492485,91.119446
"27842",385.92752,82.03006,89.76616
"27843",385.94083,80.8069,88.60644
"27844",385.9542,79.84253,87.66728
"27845",385.9675,79.17113,86.99096
"27846",385.98087,78.83177,86.6257
"27847",385.99417,78.83177,86.589195
"27848",386.00754,79.1223,86.843216
"27849",386.02084,79.60815,87.301636
"27850",386.0342,80.16968,87.85092
"27851",386.04752,80.67994,88.366486
"27852",386.06088,81.02907,88.73686
"27853",386.0742,81.14137,88.881325
"27854",386.08755,80.98512,88.76074
"27855",386.10086,80.56519,88.3716
"27856",386.11423,79.91577,87.73984
"27857",386.12753,79.08812,86.90955
"27858",386.1409,78.14572,85.93866
"27859",386.1542,77.137405,84.8724
"27860",386.16757,76.11932,83.76486
"27861",386.18088,75.13054,82.65481
"27862",386.19424,74.20523,81.57733
"27863",386.20755,73.36538,80.5564
"27864",386.22092,72.62806,79.61175
"27865",386.23422,71.9884,78.741714
"27866",386.2476,71.45373,77.95668
"27867",386.2609,71.02159,77.25748
"27868",386.27426,70.69688,76.65219
"27869",386.28757,70.467384,76.13197
"27870",386.30093,70.330666,75.69736
"27871",386.31424,70.276955,75.34148
"27872",386.3276,70.30137,75.06204
"27873",386.3409,70.42588,74.88347
"27874",386.35428,70.75304,74.91143
"27875",386.36758,71.47814,75.347565
"27876",386.38095,72.84291,76.44603
"27877",386.39426,75.04753,78.426994
"27878",386.40762,78.15549,81.38019
"27879",386.42093,82.00809,85.17515
"27880",386.4343,86.23178,89.46159
"27881",386.4476,90.29923,93.723785
"27882",386.46097,93.70016,97.44656
"27883",386.47427,96.06592,100.240456
"27884",386.48764,97.2256,101.9022
"27885",386.50095,97.2256,102.4405
"27886",386.5143,96.26124,102.014435
"27887",386.52762,94.62058,100.88194
"27888",386.541,92.59907,99.31732
"27889",386.5543,90.46281,97.57478
"27890",386.56766,88.41688,95.85582
"27891",386.58096,86.573586,94.27556
"27892",386.59433,84.97444,92.881836
"27893",386.60764,83.5877,91.65054
"27894",386.621,82.36942,90.54438
"27895",386.6343,81.30007,89.54907
"27896",386.64767,80.38941,88.67904
"27897",386.66098,79.674065,87.97586
"27898",386.67435,79.19066,87.48227
"27899",386.68765,78.95384,87.22016
"27900",386.70102,78.922104,87.15573
"27901",386.71432,79.01976,87.2197
"27902",386.7277,79.15648,87.32579
"27903",386.741,79.26147,87.40442
"27904",386.75436,79.26879,87.388664
"27905",386.76767,79.12474,87.22176
"27906",386.78104,78.802475,86.87215
"27907",386.79434,78.30686,86.33911
"27908",386.8077,77.65499,85.63433
"27909",386.821,76.88594,84.792
"27910",386.83438,76.04364,83.85239
"27911",386.8477,75.17937,82.86448
"27912",386.86105,74.32731,81.86178
"27913",386.87436,73.52651,80.88371
"27914",386.88773,72.798965,79.95387
"27915",386.90103,72.16174,79.09162
"27916",386.9144,71.62707,78.312
"27917",386.9277,71.2047,77.627975
"27918",386.94107,70.889755,77.03818
"27919",386.95438,70.68711,76.55084
"27920",386.96774,70.58701,76.15971
"27921",386.98105,70.572365,75.85091
"27922",386.99442,70.626076,75.61
"27923",387.00772,70.73106,75.42204
"27924",387.0211,70.872665,75.273994
"27925",387.0344,71.03868,75.154785
"27926",387.04776,71.219345,75.055405
"27927",387.06107,71.44152,75.00319
"27928",387.07443,71.75891,75.05313
"27929",387.08774,72.325325,75.362015
"27930",387.1011,73.36782,76.16467
"27931",387.1144,75.142746,77.732346
"27932",387.12778,77.79172,80.22953
"27933",387.14108,81.26345,83.632256
"27934",387.15445,85.28451,87.692795
"27935",387.16776,89.393456,91.96688
"27936",387.18112,93.065384,95.93236
"27937",387.19443,95.851074,99.12634
"27938",387.2078,97.50393,101.27454
"27939",387.2211,97.97513,102.29274
"27940",387.23447,97.40383,102.283165
"27941",387.24777,96.061035,101.48424
"27942",387.26114,94.26658,100.19169
"27943",387.27444,92.298775,98.669716
"27944",387.2878,90.389565,97.144844
"27945",387.30112,88.67811,95.758064
"27946",387.31448,87.201035,94.552185
"27947",387.3278,85.92172,93.4979
"27948",387.34116,84.76936,92.530594
"27949",387.35446,83.67559,91.58586
"27950",387.36783,82.61356,90.638695
"27951",387.38113,81.61501,89.72182
"27952",387.3945,80.75075,88.90802
"27953",387.4078,80.076904,88.25764
"27954",387.42117,79.61547,87.79861
"27955",387.43448,79.34692,87.518036
"27956",387.44785,79.200424,87.351135
"27957",387.46115,79.08568,87.2114
"27958",387.47452,78.93431,87.03146
"27959",387.48782,78.70481,86.76866
"27960",387.5012,78.348366,86.37174
"27961",387.5145,77.85275,85.82452
"27962",387.52786,77.225296,85.12996
"27963",387.54117,76.48798,84.30594
"27964",387.55453,75.67742,83.38563
"27965",387.56784,74.83513,82.40826
"27966",387.5812,73.99771,81.40944
"27967",387.5945,73.196915,80.421074
"27968",387.60788,72.464485,79.47605
"27969",387.6212,71.80774,78.58382
"27970",387.63455,71.25109,77.771164
"27971",387.64786,70.79698,77.043655
"27972",387.66122,70.452736,76.41182
"27973",387.67453,70.21347,75.8742
"27974",387.6879,70.07919,75.43409
"27975",387.7012,70.04257,75.08744
"27976",387.71457,70.08896,74.822655
"27977",387.72787,70.203705,74.62768
"27978",387.74124,70.3917,74.50954
"27979",387.75455,70.63828,74.45586
"27980",387.7679,70.923935,74.44895
"27981",387.78122,71.22667,74.46806
"27982",387.7946,71.52453,74.49176
"27983",387.8079,71.79065,74.49303
"27984",387.82126,72.00305,74.44888
"27985",387.83456,72.149536,74.34546
"27986",387.84793,72.22766,74.17825
"27987",387.86124,72.24231,73.95001
"27988",387.8746,72.232544,73.697815
"27989",387.8879,72.26917,73.491714
"27990",387.90128,72.48402,73.464966
"27991",387.91458,73.111465,73.857544
"27992",387.92795,74.43961,74.97043
"27993",387.94125,76.69062,77.047676
"27994",387.95462,79.91577,80.16941
"27995",387.96793,83.93927,84.19028
"27996",387.9813,88.358284,88.73239
"27997",387.9946,92.60639,93.2417
"27998",388.00797,96.13428,97.163536
"27999",388.02127,98.55619,100.089645
"28000",388.03464,99.72564,101.838974
"28001",388.04794,99.70367,102.433426
"28002",388.0613,98.72953,102.07503
"28003",388.07462,97.1133,101.04409
"28004",388.08798,95.184555,99.65014
"28005",388.1013,93.21675,98.15685
"28006",388.11465,91.40032,96.75345
"28007",388.12796,89.81827,95.52766
"28008",388.14133,88.463264,94.47948
"28009",388.15463,87.26208,93.54277
"28010",388.168,86.134125,92.641754
"28011",388.1813,85.030594,91.72991
"28012",388.19467,83.9588,90.81532
"28013",388.20798,82.96269,89.942924
"28014",388.22134,82.11551,89.188324
"28015",388.23465,81.461205,88.60013
"28016",388.24802,80.99489,88.179474
"28017",388.26132,80.67017,87.88585
"28018",388.2747,80.42359,87.66021
"28019",388.288,80.18677,87.43662
"28020",388.30136,79.8938,87.14949
"28021",388.31467,79.50805,86.76042
"28022",388.32803,79.00023,86.23723
"28023",388.34134,78.37522,85.58098
"28024",388.3547,77.64767,84.80265
"28025",388.368,76.841995,83.92347
"28026",388.38138,75.99481,82.9776
"28027",388.39468,75.14519,82.002815
"28028",388.40805,74.31754,81.02346
"28029",388.42136,73.54116,80.0695
"28030",388.43472,72.84291,79.16942
"28031",388.44803,72.23987,78.34272
"28032",388.4614,71.74181,77.60216
"28033",388.4747,71.35851,76.960785
"28034",388.48807,71.080185,76.412415
"28035",388.50137,70.89708,75.95056
"28036",388.51474,70.7921,75.56111
"28037",388.52805,70.75548,75.23674
"28038",388.5414,70.78233,74.9747
"28039",388.55472,70.86778,74.772095
"28040",388.56808,71.00206,74.62099
"28041",388.5814,71.17296,74.5107
"28042",388.59476,71.36584,74.427734
"28043",388.60806,71.56359,74.35567
"28044",388.62143,71.75403,74.28247
"28045",388.63474,71.92981,74.20056
"28046",388.6481,72.09094,74.1095
"28047",388.6614,72.22278,73.99417
"28048",388.67477,72.32777,73.856125
"28049",388.68808,72.40833,73.69693
"28050",388.70145,72.46693,73.51828
"28051",388.71475,72.50111,73.31705
"28052",388.72812,72.50355,73.085144
"28053",388.74142,72.4596,72.80693
"28054",388.7548,72.376595,72.48828
"28055",388.7681,72.26917,72.142624
"28056",388.78146,72.17151,71.803375
"28057",388.79477,72.1593,71.546524
"28058",388.80814,72.39857,71.54077
"28059",388.82144,73.13588,72.04054
"28060",388.8348,74.65934,73.3495
"28061",388.8481,77.18379,75.70706
"28062",388.86148,80.72877,79.16403
"28063",388.8748,85.04768,83.50572
"28064",388.88815,89.66689,88.28267
"28065",388.90146,94.0029,92.92077
"28066",388.91483,97.51125,96.866714
"28067",388.92813,99.84039,99.74308
"28068",388.9415,100.88289,101.40559
"28069",388.9548,100.73884,101.91412
"28070",388.96817,99.649956,101.47333
"28071",388.98148,97.93851,100.37594
"28072",388.99484,95.93408,98.93209
"28073",389.00815,93.91745,97.4134
"28074",389.0215,92.07172,96.00259
"28075",389.03482,90.477455,94.78557
"28076",389.0482,89.12001,93.75555
"28077",389.0615,87.92615,92.84668
"28078",389.07486,86.80553,91.973755
"28079",389.08817,85.714195,91.09509
"28080",389.10153,84.65461,90.21407
"28081",389.11484,83.67071,89.375626
"28082",389.1282,82.82597,88.6456
"28083",389.1415,82.16434,88.07227
"28084",389.15488,81.69314,87.66871
"28085",389.16818,81.36355,87.39203
"28086",389.18155,81.11452,87.18561
"28087",389.19485,80.87038,86.976295
"28088",389.20822,80.57984,86.71296
"28089",389.22153,80.18921,86.34045
"28090",389.2349,79.66918,85.82633
"28091",389.2482,79.01976,85.16657
"28092",389.26157,78.25071,84.36689
"28093",389.27487,77.39376,83.45528
"28094",389.28824,76.490425,82.4705
"28095",389.30154,75.579765,81.450165
"28096",389.3149,74.703285,80.435555
"28097",389.32822,73.89761,79.46436
"28098",389.34158,73.179825,78.55588
"28099",389.3549,72.5597,77.722626
"28100",389.36826,72.044556,76.974976
"28101",389.38156,71.62951,76.311325
"28102",389.39493,71.312126,75.73236
"28103",389.40823,71.08995,75.23869
"28104",389.4216,70.95567,74.82597
"28105",389.4349,70.89952,74.48718
"28106",389.44827,70.91417,74.21744
"28107",389.46158,70.98985,74.009186
"28108",389.47495,71.10704,73.8448
"28109",389.48825,71.258415,73.71828
"28110",389.50162,71.431755,73.61844
"28111",389.51492,71.60998,73.5289
"28112",389.5283,71.783325,73.44006
"28113",389.5416,71.94446,73.34442
"28114",389.55496,72.09338,73.24161
"28115",389.56827,72.2301,73.13124
"28116",389.58163,72.35218,73.01051
"28117",389.59494,72.4596,72.87894
"28118",389.6083,72.552376,72.73607
"28119",389.6216,72.62318,72.57413
"28120",389.63498,72.674446,72.39487
"28121",389.6483,72.69886,72.19035
"28122",389.66165,72.706184,71.96951
"28123",389.67496,72.69642,71.73181
"28124",389.68832,72.672005,71.47916
"28125",389.70163,72.62806,71.20621
"28126",389.715,72.57679,70.92456
"28127",389.7283,72.532845,70.648636
"28128",389.74167,72.52552,70.40796
"28129",389.75497,72.637825,70.28668
"28130",389.76834,73.05531,70.474106
"28131",389.78165,74.0441,71.24587
"28132",389.795,75.86542,72.88107
"28133",389.80832,78.67063,75.55708
"28134",389.8217,82.423134,79.26804
"28135",389.835,86.81773,83.738365
"28136",389.84836,91.33929,88.47297
"28137",389.86166,95.40917,92.89721
"28138",389.87503,98.54398,96.51356
"28139",389.88834,100.45319,99.002266
"28140",389.9017,101.08797,100.2762
"28141",389.915,100.594795,100.442024
"28142",389.92838,99.24956,99.74037
"28143",389.94168,97.376976,98.46934
"28144",389.95505,95.2871,96.92249
"28145",389.96835,93.24361,95.35672
"28146",389.98172,91.40276,93.92974
"28147",389.99503,89.83292,92.71623
"28148",390.0084,88.50233,91.692924
"28149",390.0217,87.34264,90.798935
"28150",390.03506,86.28062,89.96637
"28151",390.04837,85.28451,89.16653
"28152",390.06174,84.35432,88.401474
"28153",390.07504,83.546196,87.72942
"28154",390.0884,82.896774,87.19082
"28155",390.1017,82.425575,86.81014
"28156",390.11508,82.09598,86.55634
"28157",390.1284,81.849396,86.37526
"28158",390.14175,81.61501,86.19867
"28159",390.15506,81.31472,85.948845
"28160",390.16843,80.89967,85.57488
"28161",390.18173,80.34058,85.04391
"28162",390.1951,79.635,84.34897
"28163",390.2084,78.79515,83.49771
"28164",390.22177,77.84787,82.51278
"28165",390.23508,76.83223,81.429886
"28166",390.24844,75.78729,80.28596
"28167",390.26175,74.757,79.12402
"28168",390.27512,73.78287,77.986046
"28169",390.28842,72.89906,76.90796
"28170",390.3018,72.12512,75.91212
"28171",390.3151,71.47814,75.01904
"28172",390.32846,70.960556,74.23515
"28173",390.34177,70.56992,73.56204
"28174",390.35513,70.30137,72.998795
"28175",390.36844,70.14267,72.53701
"28176",390.3818,70.084076,72.17037
"28177",390.3951,70.115814,71.892235
"28178",390.40848,70.220795,71.68833
"28179",390.42178,70.381935,71.54387
"28180",390.43515,70.57969,71.441055
"28181",390.44846,70.79698,71.36396
"28182",390.46182,71.02159,71.30098
"28183",390.47513,71.24376,71.24257
"28184",390.4885,71.46105,71.18623
"28185",390.5018,71.658806,71.11714
"28186",390.51517,71.83215,71.02983
"28187",390.52847,71.97131,70.91374
"28188",390.54184,72.08118,70.772705
"28189",390.55515,72.16174,70.605804
"28190",390.5685,72.2301,70.429214
"28191",390.58182,72.28382,70.24013
"28192",390.59518,72.33021,70.04538
"28193",390.6085,72.361946,69.83743
"28194",390.62186,72.38392,69.62071
"28195",390.63516,72.37415,69.37294
"28196",390.64853,72.33997,69.10045
"28197",390.66183,72.291145,68.81224
"28198",390.6752,72.25208,68.53227
"28199",390.6885,72.2301,68.26817
"28200",390.70187,72.24963,68.04489
"28201",390.71518,72.37171,67.924774
"28202",390.72855,72.71351,68.02818
"28203",390.74185,73.48745,68.57442
"28204",390.75522,74.97185,69.8553
"28205",390.76852,77.37179,72.098114
"28206",390.7819,80.726326,75.37052
"28207",390.7952,84.84993,79.51682
"28208",390.80856,89.339745,84.158195
"28209",390.82187,93.63668,88.747
"28210",390.83524,97.198746,92.735214
"28211",390.84854,99.65728,95.73121
"28212",390.8619,100.84627,97.534485
"28213",390.8752,100.81209,98.15175
"28214",390.88858,99.76471,97.754745
"28215",390.9019,98.02884,96.63652
"28216",390.91525,95.92676,95.09784
"28217",390.92856,93.73922,93.40801
"28218",390.94193,91.66888,91.76702
"28219",390.95523,89.82559,90.28839
"28220",390.9686,88.236206,89.00606
"28221",390.9819,86.84947,87.87671
"28222",390.99527,85.626305,86.867584
"28223",391.00858,84.53498,85.95208
"28224",391.02194,83.580376,85.13919
"28225",391.03525,82.804,84.4747
"28226",391.0486,82.24979,84.00811
"28227",391.06192,81.92996,83.75859
"28228",391.0753,81.815216,83.704155
"28229",391.0886,81.83719,83.78285
"28230",391.10196,81.90555,83.90862
"28231",391.11526,81.93729,83.99991
"28232",391.12863,81.85672,83.97988
"28233",391.14194,81.617455,83.79864
"28234",391.1553,81.20729,83.43902
"28235",391.1686,80.62379,82.89324
"28236",391.18198,79.89624,82.18519
"28237",391.19528,79.063705,81.34941
"28238",391.20865,78.16281,80.41926
"28239",391.22195,77.23506,79.4341
"28240",391.23532,76.32441,78.43704
"28241",391.24863,75.47234,77.470116
"28242",391.262,74.69352,76.549805
"28243",391.2753,74.01236,75.70282
"28244",391.28867,73.45083,74.95418
"28245",391.30197,73.01869,74.31738
"28246",391.31534,72.71107,73.791595
"28247",391.32864,72.515755,73.3685
"28248",391.342,72.427864,73.04672
"28249",391.35532,72.42054,72.802765
"28250",391.36868,72.47425,72.61961
"28251",391.382,72.57435,72.48453
"28252",391.39536,72.71839,72.396515
"28253",391.40866,72.89174,72.342316
"28254",391.42203,73.08217,72.310616
"28255",391.43533,73.272606,72.284874
"28256",391.4487,73.45815,72.26019
"28257",391.462,73.62661,72.22422
"28258",391.47537,73.77066,72.169106
"28259",391.48868,73.882965,72.08675
"28260",391.50204,73.96353,71.97616
"28261",391.51535,74.005035,71.829025
"28262",391.52872,74.01724,71.65389
"28263",391.54202,74.00015,71.449844
"28264",391.5554,73.96109,71.22329
"28265",391.5687,73.9025,70.97598
"28266",391.58206,73.82193,70.70487
"28267",391.59537,73.7145,70.40438
"28268",391.60873,73.582664,70.076126
"28269",391.62204,73.44839,69.74131
"28270",391.6354,73.33608,69.42427
"28271",391.6487,73.304344,69.18429
"28272",391.66208,73.48501,69.155716
"28273",391.67538,74.092926,69.56004
"28274",391.68875,75.386894,70.66942
"28275",391.70206,77.57198,72.71035
"28276",391.71542,80.69703,75.75952
"28277",391.72873,84.58381,79.66808
"28278",391.7421,88.831924,84.05944
"28279",391.7554,92.911575,88.415085
"28280",391.76877,96.30274,92.20974
"28281",391.78207,98.6392,95.05566
"28282",391.79544,99.76715,96.76608
"28283",391.80875,99.718315,97.33497
"28284",391.8221,98.68314,96.91599
"28285",391.83542,96.94972,95.76642
"28286",391.8488,94.81102,94.157394
"28287",391.8621,92.540474,92.34969
"28288",391.87546,90.338295,90.539406
"28289",391.88876,88.324104,88.84829
"28290",391.90213,86.52476,87.30907
"28291",391.91544,84.93538,85.923584
"28292",391.9288,83.53887,84.681305
"28293",391.9421,82.34501,83.59803
"28294",391.95547,81.392845,82.71915
"28295",391.96878,80.72877,82.098595
"28296",391.98215,80.38941,81.78201
"28297",391.99545,80.35767,81.76244
"28298",392.00882,80.567635,81.98358
"28299",392.02213,80.91676,82.35045
"28300",392.0355,81.304955,82.76729
"28301",392.0488,81.617455,83.12057
"28302",392.06216,81.77127,83.32493
"28303",392.07547,81.71023,83.31924
"28304",392.08884,81.41482,83.07727
"28305",392.10214,80.89235,82.599014
"28306",392.1155,80.198975,81.933525
"28307",392.1288,79.378654,81.11942
"28308",392.14218,78.47776,80.19911
"28309",392.1555,77.55489,79.228676
"28310",392.16885,76.64423,78.24161
"28311",392.18216,75.78241,77.27492
"28312",392.19553,75.003586,76.364296
"28313",392.20883,74.337074,75.54165
"28314",392.2222,73.795074,74.822685
"28315",392.2355,73.37759,74.211296
"28316",392.24887,73.08705,73.71381
"28317",392.26218,72.91615,73.32689
"28318",392.27554,72.84535,73.03472
"28319",392.28885,72.85512,72.82091
"28320",392.30222,72.935684,72.6782
"28321",392.31552,73.077286,72.599045
"28322",392.3289,73.255516,72.56094
"28323",392.3422,73.45815,72.55282
"28324",392.35556,73.68276,72.573
"28325",392.36887,73.9147,72.60753
"28326",392.38223,74.13443,72.63709
"28327",392.39554,74.339516,72.65888
"28328",392.4089,74.527504,72.66998
"28329",392.4222,74.69108,72.662544
"28330",392.43558,74.82292,72.62849
"28331",392.44888,74.92058,72.56436
"28332",392.46225,74.984055,72.46911
"28333",392.47556,75.01579,72.3441
"28334",392.48892,75.020676,72.19323
"28335",392.50223,74.99626,72.013214
"28336",392.5156,74.94743,71.80802
"28337",392.5289,74.87175,71.57445
"28338",392.54227,74.76677,71.30921
"28339",392.55557,74.649574,71.02848
"28340",392.56894,74.547035,70.75874
"28341",392.58224,74.52506,70.56637
"28342",392.5956,74.71061,70.580826
"28343",392.60892,75.335625,71.04055
"28344",392.62228,76.67353,72.2327
"28345",392.6356,78.941635,74.39685
"28346",392.64896,82.18875,77.61089
"28347",392.66226,86.24643,81.73697
"28348",392.67563,90.72404,86.409775
"28349",392.68893,95.06981,91.090675
"28350",392.7023,98.74906,95.24086
"28351",392.7156,101.366295,98.444
"28352",392.72897,102.73106,100.476456
"28353",392.74228,102.85069,101.30644
"28354",392.75565,101.89609,101.06592
"28355",392.76895,100.1358,99.98988
"28356",392.78232,97.88724,98.37056
"28357",392.79562,95.44091,96.48321
"28358",392.809,93.02632,94.55115
"28359",392.8223,90.794846,92.726746
"28360",392.83566,88.817276,91.08652
"28361",392.84897,87.09117,89.635956
"28362",392.86234,85.58236,88.34874
"28363",392.87564,84.27375,87.21458
"28364",392.889,83.18242,86.2568
"28365",392.9023,82.34257,85.516396
"28366",392.91568,81.77615,85.023186
"28367",392.929,81.495384,84.79792
"28368",392.94235,81.47341,84.82268
"28369",392.95566,81.634544,85.029854
"28370",392.96902,81.87381,85.3202
"28371",392.98233,82.09354,85.59848
"28372",392.9957,82.19852,85.76888
"28373",393.009,82.11063,85.749695
"28374",393.02237,81.78348,85.4885
"28375",393.03568,81.2195,84.980255
"28376",393.04904,80.45045,84.24931
"28377",393.06235,79.52758,83.34052
"28378",393.0757,78.49729,82.29547
"28379",393.08902,77.41573,81.166954
"28380",393.1024,76.334175,80.00464
"28381",393.1157,75.29656,78.85247
"28382",393.12906,74.32731,77.73624
"28383",393.14236,73.45571,76.68737
"28384",393.15573,72.69886,75.72601
"28385",393.16904,72.06653,74.865524
"28386",393.1824,71.568474,74.11955
"28387",393.1957,71.20714,73.494736
"28388",393.20908,70.98253,72.995346
"28389",393.22238,70.87755,72.60857
"28390",393.23575,70.88487,72.33081
"28391",393.24905,70.98985,72.15094
"28392",393.26242,71.168076,72.04759
"28393",393.27573,71.40978,72.013306
"28394",393.2891,71.6881,72.02318
"28395",393.3024,71.98352,72.05885
"28396",393.31577,72.2765,72.10132
"28397",393.32907,72.567024,72.15048
"28398",393.34244,72.8307,72.181885
"28399",393.35574,73.05287,72.180016
"28400",393.3691,73.22133,72.13138
"28401",393.38242,73.32876,72.02698
"28402",393.39578,73.36782,71.85757
"28403",393.4091,73.35073,71.633224
"28404",393.42245,73.3019,71.37661
"28405",393.43576,73.231094,71.09649
"28406",393.44913,73.14076,70.79463
"28407",393.46243,73.03822,70.477745
"28408",393.4758,72.92836,70.15033
"28409",393.4891,72.816055,69.81704
"28410",393.50247,72.71351,69.49
"28411",393.51578,72.64515,69.19394
"28412",393.52914,72.67689,68.995834
"28413",393.54245,72.955215,69.04532
"28414",393.55582,73.71694,69.5869
"28415",393.56912,75.23552,70.909134
"28416",393.5825,77.71847,73.243195
"28417",393.5958,81.197525,76.650955
"28418",393.60916,85.46029,80.95114
"28419",393.62247,90.08438,85.745865
"28420",393.63583,94.51072,90.48734
"28421",393.64914,98.211945,94.64203
"28422",393.6625,100.807205,97.80641
"28423",393.6758,102.14267,99.7921
"28424",393.68918,102.25498,100.596375
"28425",393.70248,101.34432,100.38118
"28426",393.71585,99.701225,99.40509
"28427",393.72916,97.63332,97.95285
"28428",393.74252,95.42138,96.29195
"28429",393.75583,93.27047,94.622955
"28430",393.7692,91.31487,93.08206
"28431",393.7825,89.60586,91.72664
"28432",393.79587,88.13367,90.554634
"28433",393.80917,86.873886,89.54903
"28434",393.82254,85.81186,88.701805
"28435",393.83585,84.95979,88.03136
"28436",393.8492,84.35432,87.58087
"28437",393.86252,84.03204,87.39467
"28438",393.8759,84.00275,87.49137
"28439",393.8892,84.22247,87.83618
"28440",393.90256,84.60578,88.35144
"28441",393.91586,85.05501,88.944595
"28442",393.92923,85.472496,89.52005
"28443",393.94254,85.77768,89.99625
"28444",393.9559,85.907074,90.30619
"28445",393.9692,85.81674,90.40045
"28446",393.98257,85.470055,90.235535
"28447",393.99588,84.85481,89.79123
"28448",394.00925,83.97345,89.06158
"28449",394.02255,82.85527,88.067566
"28450",394.03592,81.55398,86.8555
"28451",394.04922,80.1062,85.45628
"28452",394.0626,78.57542,83.92882
"28453",394.0759,77.03975,82.34863
"28454",394.08926,75.560234,80.77661
"28455",394.10257,74.16861,79.24625
"28456",394.11594,72.90883,77.80424
"28457",394.12924,71.79797,76.47179
"28458",394.1426,70.84581,75.263306
"28459",394.1559,70.047455,74.17888
"28460",394.16928,69.420006,73.24041
"28461",394.1826,68.9781,72.46788
"28462",394.19595,68.716866,71.862206
"28463",394.20926,68.63386,71.4266
"28464",394.22263,68.72663,71.16418
"28465",394.23593,68.97078,71.05603
"28466",394.2493,69.34188,71.082466
"28467",394.2626,69.83017,71.237686
"28468",394.27597,70.40147,71.49117
"28469",394.28928,71.026474,71.81622
"28470",394.30264,71.66369,72.17302
"28471",394.31595,72.28626,72.53508
"28472",394.3293,72.85268,72.86044
"28473",394.34262,73.32632,73.11073
"28474",394.356,73.6852,73.26107
"28475",394.3693,73.92203,73.30056
"28476",394.38266,74.039215,73.22781
"28477",394.39597,74.05875,73.06107
"28478",394.40933,74.02457,72.84123
"28479",394.42264,74.02457,72.6545
"28480",394.436,74.23941,72.68262
"28481",394.4493,74.93034,73.193535
