"","Time..s.","PPG.trace","Preprocessed.PPG"
"35912",491.16595,79.15892,136.22705
"35913",491.17932,79.693596,136.73544
"35914",491.19263,80.34791,137.38017
"35915",491.206,81.01198,138.05511
"35916",491.2193,81.57107,138.64583
"35917",491.23267,81.92996,139.05382
"35918",491.24597,82.06424,139.24841
"35919",491.25934,82.01297,139.26166
"35920",491.27264,81.846954,139.15855
"35921",491.286,81.62966,138.99898
"35922",491.29932,81.41726,138.83751
"35923",491.31268,81.234146,138.69868
"35924",491.326,81.09987,138.60298
"35925",491.33936,80.99489,138.53238
"35926",491.35266,80.89479,138.46338
"35927",491.36603,80.77516,138.37172
"35928",491.37933,80.621346,138.24213
"35929",491.3927,80.4358,138.076
"35930",491.406,80.235596,137.88942
"35931",491.41937,80.045166,137.70636
"35932",491.43268,79.886475,137.54907
"35933",491.44604,79.77417,137.43323
"35934",491.45935,79.70092,137.35292
"35935",491.47272,79.656975,137.29962
"35936",491.48602,79.635,137.26692
"35937",491.4994,79.61059,137.2311
"35938",491.5127,79.569084,137.17741
"35939",491.52606,79.50561,137.10046
"35940",491.53937,79.42504,137.00444
"35941",491.55273,79.32983,136.89125
"35942",491.56604,79.2224,136.76288
"35943",491.5794,79.11742,136.63359
"35944",491.5927,79.01976,136.50835
"35945",491.60608,78.922104,136.38005
"35946",491.6194,78.839096,136.26335
"35947",491.63275,78.77318,136.16115
"35948",491.64606,78.71946,136.06909
"35949",491.65942,78.68284,135.99245
"35950",491.67273,78.65598,135.92442
"35951",491.6861,78.63157,135.858
"35952",491.6994,78.6096,135.79326
"35953",491.71277,78.59739,135.7376
"35954",491.72607,78.590065,135.68643
"35955",491.73944,78.58762,135.63992
"35956",491.75275,78.58518,135.59334
"35957",491.7661,78.57786,135.5418
"35958",491.77942,78.56321,135.4827
"35959",491.7928,78.536354,135.41093
"35960",491.8061,78.51194,135.34077
"35961",491.81946,78.519264,135.30159
"35962",491.83276,78.6218,135.35785
"35963",491.84613,78.89769,135.59067
"35964",491.85944,79.395744,136.05428
"35965",491.8728,80.08423,136.72388
"35966",491.8861,80.86061,137.5029
"35967",491.89948,81.58816,138.25734
"35968",491.91278,82.13016,138.84897
"35969",491.92615,82.39872,139.1841
"35970",491.93945,82.406044,139.26639
"35971",491.95282,82.22293,139.15846
"35972",491.96613,81.94705,138.95206
"35973",491.9795,81.654076,138.71992
"35974",491.9928,81.40261,138.52016
"35975",492.00616,81.22438,138.38576
"35976",492.01947,81.112076,138.31172
"35977",492.03284,81.03151,138.26591
"35978",492.04614,80.9485,138.21515
"35979",492.0595,80.833755,138.13005
"35980",492.0728,80.67506,137.9974
"35981",492.08618,80.4773,137.82076
"35982",492.0995,80.26734,137.62572
"35983",492.11285,80.06958,137.43631
"35984",492.12616,79.90845,137.27734
"35985",492.13953,79.7937,137.15973
"35986",492.15283,79.71801,137.07759
"35987",492.1662,79.67895,137.02971
"35988",492.1795,79.65209,136.99281
"35989",492.19287,79.622795,136.95264
"35990",492.20618,79.58129,136.89934
"35991",492.21954,79.5227,136.82765
"35992",492.23285,79.447014,136.73705
"35993",492.24622,79.35912,136.63187
"35994",492.25952,79.26635,136.51906
"35995",492.2729,79.17601,136.40579
"35996",492.2862,79.093,136.29703
"35997",492.29956,79.009995,136.18567
"35998",492.31287,78.92943,136.07416
"35999",492.32623,78.86351,135.97478
"36000",492.33954,78.8098,135.88554
"36001",492.3529,78.765854,135.8044
"36002",492.3662,78.72678,135.72676
"36003",492.37958,78.70481,135.665
"36004",492.39288,78.68772,135.60742
"36005",492.40625,78.67307,135.55176
"36006",492.41956,78.66331,135.50052
"36007",492.43292,78.65598,135.45142
"36008",492.44623,78.64866,135.40208
"36009",492.4596,78.643776,135.35497
"36010",492.4729,78.63645,135.30525
"36011",492.48627,78.62913,135.25531
"36012",492.49957,78.61936,135.2027
"36013",492.51294,78.61204,135.15222
"36014",492.52625,78.59983,135.09663
"36015",492.5396,78.58274,135.03578
"36016",492.55292,78.572975,134.98172
"36017",492.56628,78.56077,134.92491
"36018",492.5796,78.56809,134.88725
"36019",492.59296,78.658424,134.93283
"36020",492.60626,78.91478,135.14726
"36021",492.61963,79.3933,135.59187
"36022",492.63293,80.08179,136.2614
"36023",492.6463,80.89479,137.07697
"36024",492.6596,81.688255,137.89839
"36025",492.67297,82.30106,138.56396
"36026",492.68628,82.63798,138.9728
"36027",492.69965,82.684364,139.10162
"36028",492.71295,82.50858,139.00974
"36029",492.72632,82.20584,138.78539
"36030",492.73962,81.864044,138.51253
"36031",492.753,81.55154,138.25827
"36032",492.7663,81.30251,138.05774
"36033",492.77966,81.126724,137.92265
"36034",492.79297,81.00954,137.84068
"36035",492.80634,80.919205,137.7819
"36036",492.81964,80.82155,137.71298
"36037",492.833,80.69459,137.6117
"36038",492.8463,80.533455,137.47227
"36039",492.85968,80.35523,137.31073
"36040",492.873,80.17212,137.13872
"36041",492.88635,80.01587,136.98785
"36042",492.89966,79.89868,136.87115
"36043",492.91302,79.82544,136.79474
"36044",492.92633,79.781494,136.74533
"36045",492.9397,79.75464,136.71164
"36046",492.953,79.727776,136.67711
"36047",492.96637,79.691154,136.63197
"36048",492.97968,79.63744,136.5686
"36049",492.99304,79.56664,136.48647
"36050",493.00635,79.48608,136.39235
"36051",493.0197,79.395744,136.28595
"36052",493.03302,79.30297,136.17429
"36053",493.0464,79.20775,136.05728
"36054",493.0597,79.11986,135.94463
"36055",493.07306,79.04173,135.83899
"36056",493.08636,78.9807,135.748
"36057",493.09973,78.93187,135.66731
"36058",493.11304,78.890366,135.59242
"36059",493.1264,78.85863,135.526
"36060",493.1397,78.82933,135.46103
"36061",493.15308,78.80492,135.40002
"36062",493.16638,78.78294,135.3407
"36063",493.17975,78.77074,135.29045
"36064",493.19305,78.76097,135.24226
"36065",493.20642,78.75609,135.19865
"36066",493.21973,78.75609,135.15977
"36067",493.2331,78.75609,135.1209
"36068",493.2464,78.76097,135.0869
"36069",493.25977,78.76341,135.05061
"36070",493.27307,78.76341,135.01196
"36071",493.28644,78.75853,134.96843
"36072",493.29974,78.751205,134.9223
"36073",493.3131,78.73655,134.86862
"36074",493.32642,78.72434,134.81693
"36075",493.33978,78.712135,134.76485
"36076",493.3531,78.70237,134.71483
"36077",493.36646,78.70481,134.67671
"36078",493.37976,78.785385,134.71681
"36079",493.39313,79.01732,134.91078
"36080",493.40643,79.4641,135.32686
"36081",493.4198,80.11597,135.96198
"36082",493.4331,80.89479,136.74442
"36083",493.44647,81.668724,137.54631
"36084",493.45978,82.28886,138.2186
"36085",493.47314,82.650185,138.65146
"36086",493.48645,82.74052,138.82462
"36087",493.49982,82.61356,138.78331
"36088",493.51312,82.34989,138.60132
"36089",493.5265,82.022736,138.3476
"36090",493.5398,81.69558,138.08365
"36091",493.55316,81.40505,137.84612
"36092",493.56647,81.17311,137.65808
"36093",493.57983,80.99489,137.51653
"36094",493.59314,80.85329,137.40602
"36095",493.6065,80.72144,137.30084
"36096",493.6198,80.584724,137.18668
"36097",493.63318,80.43824,137.05847
"36098",493.64648,80.289314,136.92325
"36099",493.65985,80.15503,136.798
"36100",493.67316,80.045166,136.693
"36101",493.68652,79.96948,136.61871
"36102",493.69983,79.91577,136.56406
"36103",493.7132,79.88403,136.5297
"36104",493.7265,79.86206,136.50409
"36105",493.73987,79.84253,136.48026
"36106",493.75317,79.81323,136.44604
"36107",493.76654,79.77417,136.40115
"36108",493.77985,79.71801,136.33794
"36109",493.7932,79.64477,136.25587
"36110",493.80652,79.55932,136.15932
"36111",493.8199,79.46899,136.0552
"36112",493.8332,79.37377,135.94339
"36113",493.84656,79.28344,135.83348
"36114",493.85986,79.200424,135.72807
"36115",493.87323,79.12962,135.63228
"36116",493.88654,79.07347,135.54892
"36117",493.8999,79.029526,135.47601
"36118",493.9132,78.995346,135.4115
"36119",493.92657,78.97337,135.35812
"36120",493.93988,78.958725,135.31139
"36121",493.95325,78.9514,135.27151
"36122",493.96655,78.94652,135.23386
"36123",493.97992,78.94652,135.20093
"36124",493.99323,78.94896,135.17044
"36125",494.0066,78.94896,135.13759
"36126",494.0199,78.94896,135.10474
"36127",494.03326,78.94408,135.067
"36128",494.04657,78.93675,135.02667
"36129",494.05994,78.92943,134.98611
"36130",494.07324,78.92699,134.95021
"36131",494.0866,78.924545,134.91423
"36132",494.0999,78.91966,134.87573
"36133",494.11328,78.91234,134.83464
"36134",494.1266,78.91234,134.80064
"36135",494.13995,78.9514,134.80571
"36136",494.15326,79.09056,134.9121
"36137",494.16663,79.38354,135.17665
"36138",494.17993,79.852295,135.62614
"36139",494.1933,80.45777,136.227
"36140",494.2066,81.10475,136.88829
"36141",494.21997,81.685814,137.50388
"36142",494.23328,82.1033,137.97404
"36143",494.24664,82.320595,138.25706
"36144",494.25995,82.34501,138.354
"36145",494.27332,82.23758,138.31985
"36146",494.28662,82.04715,138.19936
"36147",494.3,81.8201,138.03629
"36148",494.3133,81.58816,137.86122
"36149",494.32666,81.36843,137.69113
"36150",494.33997,81.17067,137.53613
"36151",494.35333,80.990005,137.39206
"36152",494.36664,80.814224,137.24722
"36153",494.38,80.635994,137.09444
"36154",494.3933,80.45289,136.93121
"36155",494.40668,80.27711,136.76959
"36156",494.41998,80.12085,136.622
"36157",494.43335,80.0061,136.51102
"36158",494.44666,79.937744,136.44284
"36159",494.46002,79.91333,136.41647
"36160",494.47333,79.920654,136.42108
"36161",494.4867,79.9353,136.43326
"36162",494.5,79.94263,136.43857
"36163",494.51337,79.9353,136.42944
"36164",494.52667,79.906006,136.39813
"36165",494.54004,79.85474,136.34393
"36166",494.55334,79.78882,136.27347
"36167",494.5667,79.71313,136.19118
"36168",494.58002,79.62524,136.09431
"36169",494.59338,79.534904,135.99226
"36170",494.6067,79.44213,135.88495
"36171",494.62006,79.35424,135.77962
"36172",494.63336,79.273674,135.67886
"36173",494.64673,79.20531,135.5878
"36174",494.66003,79.151596,135.50925
"36175",494.6734,79.11253,135.44366
"36176",494.6867,79.08568,135.38907
"36177",494.70007,79.07347,135.34828
"36178",494.71338,79.06859,135.31444
"36179",494.72675,79.06859,135.28532
"36180",494.74005,79.07347,135.2611
"36181",494.75342,79.07591,135.23457
"36182",494.76672,79.07103,135.2008
"36183",494.7801,79.06615,135.16689
"36184",494.7934,79.07347,135.14502
"36185",494.80676,79.13451,135.1771
"36186",494.82007,79.31274,135.32828
"36187",494.83344,79.64721,135.64127
"36188",494.84674,80.128174,136.1112
"36189",494.8601,80.69947,136.68651
"36190",494.8734,81.26589,137.2748
"36191",494.88678,81.72976,137.77823
"36192",494.9001,82.020294,138.12282
"36193",494.91345,82.13504,138.3007
"36194",494.92676,82.1033,138.3357
"36195",494.94012,81.97879,138.27692
"36196",494.95343,81.80301,138.16298
"36197",494.9668,81.61013,138.02644
"36198",494.9801,81.41482,137.88145
"36199",494.99347,81.22926,137.74011
"36200",495.00677,81.05104,137.60031
"36201",495.02014,80.8777,137.45982
"36202",495.03345,80.69703,137.30658
"36203",495.0468,80.51392,137.14526
"36204",495.06012,80.3357,136.98311
"36205",495.0735,80.177,136.8349
"36206",495.0868,80.04761,136.71103
"36207",495.10016,79.957275,136.6222
"36208",495.11346,79.906006,136.56958
"36209",495.12683,79.886475,136.54712
"36210",495.14014,79.886475,136.54358
"36211",495.1535,79.8938,136.54736
"36212",495.1668,79.888916,136.53915
"36213",495.18018,79.871826,136.51859
"36214",495.19348,79.83032,136.47308
"36215",495.20685,79.77417,136.41162
"36216",495.22015,79.70336,136.33376
"36217",495.23352,79.62524,136.24635
"36218",495.24683,79.54223,136.15163
"36219",495.2602,79.46166,136.05675
"36220",495.2735,79.38354,135.96179
"36221",495.28687,79.310295,135.86928
"36222",495.30017,79.24925,135.78668
"36223",495.31354,79.19798,135.71194
"36224",495.32684,79.15404,135.64293
"36225",495.3402,79.11986,135.5823
"36226",495.35352,79.093,135.52794
"36227",495.36688,79.07591,135.4825
"36228",495.3802,79.061264,135.43896
"36229",495.39355,79.046616,135.39497
"36230",495.40686,79.029526,135.34808
"36231",495.42023,79.029526,135.31775
"36232",495.43353,79.093,135.35089
"36233",495.4469,79.27856,135.5081
"36234",495.4602,79.62768,135.83467
"36235",495.47357,80.128174,136.32353
"36236",495.48688,80.73121,136.93057
"36237",495.50024,81.33425,137.55647
"36238",495.51355,81.83963,138.10355
"36239",495.52692,82.1741,138.49551
"36240",495.54022,82.320595,138.70995
"36241",495.5536,82.31083,138.7727
"36242",495.5669,82.196075,138.73016
"36243",495.58026,82.01541,138.61813
"36244",495.59357,81.812775,138.47849
"36245",495.60693,81.60525,138.3276
"36246",495.62024,81.409935,138.18246
"36247",495.6336,81.231705,138.0483
"36248",495.6469,81.06081,137.9159
"36249",495.66028,80.88991,137.77815
"36250",495.67358,80.706795,137.62285
"36251",495.68695,80.51881,137.45695
"36252",495.70026,80.32838,137.28275
"36253",495.71362,80.15991,137.12454
"36254",495.72693,80.03052,137.00015
"36255",495.7403,79.94995,136.92053
"36256",495.7536,79.91089,136.87991
"36257",495.76697,79.906006,136.87225
"36258",495.78027,79.90845,136.87177
"36259",495.79364,79.90845,136.8689
"36260",495.80695,79.8938,136.85138
"36261",495.8203,79.85718,136.81143
"36262",495.83362,79.801025,136.75082
"36263",495.847,79.73266,136.67624
"36264",495.8603,79.65209,136.58731
"36265",495.87366,79.56664,136.49098
"36266",495.88696,79.47143,136.38222
"36267",495.90033,79.381096,136.27536
"36268",495.91364,79.30053,136.17545
"36269",495.927,79.23216,136.08522
"36270",495.9403,79.17845,136.0075
"36271",495.95367,79.13939,135.94276
"36272",495.96698,79.11009,135.88657
"36273",495.98035,79.080795,135.82945
"36274",495.99365,79.044174,135.7641
"36275",496.00702,79.009995,135.70004
"36276",496.02032,78.97826,135.63736
"36277",496.0337,78.97337,135.60054
"36278",496.047,79.05394,135.64902
"36279",496.06036,79.293205,135.85872
"36280",496.07367,79.72289,136.26631
"36281",496.08704,80.325935,136.86069
"36282",496.10034,81.03151,137.57645
"36283",496.1137,81.71511,138.29228
"36284",496.127,82.252235,138.88301
"36285",496.14038,82.56718,139.26834
"36286",496.1537,82.650185,139.43158
"36287",496.16705,82.55009,139.4143
"36288",496.18036,82.3328,139.27672
"36289",496.19373,82.054474,139.07129
"36290",496.20703,81.76639,138.84741
"36291",496.2204,81.50759,138.64381
"36292",496.2337,81.28298,138.46632
"36293",496.24707,81.0901,138.31354
"36294",496.26038,80.921646,138.17915
"36295",496.27374,80.75807,138.04439
"36296",496.28705,80.584724,137.89473
"36297",496.3004,80.39918,137.72746
"36298",496.31372,80.218506,137.55927
"36299",496.3271,80.059814,137.40741
"36300",496.3404,79.937744,137.2872
"36301",496.35376,79.85962,137.20712
"36302",496.36707,79.82056,137.16367
"36303",496.38043,79.801025,137.13852
"36304",496.39374,79.78882,137.12009
"36305",496.4071,79.76929,137.09396
"36306",496.4204,79.73998,137.05745
"36307",496.43378,79.69604,137.00537
"36308",496.44708,79.639885,136.93971
"36309",496.46045,79.569084,136.85765
"36310",496.47375,79.48608,136.76117
"36311",496.48712,79.38842,136.64745
"36312",496.50043,79.290764,136.53067
"36313",496.5138,79.19798,136.41573
"36314",496.5271,79.11742,136.31009
"36315",496.54047,79.04906,136.21414
"36316",496.55377,78.99779,136.13315
"36317",496.56714,78.95628,136.06032
"36318",496.58044,78.922104,135.99352
"36319",496.5938,78.89525,135.93297
"36320",496.60712,78.87572,135.8789
"36321",496.62048,78.86107,135.82912
"36322",496.6338,78.84398,135.77643
"36323",496.64716,78.82933,135.72565
"36324",496.66046,78.836655,135.69638
"36325",496.67383,78.922104,135.74547
"36326",496.68713,79.17113,135.9608
"36327",496.7005,79.635,136.39877
"36328",496.7138,80.30396,137.05632
"36329",496.72717,81.08278,137.84464
"36330",496.74048,81.83719,138.63289
"36331",496.75385,82.42069,139.2738
"36332",496.76715,82.735634,139.6644
"36333",496.78052,82.78203,139.79628
"36334",496.79382,82.62089,139.72208
"36335",496.8072,82.337685,139.52078
"36336",496.8205,82.01053,139.26668
"36337",496.83386,81.69314,139.01212
"36338",496.84717,81.41726,138.78915
"36339",496.86053,81.197525,138.61371
"36340",496.87384,81.02663,138.48024
"36341",496.8872,80.88991,138.37561
"36342",496.9005,80.75563,138.26915
"36343",496.91388,80.6067,138.14383
"36344",496.9272,80.44312,137.99922
"36345",496.94055,80.26734,137.8373
"36346",496.95386,80.10132,137.67963
"36347",496.96722,79.96216,137.54364
"36348",496.98053,79.8645,137.4448
"36349",496.9939,79.801025,137.37708
"36350",497.0072,79.75952,137.32935
"36351",497.02057,79.73022,137.29253
"36352",497.03387,79.70336,137.25723
"36353",497.04724,79.67162,137.21622
"36354",497.06055,79.63256,137.16689
"36355",497.0739,79.57885,137.10168
"36356",497.08722,79.51537,137.02504
"36357",497.1006,79.43969,136.9342
"36358",497.1139,79.3518,136.8288
"36359",497.12726,79.256584,136.71332
"36360",497.14056,79.1638,136.5973
"36361",497.15393,79.078354,136.48572
"36362",497.16724,79.00023,136.37878
"36363",497.1806,78.941635,136.28894
"36364",497.1939,78.89769,136.21191
"36365",497.20728,78.86595,136.14572
"36366",497.22058,78.84154,136.08586
"36367",497.23395,78.82689,136.035
"36368",497.24725,78.81224,135.98369
"36369",497.26062,78.80492,135.93924
"36370",497.27393,78.80003,135.897
"36371",497.2873,78.79027,135.84973
"36372",497.3006,78.7805,135.80215
"36373",497.31396,78.765854,135.74939
"36374",497.32727,78.76341,135.70837
"36375",497.34064,78.82689,135.7332
"36376",497.35394,79.03929,135.90894
"36377",497.3673,79.45678,136.2964
"36378",497.3806,80.079346,136.902
"36379",497.39398,80.82643,137.65155
"36380",497.4073,81.56863,138.41957
"36381",497.42065,82.159454,139.05942
"36382",497.43396,82.49882,139.46626
"36383",497.44733,82.562294,139.60783
"36384",497.46063,82.41093,139.53654
"36385",497.474,82.125275,139.32623
"36386",497.4873,81.78836,139.05574
"36387",497.50067,81.45632,138.77959
"36388",497.51398,81.17067,138.53944
"36389",497.52734,80.9485,138.35387
"36390",497.54065,80.78493,138.21994
"36391",497.55402,80.65797,138.11751
"36392",497.56732,80.54322,138.02333
"36393",497.5807,80.42115,137.91824
"36394",497.594,80.28443,137.7947
"36395",497.60736,80.14038,137.65953
"36396",497.62067,79.99878,137.52231
"36397",497.63403,79.87915,137.40265
"36398",497.64734,79.78638,137.30609
"36399",497.6607,79.72289,137.23593
"36400",497.674,79.68627,137.19064
"36401",497.68738,79.6643,137.15886
"36402",497.70068,79.64477,137.12883
"36403",497.71405,79.622795,137.09575
"36404",497.72736,79.588615,137.04977
"36405",497.74072,79.54223,136.99052
"36406",497.75403,79.47631,136.9103
"36407",497.7674,79.398186,136.8158
"36408",497.7807,79.31274,136.71153
"36409",497.79407,79.2224,136.59972
"36410",497.80737,79.13451,136.48752
"36411",497.82074,79.05638,136.38234
"36412",497.83405,78.98802,136.28448
"36413",497.8474,78.92943,136.19426
"36414",497.86072,78.88304,136.11441
"36415",497.87408,78.84398,136.04044
"36416",497.8874,78.81712,135.97745
"36417",497.90076,78.80003,135.92339
"36418",497.91406,78.78783,135.87367
"36419",497.92743,78.77806,135.82602
"36420",497.94073,78.768295,135.77806
"36421",497.9541,78.76097,135.73224
"36422",497.9674,78.751205,135.68375
"36423",497.98077,78.73899,135.6325
"36424",497.99408,78.729225,135.58333
"36425",498.00745,78.71946,135.53384
"36426",498.02075,78.71702,135.49138
"36427",498.03412,78.76097,135.49524
"36428",498.04742,78.94408,135.63962
"36429",498.0608,79.32494,135.98749
"36430",498.0741,79.90845,136.5499
"36431",498.08746,80.62623,137.26482
"36432",498.10077,81.36111,138.01927
"36433",498.11414,81.96658,138.66728
"36434",498.12744,82.32792,139.09007
"36435",498.1408,82.41825,139.25316
"36436",498.1541,82.2913,139.20178
"36437",498.16748,82.02518,139.00726
"36438",498.1808,81.69558,138.74095
"36439",498.19415,81.36599,138.46436
"36440",498.20746,81.08034,138.22139
"36441",498.22083,80.850845,138.02567
"36442",498.23413,80.68238,137.88379
"36443",498.2475,80.55543,137.77817
"36444",498.2608,80.445564,137.68567
"36445",498.27417,80.33082,137.58485
"36446",498.28748,80.20874,137.47311
"36447",498.30084,80.07446,137.34537
"36448",498.31415,79.94263,137.21585
"36449",498.3275,79.835205,137.10663
"36450",498.34082,79.75952,137.02579
"36451",498.3542,79.71557,136.97432
"36452",498.3675,79.69848,136.94833
"36453",498.38086,79.69604,136.93646
"36454",498.39417,79.693596,136.92451
"36455",498.40753,79.68139,136.90273
"36456",498.42084,79.64965,136.86102
"36457",498.4342,79.59838,136.7988
"36458",498.4475,79.53246,136.72032
"36459",498.46088,79.45434,136.62758
"36460",498.47418,79.36889,136.52507
"36461",498.48755,79.28344,136.41989
"36462",498.50085,79.20531,136.31937
"36463",498.51422,79.14183,136.23105
"36464",498.52753,79.08568,136.14807
"36465",498.5409,79.03685,136.07066
"36466",498.5542,78.99779,136.0015
"36467",498.56757,78.95628,135.92867
"36468",498.58087,78.922104,135.86186
"36469",498.59424,78.89525,135.80132
"36470",498.60754,78.87572,135.74725
"36471",498.6209,78.86595,135.70235
"36472",498.63422,78.86839,135.66934
"36473",498.64758,78.870834,135.63641
"36474",498.6609,78.870834,135.60112
"36475",498.67426,78.86595,135.56094
"36476",498.68756,78.86107,135.52061
"36477",498.70093,78.84886,135.47281
"36478",498.71423,78.83421,135.42218
"36479",498.7276,78.82201,135.37354
"36480",498.7409,78.82933,135.34404
"36481",498.75427,78.9099,135.38802
"36482",498.76758,79.14183,135.58588
"36483",498.78094,79.58129,135.99852
"36484",498.79425,80.21118,136.61533
"36485",498.80762,80.9485,137.35925
"36486",498.82092,81.6614,138.10179
"36487",498.8343,82.213165,138.70547
"36488",498.8476,82.511024,139.0725
"36489",498.86096,82.55009,139.19003
"36490",498.87427,82.38163,139.10127
"36491",498.88763,82.08865,138.88272
"36492",498.90094,81.74685,138.60619
"36493",498.9143,81.409935,138.32387
"36494",498.9276,81.1194,138.0774
"36495",498.94098,80.89479,137.88777
"36496",498.95428,80.73365,137.7546
"36497",498.96765,80.61402,137.6579
"36498",498.98096,80.50904,137.57211
"36499",498.99432,80.39918,137.47816
"36500",499.00763,80.27711,137.36858
"36501",499.021,80.15015,137.25027
"36502",499.0343,80.03784,137.14267
"36503",499.04767,79.95239,137.05841
"36504",499.06097,79.89624,137.00076
"36505",499.07434,79.869385,136.97067
"36506",499.08765,79.85718,136.95438
"36507",499.101,79.84985,136.9426
"36508",499.11432,79.83765,136.92569
"36509",499.1277,79.81079,136.89377
"36510",499.141,79.77173,136.84879
"36511",499.15436,79.710686,136.78061
"36512",499.16766,79.639885,136.70076
"36513",499.18103,79.56176,136.61137
"36514",499.19434,79.47631,136.51222
"36515",499.2077,79.38842,136.40796
"36516",499.221,79.30297,136.30339
"36517",499.23438,79.22484,136.20348
"36518",499.24768,79.15404,136.10844
"36519",499.26105,79.097885,136.02585
"36520",499.27435,79.05882,135.95859
"36521",499.28772,79.03197,135.90231
"36522",499.30103,79.012436,135.85252
"36523",499.3144,78.99779,135.807
"36524",499.3277,78.99046,135.76836
"36525",499.34106,78.98558,135.73192
"36526",499.35437,78.98314,135.69777
"36527",499.36774,78.98558,135.66843
"36528",499.38104,78.98802,135.63916
"36529",499.3944,78.98802,135.60753
"36530",499.4077,78.9807,135.56857
"36531",499.42108,78.9807,135.53671
"36532",499.4344,79.03197,135.55612
"36533",499.44775,79.202866,135.69676
"36534",499.46106,79.54955,136.01854
"36535",499.47443,80.07446,136.52937
"36536",499.48773,80.723885,137.18112
"36537",499.5011,81.38552,137.86539
"36538",499.5144,81.92752,138.45068
"36539",499.52777,82.26444,138.84784
"36540",499.54108,82.36454,139.0187
"36541",499.55444,82.26444,138.99251
"36542",499.56775,82.03494,138.83377
"36543",499.58112,81.74929,138.61171
"36544",499.59442,81.45388,138.37097
"36545",499.6078,81.17799,138.14052
"36546",499.6211,80.94606,137.9454
"36547",499.63446,80.75807,137.78699
"36548",499.64777,80.59693,137.64954
"36549",499.66113,80.45289,137.52415
"36550",499.67444,80.31617,137.4016
"36551",499.6878,80.184326,137.27963
"36552",499.7011,80.062256,137.16333
"36553",499.71448,79.95972,137.06274
"36554",499.72778,79.888916,136.99069
"36555",499.74115,79.85718,136.95547
"36556",499.75446,79.85474,136.94858
"36557",499.76782,79.8645,136.9538
"36558",499.78113,79.88159,136.96664
"36559",499.7945,79.888916,136.97028
"36560",499.8078,79.871826,136.9497
"36561",499.82117,79.835205,136.90909
"36562",499.83447,79.77905,136.84778
"36563",499.84784,79.708244,136.77007
"36564",499.86115,79.62524,136.67793
"36565",499.8745,79.54223,136.5832
"36566",499.88782,79.45678,136.48344
"36567",499.90118,79.378654,136.38834
"36568",499.9145,79.30541,136.29567
"36569",499.92786,79.24193,136.21048
"36570",499.94116,79.183334,136.12819
"36571",499.95453,79.132065,136.05139
"36572",499.96783,79.093,135.9852
"36573",499.9812,79.07103,135.93488
"36574",499.9945,79.05638,135.89119
"36575",500.00787,79.04906,135.85437
"36576",500.02118,79.04173,135.81732
"36577",500.03455,79.03197,135.7776
"36578",500.04785,79.03441,135.74979
"36579",500.06122,79.093,135.7782
"36580",500.07452,79.26635,135.9232
"36581",500.0879,79.58373,136.21765
"36582",500.1012,80.03784,136.65875
"36583",500.11456,80.5774,137.1995
"36584",500.12787,81.10719,137.74733
"36585",500.14124,81.53445,138.20918
"36586",500.15454,81.80057,138.52325
"36587",500.1679,81.88846,138.66742
"36588",500.1812,81.83963,138.67761
"36589",500.19458,81.69558,138.59105
"36590",500.2079,81.50759,138.45605
"36591",500.22125,81.31228,138.30786
"36592",500.23456,81.126724,138.16331
"36593",500.24792,80.96071,138.03252
"36594",500.26123,80.8069,137.90874
"36595",500.2746,80.655525,137.78258
"36596",500.2879,80.499275,137.64682
"36597",500.30127,80.33326,137.49641
"36598",500.31458,80.16724,137.3408
"36599",500.32794,80.01831,137.19711
"36600",500.34125,79.903564,137.08295
"36601",500.3546,79.83032,137.00668
"36602",500.36792,79.798584,136.96964
"36603",500.3813,79.801025,136.96579
"36604",500.3946,79.82056,136.9791
"36605",500.40796,79.84253,136.99545
"36606",500.42126,79.84741,136.99542
"36607",500.43463,79.83032,136.97357
"36608",500.44794,79.7937,136.93164
"36609",500.4613,79.742424,136.87392
"36610",500.4746,79.676506,136.79994
"36611",500.48798,79.60815,136.72147
"36612",500.50128,79.534904,136.63597
"36613",500.51465,79.45922,136.54575
"36614",500.52795,79.38598,136.4556
"36615",500.54132,79.31762,136.36804
"36616",500.55463,79.26391,136.293
"36617",500.568,79.2224,136.22849
"36618",500.5813,79.18822,136.17
"36619",500.59467,79.16136,136.11777
"36620",500.60797,79.13695,136.06714
"36621",500.62134,79.11253,136.01575
"36622",500.63464,79.097885,135.97336
"36623",500.648,79.114975,135.96225
"36624",500.66132,79.217514,136.03712
"36625",500.67468,79.4519,136.24706
"36626",500.688,79.83765,136.61568
"36627",500.70135,80.343025,137.11598
"36628",500.71466,80.89967,137.68335
"36629",500.72803,81.41238,138.22417
"36630",500.74133,81.78836,138.64429
"36631",500.7547,81.988556,138.90038
"36632",500.768,82.02762,139.00159
"36633",500.78137,81.95438,138.99171
"36634",500.79468,81.81033,138.90875
"36635",500.80804,81.636986,138.79198
"36636",500.82135,81.463646,138.6698
"36637",500.83472,81.30251,138.55441
"36638",500.84802,81.143814,138.43642
"36639",500.8614,80.990005,138.31836
"36640",500.8747,80.833755,138.19305
"36641",500.88806,80.66529,138.05064
"36642",500.90137,80.48463,137.89078
"36643",500.91473,80.31373,137.73503
"36644",500.92804,80.15991,137.59102
"36645",500.9414,80.04028,137.47638
"36646",500.9547,79.96216,137.3995
"36647",500.96808,79.923096,137.35925
"36648",500.98138,79.91089,137.34464
"36649",500.99475,79.91089,137.34186
"36650",501.00806,79.91089,137.33908
"36651",501.02142,79.90112,137.32654
"36652",501.03473,79.871826,137.29416
"36653",501.0481,79.823,137.24133
"36654",501.0614,79.75952,137.17233
"36655",501.07477,79.68139,137.08669
"36656",501.08807,79.59838,136.99371
"36657",501.10144,79.51293,136.8957
"36658",501.11475,79.42748,136.79503
"36659",501.1281,79.35668,136.70633
"36660",501.14142,79.29565,136.62518
"36661",501.1548,79.24437,136.5519
"36662",501.1681,79.200424,136.48433
"36663",501.18146,79.168686,136.4276
"36664",501.19476,79.13451,136.36743
"36665",501.20813,79.10033,136.3062
"36666",501.22144,79.07591,136.25366
"36667",501.2348,79.08812,136.23698
"36668",501.2481,79.18822,136.30858
"36669",501.26147,79.429924,136.52492
"36670",501.27478,79.83032,136.9075
"36671",501.28815,80.36256,137.43443
"36672",501.30145,80.95094,138.03415
"36673",501.31482,81.48562,138.59854
"36674",501.32812,81.87869,139.03804
"36675",501.3415,82.08377,139.30183
"36676",501.3548,82.11307,139.39626
"36677",501.36816,82.01297,139.3622
"36678",501.38147,81.84207,139.25421
"36679",501.39484,81.651634,139.12134
"36680",501.40814,81.47341,138.99474
"36681",501.4215,81.3196,138.88698
"36682",501.4348,81.18532,138.79393
"36683",501.44818,81.05104,138.6967
"36684",501.4615,80.90944,138.58795
"36685",501.47485,80.75075,138.45769
"36686",501.48816,80.57252,138.30292
"36687",501.50153,80.38453,138.13283
"36688",501.51483,80.21118,137.9715
"36689",501.5282,80.06958,137.83649
"36690",501.5415,79.9646,137.73367
"36691",501.55487,79.903564,137.67154
"36692",501.56818,79.88159,137.64655
"36693",501.58154,79.88403,137.6453
"36694",501.59485,79.886475,137.6441
"36695",501.60822,79.87671,137.6308
"36696",501.62152,79.84253,137.59277
"36697",501.6349,79.78882,137.53415
"36698",501.6482,79.71557,137.4543
"36699",501.66156,79.63012,137.35995
"36700",501.67487,79.537346,137.25562
"36701",501.68823,79.447014,137.15082
"36702",501.70154,79.361565,137.04808
"36703",501.7149,79.28588,136.95244
"36704",501.7282,79.217514,136.86176
"36705",501.74158,79.15648,136.77626
"36706",501.75488,79.10033,136.69374
"36707",501.76825,79.046616,136.61191
"36708",501.78156,78.995346,136.53084
"36709",501.79492,78.94652,136.4506
"36710",501.80823,78.9099,136.38106
"36711",501.8216,78.91966,136.35675
"36712",501.8349,79.029526,136.43285
"36713",501.84827,79.30541,136.6784
"36714",501.86157,79.75952,137.11081
"36715",501.87494,80.35279,137.69656
"36716",501.88824,80.99489,138.34969
"36717",501.9016,81.57107,138.95695
"36718",501.91492,81.971466,139.40645
"36719",501.92828,82.15701,139.65361
"36720",501.9416,82.14725,139.71126
"36721",501.95496,81.99588,139.627
"36722",501.96826,81.77615,139.46965
"36723",501.98163,81.54177,139.29077
"36724",501.99493,81.33181,139.129
"36725",502.0083,81.160904,138.99971
"36726",502.0216,81.024185,138.89928
"36727",502.03497,80.907,138.8141
"36728",502.04828,80.78737,138.72282
"36729",502.06165,80.6482,138.60826
"36730",502.07495,80.48707,138.46739
"36731",502.08832,80.308846,138.3044
"36732",502.10162,80.130615,138.13582
"36733",502.115,79.971924,137.9812
"36734",502.1283,79.852295,137.86069
"36735",502.14166,79.76929,137.77307
"36736",502.15497,79.72289,137.71947
"36737",502.16833,79.70336,137.69127
"36738",502.18164,79.691154,137.66978
"36739",502.195,79.67162,137.6406
"36740",502.2083,79.635,137.5937
"36741",502.22168,79.58129,137.52858
"36742",502.235,79.51049,137.44469
"36743",502.24835,79.42504,137.34393
"36744",502.26166,79.33471,137.23563
"36745",502.27502,79.23949,137.11961
"36746",502.28833,79.151596,137.00795
"36747",502.3017,79.06859,136.89842
"36748",502.315,78.995346,136.79607
"36749",502.32837,78.93187,136.70119
"36750",502.34167,78.887924,136.62386
"36751",502.35504,78.856186,136.55736
"36752",502.36835,78.83421,136.49963
"36753",502.3817,78.81468,136.44366
"36754",502.39502,78.79759,136.38953
"36755",502.4084,78.77806,136.33241
"36756",502.4217,78.75853,136.27469
"36757",502.43506,78.73655,136.21391
"36758",502.44836,78.73655,136.17442
"36759",502.46173,78.81224,136.21063
"36760",502.47504,79.03685,136.39812
"36761",502.4884,79.45678,136.78795
"36762",502.5017,80.05493,137.36913
"36763",502.51508,80.75319,138.06909
"36764",502.52838,81.42458,138.76402
"36765",502.54175,81.94217,139.32613
"36766",502.55505,82.21805,139.6627
"36767",502.56842,82.252235,139.7662
"36768",502.58173,82.10086,139.68521
"36769",502.5951,81.85428,139.50429
"36770",502.6084,81.58083,139.28879
"36771",502.62177,81.33669,139.09406
"36772",502.63507,81.143814,138.94295
"36773",502.64844,81.007095,138.84198
"36774",502.66174,80.91188,138.77824
"36775",502.6751,80.82643,138.7213
"36776",502.68842,80.72144,138.64214
"36777",502.70178,80.587166,138.53041
"36778",502.7151,80.41627,138.37787
"36779",502.72845,80.218506,138.19312
"36780",502.74176,80.02319,138.00464
"36781",502.75513,79.85962,137.8418
"36782",502.76843,79.742424,137.72021
"36783",502.7818,79.67162,137.64136
"36784",502.7951,79.63744,137.59691
"36785",502.80847,79.622795,137.57092
"36786",502.82178,79.60815,137.54448
"36787",502.83514,79.58129,137.50537
"36788",502.84845,79.53979,137.45078
"36789",502.86182,79.48119,137.37779
"36790",502.87512,79.41039,137.29077
"36791",502.8885,79.32983,137.19177
"36792",502.9018,79.24681,137.08781
"36793",502.91516,79.15892,136.97638
"36794",502.92847,79.07591,136.86708
"36795",502.94183,78.995346,136.75763
"36796",502.95514,78.924545,136.65543
"36797",502.9685,78.86351,136.56078
"36798",502.9818,78.81224,136.47398
"36799",502.99518,78.77562,136.40024
"36800",503.00848,78.751205,136.33755
"36801",503.02185,78.729225,136.27655
"36802",503.03516,78.709694,136.2173
"36803",503.04852,78.695045,136.16232
"36804",503.06183,78.6804,136.10689
"36805",503.0752,78.660866,136.04611
"36806",503.0885,78.64866,135.99205
"36807",503.10187,78.641335,135.94249
"36808",503.11517,78.63645,135.89514
"36809",503.12854,78.641335,135.8574
"36810",503.14185,78.68528,135.85889
"36811",503.1552,78.83421,135.96674
"36812",503.16852,79.14671,136.2428
"36813",503.1819,79.64721,136.71663
"36814",503.1952,80.289314,137.3477
"36815",503.20856,80.98024,138.04767
"36816",503.22186,81.58083,138.6789
"36817",503.23523,81.98367,139.13113
"36818",503.24854,82.13504,139.3445
"36819",503.2619,82.074005,139.35019
"36820",503.2752,81.87137,139.21237
"36821",503.28857,81.60525,139.00473
"36822",503.30188,81.341576,138.79123
"36823",503.31525,81.12428,138.61586
"36824",503.32855,80.96315,138.48987
"36825",503.34192,80.86061,138.41743
"36826",503.35522,80.79225,138.37598
"36827",503.3686,80.726326,138.33481
"36828",503.3819,80.635994,138.26718
"36829",503.39526,80.51148,138.16255
"36830",503.40857,80.34791,138.01497
"36831",503.42194,80.16724,137.84517
"36832",503.43524,79.98901,137.67218
"36833",503.4486,79.84253,137.52536
"36834",503.4619,79.73266,137.41057
"36835",503.47528,79.6643,137.33385
"36836",503.4886,79.63012,137.28917
"36837",503.50195,79.61303,137.26051
"36838",503.51526,79.59838,137.23376
"36839",503.52863,79.571526,137.19435
"36840",503.54193,79.53002,137.13945
"36841",503.5553,79.46899,137.06372
"36842",503.5686,79.398186,136.97632
"36843",503.58197,79.327385,136.8867
"36844",503.59528,79.25414,136.79243
"36845",503.60864,79.18089,136.69588
"36846",503.62195,79.114975,136.60435
"36847",503.6353,79.04906,136.51077
"36848",503.64862,78.98802,136.42001
"36849",503.662,78.941635,136.342
"36850",503.6753,78.905014,136.2723
"36851",503.68866,78.873276,136.20633
"36852",503.70197,78.84642,136.14426
"36853",503.71533,78.82933,136.09111
"36854",503.72864,78.81468,136.03987
"36855",503.742,78.80492,135.99306
"36856",503.7553,78.79759,135.94838
"36857",503.76868,78.79515,135.90836
"36858",503.78198,78.79027,135.86581
"36859",503.79535,78.785385,135.82312
"36860",503.80865,78.77562,135.77539
"36861",503.82202,78.765854,135.72736
"36862",503.83533,78.75365,135.67657
"36863",503.8487,78.73899,135.62297
"36864",503.862,78.73899,135.58356
"36865",503.87537,78.80492,135.61008
"36866",503.88867,79.009995,135.7778
"36867",503.90204,79.40307,136.13994
"36868",503.91534,79.96948,136.6877
"36869",503.9287,80.638435,137.3557
"36870",503.94202,81.29519,138.03241
"36871",503.95538,81.80545,138.58315
"36872",503.9687,82.08621,138.92033
"36873",503.98206,82.1326,139.03192
"36874",503.99536,82.00076,138.96674
"36875",504.00873,81.761505,138.79001
"36876",504.02203,81.49294,138.57649
"36877",504.0354,81.248795,138.379
"36878",504.0487,81.05104,138.22028
"36879",504.06207,80.90456,138.10664
"36880",504.07538,80.80446,138.03482
"36881",504.08875,80.723885,137.97939
"36882",504.10205,80.64088,137.919
"36883",504.11542,80.53834,137.8365
"36884",504.12872,80.40894,137.72394
"36885",504.1421,80.26246,137.59024
"36886",504.1554,80.113525,137.44951
"36887",504.16876,79.98169,137.32123
"36888",504.18207,79.87671,137.21567
"36889",504.19543,79.80591,137.14102
"36890",504.20874,79.75952,137.08856
"36891",504.2221,79.73022,137.05174
"36892",504.2354,79.708244,137.02133
"36893",504.24878,79.68139,136.98535
"36894",504.2621,79.64477,136.93877
"36895",504.27545,79.59594,136.87883
"36896",504.28876,79.537346,136.8076
"36897",504.30212,79.46899,136.72478
"36898",504.31543,79.395744,136.63493
"36899",504.3288,79.32006,136.54036
"36900",504.3421,79.24437,136.44342
"36901",504.35547,79.17601,136.35144
"36902",504.36877,79.1223,136.27197
"36903",504.38214,79.07591,136.19815
"36904",504.39545,79.03929,136.13264
"36905",504.4088,79.00755,136.07088
"36906",504.42212,78.98314,136.01544
"36907",504.4355,78.96361,135.96413
"36908",504.4488,78.94652,135.91464
"36909",504.46216,78.93675,135.87195
"36910",504.47546,78.92699,135.82895
"36911",504.48883,78.924545,135.79297
"36912",504.50214,78.91722,135.75203
"36913",504.5155,78.9099,135.71086
"36914",504.5288,78.89769,135.66458
"36915",504.54218,78.890366,135.6228
"36916",504.55548,78.87816,135.57591
"36917",504.56885,78.86839,135.53108
"36918",504.58215,78.873276,135.5006
"36919",504.59552,78.92943,135.52153
"36920",504.60883,79.10033,135.65897
"36921",504.6222,79.43481,135.96533
"36922",504.6355,79.9353,136.44817
"36923",504.64886,80.54566,137.0565
"36924",504.66217,81.160904,137.6888
"36925",504.67554,81.66384,138.22801
"36926",504.68884,81.96414,138.5803
"36927",504.7022,82.039825,138.71738
"36928",504.7155,81.9324,138.6737
"36929",504.72888,81.70779,138.50948
"36930",504.7422,81.43923,138.2943
"36931",504.75555,81.180435,138.08047
"36932",504.76886,80.96315,137.90009
"36933",504.78223,80.79469,137.76173
"36934",504.79553,80.67506,137.66693
"36935",504.8089,80.58228,137.59526
"36936",504.8222,80.48951,137.52069
"36937",504.83557,80.38941,137.4359
"36938",504.84888,80.274666,137.33333
"36939",504.86224,80.15015,137.21739
"36940",504.87555,80.028076,137.1
"36941",504.88892,79.923096,136.99591
"36942",504.90222,79.84253,136.91293
"36943",504.9156,79.79126,136.85675
"36944",504.9289,79.766846,136.8258
"36945",504.94226,79.75708,136.80875
"36946",504.95557,79.7522,136.79626
"36947",504.96893,79.7351,136.77142
"36948",504.98224,79.70092,136.72896
"36949",504.9956,79.65209,136.67078
"36950",505.0089,79.5935,136.6013
"36951",505.02228,79.5227,136.51779
"36952",505.03558,79.449455,136.42963
"36953",505.04895,79.378654,136.34161
"36954",505.06226,79.30785,136.25139
"36955",505.07562,79.23949,136.16139
"36956",505.08893,79.18089,136.07903
"36957",505.1023,79.13451,136.00703
"36958",505.1156,79.097885,135.94336
"36959",505.12897,79.07103,135.8883
"36960",505.14227,79.0515,135.83974
"36961",505.15564,79.03929,135.79788
"36962",505.16895,79.029526,135.75809
"36963",505.1823,79.0222,135.72043
"36964",505.19562,79.01976,135.68742
"36965",505.20898,79.01488,135.6519
"36966",505.2223,79.009995,135.61623
"36967",505.23566,79.00267,135.57796
"36968",505.24896,78.995346,135.53946
"36969",505.26233,78.99046,135.50317
"36970",505.27563,79.01732,135.49847
"36971",505.289,79.11986,135.5703
"36972",505.3023,79.344475,135.76741
"36973",505.31567,79.71801,136.12045
"36974",505.32898,80.2063,136.59993
"36975",505.34235,80.73853,137.13861
"36976",505.35565,81.21706,137.64021
"36977",505.36902,81.55398,138.01517
"36978",505.38232,81.71023,138.21999
"36979",505.3957,81.69802,138.26123
"36980",505.409,81.57107,138.18735
"36981",505.42236,81.38796,138.05334
"36982",505.43567,81.1902,137.89896
"36983",505.44904,81.007095,137.75305
"36984",505.46234,80.84352,137.62096
"36985",505.4757,80.70435,137.50815
"36986",505.489,80.57984,137.40565
"36987",505.50238,80.45777,137.30171
"36988",505.5157,80.32838,137.18663
"36989",505.52905,80.19653,137.06505
"36990",505.54236,80.062256,136.93692
"36991",505.55573,79.94263,136.81924
"36992",505.56903,79.84741,136.72223
"36993",505.5824,79.783936,136.65399
"36994",505.5957,79.75464,136.61795
"36995",505.60907,79.7522,136.60785
"36996",505.62238,79.764404,136.6123
"36997",505.63574,79.77661,136.61716
"36998",505.64905,79.77905,136.61261
"36999",505.6624,79.76196,136.58862
"37000",505.67572,79.725334,136.54456
"37001",505.6891,79.66918,136.47981
"37002",505.7024,79.605705,136.40599
"37003",505.71576,79.53246,136.32042
"37004",505.72906,79.45678,136.23012
"37005",505.74243,79.381096,136.13745
"37006",505.75574,79.310295,136.0473
"37007",505.7691,79.24925,135.9647
"37008",505.7824,79.20531,135.8973
"37009",505.79578,79.17601,135.84315
"37010",505.80908,79.15648,135.79787
"37011",505.82245,79.13695,135.75197
"37012",505.83575,79.12474,135.71278
"37013",505.84912,79.11253,135.67322
"37014",505.86243,79.097885,135.63083
"37015",505.8758,79.08568,135.59042
"37016",505.8891,79.078354,135.55452
"37017",505.90247,79.097885,135.54524
"37018",505.91577,79.185776,135.60493
"37019",505.92914,79.39086,135.78458
"37020",505.94244,79.742424,136.1171
"37021",505.9558,80.21118,136.5778
"37022",505.96912,80.73121,137.10443
"37023",505.98248,81.20973,137.6058
"37024",505.9958,81.55642,137.9903
"37025",506.00916,81.72976,138.21228
"37026",506.02246,81.74441,138.28099
"37027",506.03583,81.64187,138.23297
"37028",506.04913,81.478294,138.12071
"37029",506.0625,81.29763,137.98625
"37030",506.0758,81.12428,137.85345
"37031",506.08917,80.96559,137.7299
"37032",506.10248,80.82643,137.62093
"37033",506.11584,80.69947,137.51979
"37034",506.12915,80.57496,137.41714
"37035",506.14252,80.44312,137.30328
"37036",506.15582,80.29908,137.1731
"37037",506.1692,80.15259,137.03595
"37038",506.1825,80.02075,136.90887
"37039",506.19586,79.91089,136.79965
"37040",506.20917,79.835205,136.72119
"37041",506.22253,79.79614,136.67697
"37042",506.23584,79.78882,136.66327
"37043",506.2492,79.79614,136.664
"37044",506.2625,79.80347,136.66495
"37045",506.27588,79.80835,136.6637
"37046",506.28918,79.79614,136.64551
"37047",506.30255,79.76929,136.61227
"37048",506.31586,79.72289,136.55867
"37049",506.32922,79.65942,136.48653
"37050",506.34253,79.588615,136.40508
"37051",506.3559,79.51049,136.31409
"37052",506.3692,79.43481,136.2231
"37053",506.38257,79.36889,136.13951
"37054",506.39587,79.31518,136.06607
"37055",506.40924,79.273674,136.00316
"37056",506.42255,79.24681,135.9536
"37057",506.4359,79.2224,135.90564
"37058",506.44922,79.20775,135.86668
"37059",506.4626,79.19066,135.82483
"37060",506.4759,79.17601,135.78488
"37061",506.48926,79.16136,135.74448
"37062",506.50256,79.15404,135.71094
"37063",506.51593,79.16136,135.69182
"37064",506.52924,79.22972,135.73396
"37065",506.5426,79.40795,135.88812
"37066",506.5559,79.7351,136.19676
"37067",506.56927,80.19653,136.64992
"37068",506.58258,80.73853,137.19806
"37069",506.59595,81.26589,137.7485
"37070",506.60925,81.685814,138.208
"37071",506.62262,81.934845,138.5097
"37072",506.63593,81.99832,138.63365
"37073",506.6493,81.917755,138.61554
"37074",506.6626,81.74929,138.507
"37075",506.67596,81.53933,138.35172
"37076",506.68927,81.33669,138.19719
"37077",506.70264,81.163345,138.06561
"37078",506.71594,81.02174,137.96037
"37079",506.7293,80.90456,137.87512
"37080",506.7426,80.79469,137.79353
"37081",506.75598,80.67506,137.69873
"37082",506.7693,80.5359,137.58067
"37083",506.78265,80.38453,137.44606
"37084",506.79596,80.235596,137.30914
"37085",506.80933,80.10376,137.18466
"37086",506.82263,80.00122,137.08536
"37087",506.836,79.93286,137.01703
"37088",506.8493,79.89868,136.98074
"37089",506.86267,79.88403,136.96292
"37090",506.87598,79.87915,136.9544
"37091",506.88934,79.869385,136.94086
"37092",506.90265,79.84741,136.9148
"37093",506.91602,79.81079,136.87341
"37094",506.92932,79.75952,136.81622
"37095",506.9427,79.70092,136.7501
"37096",506.956,79.635,136.67484
"37097",506.96936,79.56664,136.59506
"37098",506.98267,79.4934,136.50827
"37099",506.99603,79.42504,136.42407
"37100",507.00934,79.35668,136.33774
"37101",507.0227,79.30053,136.26147
"37102",507.036,79.256584,136.19566
"37103",507.04938,79.2224,136.13824
"37104",507.06268,79.1931,136.08464
"37105",507.07605,79.17357,136.03989
"37106",507.08936,79.15892,135.9994
"37107",507.10272,79.14427,135.95847
"37108",507.11603,79.13451,135.92195
"37109",507.1294,79.13695,135.89734
"37110",507.1427,79.185776,135.91919
"37111",507.15607,79.33715,136.04512
"37112",507.16937,79.64721,136.33446
"37113",507.18274,80.12573,136.80196
"37114",507.19604,80.719,137.39915
"37115",507.2094,81.33425,138.03688
"37116",507.22272,81.85184,138.59616
"37117",507.23608,82.176544,138.97874
"37118",507.2494,82.27665,139.14687
"37119",507.26276,82.18875,139.13011
"37120",507.27606,81.97879,138.98856
"37121",507.28943,81.71999,138.7916
"37122",507.30273,81.46609,138.59145
"37123",507.3161,81.253685,138.42487
"37124",507.3294,81.094986,138.30534
"37125",507.34277,80.98024,138.22482
"37126",507.35608,80.88991,138.16513
"37127",507.36945,80.797134,138.10017
"37128",507.38275,80.689705,138.01765
"37129",507.39612,80.552986,137.9025
"37130",507.40942,80.396736,137.76353
"37131",507.4228,80.233154,137.61235
"37132",507.4361,80.08667,137.47314
"37133",507.44946,79.96948,137.35867
"37134",507.46277,79.888916,137.27716
"37135",507.47614,79.84741,137.23218
"37136",507.48944,79.83032,137.21033
"37137",507.5028,79.82056,137.19525
"37138",507.5161,79.80347,137.17255
"37139",507.52948,79.77661,137.13956
"37140",507.5428,79.73022,137.08618
"37141",507.55615,79.674065,137.02159
"37142",507.56946,79.603264,136.9406
"37143",507.58282,79.52514,136.85007
"37144",507.59613,79.44213,136.75221
"37145",507.6095,79.35668,136.64932
"37146",507.6228,79.276115,136.54865
"37147",507.63617,79.200424,136.45033
"37148",507.64948,79.14183,136.36674
"37149",507.66284,79.097885,136.29597
"37150",507.67615,79.07103,136.24092
"37151",507.6895,79.05394,136.1948
"37152",507.70282,79.046616,136.1579
"37153",507.7162,79.03685,136.11833
"37154",507.7295,79.027084,136.07846
"37155",507.74286,79.01488,136.03584
"37156",507.75616,79.00023,135.9904
"37157",507.76953,78.98314,135.94206
"37158",507.78284,78.97093,135.89807
"37159",507.7962,78.98314,135.87811
"37160",507.8095,79.07591,135.9391
"37161",507.82288,79.31274,136.14705
"37162",507.83618,79.73266,136.54549
"37163",507.84955,80.31373,137.1182
"37164",507.86285,80.98024,137.79451
"37165",507.87622,81.60769,138.45259
"37166",507.88953,82.07156,138.9667
"37167",507.9029,82.30839,139.26826
"37168",507.9162,82.320595,139.35262
"37169",507.92957,82.16678,139.27132
"37170",507.94287,81.92996,139.10222
"37171",507.95624,81.67361,138.90617
"37172",507.96954,81.446556,138.73143
"37173",507.9829,81.27322,138.6033
"37174",507.99622,81.15114,138.52101
"37175",508.00958,81.058365,138.46422
"37176",508.0229,80.97536,138.41429
"37177",508.03625,80.88014,138.34956
"37178",508.04956,80.75319,138.25012
"37179",508.06293,80.59449,138.11496
"37180",508.07623,80.42603,137.96509
"37181",508.0896,80.2649,137.81728
"37182",508.1029,80.12329,137.68394
"37183",508.11627,80.01587,137.58038
"37184",508.12958,79.94507,137.51007
"37185",508.14294,79.89624,137.45953
"37186",508.15625,79.8645,137.42456
"37187",508.16962,79.83765,137.39346
"37188",508.18292,79.801025,137.35178
"37189",508.1963,79.74975,137.29428
"37190",508.2096,79.68627,137.22298
"37191",508.22296,79.61303,137.13992
"37192",508.23627,79.534904,137.0497
"37193",508.24963,79.45678,136.95703
"37194",508.26294,79.381096,136.86436
"37195",508.2763,79.30541,136.76933
"37196",508.2896,79.237045,136.67926
"37197",508.30298,79.17357,136.59193
"37198",508.31628,79.11253,136.50507
"37199",508.32965,79.063705,136.4285
"37200",508.34296,79.02464,136.36017
"37201",508.35632,78.992905,136.29794
"37202",508.36963,78.97093,136.24449
"37203",508.383,78.95628,136.19768
"37204",508.3963,78.94896,136.15773
"37205",508.40967,78.941635,136.11755
"37206",508.42297,78.93431,136.07715
"37207",508.43634,78.91966,136.02919
"37208",508.44965,78.907455,135.98322
"37209",508.463,78.905014,135.94662
"37210",508.47632,78.9514,135.95879
"37211",508.4897,79.11009,136.0847
"37212",508.503,79.43969,136.38649
"37213",508.51636,79.937744,136.86703
"37214",508.52966,80.552986,137.48033
"37215",508.54303,81.180435,138.12506
"37216",508.55634,81.70046,138.68198
"37217",508.5697,82.020294,139.05495
"37218",508.583,82.11307,139.21086
"37219",508.59637,82.01785,139.18169
"37220",508.60968,81.80545,139.03235
"37221",508.62305,81.549095,138.83241
"37222",508.63635,81.30251,138.63425
"37223",508.64972,81.10231,138.47475
"37224",508.66302,80.953384,138.36028
"37225",508.6764,80.85329,138.28998
"37226",508.6897,80.77272,138.23608
"37227",508.70306,80.68726,138.17477
"37228",508.71637,80.57984,138.08884
"37229",508.72974,80.44312,137.97025
"37230",508.74304,80.289314,137.83029
"37231",508.7564,80.1355,137.68552
"37232",508.7697,79.9939,137.54816
"37233",508.78308,79.88159,137.43567
"37234",508.7964,79.801025,137.35141
"37235",508.80975,79.74975,137.29391
"37236",508.82306,79.72045,137.25679
"37237",508.83643,79.70336,137.23096
"37238",508.84973,79.68383,137.20215
"37239",508.8631,79.65453,137.16296
"37240",508.8764,79.605705,137.10333
"37241",508.88977,79.54467,137.02997
"37242",508.90308,79.47387,136.94493
"37243",508.91644,79.40307,136.85768
"37244",508.92975,79.33227,136.76822
"37245",508.9431,79.26635,136.68143
"37246",508.95642,79.202866,136.59502
"37247",508.9698,79.14671,136.51395
"37248",508.9831,79.09056,136.43112
"37249",508.99646,79.04173,136.35387
"37250",509.00977,79.00267,136.28485
"37251",509.02313,78.975815,136.22682
"37252",509.03644,78.96117,136.18016
"37253",509.0498,78.95384,136.14037
"37254",509.0631,78.94408,136.0979
"37255",509.07648,78.93675,136.05757
"37256",509.08978,78.93675,136.02434
"37257",509.10315,78.93675,135.9911
"37258",509.11646,78.93187,135.95299
"37259",509.12982,78.92943,135.91716
"37260",509.14313,78.94408,135.89835
"37261",509.1565,79.01976,135.94102
"37262",509.1698,79.22728,136.1179
"37263",509.18317,79.603264,136.46974
"37264",509.19647,80.13794,136.99202
"37265",509.20984,80.75563,137.61401
"37266",509.22314,81.341576,138.22357
"37267",509.2365,81.78348,138.7074
"37268",509.24982,82.01297,138.99263
"37269",509.26318,82.02762,139.07019
"37270",509.2765,81.881134,138.98708
"37271",509.28986,81.64431,138.80904
"37272",509.30316,81.375755,138.59187
"37273",509.31653,81.12428,138.38339
"37274",509.32983,80.91432,138.20857
"37275",509.3432,80.75807,138.0809
"37276",509.3565,80.638435,137.98495
"37277",509.36987,80.54322,137.9097
"37278",509.38318,80.448006,137.83147
"37279",509.39655,80.34058,137.73805
"37280",509.40985,80.22095,137.62906
"37281",509.42322,80.096436,137.51144
"37282",509.43652,79.98169,137.39972
"37283",509.4499,79.89136,137.3088
"37284",509.4632,79.83276,137.24683
"37285",509.47656,79.801025,137.20987
"37286",509.48987,79.78882,137.19144
"37287",509.50323,79.783936,137.17996
"37288",509.51654,79.77173,137.16101
"37289",509.5299,79.74731,137.12946
"37290",509.5432,79.710686,137.08493
"37291",509.55658,79.65453,137.01973
"37292",509.5699,79.59106,136.94545
"37293",509.58325,79.517815,136.85942
"37294",509.59656,79.44213,136.76866
"37295",509.60992,79.36645,136.67554
"37296",509.62323,79.29565,136.58493
"37297",509.6366,79.234604,136.50188
"37298",509.6499,79.18822,136.43156
"37299",509.66327,79.15404,136.37201
"37300",509.67657,79.12474,136.31627
"37301",509.68994,79.11009,136.27426
"37302",509.70325,79.09544,136.2318
"37303",509.7166,79.08324,136.19131
"37304",509.72992,79.06859,136.14801
"37305",509.7433,79.05394,136.10425
"37306",509.7566,79.03441,136.05515
"37307",509.76996,79.01976,136.01031
"37308",509.78326,79.0222,135.98212
"37309",509.79663,79.09056,136.01991
"37310",509.80994,79.27856,136.17949
"37311",509.8233,79.62524,136.50362
"37312",509.8366,80.10376,136.97043
"37313",509.84998,80.65308,137.523
"37314",509.86328,81.17067,138.06099
"37315",509.87665,81.55886,138.48576
"37316",509.88995,81.75662,138.73224
"37317",509.90332,81.76883,138.79935
"37318",509.91663,81.64675,138.73254
"37319",509.93,81.449,138.58626
"37320",509.9433,81.22682,138.40936
"37321",509.95667,81.02174,138.24263
"37322",509.96997,80.84596,138.09879
"37323",509.98334,80.69703,137.97629
"37324",509.99664,80.567635,137.86868
"37325",510.01,80.445564,137.76436
"37326",510.02332,80.31617,137.6489
"37327",510.03668,80.17944,137.52205
"37328",510.05,80.04761,137.39581
"37329",510.06335,79.93042,137.28012
"37330",510.07666,79.84497,137.1925
"37331",510.09003,79.7937,137.13638
"37332",510.10333,79.77661,137.11285
"37333",510.1167,79.781494,137.11075
"37334",510.13,79.79614,137.11856
"37335",510.14337,79.80347,137.1195
"37336",510.15668,79.798584,137.10849
"37337",510.17004,79.76929,137.0729
"37338",510.18335,79.72289,137.0193
"37339",510.19672,79.66186,136.9496
"37340",510.21002,79.588615,136.86578
"37341",510.2234,79.51293,136.77724
"37342",510.2367,79.44213,136.69121
"37343",510.25006,79.37133,136.60297
"37344",510.26337,79.30541,136.5174
"37345",510.27673,79.2517,136.44197
"37346",510.29004,79.20775,136.37463
"37347",510.3034,79.17601,136.31813
"37348",510.3167,79.15648,136.27284
"37349",510.33008,79.14183,136.23183
"37350",510.34338,79.12718,136.19035
"37351",510.35675,79.10765,136.14354
"37352",510.37006,79.08812,136.09612
"37353",510.38342,79.08812,136.06761
"37354",510.39673,79.149155,136.10014
"37355",510.4101,79.32006,136.24446
"37356",510.4234,79.635,136.53815
"37357",510.43677,80.08423,136.97597
"37358",510.45007,80.601814,137.49619
"37359",510.46344,81.10231,138.01549
"37360",510.47675,81.4905,138.43813
"37361",510.4901,81.71267,138.70688
"37362",510.50342,81.76639,138.81412
"37363",510.51678,81.6907,138.79362
"37364",510.5301,81.53689,138.69266
"37365",510.54346,81.35378,138.55759
"37366",510.55676,81.17311,138.41922
"37367",510.57013,81.01442,138.2972
"37368",510.58344,80.8777,138.19218
"37369",510.5968,80.75563,138.09755
"37370",510.6101,80.63355,137.99908
"37371",510.62347,80.499275,137.88461
"37372",510.63678,80.34791,137.74886
"37373",510.65015,80.198975,137.6108
"37374",510.66345,80.062256,137.48029
"37375",510.67682,79.954834,137.37482
"37376",510.69012,79.88403,137.30261
"37377",510.7035,79.85474,137.26968
"37378",510.7168,79.852295,137.2627
"37379",510.73016,79.85962,137.26541
"37380",510.74347,79.86694,137.26834
"37381",510.75684,79.85962,137.25687
"37382",510.77014,79.83276,137.22562
"37383",510.7835,79.783936,137.17157
"37384",510.7968,79.72045,137.10133
"37385",510.81018,79.64477,137.0169
"37386",510.8235,79.569084,136.93011
"37387",510.83685,79.48852,136.83607
"37388",510.85016,79.415276,136.74684
"37389",510.86353,79.34692,136.6602
"37390",510.87683,79.28832,136.58119
"37391",510.8902,79.237045,136.50768
"37392",510.9035,79.1931,136.43988
"37393",510.91687,79.15404,136.3756
"37394",510.93018,79.11986,136.31497
"37395",510.94354,79.093,136.2606
"37396",510.95685,79.07103,136.21028
"37397",510.9702,79.05394,136.16415
"37398",510.98352,79.063705,136.14435
"37399",510.9969,79.14671,136.19809
"37400",511.0102,79.35912,136.38383
"37401",511.02356,79.73998,136.74466
"37402",511.03687,80.257576,137.25412
"37403",511.05023,80.84352,137.84811
"37404",511.06354,81.38552,138.41647
"37405",511.0769,81.78592,138.86017
"37406",511.0902,81.988556,139.11862
"37407",511.10358,82.005646,139.19786
"37408",511.11688,81.88602,139.14091
"37409",511.13025,81.69314,139.00697
"37410",511.14355,81.47585,138.8426
"37411",511.15692,81.27322,138.6861
"37412",511.17023,81.10231,138.55498
"37413",511.1836,80.96315,138.45027
"37414",511.1969,80.850845,138.36807
"37415",511.21027,80.74586,138.28967
"37416",511.22357,80.62867,138.1958
"37417",511.23694,80.49683,138.08362
"37418",511.25024,80.35523,137.95755
"37419",511.2636,80.21118,137.8246
"37420",511.27692,80.08423,137.70425
"37421",511.29028,79.98413,137.60678
"37422",511.3036,79.91821,137.54037
"37423",511.31696,79.886475,137.50607
"37424",511.33026,79.87427,137.49033
"37425",511.34363,79.871826,137.48395
"37426",511.35693,79.86206,137.47018
"37427",511.3703,79.83032,137.43414
"37428",511.3836,79.77417,137.37268
"37429",511.39697,79.70092,137.29237
"37430",511.41028,79.61791,137.20001
"37431",511.42365,79.53246,137.10262
"37432",511.43695,79.45434,137.00987
"37433",511.45032,79.38354,136.92201
"37434",511.46362,79.31762,136.83682
"37435",511.477,79.25414,136.75201
"37436",511.4903,79.19554,136.6701
"37437",511.50366,79.14427,136.59369
"37438",511.51697,79.10277,136.52544
"37439",511.53033,79.06859,136.46321
"37440",511.54364,79.03929,136.4048
"37441",511.557,79.01732,136.3528
"37442",511.5703,79.00023,136.305
"37443",511.58368,78.992905,136.26642
"37444",511.597,79.04173,136.28377
"37445",511.61035,79.20775,136.41983
"37446",511.62366,79.53246,136.71979
"37447",511.63702,80.02319,137.1959
"37448",511.65033,80.62623,137.79967
"37449",511.6637,81.24391,138.43692
"37450",511.677,81.75418,138.98607
"37451",511.69037,82.06912,139.35583
"37452",511.70367,82.161896,139.51328
"37453",511.71704,82.06912,139.48807
"37454",511.73035,81.864044,139.34766
"37455",511.7437,81.617455,139.15932
"37456",511.75702,81.375755,138.96817
"37457",511.7704,81.17799,138.8134
"37458",511.7837,81.03639,138.70862
"37459",511.79706,80.938736,138.64336
"37460",511.81036,80.86061,138.59457
"37461",511.82373,80.7776,138.53847
"37462",511.83704,80.66773,138.4529
"37463",511.8504,80.52613,138.33217
"37464",511.8637,80.365,138.18748
"37465",511.87708,80.198975,138.03287
"37466",511.89038,80.05249,137.89261
"37467",511.90375,79.94263,137.7844
"37468",511.91705,79.86206,137.70203
"37469",511.93042,79.815674,137.65134
"37470",511.94373,79.79126,137.62115
"37471",511.9571,79.766846,137.59021
"37472",511.9704,79.73754,137.55362
"37473",511.98376,79.70092,137.50879
"37474",511.99707,79.64477,137.44328
"37475",512.01044,79.58129,137.3687
"37476",512.02374,79.50805,137.28236
"37477",512.0371,79.432365,137.1913
"37478",512.0504,79.34936,137.09055
"37479",512.0638,79.26635,136.9872
"37480",512.0771,79.19066,136.88858
"37481",512.09045,79.12474,136.79736
"37482",512.10376,79.07103,136.7163
"37483",512.1171,79.027084,136.64331
"37484",512.13043,78.992905,136.57872
"37485",512.1438,78.96361,136.51794
"37486",512.1571,78.93675,136.4587
"37487",512.1705,78.907455,136.39616
"37488",512.1838,78.88548,136.34004
"37489",512.19714,78.870834,136.29056
"37490",512.21045,78.905014,136.28944
"37491",512.2238,79.046616,136.39682
"37492",512.2371,79.34936,136.66977
"37493",512.2505,79.82056,137.12064
"37494",512.2638,80.413826,137.7083
"37495",512.27716,81.024185,138.33159
"37496",512.29047,81.53445,138.87386
"37497",512.30383,81.85428,139.24164
"37498",512.31714,81.94949,139.3948
"37499",512.3305,81.8616,139.36784
"37500",512.3438,81.65896,139.22337
"37501",512.3572,81.4197,139.03596
"37502",512.3705,81.19264,138.85327
"37503",512.38385,81.004654,138.70256
"37504",512.39716,80.87038,138.59969
"37505",512.4105,80.77028,138.5268
"37506",512.4238,80.68726,138.46785
"37507",512.4372,80.59205,138.39412
"37508",512.4505,80.47486,138.29544
"37509",512.46387,80.33326,138.16869
"37510",512.4772,80.17456,138.0204
"37511",512.49054,80.01831,137.8696
"37512",512.50385,79.88159,137.73346
"37513",512.5172,79.781494,137.62967
"37514",512.5305,79.71557,137.55692
"37515",512.5439,79.68139,137.51384
"37516",512.5572,79.66674,137.48923
"37517",512.57056,79.656975,137.46904
"37518",512.58386,79.635,137.43634
"37519",512.5972,79.59594,137.38586
"37520",512.61053,79.534904,137.3122
"37521",512.6239,79.45922,137.22197
"37522",512.6372,79.37621,137.12206
"37523",512.6506,79.293205,137.01955
"37524",512.6639,79.217514,136.92177
"37525",512.67725,79.149155,136.82895
"37526",512.69055,79.08812,136.74132
"37527",512.7039,79.03441,136.6591
"37528",512.7172,78.98802,136.58253
"37529",512.7306,78.94896,136.51184
"37530",512.7439,78.91478,136.44481
"37531",512.75726,78.890366,136.38647
"37532",512.77057,78.86595,136.32738
"37533",512.78394,78.84886,136.27484
"37534",512.79724,78.82689,136.21689
"37535",512.8106,78.80736,136.16069
"37536",512.8239,78.79515,136.1112
"37537",512.8373,78.82201,136.1004
"37538",512.8506,78.93919,136.18077
"37539",512.86395,79.20775,136.41617
"37540",512.87726,79.639885,136.82355
"37541",512.8906,80.19653,137.36894
"37542",512.90393,80.78493,137.96347
"37543",512.9173,81.30007,138.50314
"37544",512.9306,81.63943,138.88313
"37545",512.944,81.76395,139.05888
"37546",512.9573,81.7029,139.05296
"37547",512.97064,81.514915,138.9182
"37548",512.98395,81.27322,138.72385
"37549",512.9973,81.03395,138.52437
"37550",513.0106,80.83864,138.36137
"37551",513.024,80.69459,138.24353
"37552",513.0373,80.59449,138.16515
"37553",513.05066,80.51392,138.10316
"37554",513.06396,80.428474,138.03378
"37555",513.07733,80.32105,137.93976
"37556",513.09064,80.18677,137.8155
"37557",513.104,80.0354,137.66998
"37558",513.1173,79.8938,137.52948
"37559",513.1307,79.77173,137.40408
"37560",513.144,79.68139,137.30661
"37561",513.15735,79.622795,137.23805
"37562",513.17065,79.5935,137.19696
"37563",513.184,79.57885,137.1696
"37564",513.1973,79.5642,137.14178
"37565",513.2107,79.53979,137.10374
"37566",513.224,79.50317,137.05273
"37567",513.23737,79.4519,136.98593
"37568",513.2507,79.38842,136.90532
"37569",513.26404,79.3225,136.82028
"37570",513.27734,79.256584,136.73318
"37571",513.2907,79.18822,136.64159
"37572",513.304,79.1223,136.5503
"37573",513.3174,79.05882,136.45938
"37574",513.3307,79.00267,136.37381
"37575",513.34406,78.95384,136.29381
"37576",513.35736,78.91478,136.22205
"37577",513.3707,78.890366,136.16371
"37578",513.38403,78.8806,136.11926
"37579",513.3974,78.8806,136.08427
"37580",513.4107,78.88304,136.05173
"37581",513.4241,78.887924,136.0217
"37582",513.4374,78.890366,135.98938
"37583",513.45074,78.88548,135.94981
"37584",513.46405,78.870834,135.90033
"37585",513.4774,78.853745,135.84795
"37586",513.4907,78.84154,135.79991
"37587",513.5041,78.86839,135.79056
"37588",513.5174,78.992905,135.8797
"37589",513.53076,79.273674,136.129
"37590",513.54407,79.71801,136.55063
"37591",513.55743,80.274666,137.09846
"37592",513.57074,80.85329,137.68567
"37593",513.5841,81.33425,138.1933
"37594",513.5974,81.62722,138.52797
"37595",513.6108,81.705345,138.65695
"37596",513.6241,81.60525,138.61015
"37597",513.63745,81.39773,138.4528
"37598",513.65076,81.15602,138.25478
"37599",513.6641,80.92409,138.05898
"37600",513.6774,80.73121,137.89497
"37601",513.6908,80.58961,137.77623
"37602",513.7041,80.48463,137.68968
"37603",513.71747,80.396736,137.61694
"37604",513.7308,80.306404,137.53902
"37605",513.74414,80.2063,137.44849
"37606",513.75745,80.09155,137.34018
"37607",513.7708,79.974365,137.22586
"37608",513.7841,79.86694,137.11765
"37609",513.7975,79.783936,137.03049
"37610",513.8108,79.727776,136.96758
"37611",513.82416,79.69848,136.92976
"37612",513.83746,79.68871,136.91057
"37613",513.8508,79.68383,136.89595
"37614",513.86414,79.67162,136.87386
"37615",513.8775,79.64477,136.83673
"37616",513.8908,79.60082,136.78168
"37617",513.9042,79.53979,136.70816
"37618",513.9175,79.47143,136.62541
"37619",513.93085,79.40307,136.54053
"37620",513.94415,79.33471,136.4535
"37621",513.9575,79.273674,136.37167
"37622",513.9708,79.21507,136.29037
"37623",513.9842,79.166245,136.21701
"37624",513.9975,79.12474,136.14944
"37625",514.01086,79.08812,136.08546
"37626",514.0242,79.061264,136.0301
"37627",514.03754,79.04173,135.98123
"37628",514.05084,79.02464,135.93419
"37629",514.0642,79.009995,135.88905
"37630",514.0775,78.99779,135.8459
"37631",514.0909,78.9807,135.79749
"37632",514.1042,78.96361,135.74854
"37633",514.11755,78.96117,135.7137
"37634",514.13086,79.009995,135.73006
"37635",514.1442,79.149155,135.83827
"37636",514.15753,79.42016,136.08269
"37637",514.1709,79.81323,136.45764
"37638",514.1842,80.274666,136.91324
"37639",514.1976,80.73121,137.37837
"37640",514.2109,81.09743,137.76744
"37641",514.22424,81.304955,138.00926
"37642",514.23755,81.34402,138.08911
"37643",514.2509,81.25857,138.04567
"37644",514.2642,81.092545,137.91898
"37645",514.2776,80.89723,137.75781
"37646",514.2909,80.71168,137.6003
"37647",514.30426,80.55543,137.4663
"37648",514.31757,80.42359,137.35182
"37649",514.33093,80.31129,137.25276
"37650",514.34424,80.2063,137.1575
"37651",514.3576,80.096436,137.05408
"37652",514.3709,79.98169,136.94235
"37653",514.3843,79.869385,136.82947
"37654",514.3976,79.77173,136.72772
"37655",514.41095,79.693596,136.64246
"37656",514.42426,79.64965,136.58893
"37657",514.4376,79.639885,136.5682
"37658",514.4509,79.65453,136.5716
"37659",514.4643,79.674065,136.58032
"37660",514.4776,79.68627,136.58234
"37661",514.49097,79.676506,136.56276
"37662",514.5043,79.64721,136.52335
"37663",514.51764,79.59594,136.46104
"37664",514.53094,79.53246,136.38493
"37665",514.5443,79.466545,136.3044
"37666",514.5576,79.40551,136.22668
"37667",514.571,79.34936,136.15195
"37668",514.5843,79.29809,136.08034
"37669",514.59766,79.25414,136.01445
"37670",514.61096,79.21507,135.95207
"37671",514.6243,79.185776,135.89824
"37672",514.63763,79.15648,135.84349
"37673",514.651,79.13451,135.79515
"37674",514.6643,79.11742,135.751
"37675",514.6777,79.10521,135.71121
"37676",514.691,79.09544,135.67348
"37677",514.70435,79.08812,135.63788
"37678",514.71765,79.10033,135.62158
"37679",514.731,79.168686,135.66182
"37680",514.7443,79.34203,135.80919
"37681",514.7577,79.64721,136.0938
"37682",514.771,80.06958,136.50514
"37683",514.78436,80.54566,136.9834
"37684",514.79767,80.990005,137.4448
"37685",514.81104,81.322044,137.80777
"37686",514.82434,81.4905,138.01755
"37687",514.8377,81.497826,138.07146
"37688",514.851,81.38552,138.00597
"37689",514.8644,81.21217,137.87592
"37690",514.8777,81.0193,137.72093
"37691",514.89105,80.83864,137.57213
"37692",514.90436,80.689705,137.4494
"37693",514.9177,80.57496,137.35622
"37694",514.931,80.479744,137.27898
"37695",514.9444,80.38941,137.20364
"37696",514.9577,80.289314,137.11572
"37697",514.97107,80.177,137.01245
"37698",514.9844,80.059814,136.90079
"37699",514.99774,79.94995,136.79279
"37700",515.01105,79.8645,136.70578
"37701",515.0244,79.80591,136.64294
"37702",515.0377,79.77661,136.60757
"37703",515.0511,79.76929,136.59326
"37704",515.0644,79.77417,136.59094
"37705",515.07776,79.781494,136.59122
"37706",515.09106,79.77661,136.5795
"37707",515.10443,79.75952,136.55542
"37708",515.11774,79.72045,136.50883
"37709",515.1311,79.66674,136.44638
"37710",515.1444,79.59838,136.3676
"37711",515.1578,79.53002,136.28668
"37712",515.1711,79.466545,136.20851
"37713",515.18445,79.415276,136.14056
"37714",515.19775,79.37133,136.07834
"37715",515.2111,79.33471,136.02206
"37716",515.2244,79.30541,135.97197
"37717",515.2378,79.28344,135.92828
"37718",515.2511,79.26635,135.8888
"37719",515.26447,79.25414,135.85365
"37720",515.2778,79.24193,135.81813
"37721",515.29114,79.22728,135.77979
"37722",515.30444,79.21263,135.74098
"37723",515.3178,79.22972,135.73346
"37724",515.3311,79.32983,135.8095
"37725",515.3445,79.55932,136.01804
"37726",515.3578,79.93286,136.3778
"37727",515.37115,80.413826,136.85667
"37728",515.38446,80.91676,137.37254
"37729",515.3978,81.35134,137.83577
"37730",515.41113,81.62722,138.15388
"37731",515.4245,81.72976,138.30728
"37732",515.4378,81.67361,138.30519
"37733",515.4512,81.51736,138.20125
"37734",515.4645,81.31228,138.0436
"37735",515.47784,81.10475,137.87708
"37736",515.49115,80.92653,137.73338
"37737",515.5045,80.78737,137.62318
"37738",515.5178,80.68726,137.54768
"37739",515.5312,80.60914,137.49104
"37740",515.5445,80.53101,137.43196
"37741",515.55786,80.4358,137.35335
"37742",515.57117,80.323494,137.25467
"37743",515.58453,80.19653,137.13782
"37744",515.59784,80.06958,137.017
"37745",515.6112,79.95972,136.9093
"37746",515.6245,79.87915,136.82748
"37747",515.6379,79.82788,136.77243
"37748",515.6512,79.80591,136.74509
"37749",515.66455,79.801025,136.73413
"37750",515.67786,79.7937,136.72058
"37751",515.6912,79.77905,136.6995
"37752",515.7045,79.74975,136.66328
"37753",515.7179,79.7058,136.61151
"37754",515.7312,79.65453,136.55104
"37755",515.74457,79.59838,136.48409
"37756",515.7579,79.54223,136.41537
"37757",515.77124,79.48119,136.34003
"37758",515.78455,79.42016,136.26277
"37759",515.7979,79.361565,136.18605
"37760",515.8112,79.31518,136.1197
"37761",515.8246,79.276115,136.05923
"37762",515.8379,79.256584,136.01707
"37763",515.85126,79.24193,135.97919
"37764",515.86456,79.234604,135.94817
"37765",515.8779,79.22728,135.91692
"37766",515.89124,79.21507,135.88055
"37767",515.9046,79.20531,135.84625
"37768",515.9179,79.1931,135.8092
"37769",515.9313,79.183334,135.77422
"37770",515.9446,79.20775,135.7731
"37771",515.95795,79.32494,135.86554
"37772",515.97125,79.57641,136.0959
"37773",515.9846,79.98169,136.48795
"37774",515.9979,80.49683,137.00252
"37775",516.0113,81.04372,137.56493
"37776",516.0246,81.51003,138.06386
"37777",516.03796,81.81033,138.41135
"37778",516.0513,81.90555,138.56314
"37779",516.06464,81.82742,138.54457
"37780",516.07794,81.64431,138.41856
"37781",516.0913,81.42214,138.24779
"37782",516.1046,81.214615,138.0847
"37783",516.118,81.05104,137.95909
"37784",516.1313,80.94118,137.88208
"37785",516.14465,80.86549,137.83582
"37786",516.15796,80.80202,137.7994
"37787",516.1713,80.723885,137.74632
"37788",516.18463,80.61646,137.66153
"37789",516.198,80.47486,137.5392
"37790",516.2113,80.31617,137.39536
"37791",516.2247,80.15503,137.2441
"37792",516.238,80.01099,137.10489
"37793",516.25134,79.90112,136.99536
"37794",516.26465,79.83276,136.92392
"37795",516.278,79.79614,136.88208
"37796",516.2913,79.783936,136.8635
"37797",516.3047,79.77905,136.85187
"37798",516.318,79.76929,136.8352
"37799",516.33136,79.74731,136.80602
"37800",516.34467,79.710686,136.76149
"37801",516.35803,79.65209,136.69385
"37802",516.37134,79.586174,136.61705
"37803",516.3847,79.51049,136.52843
"37804",516.398,79.43481,136.43744
"37805",516.4114,79.37133,136.3563
"37806",516.4247,79.31518,136.28049
"37807",516.43805,79.26635,136.21025
"37808",516.45135,79.23216,136.15314
"37809",516.4647,79.202866,136.09984
"37810",516.478,79.17357,136.04562
"37811",516.4914,79.149155,135.99538
"37812",516.5047,79.13451,135.95413
"37813",516.51807,79.1223,135.91487
"37814",516.5314,79.11742,135.88255
"37815",516.54474,79.114975,135.85252
"37816",516.55804,79.114975,135.82486
"37817",516.5714,79.114975,135.7972
"37818",516.5847,79.11009,135.76465
"37819",516.5981,79.10033,135.72707
"37820",516.6114,79.097885,135.6965
"37821",516.62476,79.12474,135.69516
"37822",516.63806,79.24437,135.78743
"37823",516.6514,79.50561,136.02505
"37824",516.66473,79.93042,136.43442
"37825",516.6781,80.47242,136.97424
"37826",516.6914,81.05104,137.56763
"37827",516.7048,81.55154,138.10097
"37828",516.7181,81.87869,138.47661
"37829",516.73145,81.99832,138.65495
"37830",516.74475,81.9324,138.65149
"37831",516.7581,81.75418,138.53366
"37832",516.7714,81.52712,138.36142
"37833",516.7848,81.31472,138.19675
"37834",516.7981,81.14137,138.06448
"37835",516.81146,81.0193,137.97809
"37836",516.82477,80.936295,137.92694
"37837",516.83813,80.87282,137.89273
"37838",516.85144,80.799576,137.84677
"37839",516.8648,80.70435,137.77654
"37840",516.8781,80.57984,137.67404
"37841",516.8915,80.430916,137.54324
"37842",516.9048,80.27711,137.40291
"37843",516.91815,80.130615,137.26508
"37844",516.93146,80.008545,137.1471
"37845",516.9448,79.91577,137.0546
"37846",516.9581,79.85962,136.99582
"37847",516.9715,79.82544,136.95724
"37848",516.9848,79.81079,136.93713
"37849",516.99817,79.7937,136.91412
"37850",517.0115,79.766846,136.88083
"37851",517.02484,79.727776,136.83447
"37852",517.03815,79.674065,136.77225
"37853",517.0515,79.61303,136.70102
"37854",517.0648,79.54955,136.62544
"37855",517.0782,79.49096,136.55276
"37856",517.0915,79.43725,136.48314
"37857",517.10486,79.38598,136.41428
"37858",517.11816,79.33715,136.34625
"37859",517.13153,79.290764,136.27914
"37860",517.14484,79.24925,136.21547
"37861",517.1582,79.21263,136.15538
"37862",517.1715,79.183334,136.10147
"37863",517.1849,79.166245,136.05885
"37864",517.1982,79.1638,136.03035
"37865",517.21155,79.1638,136.00421
"37866",517.22485,79.1638,135.97807
"37867",517.2382,79.166245,135.95438
"37868",517.2515,79.166245,135.92831
"37869",517.2649,79.16136,135.89737
"37870",517.2782,79.15648,135.86627
"37871",517.29156,79.149155,135.83258
"37872",517.3049,79.13451,135.79134
"37873",517.31824,79.1223,135.75208
"37874",517.33154,79.13695,135.73929
"37875",517.3449,79.23949,135.81485
"37876",517.3582,79.48608,136.03767
"37877",517.3716,79.89624,136.43178
"37878",517.3849,80.4358,136.9681
"37879",517.39825,81.01686,137.56277
"37880",517.41156,81.53445,138.11214
"37881",517.4249,81.89334,138.51898
"37882",517.43823,82.039825,138.72464
"37883",517.4516,81.99832,138.74689
"37884",517.4649,81.82742,138.63844
"37885",517.4783,81.58816,138.45628
"37886",517.4916,81.341576,138.25934
"37887",517.50494,81.12428,138.08397
"37888",517.51825,80.953384,137.94821
"37889",517.5316,80.8362,137.86082
"37890",517.5449,80.75319,137.80396
"37891",517.5583,80.68238,137.75668
"37892",517.5716,80.59693,137.69257
"37893",517.58496,80.48951,137.6038
"37894",517.59827,80.365,137.4946
"37895",517.61163,80.233154,137.37416
"37896",517.62494,80.113525,137.26181
"37897",517.6383,80.02075,137.17258
"37898",517.6516,79.96216,137.11462
"37899",517.665,79.92798,137.07925
"37900",517.6783,79.91577,137.06479
"37901",517.69165,79.90845,137.05484
"37902",517.70496,79.89624,137.03976
"37903",517.7183,79.871826,137.01212
"37904",517.7316,79.82788,136.96417
"37905",517.745,79.76929,136.9002
"37906",517.7583,79.70092,136.82463
"37907",517.77167,79.63256,136.74692
"37908",517.785,79.5642,136.66707
"37909",517.79834,79.49828,136.58752
"37910",517.81165,79.432365,136.50592
"37911",517.825,79.37621,136.43202
"37912",517.8383,79.32983,136.36613
"37913",517.8517,79.29565,136.311
"37914",517.865,79.27123,136.26457
"37915",517.87836,79.256584,136.22714
"37916",517.89166,79.24681,136.19414
"37917",517.905,79.23216,136.15594
"37918",517.91833,79.219955,136.11974
"37919",517.9317,79.20775,136.08315
"37920",517.945,79.19554,136.04617
"37921",517.9584,79.185776,136.01126
"37922",517.9717,79.202866,136.0029
"37923",517.98505,79.28344,136.05856
"37924",517.99835,79.47631,136.22903
"37925",518.0117,79.798584,136.53494
"37926",518.025,80.233154,136.96323
"37927",518.0384,80.71656,137.45392
"37928",518.0517,81.163345,137.9231
"37929",518.06506,81.495384,138.29149
"37930",518.07837,81.65896,138.5018
"37931",518.09174,81.671165,138.56586
"37932",518.10504,81.57107,138.51799
"37933",518.1184,81.40261,138.39864
"37934",518.1317,81.20729,138.24715
"37935",518.1451,81.0193,138.0969
"37936",518.1584,80.85329,137.96274
"37937",518.17175,80.71168,137.8478
"37938",518.18506,80.584724,137.74309
"37939",518.1984,80.465096,137.64174
"37940",518.21173,80.343025,137.53421
"37941",518.2251,80.21362,137.41553
"37942",518.2384,80.09155,137.30014
"37943",518.2518,79.98169,137.19315
"37944",518.2651,79.903564,137.11444
"37945",518.27844,79.85474,137.06259
"37946",518.29175,79.84253,137.04584
"37947",518.3051,79.84985,137.04825
"37948",518.3184,79.86694,137.06064
"37949",518.3318,79.87427,137.06381
"37950",518.3451,79.86694,137.05255
"37951",518.35846,79.83765,137.0191
"37952",518.37177,79.783936,136.96033
"37953",518.38513,79.71557,136.88521
"37954",518.39844,79.64233,136.80307
"37955",518.4118,79.57397,136.72353
"37956",518.4251,79.51049,136.64673
"37957",518.4385,79.45434,136.57527
"37958",518.4518,79.40307,136.50694
"37959",518.46515,79.3518,136.43701
"37960",518.47845,79.30297,136.36792
"37961",518.4918,79.259026,136.30219
"37962",518.5051,79.2224,136.2424
"37963",518.5185,79.1931,136.1888
"37964",518.5318,79.17113,136.1416
"37965",518.54517,79.15648,136.10104
"37966",518.5585,79.15404,136.07224
"37967",518.57184,79.21019,136.10194
"37968",518.58514,79.37133,136.2384
"37969",518.5985,79.66918,136.5166
"37970",518.6118,80.093994,136.93108
"37971",518.6252,80.58228,137.4223
"37972",518.6385,81.058365,137.91658
"37973",518.65186,81.427025,138.31831
"37974",518.66516,81.636986,138.57288
"37975",518.6785,81.68337,138.67043
"37976",518.69183,81.61013,138.6498
"37977",518.7052,81.45876,138.54875
"37978",518.7185,81.27322,138.4088
"37979",518.7319,81.0901,138.26547
"37980",518.7452,80.92409,138.13353
"37981",518.75854,80.780045,138.01837
"37982",518.77185,80.655525,137.91823
"37983",518.7852,80.54322,137.82642
"37984",518.7985,80.428474,137.72865
"37985",518.8119,80.30396,137.61754
"37986",518.8252,80.17456,137.49763
"37987",518.83856,80.045166,137.37369
"37988",518.85187,79.9353,137.26523
"37989",518.86523,79.852295,137.1802
"37990",518.87854,79.80347,137.12677
"37991",518.8919,79.78882,137.10599
"37992",518.9052,79.79126,137.10184
"37993",518.9186,79.79614,137.10019
"37994",518.9319,79.7937,137.09137
"37995",518.94525,79.77173,137.06296
"37996",518.95856,79.73266,137.01675
"37997",518.9719,79.68383,136.95956
"37998",518.9852,79.62524,136.89108
"37999",518.9986,79.5642,136.81833
"38000",519.0119,79.500725,136.74123
"38001",519.02527,79.43725,136.66214
"38002",519.0386,79.37377,136.58107
"38003",519.05194,79.31274,136.50046
"38004",519.06525,79.26147,136.4277
"38005",519.0786,79.21507,136.35823
"38006",519.0919,79.18089,136.29951
"38007",519.1053,79.15404,136.24706
"38008",519.1186,79.13451,136.20108
"38009",519.13196,79.11986,136.15938
"38010",519.14526,79.132065,136.14407
"38011",519.1586,79.21263,136.19751
"38012",519.17194,79.4226,136.38287
"38013",519.1853,79.78638,136.7286
"38014",519.1986,80.28199,137.21754
"38015",519.212,80.83864,137.783
"38016",519.2253,81.35378,138.32436
"38017",519.23865,81.7322,138.74509
"38018",519.25195,81.917755,138.98477
"38019",519.2653,81.92508,139.05203
"38020",519.2786,81.795685,138.9828
"38021",519.292,81.5906,138.83383
"38022",519.3053,81.36111,138.65405
"38023",519.31866,81.13893,138.47441
"38024",519.332,80.953384,138.32446
"38025",519.34534,80.80934,138.21022
"38026",519.35864,80.69947,138.12564
"38027",519.372,80.6067,138.05473
"38028",519.3853,80.516365,137.98337
"38029",519.3987,80.40894,137.89209
"38030",519.412,80.289314,137.78525
"38031",519.42535,80.15991,137.66489
"38032",519.43866,80.04028,137.55026
"38033",519.452,79.937744,137.44897
"38034",519.46533,79.869385,137.37866
"38035",519.4787,79.82788,137.33307
"38036",519.492,79.80835,137.30817
"38037",519.5054,79.79614,137.28998
"38038",519.5187,79.781494,137.26895
"38039",519.53204,79.75464,137.23526
"38040",519.54535,79.710686,137.18364
"38041",519.5587,79.64965,137.11356
"38042",519.572,79.57885,137.0318
"38043",519.5854,79.50561,136.94539
"38044",519.5987,79.432365,136.85669
"38045",519.61206,79.364006,136.77058
"38046",519.62537,79.30541,136.69211
"38047",519.63873,79.25414,136.61913
"38048",519.65204,79.20531,136.54698
"38049",519.6654,79.15892,136.47575
"38050",519.6787,79.11986,136.4104
"38051",519.6921,79.08568,136.34871
"38052",519.7054,79.05882,136.29327
"38053",519.71875,79.03929,136.24432
"38054",519.73206,79.03441,136.20941
"38055",519.7454,79.08812,136.23294
"38056",519.7587,79.256584,136.37291
"38057",519.7721,79.58373,136.67682
"38058",519.7854,80.0647,137.14478
"38059",519.79877,80.64576,137.72786
"38060",519.8121,81.22194,138.32422
"38061",519.82544,81.685814,138.82628
"38062",519.83875,81.96414,139.15729
"38063",519.8521,82.0325,139.28703
"38064",519.8654,81.93729,139.25534
"38065",519.8788,81.74197,139.12056
"38066",519.8921,81.50515,138.93819
"38067",519.90546,81.28054,138.76062
"38068",519.91876,81.09743,138.61752
"38069",519.9321,80.96315,138.51755
"38070",519.94543,80.86549,138.45
"38071",519.9588,80.782486,138.39404
"38072",519.9721,80.689705,138.32571
"38073",519.9855,80.57496,138.23253
"38074",519.9988,80.4358,138.11134
"38075",520.01215,80.27955,137.96872
"38076",520.02545,80.130615,137.82852
"38077",520.0388,79.99634,137.69833
"38078",520.0521,79.8938,137.59567
"38079",520.0655,79.82788,137.52643
"38080",520.0788,79.7937,137.48688
"38081",520.09216,79.77661,137.46335
"38082",520.10547,79.77173,137.45148
"38083",520.11884,79.75708,137.42969
"38084",520.13214,79.727776,137.39279
"38085",520.1455,79.68139,137.33789
"38086",520.1588,79.61547,137.26201
"38087",520.1722,79.537346,137.17186
"38088",520.1855,79.45678,137.07683
"38089",520.19885,79.37377,136.97684
"38090",520.21216,79.293205,136.8767
"38091",520.2255,79.219955,136.78136
"38092",520.23883,79.15892,136.69594
"38093",520.2522,79.11009,136.62082
"38094",520.2655,79.078354,136.56126
"38095",520.2789,79.05394,136.50804
"38096",520.2922,79.03685,136.46138
"38097",520.30554,79.01976,136.41418
"38098",520.31885,79.00023,136.36401
"38099",520.3322,78.97337,136.30591
"38100",520.3455,78.94896,136.2494
"38101",520.3589,78.92699,136.19458
"38102",520.3722,78.93187,136.16592
"38103",520.38556,79.009995,136.21066
"38104",520.39886,79.22972,136.39944
"38105",520.41223,79.622795,136.76845
"38106",520.42554,80.164795,137.29866
"38107",520.4389,80.78493,137.92395
"38108",520.4522,81.375755,138.5393
"38109",520.4656,81.82254,139.02908
"38110",520.4789,82.056915,139.32042
"38111",520.49225,82.07889,139.40668
"38112",520.50555,81.94949,139.34225
"38113",520.5189,81.7322,139.18588
"38114",520.5322,81.4905,138.99832
"38115",520.5456,81.270775,138.82518
"38116",520.5589,81.094986,138.6891
"38117",520.57227,80.96803,138.59637
"38118",520.5856,80.87282,138.53142
"38119",520.59894,80.79225,138.47813
"38120",520.61224,80.70435,138.415
"38121",520.6256,80.59205,138.3247
"38122",520.6389,80.45289,138.20406
"38123",520.6523,80.29908,138.0644
"38124",520.6656,80.147705,137.92238
"38125",520.67896,80.01587,137.79517
"38126",520.69226,79.91821,137.698
"38127",520.7056,79.852295,137.62952
"38128",520.71893,79.815674,137.58829
"38129",520.7323,79.79126,137.5581
"38130",520.7456,79.766846,137.52716
"38131",520.759,79.7351,137.48813
"38132",520.7723,79.69848,137.44322
"38133",520.78564,79.64965,137.38496
"38134",520.79895,79.59106,137.31541
"38135",520.8123,79.517815,137.22939
"38136",520.8256,79.43969,137.13618
"38137",520.839,79.35668,137.03566
"38138",520.8523,79.273674,136.93254
"38139",520.86566,79.1931,136.82927
"38140",520.87897,79.12474,136.73569
"38141",520.89233,79.06859,136.65218
"38142",520.90564,79.01488,136.56935
"38143",520.919,78.97093,136.49461
"38144",520.9323,78.93431,136.42583
"38145",520.9457,78.907455,136.36566
"38146",520.959,78.887924,136.31198
"38147",520.97235,78.873276,136.26257
"38148",520.98566,78.85863,136.2127
"38149",520.999,78.84886,136.16727
"38150",521.0123,78.836655,136.11908
"38151",521.0257,78.819565,136.06563
"38152",521.039,78.80492,136.01408
"38153",521.05237,78.80736,135.97917
"38154",521.0657,78.86839,136.00293
"38155",521.07904,79.05638,136.15555
"38156",521.09235,79.412834,136.48251
"38157",521.1057,79.93286,136.98419
"38158",521.119,80.56031,137.60954
"38159",521.1324,81.18776,138.2545
"38160",521.1457,81.69802,138.80188
"38161",521.15906,82.003204,139.16013
"38162",521.17236,82.08621,139.30574
"38163",521.1857,81.986115,139.27084
"38164",521.19904,81.77615,139.12296
"38165",521.2124,81.5198,138.9221
"38166",521.2257,81.26345,138.71326
"38167",521.2391,81.04372,138.533
"38168",521.2524,80.87038,138.39229
"38169",521.26575,80.73853,138.28764
"38170",521.27905,80.63355,138.20575
"38171",521.2924,80.54078,138.13278
"38172",521.3057,80.43824,138.04715
"38173",521.3191,80.31861,137.94122
"38174",521.3324,80.184326,137.8169
"38175",521.34576,80.05005,137.68839
"38176",521.3591,79.92554,137.56543
"38177",521.37244,79.83276,137.47034
"38178",521.38574,79.77417,137.40652
"38179",521.3991,79.74731,137.3726
"38180",521.4124,79.7351,137.3525
"38181",521.4258,79.725334,137.33444
"38182",521.4391,79.7058,137.30632
"38183",521.45245,79.66918,137.2605
"38184",521.46576,79.61059,137.19156
"38185",521.4791,79.54223,137.11102
"38186",521.49243,79.46899,137.02347
"38187",521.5058,79.3933,136.93118
"38188",521.5191,79.32006,136.83897
"38189",521.5325,79.24925,136.74692
"38190",521.5458,79.183334,136.65753
"38191",521.55914,79.1223,136.57097
"38192",521.57245,79.06859,136.48982
"38193",521.5858,79.02464,136.41676
"38194",521.5991,78.99046,136.3521
"38195",521.6125,78.96117,136.29124
"38196",521.6258,78.93675,136.23436
"38197",521.63916,78.91722,136.1816
"38198",521.65247,78.90257,136.1331
"38199",521.66583,78.887924,136.08415
"38200",521.67914,78.87572,136.03719
"38201",521.6925,78.86595,135.99228
"38202",521.7058,78.85863,135.94951
"38203",521.7192,78.873276,135.92848
"38204",521.7325,78.94652,135.9665
"38205",521.74585,79.14671,136.13377
"38206",521.75916,79.50561,136.466
"38207",521.7725,80.01831,136.96326
"38208",521.7858,80.60914,137.55466
"38209",521.7992,81.17555,138.1401
"38210",521.8125,81.61501,138.6163
"38211",521.82587,81.85428,138.90604
"38212",521.8392,81.88602,138.99573
"38213",521.85254,81.761505,138.93016
"38214",521.86584,81.54665,138.77036
"38215",521.8792,81.29275,138.56479
"38216",521.8925,81.04372,138.35616
"38217",521.9059,80.82643,138.1715
"38218",521.9192,80.64332,138.0142
"38219",521.93256,80.48951,137.88051
"38220",521.94586,80.35279,137.7591
"38221",521.9592,80.22095,137.63828
"38222",521.97253,80.093994,137.51822
"38223",521.9859,79.971924,137.39908
"38224",521.9992,79.86694,137.29321
"38225",522.0126,79.781494,137.20361
"38226",522.0259,79.73022,137.14551
"38227",522.03925,79.710686,137.11754
"38228",522.05255,79.71313,137.11093
"38229",522.0659,79.727776,137.11661
"38230",522.0792,79.73754,137.11786
"38231",522.0926,79.7351,137.10721
"38232",522.1059,79.708244,137.07207
"38233",522.11926,79.66186,137.01656
"38234",522.13257,79.59594,136.94006
"38235",522.14594,79.517815,136.8493
"38236",522.15924,79.43725,136.75366
"38237",522.1726,79.3518,136.65062
"38238",522.1859,79.27123,136.54979
"38239",522.1993,79.200424,136.4562
"38240",522.2126,79.14427,136.37506
"38241",522.22595,79.093,136.29704
"38242",522.23926,79.04906,136.22475
"38243",522.2526,79.012436,136.1584
"38244",522.2659,78.98802,136.10312
"38245",522.2793,78.97093,136.0544
"38246",522.2926,78.96117,136.01247
"38247",522.30597,78.95384,135.97267
"38248",522.3193,78.94896,135.93509
"38249",522.33264,78.94652,135.8998
"38250",522.34595,78.97826,135.8986
"38251",522.3593,79.093,135.98141
"38252",522.3726,79.33471,136.19478
"38253",522.386,79.72045,136.55972
"38254",522.3993,80.20874,137.03928
"38255",522.41266,80.73365,137.57071
"38256",522.42596,81.19508,138.05507
"38257",522.43933,81.5198,138.41713
"38258",522.45264,81.66628,138.61111
"38259",522.466,81.651634,138.64854
"38260",522.4793,81.529564,138.5781
"38261",522.4927,81.3489,138.44524
"38262",522.506,81.146255,138.28474
"38263",522.51935,80.95827,138.13258
"38264",522.53265,80.78981,137.99408
"38265",522.546,80.64576,137.87471
"38266",522.5593,80.51148,137.76062
"38267",522.5727,80.377205,137.64233
"38268",522.586,80.24536,137.52228
"38269",522.59937,80.1062,137.39078
"38270",522.6127,79.974365,137.26227
"38271",522.62604,79.85474,137.14185
"38272",522.63934,79.764404,137.04697
"38273",522.6527,79.708244,136.98344
"38274",522.666,79.68871,136.95479
"38275",522.6794,79.693596,136.94994
"38276",522.6927,79.71313,136.95988
"38277",522.70605,79.727776,136.96556
"38278",522.71936,79.72045,136.94972
"38279",522.7327,79.691154,136.91168
"38280",522.74603,79.64233,136.8532
"38281",522.7594,79.57885,136.77853
"38282",522.7727,79.51049,136.697
"38283",522.7861,79.43969,136.6109
"38284",522.7994,79.37377,136.52747
"38285",522.81274,79.30785,136.44197
"38286",522.82605,79.24437,136.35686
"38287",522.8394,79.18822,136.27708
"38288",522.8527,79.13695,136.20044
"38289",522.8661,79.093,136.12952
"38290",522.8794,79.05882,136.06699
"38291",522.89276,79.029526,136.00827
"38292",522.90607,79.00511,135.95352
"38293",522.91943,78.99046,135.90778
"38294",522.93274,78.99046,135.87622
"38295",522.9461,79.03685,135.89105
"38296",522.9594,79.17845,136.00255
"38297",522.9728,79.46166,136.26009
"38298",522.9861,79.88159,136.6632
"38299",522.99945,80.39918,137.17708
"38300",523.01276,80.92653,137.7169
"38301",523.0261,81.373314,138.19264
"38302",523.0394,81.668724,138.53098
"38303",523.0528,81.79324,138.70764
"38304",523.0661,81.76883,138.73927
"38305",523.07947,81.64431,138.67003
"38306",523.0928,81.46853,138.54564
"38307",523.10614,81.2781,138.40111
"38308",523.11945,81.0901,138.25305
"38309",523.1328,80.921646,138.11867
"38310",523.1461,80.77272,137.99855
"38311",523.1595,80.638435,137.88841
"38312",523.1728,80.50172,137.77165
"38313",523.18616,80.365,137.65062
"38314",523.19946,80.22339,137.52042
"38315",523.2128,80.08667,137.39069
"38316",523.22614,79.96704,137.27377
"38317",523.2395,79.87427,137.17996
"38318",523.2528,79.81323,137.11499
"38319",523.2662,79.783936,137.07986
"38320",523.2795,79.77905,137.06824
"38321",523.29285,79.78638,137.06866
"38322",523.30615,79.79126,137.06686
"38323",523.3195,79.781494,137.05057
"38324",523.3328,79.7522,137.01443
"38325",523.3462,79.7058,136.9603
"38326",523.3595,79.635,136.8803
"38327",523.37286,79.554436,136.78831
"38328",523.38617,79.47387,136.69382
"38329",523.39954,79.398186,136.60168
"38330",523.41284,79.33227,136.51695
"38331",523.4262,79.27856,136.44237
"38332",523.4395,79.234604,136.37587
"38333",523.4529,79.19554,136.31288
"38334",523.4662,79.15648,136.24867
"38335",523.47955,79.11742,136.18324
"38336",523.49286,79.08324,136.12148
"38337",523.5062,79.0515,136.06108
"38338",523.51953,79.027084,136.00702
"38339",523.5329,79.03441,135.98393
"38340",523.5462,79.13451,136.05385
"38341",523.5596,79.37133,136.26363
"38342",523.5729,79.76929,136.64194
"38343",523.58624,80.29664,137.16208
"38344",523.59955,80.88258,137.7573
"38345",523.6129,81.4197,138.32199
"38346",523.6262,81.812775,138.75943
"38347",523.6396,82.00809,139.0114
"38348",523.6529,82.02762,139.09369
"38349",523.66626,81.90799,139.03743
"38350",523.67957,81.70779,138.89685
"38351",523.69293,81.480736,138.72318
"38352",523.70624,81.27322,138.56194
"38353",523.7196,81.0901,138.41861
"38354",523.7329,80.94362,138.3062
"38355",523.7463,80.82155,138.21362
"38356",523.7596,80.706795,138.12454
"38357",523.77295,80.58228,138.02213
"38358",523.78625,80.445564,137.90361
"38359",523.7996,80.30152,137.7735
"38360",523.8129,80.164795,137.6462
"38361",523.8263,80.03784,137.52438
"38362",523.8396,79.937744,137.42548
"38363",523.85297,79.869385,137.35516
"38364",523.8663,79.83276,137.31445
"38365",523.87964,79.823,137.29947
"38366",523.89294,79.818115,137.28906
"38367",523.9063,79.80835,137.27362
"38368",523.9196,79.783936,137.24323
"38369",523.933,79.73266,137.1852
"38370",523.9463,79.6643,137.10847
"38371",523.95966,79.588615,137.0223
"38372",523.97296,79.51293,136.93375
"38373",523.9863,79.44213,136.84772
"38374",523.99963,79.36889,136.75703
"38375",524.013,79.29809,136.6665
"38376",524.0263,79.22972,136.5762
"38377",524.0397,79.166245,136.48865
"38378",524.053,79.10765,136.40399
"38379",524.06635,79.063705,136.33215
"38380",524.07965,79.029526,136.2687
"38381",524.09296,79.00023,136.20908
"38382",524.10626,78.975815,136.15341
"38383",524.11957,78.95628,136.10187
"38384",524.1329,78.96605,136.07901
"38385",524.1462,79.061264,136.1419
"38386",524.1595,79.29809,136.3494
"38387",524.1728,79.708244,136.73761
"38388",524.1861,80.2649,137.28514
"38389",524.1994,80.89479,137.92331
"38390",524.2127,81.48318,138.53966
"38391",524.226,81.9202,139.02303
"38392",524.2393,82.14725,139.31009
"38393",524.2526,82.176544,139.4065
"38394",524.2659,82.04715,139.34512
"38395",524.27924,81.82742,139.18938
"38396",524.29254,81.583275,139.00233
"38397",524.30585,81.35378,138.82233
"38398",524.31915,81.15114,138.66199
"38399",524.33246,80.99733,138.54416
"38400",524.34576,80.87526,138.45326
"38401",524.3591,80.76784,138.3732
"38402",524.3724,80.65308,138.28244
"38403",524.3857,80.53101,138.18079
"38404",524.399,80.394295,138.06067
"38405",524.4123,80.25269,137.9314
"38406",524.4256,80.12085,137.80745
"38407",524.4389,80.008545,137.69891
"38408",524.4522,79.923096,137.61374
"38409",524.4655,79.86206,137.5503
"38410",524.4788,79.82544,137.50937
"38411",524.4921,79.801025,137.47949
"38412",524.50543,79.781494,137.45374
"38413",524.51874,79.75708,137.42249
"38414",524.53204,79.71557,137.37338
"38415",524.54535,79.65453,137.30345
"38416",524.55865,79.57397,137.21208
"38417",524.57196,79.483635,137.10843
"38418",524.58527,79.38842,136.99707
"38419",524.5986,79.30053,136.89006
"38420",524.6119,79.217514,136.78519
"38421",524.6252,79.14427,136.68748
"38422",524.6385,79.080795,136.59726
"38423",524.6518,79.02464,136.51237
"38424",524.6651,78.975815,136.43306
"38425",524.6784,78.93919,136.36443
"38426",524.6917,78.91478,136.30685
"38427",524.705,78.89525,136.2534
"38428",524.7183,78.87816,136.20178
"38429",524.7316,78.85863,136.14719
"38430",524.74493,78.839096,136.09198
"38431",524.75824,78.819565,136.03616
"38432",524.77155,78.82445,136.00415
"38433",524.78485,78.905014,136.04797
"38434",524.79816,79.12474,136.23347
"38435",524.81146,79.520256,136.60164
"38436",524.82477,80.076904,137.1433
"38437",524.8381,80.72144,137.79024
"38438",524.8514,81.34402,138.43536
"38439",524.8647,81.829865,138.96321
"38440",524.878,82.1033,139.29384
"38441",524.8913,82.161896,139.41817
"38442",524.9046,82.04959,139.37343
"38443",524.9179,81.83719,139.22508
"38444",524.9312,81.58572,139.03102
"38445",524.9445,81.34402,138.83888
"38446",524.9578,81.13893,138.6758
"38447",524.9711,80.9778,138.55026
"38448",524.98444,80.86061,138.46364
"38449",524.99774,80.765396,138.39532
"38450",525.01105,80.66773,138.32158
"38451",525.02435,80.550545,138.22527
"38452",525.03766,80.40894,138.10088
"38453",525.05096,80.255135,137.95985
"38454",525.0643,80.10376,137.81645
"38455",525.0776,79.974365,137.6903
"38456",525.0909,79.88159,137.59674
"38457",525.1042,79.823,137.53445
"38458",525.1175,79.79126,137.4972
"38459",525.1308,79.77173,137.47113
"38460",525.1441,79.74975,137.44202
"38461",525.1574,79.71801,137.40245
"38462",525.1707,79.67162,137.34724
"38463",525.184,79.60815,137.2735
"38464",525.1973,79.53246,137.18556
"38465",525.21063,79.447014,137.0855
"38466",525.22394,79.35668,136.97787
"38467",525.23724,79.26879,136.86987
"38468",525.25055,79.18822,136.76645
"38469",525.26385,79.114975,136.66783
"38470",525.27716,79.05394,136.57913
"38471",525.29047,79.00755,136.50317
"38472",525.3038,78.97093,136.43553
"38473",525.3171,78.93675,136.36919
"38474",525.3304,78.90257,136.30177
"38475",525.3437,78.86839,136.23329
"38476",525.357,78.836655,136.16618
"38477",525.3703,78.8098,136.10297
"38478",525.3836,78.785385,136.04135
"38479",525.3969,78.765854,135.98386
"38480",525.4102,78.75365,135.93307
"38481",525.4235,78.75365,135.89412
"38482",525.4368,78.802475,135.90399
"38483",525.45013,78.96117,136.02525
"38484",525.46344,79.27856,136.31018
"38485",525.47675,79.764404,136.77348
"38486",525.49005,80.36744,137.36916
"38487",525.50336,80.99245,138.00565
"38488",525.51666,81.52224,138.56645
"38489",525.52997,81.86893,138.96071
"38490",525.5433,81.99832,139.14851
"38491",525.5566,81.93973,139.15237
"38492",525.5699,81.75418,139.02745
"38493",525.5832,81.50759,138.83568
"38494",525.5965,81.248795,138.624
"38495",525.6098,81.01198,138.42621
"38496",525.6231,80.816666,138.26253
"38497",525.6364,80.66285,138.13423
"38498",525.6497,80.54322,138.03532
"38499",525.663,80.43824,137.94733
"38500",525.67633,80.33326,137.85605
"38501",525.68964,80.218506,137.75171
"38502",525.70294,80.093994,137.63403
"38503",525.71625,79.974365,137.51733
"38504",525.72955,79.86694,137.40912
"38505",525.74286,79.783936,137.32196
"38506",525.75616,79.727776,137.25905
"38507",525.7695,79.693596,137.21635
"38508",525.7828,79.67162,137.1848
"38509",525.7961,79.64965,137.15256
"38510",525.8094,79.62035,137.1123
"38511",525.8227,79.57885,137.05893
"38512",525.836,79.5227,136.98961
"38513",525.8493,79.45678,136.90877
"38514",525.8626,79.38598,136.82098
"38515",525.8759,79.31518,136.73099
"38516",525.8892,79.23949,136.6339
"38517",525.9025,79.16136,136.532
"38518",525.91583,79.09056,136.43498
"38519",525.92914,79.027084,136.34308
"38520",525.94244,78.97337,136.25896
"38521",525.95575,78.93675,136.19025
"38522",525.96906,78.91234,136.1326
"38523",525.98236,78.89769,136.08395
"38524",525.99567,78.887924,136.03973
"38525",526.009,78.87816,135.99521
"38526",526.0223,78.86595,135.94794
"38527",526.0356,78.8513,135.89784
"38528",526.0489,78.836655,135.84729
"38529",526.0622,78.82445,135.79872
"38530",526.0755,78.82689,135.76442
"38531",526.0888,78.88304,135.7839
"38532",526.1021,79.04173,135.90768
"38533",526.1154,79.35424,136.19025
"38534",526.1287,79.83032,136.64615
"38535",526.142,80.41627,137.22679
"38536",526.15533,81.0193,137.84283
"38537",526.16864,81.53445,138.38983
"38538",526.18195,81.86893,138.77226
"38539",526.19525,81.991,138.95274
"38540",526.20856,81.92508,138.94905
"38541",526.22186,81.73464,138.81877
"38542",526.23517,81.478294,138.61664
"38543",526.2485,81.21217,138.39671
"38544",526.2618,80.96559,138.18802
"38545",526.2751,80.76051,138.01312
"38546",526.2884,80.59449,137.87086
"38547",526.3017,80.45777,137.75273
"38548",526.315,80.34058,137.64986
"38549",526.3283,80.22095,137.54086
"38550",526.3416,80.10376,137.43057
"38551",526.3549,79.991455,137.3215
"38552",526.3682,79.89136,137.22113
"38553",526.38153,79.81323,137.13962
"38554",526.39484,79.766846,137.0874
"38555",526.40814,79.75464,137.0679
"38556",526.42145,79.764404,137.07
"38557",526.43475,79.781494,137.07974
"38558",526.44806,79.78882,137.08023
"38559",526.46136,79.77417,137.05899
"38560",526.4747,79.73022,137.00798
"38561",526.488,79.66918,136.9385
"38562",526.5013,79.5935,136.85248
"38563",526.5146,79.51293,136.7592
"38564",526.5279,79.43481,136.66585
"38565",526.5412,79.35668,136.57005
"38566",526.5545,79.28344,136.4767
"38567",526.5678,79.217514,136.38838
"38568",526.5811,79.16136,136.30777
"38569",526.5944,79.114975,136.23517
"38570",526.6077,79.07347,136.166
"38571",526.62103,79.04173,136.1053
"38572",526.63434,79.01732,136.05093
"38573",526.64764,79.00267,136.00557
"38574",526.66095,78.99046,135.96219
"38575",526.67426,78.97826,135.91843
"38576",526.68756,78.97826,135.88649
"38577",526.70087,79.03685,135.91315
"38578",526.7142,79.20775,136.05394
"38579",526.7275,79.52758,136.34901
"38580",526.7408,79.991455,136.79813
"38581",526.7541,80.54322,137.34962
"38582",526.7674,81.08522,137.9086
"38583",526.7807,81.52224,138.37953
"38584",526.794,81.78104,138.6859
"38585",526.8073,81.85184,138.81236
"38586",526.8206,81.76883,138.78723
"38587",526.8339,81.583275,138.65695
"38588",526.8472,81.35134,138.4745
"38589",526.86053,81.109634,138.27502
"38590",526.87384,80.88991,138.08998
"38591",526.88715,80.70191,137.9298
"38592",526.90045,80.53834,137.78816
"38593",526.91376,80.38941,137.65607
"38594",526.92706,80.25025,137.52908
"38595",526.94037,80.11597,137.40262
"38596",526.9537,79.98901,137.2793
"38597",526.967,79.88403,137.17398
"38598",526.9803,79.81079,137.0971
"38599",526.9936,79.77417,137.05457
"38600",527.0069,79.77905,137.0524
"38601",527.0202,79.80835,137.0748
"38602",527.0335,79.84009,137.10056
"38603",527.0468,79.8645,137.11996
"38604",527.0601,79.8645,137.11572
"38605",527.0734,79.835205,137.08218
"38606",527.08673,79.77905,137.02087
"38607",527.10004,79.710686,136.9456
"38608",527.11334,79.635,136.86087
"38609",527.12665,79.55932,136.77377
"38610",527.13995,79.48852,136.6892
"38611",527.15326,79.42016,136.60484
"38612",527.16656,79.35424,136.5208
"38613",527.1799,79.28832,136.4347
"38614",527.1932,79.22484,136.34897
"38615",527.2065,79.17113,136.27103
"38616",527.2198,79.132065,136.20605
"38617",527.2331,79.10277,136.14963
"38618",527.2464,79.07591,136.09473
"38619",527.2597,79.05882,136.04875
"38620",527.273,79.061264,136.02177
"38621",527.2863,79.11253,136.0437
"38622",527.2996,79.26635,136.16978
"38623",527.3129,79.55932,136.43982
"38624",527.32623,79.98657,136.8533
"38625",527.33954,80.49683,137.36314
"38626",527.35284,81.00954,137.89137
"38627",527.36615,81.43923,138.35262
"38628",527.37946,81.71755,138.67592
"38629",527.39276,81.829865,138.8419
"38630",527.40607,81.80057,138.8698
"38631",527.4194,81.67361,138.7991
"38632",527.4327,81.497826,138.67563
"38633",527.446,81.31228,138.5369
"38634",527.4593,81.13161,138.39723
"38635",527.4726,80.96559,138.26659
"38636",527.4859,80.81178,138.14296
"38637",527.4992,80.66285,138.0194
"38638",527.5125,80.51392,137.89119
"38639",527.5258,80.36988,137.76321
"38640",527.5391,80.233154,137.63805
"38641",527.5524,80.10864,137.52081
"38642",527.56573,80.0061,137.42166
"38643",527.57904,79.93286,137.3486
"38644",527.59235,79.8938,137.30743
"38645",527.60565,79.88403,137.29434
"38646",527.61896,79.89624,137.30292
"38647",527.63226,79.91577,137.31921
"38648",527.64557,79.91821,137.31903
"38649",527.6589,79.89624,137.2945
"38650",527.6722,79.84741,137.24243
"38651",527.6855,79.77905,137.16931
"38652",527.6988,79.69848,137.08183
"38653",527.7121,79.61547,136.9894
"38654",527.7254,79.53246,136.89436
"38655",527.7387,79.45434,136.80162
"38656",527.752,79.381096,136.71132
"38657",527.7653,79.32006,136.63094
"38658",527.7786,79.26391,136.55353
"38659",527.79193,79.217514,136.48413
"38660",527.80524,79.17357,136.41573
"38661",527.81854,79.13695,136.35327
"38662",527.83185,79.10765,136.297
"38663",527.84515,79.10765,136.2691
"38664",527.85846,79.17601,136.30957
"38665",527.87177,79.364006,136.47182
"38666",527.8851,79.691154,136.77908
"38667",527.8984,80.14526,137.22354
"38668",527.9117,80.67017,137.75299
"38669",527.925,81.17311,138.27687
"38670",527.9383,81.56863,138.70905
"38671",527.9516,81.79813,138.98756
"38672",527.9649,81.8616,139.10724
"38673",527.9782,81.7908,139.09462
"38674",527.9915,81.63943,138.9992
"38675",528.0048,81.45144,138.86246
"38676",528.0181,81.26589,138.72227
"38677",528.03143,81.09743,138.59337
"38678",528.04474,80.953384,138.48363
"38679",528.05804,80.82155,138.38159
"38680",528.07135,80.69215,138.27786
"38681",528.08466,80.552986,138.16034
"38682",528.09796,80.40894,138.03358
"38683",528.11127,80.26246,137.89989
"38684",528.1246,80.12329,137.76892
"38685",528.1379,80.008545,137.65802
"38686",528.1512,79.923096,137.57285
"38687",528.1645,79.871826,137.51917
"38688",528.1778,79.84985,137.4932
"38689",528.1911,79.84985,137.4885
"38690",528.2044,79.85718,137.49112
"38691",528.2177,79.85474,137.48422
"38692",528.231,79.82788,137.45282
"38693",528.2443,79.77417,137.39374
"38694",528.2576,79.69848,137.31099
"38695",528.27094,79.61059,137.21367
"38696",528.28424,79.5227,137.1136
"38697",528.29755,79.43725,137.01323
"38698",528.31085,79.35424,136.91263
"38699",528.32416,79.281,136.8192
"38700",528.33746,79.22484,136.74057
"38701",528.35077,79.17113,136.66263
"38702",528.3641,79.12962,136.59521
"38703",528.3774,79.09056,136.52895
"38704",528.3907,79.0515,136.46146
"38705",528.404,79.009995,136.3903
"38706",528.4173,78.98314,136.3325
"38707",528.4306,79.00023,136.31781
"38708",528.4439,79.11986,136.40619
"38709",528.4572,79.398186,136.65701
"38710",528.4705,79.835205,137.07523
"38711",528.4838,80.396736,137.6316
"38712",528.49713,80.99245,138.23972
"38713",528.51044,81.5198,138.79808
"38714",528.52374,81.87625,139.20203
"38715",528.53705,82.0325,139.41692
"38716",528.55035,82.01053,139.45847
"38717",528.56366,81.864044,139.37482
"38718",528.57697,81.64675,139.21577
"38719",528.5903,81.41726,139.03775
"38720",528.6036,81.20973,138.87451
"38721",528.6169,81.041275,138.74387
"38722",528.6302,80.907,138.64214
"38723",528.6435,80.79469,138.55818
"38724",528.6568,80.689705,138.47803
"38725",528.6701,80.567635,138.37752
"38726",528.6834,80.430916,138.25854
"38727",528.6967,80.27955,138.12065
"38728",528.71,80.13794,137.98778
"38729",528.7233,80.01343,137.86758
"38730",528.73663,79.920654,137.77524
"38731",528.74994,79.85474,137.70685
"38732",528.76324,79.815674,137.66324
"38733",528.77655,79.78882,137.63062
"38734",528.78986,79.76929,137.60449
"38735",528.80316,79.742424,137.57042
"38736",528.81647,79.70092,137.52086
"38737",528.8298,79.64233,137.45291
"38738",528.8431,79.56664,137.36604
"38739",528.8564,79.483635,137.26949
"38740",528.8697,79.398186,137.1679
"38741",528.883,79.31274,137.06363
"38742",528.8963,79.23216,136.96158
"38743",528.9096,79.16136,136.86678
"38744",528.9229,79.10277,136.78197
"38745",528.9362,79.0515,136.70265
"38746",528.9495,79.009995,136.6315
"38747",528.9628,78.975815,136.56638
"38748",528.97614,78.941635,136.50018
"38749",528.98944,78.907455,136.43292
"38750",529.00275,78.87572,136.36703
"38751",529.01605,78.84398,136.30016
"38752",529.02936,78.819565,136.23961
"38753",529.04266,78.8098,136.19295
"38754",529.05597,78.853745,136.19969
"38755",529.0693,79.009995,136.32011
"38756",529.0826,79.3225,136.60168
"38757",529.0959,79.80347,137.06148
"38758",529.1092,80.40162,137.65349
"38759",529.1225,81.01686,138.28128
"38760",529.1358,81.53689,138.83308
"38761",529.1491,81.87625,139.22047
"38762",529.1624,82.00076,139.40363
"38763",529.1757,81.94461,139.41
"38764",529.189,81.76883,139.295
"38765",529.20233,81.54421,139.12566
"38766",529.21564,81.3196,138.94931
"38767",529.22894,81.129166,138.80011
"38768",529.24225,80.98268,138.68892
"38769",529.25555,80.8777,138.61465
"38770",529.26886,80.78981,138.5542
"38771",529.28217,80.69459,138.48366
"38772",529.2955,80.57496,138.38574
"38773",529.3088,80.428474,138.25723
"38774",529.3221,80.26978,138.11194
"38775",529.3354,80.111084,137.96167
"38776",529.3487,79.974365,137.82843
"38777",529.362,79.87427,137.72754
"38778",529.3753,79.80835,137.65768
"38779",529.3886,79.76196,137.60532
"38780",529.4019,79.73022,137.56613
"38781",529.4152,79.708244,137.53572
"38782",529.4285,79.67895,137.4973
"38783",529.44183,79.63744,137.44576
"38784",529.45514,79.58129,137.37827
"38785",529.46844,79.51537,137.29926
"38786",529.48175,79.43725,137.20598
"38787",529.49506,79.3518,137.10294
"38788",529.50836,79.26391,136.99478
"38789",529.52167,79.18089,136.88876
"38790",529.535,79.10033,136.7826
"38791",529.5483,79.029526,136.68367
"38792",529.5616,78.97093,136.59474
"38793",529.5749,78.924545,136.51619
"38794",529.5882,78.890366,136.4484
"38795",529.6015,78.86351,136.38686
"38796",529.6148,78.84398,136.3318
"38797",529.6281,78.82201,136.2737
"38798",529.6414,78.79759,136.21246
"38799",529.6547,78.77318,136.15047
"38800",529.668,78.75365,136.09259
"38801",529.68134,78.73655,136.03654
"38802",529.69464,78.72434,135.98485
"38803",529.70795,78.7219,135.94254
"38804",529.72125,78.751205,135.9319
"38805",529.73456,78.85863,136.00029
"38806",529.74786,79.097885,136.20387
"38807",529.76117,79.50561,136.5834
"38808",529.7745,80.05737,137.11972
"38809",529.7878,80.67994,137.74408
"38810",529.8011,81.26345,138.34885
"38811",529.8144,81.69558,138.82047
"38812",529.8277,81.92264,139.10051
"38813",529.841,81.94217,139.18013
"38814",529.8543,81.812775,139.11143
"38815",529.8676,81.59792,138.95323
"38816",529.8809,81.358665,138.76392
"38817",529.8942,81.129166,138.57687
"38818",529.90753,80.94118,138.42418
"38819",529.92084,80.797134,138.30956
"38820",529.93414,80.68726,138.2246
"38821",529.94745,80.58961,138.14842
"38822",529.96075,80.48707,138.06432
"38823",529.97406,80.36988,137.96236
"38824",529.98737,80.23071,137.83475
"38825",530.0007,80.08667,137.6979
"38826",530.014,79.95239,137.56635
"38827",530.0273,79.84497,137.45743
"38828",530.0406,79.76929,137.37689
"38829",530.0539,79.725334,137.32573
"38830",530.0672,79.70092,137.29272
"38831",530.0805,79.691154,137.2736
"38832",530.0938,79.67895,137.25174
"38833",530.1071,79.65209,137.21484
"38834",530.1204,79.60815,137.16002
"38835",530.1337,79.54711,137.08673
"38836",530.14703,79.47143,136.99689
"38837",530.16034,79.39086,136.8998
"38838",530.17365,79.310295,136.80019
"38839",530.18695,79.23216,136.7005
"38840",530.20026,79.16136,136.6057
"38841",530.21356,79.093,136.51112
"38842",530.22687,79.03685,136.42662
"38843",530.2402,78.98558,136.34525
"38844",530.2535,78.94652,136.27448
"38845",530.2668,78.91722,136.21225
"38846",530.2801,78.89525,136.15643
"38847",530.2934,78.8806,136.10725
"38848",530.3067,78.86839,136.06006
"38849",530.32,78.856186,136.01248
"38850",530.3333,78.839096,135.95964
"38851",530.3466,78.82933,135.91359
"38852",530.3599,78.819565,135.86723
"38853",530.3732,78.81468,135.82545
"38854",530.38654,78.82201,135.79573
"38855",530.39984,78.86839,135.8053
"38856",530.41315,79.00023,135.90176
"38857",530.42645,79.26147,136.13176
"38858",530.43976,79.66918,136.51639
"38859",530.45306,80.18921,137.02608
"38860",530.4664,80.740974,137.58376
"38861",530.4797,81.22194,138.08788
"38862",530.493,81.55886,138.46298
"38863",530.5063,81.705345,138.65819
"38864",530.5196,81.68093,138.68707
"38865",530.5329,81.53689,138.59557
"38866",530.5462,81.32937,138.43608
"38867",530.5595,81.10231,138.25056
"38868",530.5728,80.88991,138.07262
"38869",530.5861,80.709236,137.91975
"38870",530.5994,80.56031,137.793
"38871",530.61273,80.4358,137.686
"38872",530.62604,80.31617,137.58
"38873",530.63934,80.19409,137.4678
"38874",530.65265,80.06714,137.34692
"38875",530.66595,79.94507,137.22696
"38876",530.67926,79.84253,137.12271
"38877",530.69257,79.76929,137.04456
"38878",530.7059,79.73022,136.99828
"38879",530.7192,79.72045,136.98007
"38880",530.7325,79.73266,136.98354
"38881",530.7458,79.74731,136.98982
"38882",530.7591,79.7522,136.98682
"38883",530.7724,79.742424,136.9693
"38884",530.7857,79.708244,136.92706
"38885",530.799,79.656975,136.86667
"38886",530.8123,79.588615,136.78758
"38887",530.8256,79.51049,136.6966
"38888",530.8389,79.43481,136.6056
"38889",530.85223,79.35912,136.51225
"38890",530.86554,79.28588,136.41898
"38891",530.87885,79.219955,136.33073
"38892",530.89215,79.166245,136.25264
"38893",530.90546,79.1223,136.18263
"38894",530.91876,79.08812,136.12102
"38895",530.93207,79.063705,136.0681
"38896",530.9454,79.044174,136.0193
"38897",530.9587,79.027084,135.97234
"38898",530.972,79.012436,135.92728
"38899",530.9853,78.99779,135.88176
"38900",530.9986,78.98802,135.84067
"38901",531.0119,79.00023,135.82124
"38902",531.0252,79.07347,135.86324
"38903",531.0385,79.24925,136.01006
"38904",531.0518,79.55688,136.29422
"38905",531.0651,79.98169,136.70518
"38906",531.0784,80.465096,137.18802
"38907",531.09174,80.92897,137.66643
"38908",531.10504,81.290306,138.0568
"38909",531.11835,81.50515,138.31197
"38910",531.13165,81.5613,138.41516
"38911",531.14496,81.50027,138.40292
"38912",531.15826,81.36843,138.31798
"38913",531.1716,81.20485,138.19716
"38914",531.1849,81.03883,138.0688
"38915",531.1982,80.88991,137.95235
"38916",531.2115,80.75563,137.84589
"38917",531.2248,80.63355,137.74742
"38918",531.2381,80.51148,137.64516
"38919",531.2514,80.37965,137.52931
"38920",531.2647,80.24292,137.40445
"38921",531.278,80.111084,137.28021
"38922",531.2913,79.991455,137.16406
"38923",531.3046,79.8938,137.06613
"38924",531.31793,79.83032,136.99933
"38925",531.33124,79.80591,136.9696
"38926",531.34454,79.80835,136.96597
"38927",531.35785,79.82056,136.9722
"38928",531.37115,79.835205,136.98123
"38929",531.38446,79.83276,136.97363
"38930",531.39777,79.80835,136.944
"38931",531.4111,79.76196,136.89163
"38932",531.4244,79.70336,136.82559
"38933",531.4377,79.63256,136.74551
"38934",531.451,79.55688,136.65834
"38935",531.4643,79.47875,136.56636
"38936",531.4776,79.40551,136.47682
"38937",531.4909,79.33959,136.39232
"38938",531.5042,79.281,136.31308
"38939",531.5175,79.23216,136.24178
"38940",531.5308,79.1931,136.17871
"38941",531.5441,79.15892,136.11931
"38942",531.55743,79.12718,136.06128
"38943",531.57074,79.10277,136.00958
"38944",531.58405,79.080795,135.95956
"38945",531.59735,79.063705,135.91374
"38946",531.61066,79.05882,135.8796
"38947",531.62396,79.097885,135.88924
"38948",531.63727,79.234604,135.99776
"38949",531.6506,79.50317,136.2424
"38950",531.6639,79.90845,136.63216
"38951",531.6772,80.41627,137.13712
"38952",531.6905,80.94606,137.67992
"38953",531.7038,81.40505,138.16847
"38954",531.7171,81.722435,138.52977
"38955",531.7304,81.87137,138.73253
"38956",531.7437,81.87137,138.79102
"38957",531.757,81.761505,138.73964
"38958",531.7703,81.59548,138.62866
"38959",531.7836,81.40749,138.49054
"38960",531.79694,81.22926,138.3563
"38961",531.81024,81.07301,138.23846
"38962",531.82355,80.94118,138.14017
"38963",531.83685,80.82155,138.04996
"38964",531.85016,80.69947,137.95355
"38965",531.86346,80.570076,137.84602
"38966",531.8768,80.43336,137.72713
"38967",531.8901,80.289314,137.59663
"38968",531.9034,80.15991,137.47627
"38969",531.9167,80.05493,137.37628
"38970",531.93,79.97681,137.29987
"38971",531.9433,79.93042,137.25275
"38972",531.9566,79.91089,137.23105
"38973",531.9699,79.903564,137.22095
"38974",531.9832,79.89624,137.2106
"38975",531.9965,79.88403,137.19516
"38976",532.0098,79.852295,137.15979
"38977",532.02313,79.801025,137.10391
"38978",532.03644,79.73754,137.03421
"38979",532.04974,79.66186,136.95032
"38980",532.06305,79.58373,136.86162
"38981",532.07635,79.50805,136.77292
"38982",532.08966,79.43481,136.6843
"38983",532.10297,79.364006,136.59583
"38984",532.1163,79.30053,136.51247
"38985",532.1296,79.24437,136.43445
"38986",532.1429,79.19554,136.362
"38987",532.1562,79.151596,136.29291
"38988",532.1695,79.11742,136.23221
"38989",532.1828,79.08568,136.17288
"38990",532.1961,79.05638,136.115
"38991",532.2094,79.027084,136.05621
"38992",532.2227,79.00511,136.00383
"38993",532.236,79.01488,135.9825
"38994",532.2493,79.11742,136.05424
"38995",532.26263,79.35912,136.26837
"38996",532.27594,79.76929,136.65851
"38997",532.28925,80.31861,137.20062
"38998",532.30255,80.92897,137.82094
"38999",532.31586,81.4905,138.4115
"39000",532.32916,81.91043,138.878
"39001",532.34247,82.1326,139.15988
"39002",532.3558,82.16678,139.26071
"39003",532.3691,82.054474,139.21613
"39004",532.3824,81.8616,139.08746
"39005",532.3957,81.63943,138.92346
"39006",532.409,81.42458,138.75986
"39007",532.4223,81.23903,138.61882
"39008",532.4356,81.0901,138.50862
"39009",532.4489,80.96803,138.42062
"39010",532.4622,80.85573,138.33858
"39011",532.4755,80.743416,138.253
"39012",532.48883,80.62379,138.15662
"39013",532.50214,80.49195,138.04428
"39014",532.51544,80.360115,137.92783
"39015",532.52875,80.235596,137.81456
"39016",532.54205,80.1355,137.72183
"39017",532.55536,80.059814,137.65039
"39018",532.56866,80.008545,137.60098
"39019",532.582,79.97681,137.56952
"39020",532.5953,79.957275,137.54926
"39021",532.6086,79.93286,137.5235
"39022",532.6219,79.89868,137.48721
"39023",532.6352,79.84741,137.43277
"39024",532.6485,79.77905,137.35965
"39025",532.6618,79.69604,137.26973
"39026",532.6751,79.603264,137.16745
"39027",532.6884,79.50805,137.05983
"39028",532.7017,79.412834,136.94923
"39029",532.715,79.32494,136.84299
"39030",532.72833,79.23949,136.73643
"39031",532.74164,79.1638,136.63698
"39032",532.75494,79.10033,136.54736
"39033",532.76825,79.046616,136.46553
"39034",532.78156,79.00755,136.39667
"39035",532.79486,78.975815,136.33391
"39036",532.80817,78.95384,136.27992
"39037",532.8215,78.93431,136.22769
"39038",532.8348,78.91234,136.17241
"39039",532.8481,78.890366,136.11644
"39040",532.8614,78.873276,136.06467
"39041",532.8747,78.887924,136.0441
"39042",532.888,78.992905,136.11432
"39043",532.9013,79.24437,136.3343
"39044",532.9146,79.67162,136.73795
"39045",532.9279,80.24292,137.29898
"39046",532.9412,80.88014,137.94379
"39047",532.9545,81.47585,138.567
"39048",532.96783,81.92508,139.06235
"39049",532.98114,82.16678,139.36421
"39050",532.99445,82.210724,139.47588
"39051",533.00775,82.1033,139.43755
"39052",533.02106,81.900665,139.30064
"39053",533.03436,81.66628,139.12566
"39054",533.04767,81.43923,138.95068
"39055",533.061,81.248795,138.80522
"39056",533.0743,81.09743,138.69289
"39057",533.0876,80.98024,138.61
"39058",533.1009,80.87526,138.53566
"39059",533.1142,80.76784,138.4556
"39060",533.1275,80.64332,138.35507
"39061",533.1408,80.50416,138.23602
"39062",533.1541,80.35523,138.10286
"39063",533.1674,80.21362,137.97235
"39064",533.1807,80.093994,137.8594
"39065",533.19403,80.0061,137.77444
"39066",533.20734,79.94263,137.71115
"39067",533.22064,79.903564,137.67029
"39068",533.23395,79.869385,137.63309
"39069",533.24725,79.835205,137.59482
"39070",533.26056,79.79126,137.54572
"39071",533.27386,79.742424,137.49036
"39072",533.2872,79.67895,137.41882
"39073",533.3005,79.603264,137.3331
"39074",533.3138,79.51537,137.2328
"39075",533.3271,79.42016,137.12244
"39076",533.3404,79.31762,137.00177
"39077",533.3537,79.21263,136.87546
"39078",533.367,79.11986,136.75807
"39079",533.3803,79.046616,136.65732
"39080",533.3936,78.98802,136.56892
"39081",533.4069,78.94652,136.49579
"39082",533.4202,78.91234,136.42868
"39083",533.43353,78.87816,136.3605
"39084",533.44684,78.84398,136.29126
"39085",533.46014,78.802475,136.21362
"39086",533.47345,78.76341,136.13713
"39087",533.48676,78.72678,136.06186
"39088",533.50006,78.69993,135.99521
"39089",533.51337,78.695045,135.94969
"39090",533.5267,78.74876,135.96262
"39091",533.54,78.91966,136.09442
"39092",533.5533,79.24681,136.3878
"39093",533.5666,79.73754,136.855
"39094",533.5799,80.34058,137.44983
"39095",533.5932,80.96559,138.08548
"39096",533.6065,81.50271,138.65277
"39097",533.6198,81.86893,139.06595
"39098",533.6331,82.03006,139.28549
"39099",533.6464,82.00809,139.32697
"39100",533.6597,81.85428,139.23592
"39101",533.67303,81.62966,139.06924
"39102",533.68634,81.38552,138.87604
"39103",533.69965,81.15114,138.68495
"39104",533.71295,80.9485,138.5183
"39105",533.72626,80.78493,138.38437
"39106",533.73956,80.65308,138.27705
"39107",533.75287,80.533455,138.17784
"39108",533.7662,80.41627,138.07733
"39109",533.7795,80.291756,137.96584
"39110",533.7928,80.16235,137.84555
"39111",533.8061,80.0354,137.72366
"39112",533.8194,79.92798,137.61734
