"","Time..s.","PPG.trace","Preprocessed.PPG"
"3143",53.535652,80.15015,147.04086
"3144",53.54899,80.10132,146.99673
"3145",53.562325,80.05737,146.95596
"3146",53.575645,80.01099,146.91138
"3147",53.58898,79.95972,146.86044
"3148",53.602318,79.90112,146.8006
"3149",53.615654,79.84009,146.73648
"3150",53.62899,79.76929,146.66068
"3151",53.64231,79.691154,146.57533
"3152",53.655647,79.61059,146.4851
"3153",53.668983,79.52758,146.38992
"3154",53.682304,79.43969,146.28726
"3155",53.69564,79.35424,146.1843
"3156",53.708977,79.27856,146.08842
"3157",53.722313,79.21263,145.99995
"3158",53.73565,79.15892,145.92163
"3159",53.74897,79.1223,145.85872
"3160",53.762306,79.097885,145.80687
"3161",53.775642,79.08324,145.76402
"3162",53.788963,79.07103,145.72316
"3163",53.8023,79.05882,145.68192
"3164",53.815636,79.044174,145.63785
"3165",53.82897,79.03197,145.59576
"3166",53.842308,79.01976,145.5533
"3167",53.85563,79.012436,145.51534
"3168",53.868965,79.00511,145.47714
"3169",53.8823,79.00267,145.4436
"3170",53.895622,78.99779,145.40755
"3171",53.90896,78.995346,145.37378
"3172",53.922295,78.995346,145.34238
"3173",53.93563,78.992905,145.30853
"3174",53.948967,78.99046,145.27461
"3175",53.962288,78.98558,145.23817
"3176",53.975624,78.975815,145.1967
"3177",53.98896,78.96605,145.15492
"3178",54.00228,78.958725,145.11528
"3179",54.015617,78.95384,145.07785
"3180",54.028954,78.96361,145.05492
"3181",54.04229,79.02464,145.08356
"3182",54.055626,79.183334,145.21176
"3183",54.068947,79.48608,145.48898
"3184",54.082283,79.937744,145.92459
"3185",54.09562,80.48951,146.47441
"3186",54.10894,81.058365,147.05856
"3187",54.122276,81.53689,147.57016
"3188",54.135612,81.85672,147.93802
"3189",54.14895,81.99832,148.13765
"3190",54.162285,81.986115,148.1879
"3191",54.175606,81.87625,148.1401
"3192",54.188942,81.71755,148.04004
"3193",54.20228,81.55154,147.9277
"3194",54.2156,81.40261,147.82727
"3195",54.228935,81.28542,147.75392
"3196",54.24227,81.20729,147.71596
"3197",54.255608,81.16823,147.71463
"3198",54.268944,81.1487,147.73161
"3199",54.282265,81.126724,147.74554
"3200",54.2956,81.08766,147.7417
"3201",54.308937,81.00954,147.69757
"3202",54.322258,80.89235,147.61194
"3203",54.335594,80.743416,147.49089
"3204",54.34893,80.58228,147.353
"3205",54.362267,80.43336,147.22227
"3206",54.375603,80.306404,147.10887
"3207",54.388924,80.21118,147.02322
"3208",54.40226,80.147705,146.96634
"3209",54.415596,80.10864,146.93188
"3210",54.428917,80.07446,146.9011
"3211",54.442253,80.042725,146.87167
"3212",54.45559,80.0061,146.8364
"3213",54.468925,79.957275,146.78775
"3214",54.48226,79.89624,146.72537
"3215",54.495583,79.82788,146.65378
"3216",54.50892,79.75708,146.5776
"3217",54.522255,79.68139,146.49432
"3218",54.535576,79.605705,146.40868
"3219",54.548912,79.53246,146.3231
"3220",54.56225,79.4641,146.24013
"3221",54.575584,79.40063,146.1599
"3222",54.58892,79.34203,146.08257
"3223",54.60224,79.293205,146.01317
"3224",54.615578,79.2517,145.94957
"3225",54.628914,79.217514,145.892
"3226",54.642235,79.19554,145.84557
"3227",54.65557,79.183334,145.80821
"3228",54.668907,79.17113,145.77048
"3229",54.682243,79.16136,145.7348
"3230",54.69558,79.151596,145.69882
"3231",54.7089,79.13695,145.65765
"3232",54.722237,79.1223,145.61603
"3233",54.735573,79.11253,145.57883
"3234",54.748894,79.10521,145.54376
"3235",54.76223,79.10033,145.51091
"3236",54.775566,79.10033,145.48279
"3237",54.788902,79.10033,145.45467
"3238",54.80224,79.10277,145.42899
"3239",54.81556,79.10033,145.3985
"3240",54.828896,79.097885,145.36794
"3241",54.84223,79.09544,145.3373
"3242",54.855553,79.09056,145.30414
"3243",54.86889,79.08812,145.27327
"3244",54.882225,79.08324,145.23988
"3245",54.89556,79.080795,145.20879
"3246",54.908897,79.08324,145.1825
"3247",54.92222,79.1223,145.1929
"3248",54.935555,79.24193,145.2851
"3249",54.94889,79.47875,145.49823
"3250",54.96221,79.82788,145.83107
"3251",54.975548,80.26246,146.26027
"3252",54.988884,80.71412,146.72014
"3253",55.00222,81.10719,147.13553
"3254",55.015556,81.38552,147.44846
"3255",55.028877,81.532005,147.63824
"3256",55.042213,81.56863,147.72275
"3257",55.05555,81.53445,147.7376
"3258",55.06887,81.46609,147.7172
"3259",55.082207,81.38552,147.68245
"3260",55.095543,81.31228,147.65251
"3261",55.10888,81.253685,147.63493
"3262",55.122215,81.21217,147.6326
"3263",55.135536,81.180435,147.63875
"3264",55.148872,81.1487,147.6439
"3265",55.16221,81.10231,147.63342
"3266",55.17553,81.03151,147.59708
"3267",55.188866,80.92897,147.52678
"3268",55.2022,80.799576,147.42642
"3269",55.215538,80.655525,147.30736
"3270",55.228874,80.51392,147.18625
"3271",55.242195,80.394295,147.08269
"3272",55.25553,80.29664,146.99736
"3273",55.268867,80.22339,146.93338
"3274",55.28219,80.16968,146.88666
"3275",55.295525,80.130615,146.8529
"3276",55.30886,80.09888,146.82526
"3277",55.322197,80.07202,146.80148
"3278",55.335533,80.04028,146.772
"3279",55.348854,79.99878,146.73175
"3280",55.36219,79.94751,146.68045
"3281",55.375526,79.88403,146.61533
"3282",55.388847,79.81323,146.5409
"3283",55.402184,79.73266,146.45448
"3284",55.41552,79.65209,146.36555
"3285",55.428856,79.58129,146.28387
"3286",55.442192,79.51293,146.20242
"3287",55.455513,79.45434,146.1286
"3288",55.46885,79.41039,146.0676
"3289",55.482185,79.378654,146.01743
"3290",55.495506,79.35424,145.97359
"3291",55.508842,79.33715,145.93631
"3292",55.52218,79.32006,145.8985
"3293",55.535515,79.29809,145.85527
"3294",55.54885,79.273674,145.80891
"3295",55.562172,79.24925,145.7618
"3296",55.57551,79.22484,145.71391
"3297",55.588844,79.21019,145.67503
"3298",55.602165,79.19798,145.63814
"3299",55.6155,79.19066,145.60574
"3300",55.628838,79.185776,145.57556
"3301",55.642174,79.17845,145.54279
"3302",55.65551,79.17113,145.50978
"3303",55.66883,79.15892,145.47166
"3304",55.682167,79.149155,145.43561
"3305",55.695503,79.14183,145.40169
"3306",55.708824,79.14671,145.37975
"3307",55.72216,79.18822,145.39458
"3308",55.735497,79.28832,145.46931
"3309",55.748833,79.45922,145.61797
"3310",55.76217,79.691154,145.833
"3311",55.77549,79.95972,146.0919
"3312",55.788826,80.22583,146.35675
"3313",55.802162,80.45289,146.59087
"3314",55.815483,80.62623,146.77837
"3315",55.82882,80.75075,146.92245
"3316",55.842155,80.833755,147.02893
"3317",55.85549,80.89723,147.11847
"3318",55.868828,80.94606,147.19534
"3319",55.88215,80.987564,147.26642
"3320",55.895485,81.01686,147.32658
"3321",55.90882,81.03395,147.37546
"3322",55.922142,81.03639,147.41022
"3323",55.93548,81.01686,147.42308
"3324",55.948814,80.96315,147.40115
"3325",55.96215,80.87526,147.34337
"3326",55.975487,80.75075,147.24622
"3327",55.988808,80.6067,147.12563
"3328",56.002144,80.45289,146.99078
"3329",56.01548,80.308846,146.8609
"3330",56.0288,80.18921,146.75092
"3331",56.042137,80.1062,146.67383
"3332",56.055473,80.05005,146.621
"3333",56.06881,80.02075,146.59326
"3334",56.082146,80.0061,146.57925
"3335",56.095467,79.9939,146.56723
"3336",56.108803,79.97925,146.5524
"3337",56.12214,79.94995,146.52246
"3338",56.13546,79.906006,146.47696
"3339",56.148796,79.852295,146.42032
"3340",56.162132,79.78882,146.35223
"3341",56.17547,79.71801,146.27483
"3342",56.188805,79.64965,146.19765
"3343",56.202126,79.586174,146.12321
"3344",56.21546,79.534904,146.059
"3345",56.228798,79.48852,145.99808
"3346",56.24212,79.449455,145.94302
"3347",56.255455,79.41772,145.89407
"3348",56.26879,79.38842,145.84657
"3349",56.282127,79.35912,145.79816
"3350",56.295464,79.33715,145.75615
"3351",56.308784,79.31762,145.7159
"3352",56.32212,79.30541,145.68236
"3353",56.335457,79.29809,145.65332
"3354",56.348778,79.293205,145.6265
"3355",56.362114,79.290764,145.60196
"3356",56.37545,79.28588,145.5749
"3357",56.388786,79.27856,145.54526
"3358",56.402122,79.26879,145.51294
"3359",56.415443,79.26147,145.48276
"3360",56.42878,79.24925,145.44746
"3361",56.442116,79.24193,145.41667
"3362",56.455437,79.234604,145.38565
"3363",56.468773,79.24925,145.37637
"3364",56.48211,79.30785,145.41151
"3365",56.495445,79.43725,145.51927
"3366",56.50878,79.64721,145.71164
"3367",56.522102,79.93286,145.98627
"3368",56.53544,80.26002,146.31133
"3369",56.548775,80.57984,146.63928
"3370",56.562096,80.84596,146.92352
"3371",56.57543,81.03883,147.14284
"3372",56.588768,81.15358,147.29005
"3373",56.602104,81.21217,147.3847
"3374",56.61544,81.22926,147.43968
"3375",56.62876,81.22682,147.47566
"3376",56.642097,81.21706,147.50424
"3377",56.655434,81.19264,147.51787
"3378",56.668755,81.163345,147.52585
"3379",56.68209,81.12428,147.52315
"3380",56.695427,81.06813,147.50214
"3381",56.708763,80.99489,147.46228
"3382",56.7221,80.89723,147.39572
"3383",56.73542,80.7776,147.30414
"3384",56.748756,80.63355,147.18439
"3385",56.762093,80.482185,147.05283
"3386",56.775414,80.33326,146.91898
"3387",56.78875,80.20874,146.80487
"3388",56.802086,80.111084,146.71375
"3389",56.815422,80.05005,146.65619
"3390",56.82876,80.01343,146.62112
"3391",56.84208,79.9939,146.60202
"3392",56.855415,79.97925,146.58719
"3393",56.86875,79.95972,146.56702
"3394",56.882072,79.9353,146.54135
"3395",56.89541,79.89868,146.50272
"3396",56.908745,79.852295,146.45316
"3397",56.92208,79.79614,146.3924
"3398",56.935417,79.73754,146.32742
"3399",56.94874,79.66918,146.25085
"3400",56.962074,79.59838,146.16971
"3401",56.97541,79.53246,146.09123
"3402",56.98873,79.47631,146.02046
"3403",57.002068,79.429924,145.9577
"3404",57.015404,79.3933,145.90326
"3405",57.02874,79.36645,145.85744
"3406",57.042076,79.344475,145.81566
"3407",57.055397,79.32983,145.78052
"3408",57.068733,79.31762,145.74736
"3409",57.08207,79.31274,145.72115
"3410",57.09539,79.310295,145.69722
"3411",57.108727,79.30541,145.67078
"3412",57.122063,79.29809,145.64174
"3413",57.1354,79.28588,145.60759
"3414",57.148735,79.26879,145.56818
"3415",57.162056,79.2517,145.52823
"3416",57.175392,79.23216,145.4853
"3417",57.18873,79.2224,145.45154
"3418",57.20205,79.21507,145.4199
"3419",57.215385,79.21019,145.39049
"3420",57.22872,79.21019,145.3658
"3421",57.242058,79.237045,145.36797
"3422",57.255394,79.32983,145.4369
"3423",57.268715,79.53002,145.61615
"3424",57.28205,79.84985,145.9213
"3425",57.295387,80.26734,146.33409
"3426",57.30871,80.71656,146.79167
"3427",57.322044,81.1194,147.2169
"3428",57.33538,81.409935,147.54242
"3429",57.348717,81.55642,147.73297
"3430",57.362053,81.57107,147.79626
"3431",57.375374,81.497826,147.77213
"3432",57.38871,81.3782,147.69931
"3433",57.402046,81.24391,147.6081
"3434",57.415367,81.12428,147.52734
"3435",57.428703,81.041275,147.47948
"3436",57.44204,80.990005,147.46075
"3437",57.455376,80.970474,147.47217
"3438",57.46871,80.95827,147.4903
"3439",57.482033,80.938736,147.50072
"3440",57.49537,80.88747,147.47879
"3441",57.508705,80.799576,147.41864
"3442",57.522026,80.67017,147.31422
"3443",57.535362,80.52125,147.18625
"3444",57.5487,80.36256,147.04385
"3445",57.562035,80.216064,146.90869
"3446",57.57537,80.096436,146.7958
"3447",57.58869,80.0061,146.7085
"3448",57.602028,79.94507,146.64764
"3449",57.615364,79.90845,146.60931
"3450",57.628685,79.88403,146.58203
"3451",57.64202,79.8645,146.55887
"3452",57.655357,79.835205,146.52533
"3453",57.668694,79.801025,146.486
"3454",57.68203,79.75464,146.43338
"3455",57.69535,79.69604,146.36711
"3456",57.708687,79.63012,146.29169
"3457",57.722023,79.5642,146.2142
"3458",57.735344,79.49828,146.13466
"3459",57.74868,79.44457,146.06526
"3460",57.762016,79.40063,146.00395
"3461",57.775352,79.36645,145.95103
"3462",57.78869,79.33471,145.89949
"3463",57.80201,79.30297,145.84695
"3464",57.815346,79.276115,145.79831
"3465",57.828682,79.25414,145.75371
"3466",57.842003,79.23949,145.71574
"3467",57.85534,79.23216,145.68465
"3468",57.868675,79.22972,145.6582
"3469",57.88201,79.234604,145.639
"3470",57.895348,79.234604,145.61508
"3471",57.90867,79.23216,145.58871
"3472",57.922005,79.22728,145.55983
"3473",57.93534,79.2224,145.53079
"3474",57.94866,79.21507,145.49916
"3475",57.961998,79.20775,145.4673
"3476",57.975334,79.200424,145.43521
"3477",57.98867,79.1931,145.4029
"3478",58.002007,79.185776,145.37035
"3479",58.015327,79.18089,145.34001
"3480",58.028664,79.17357,145.30708
"3481",58.042,79.166245,145.27393
"3482",58.05532,79.15648,145.2381
"3483",58.068657,79.149155,145.2044
"3484",58.081993,79.14671,145.17537
"3485",58.09533,79.17601,145.178
"3486",58.108665,79.28344,145.25967
"3487",58.121986,79.50561,145.45944
"3488",58.135323,79.84741,145.7858
"3489",58.14866,80.27955,146.21317
"3490",58.16198,80.73609,146.67845
"3491",58.175316,81.143814,147.10918
"3492",58.188652,81.43191,147.43301
"3493",58.20199,81.58083,147.6267
"3494",58.215324,81.61013,147.7054
"3495",58.228645,81.5613,147.7069
"3496",58.24198,81.47341,147.6678
"3497",58.255318,81.37087,147.61131
"3498",58.26864,81.2781,147.56139
"3499",58.281975,81.20241,147.52563
"3500",58.29531,81.1487,147.5095
"3501",58.308647,81.109634,147.50635
"3502",58.321983,81.08522,147.51662
"3503",58.335304,81.06081,147.52612
"3504",58.34864,81.01442,147.5129
"3505",58.361977,80.93385,147.46404
"3506",58.375298,80.81911,147.37848
"3507",58.388634,80.67506,147.26003
"3508",58.40197,80.51881,147.12488
"3509",58.415306,80.37232,146.99461
"3510",58.428642,80.255135,146.88907
"3511",58.441963,80.17212,146.81403
"3512",58.4553,80.11841,146.76569
"3513",58.468636,80.08667,146.73764
"3514",58.481956,80.06958,146.72327
"3515",58.495293,80.04761,146.70346
"3516",58.50863,80.01831,146.67566
"3517",58.521965,79.974365,146.6323
"3518",58.5353,79.920654,146.57779
"3519",58.548622,79.85718,146.51184
"3520",58.56196,79.79126,146.44147
"3521",58.575294,79.72289,146.36658
"3522",58.588615,79.65942,146.29443
"3523",58.60195,79.60082,146.22519
"3524",58.615288,79.54467,146.15656
"3525",58.628624,79.4934,146.09105
"3526",58.64196,79.447014,146.02882
"3527",58.65528,79.40551,145.97003
"3528",58.668617,79.36645,145.91238
"3529",58.681953,79.33715,145.86328
"3530",58.695274,79.31762,145.82303
"3531",58.70861,79.30297,145.78705
"3532",58.721947,79.290764,145.75305
"3533",58.735283,79.28588,145.726
"3534",58.74862,79.273674,145.69147
"3535",58.76194,79.259026,145.65411
"3536",58.775276,79.24681,145.61874
"3537",58.788612,79.234604,145.583
"3538",58.801933,79.2224,145.54686
"3539",58.81527,79.21263,145.51279
"3540",58.828606,79.202866,145.47841
"3541",58.84194,79.1931,145.44373
"3542",58.855278,79.19798,145.42339
"3543",58.8686,79.25414,145.45448
"3544",58.881935,79.398186,145.57521
"3545",58.89527,79.66918,145.8274
"3546",58.908592,80.05737,146.20525
"3547",58.92193,80.51392,146.66359
"3548",58.935265,80.96315,147.12888
"3549",58.9486,81.322044,147.51787
"3550",58.961937,81.532005,147.76915
"3551",58.975258,81.58816,147.87318
"3552",58.988594,81.529564,147.86423
"3553",59.00193,81.40505,147.78752
"3554",59.01525,81.26101,147.6874
"3555",59.028587,81.13405,147.59984
"3556",59.041924,81.041275,147.54251
"3557",59.05526,80.99245,147.52623
"3558",59.068596,80.97536,147.54016
"3559",59.081917,80.98024,147.57553
"3560",59.095253,80.98268,147.60861
"3561",59.10859,80.96315,147.6198
"3562",59.12191,80.902115,147.58887
"3563",59.135246,80.799576,147.51453
"3564",59.148582,80.66285,147.40279
"3565",59.16192,80.5066,147.26726
"3566",59.175255,80.35767,147.13417
"3567",59.188576,80.22827,147.01595
"3568",59.201912,80.13306,146.92786
"3569",59.21525,80.06958,146.86853
"3570",59.22857,80.03296,146.83408
"3571",59.241905,80.0061,146.80826
"3572",59.25524,79.98169,146.78403
"3573",59.268578,79.94751,146.74927
"3574",59.281914,79.906006,146.70612
"3575",59.295235,79.84985,146.64703
"3576",59.30857,79.783936,146.57642
"3577",59.321907,79.71313,146.49886
"3578",59.335228,79.64477,146.42152
"3579",59.348564,79.57397,146.33961
"3580",59.3619,79.51293,146.26526
"3581",59.375237,79.4519,146.189
"3582",59.388573,79.398186,146.11815
"3583",59.401894,79.34936,146.0505
"3584",59.41523,79.30297,145.98378
"3585",59.428566,79.26147,145.92049
"3586",59.441887,79.23216,145.8681
"3587",59.455223,79.21019,145.82213
"3588",59.46856,79.19554,145.78279
"3589",59.481895,79.183334,145.74544
"3590",59.49523,79.17601,145.71259
"3591",59.508553,79.1638,145.67462
"3592",59.52189,79.15404,145.63872
"3593",59.535225,79.14183,145.60007
"3594",59.548546,79.12962,145.56104
"3595",59.561882,79.11742,145.52162
"3596",59.57522,79.10521,145.48183
"3597",59.588554,79.097885,145.44653
"3598",59.60189,79.08812,145.40857
"3599",59.61521,79.08568,145.37762
"3600",59.628548,79.08324,145.3466
"3601",59.641884,79.080795,145.3155
"3602",59.655205,79.080795,145.28677
"3603",59.66854,79.080795,145.25804
"3604",59.681877,79.078354,145.22687
"3605",59.695213,79.078354,145.19806
"3606",59.70855,79.08812,145.17902
"3607",59.72187,79.14183,145.20422
"3608",59.735207,79.276115,145.31169
"3609",59.748543,79.52514,145.53809
"3610",59.761864,79.888916,145.88702
"3611",59.7752,80.32838,146.32301
"3612",59.788536,80.77028,146.77518
"3613",59.801872,81.143814,147.17279
"3614",59.81521,81.40017,147.46489
"3615",59.82853,81.529564,147.63805
"3616",59.841866,81.55886,147.71515
"3617",59.8552,81.52224,147.72725
"3618",59.868523,81.45632,147.70891
"3619",59.88186,81.38552,147.68362
"3620",59.895195,81.324486,147.6659
"3621",59.90853,81.270775,147.65358
"3622",59.921867,81.234146,147.65666
"3623",59.93519,81.20973,147.67082
"3624",59.948524,81.180435,147.67934
"3625",59.96186,81.13893,147.67473
"3626",59.97518,81.07057,147.64197
"3627",59.988518,80.96803,147.57289
"3628",60.001854,80.833755,147.46887
"3629",60.01519,80.68726,147.34843
"3630",60.028526,80.54322,147.22588
"3631",60.041847,80.42603,147.12567
"3632",60.055183,80.33814,147.0511
"3633",60.06852,80.27711,147.00064
"3634",60.08184,80.24292,146.97511
"3635",60.095177,80.218506,146.95828
"3636",60.108513,80.19409,146.9407
"3637",60.12185,80.164795,146.91748
"3638",60.135185,80.128174,146.88602
"3639",60.148506,80.08179,146.84363
"3640",60.161842,80.02075,146.78516
"3641",60.17518,79.94751,146.71255
"3642",60.1885,79.871826,146.63522
"3643",60.201836,79.79614,146.55554
"3644",60.21517,79.71801,146.47104
"3645",60.228508,79.64233,146.38654
"3646",60.241844,79.569084,146.30211
"3647",60.255165,79.50805,146.2276
"3648",60.2685,79.4519,146.15607
"3649",60.281837,79.40551,146.09254
"3650",60.29516,79.37377,146.04222
"3651",60.308495,79.3518,146.00067
"3652",60.32183,79.33227,145.96088
"3653",60.335167,79.31762,145.92535
"3654",60.348503,79.30297,145.88937
"3655",60.361824,79.290764,145.85538
"3656",60.37516,79.273674,145.81612
"3657",60.388496,79.259026,145.77876
"3658",60.401817,79.24437,145.74095
"3659",60.415154,79.23216,145.70512
"3660",60.42849,79.219955,145.66891
"3661",60.441826,79.20775,145.63232
"3662",60.455162,79.1931,145.59291
"3663",60.468483,79.17113,145.54572
"3664",60.48182,79.151596,145.50027
"3665",60.495155,79.13695,145.4591
"3666",60.508476,79.151596,145.44678
"3667",60.521812,79.22972,145.49838
"3668",60.53515,79.40551,145.6501
"3669",60.548485,79.68627,145.91228
"3670",60.56182,80.042725,146.25893
"3671",60.57514,80.428474,146.64601
"3672",60.588478,80.78981,147.02074
"3673",60.601814,81.07057,147.32619
"3674",60.615135,81.253685,147.54276
"3675",60.62847,81.35378,147.68204
"3676",60.641808,81.392845,147.76341
"3677",60.655144,81.392845,147.80695
"3678",60.66848,81.373314,147.83095
"3679",60.6818,81.3489,147.84946
"3680",60.695137,81.322044,147.86476
"3681",60.708473,81.29763,147.88167
"3682",60.721794,81.270775,147.89537
"3683",60.73513,81.22926,147.89357
"3684",60.748466,81.17311,147.87584
"3685",60.761803,81.08766,147.82706
"3686",60.77514,80.970474,147.74387
"3687",60.78846,80.82643,147.63016
"3688",60.801796,80.67994,147.50949
"3689",60.815132,80.54078,147.39159
"3690",60.828453,80.42603,147.29375
"3691",60.84179,80.343025,147.22406
"3692",60.855125,80.2942,147.18596
"3693",60.86846,80.272224,147.17319
"3694",60.881798,80.26002,147.1695
"3695",60.89512,80.2478,147.1654
"3696",60.908455,80.22827,147.15363
"3697",60.92179,80.19165,147.12415
"3698",60.935112,80.13794,147.07642
"3699",60.94845,80.0647,147.00748
"3700",60.961784,79.98169,146.92648
"3701",60.97512,79.888916,146.83313
"3702",60.988457,79.79614,146.73688
"3703",61.001778,79.7058,146.64017
"3704",61.015114,79.62035,146.54552
"3705",61.02845,79.54223,146.45552
"3706",61.04177,79.47875,146.37773
"3707",61.055107,79.42748,146.31017
"3708",61.068443,79.38354,146.24832
"3709",61.08178,79.3518,146.19731
"3710",61.095116,79.3225,146.14775
"3711",61.108437,79.29565,146.09972
"3712",61.121773,79.26879,146.05084
"3713",61.13511,79.24681,146.00601
"3714",61.14843,79.2224,145.95805
"3715",61.161766,79.20531,145.91666
"3716",61.175102,79.1931,145.87961
"3717",61.18844,79.185776,145.84706
"3718",61.201775,79.17357,145.8094
"3719",61.215096,79.15892,145.76892
"3720",61.22843,79.13939,145.7231
"3721",61.241768,79.11986,145.67667
"3722",61.25509,79.097885,145.62718
"3723",61.268425,79.07347,145.57457
"3724",61.28176,79.05394,145.52608
"3725",61.295097,79.03685,145.47942
"3726",61.308434,79.03929,145.45175
"3727",61.321754,79.09544,145.47787
"3728",61.33509,79.23949,145.59364
"3729",61.348427,79.500725,145.83112
"3730",61.361748,79.86206,146.17685
"3731",61.375084,80.28199,146.59247
"3732",61.38842,80.69947,147.01877
"3733",61.401756,81.05348,147.39464
"3734",61.415092,81.304955,147.67903
"3735",61.428413,81.45632,147.87119
"3736",61.44175,81.53445,147.99483
"3737",61.455086,81.5613,148.06964
"3738",61.468407,81.55886,148.116
"3739",61.481743,81.54421,148.15007
"3740",61.49508,81.52468,148.1788
"3741",61.508415,81.50515,148.20692
"3742",61.52175,81.48562,148.23444
"3743",61.535072,81.461205,148.25645
"3744",61.54841,81.4197,148.26062
"3745",61.561745,81.358665,148.24396
"3746",61.575066,81.26833,148.19609
"3747",61.5884,81.146255,148.11365
"3748",61.601738,80.99489,147.99811
"3749",61.615074,80.833755,147.86807
"3750",61.62841,80.6775,147.73787
"3751",61.64173,80.54322,147.62477
"3752",61.655067,80.445564,147.5441
"3753",61.668404,80.38453,147.497
"3754",61.681725,80.34791,147.4724
"3755",61.69506,80.32105,147.45642
"3756",61.708397,80.2942,147.4396
"3757",61.721733,80.25025,147.40486
"3758",61.73507,80.19165,147.35408
"3759",61.74839,80.11597,147.2844
"3760",61.761726,80.025635,147.1977
"3761",61.775063,79.93042,147.10327
"3762",61.788383,79.835205,147.00589
"3763",61.80172,79.73998,146.90552
"3764",61.815056,79.64721,146.80461
"3765",61.828392,79.55688,146.70325
"3766",61.84173,79.46899,146.6015
"3767",61.85505,79.38842,146.50433
"3768",61.868385,79.31762,146.41441
"3769",61.88172,79.259026,146.33449
"3770",61.895042,79.21019,146.2625
"3771",61.90838,79.17113,146.19875
"3772",61.921715,79.14183,146.14354
"3773",61.93505,79.114975,146.08986
"3774",61.948387,79.09056,146.03778
"3775",61.961708,79.07103,145.98982
"3776",61.975044,79.04906,145.93881
"3777",61.98838,79.027084,145.88712
"3778",62.0017,79.00267,145.83229
"3779",62.015038,78.9807,145.77914
"3780",62.028374,78.958725,145.72531
"3781",62.04171,78.941635,145.67567
"3782",62.055046,78.924545,145.6255
"3783",62.068367,78.91234,145.57968
"3784",62.081703,78.90257,145.53592
"3785",62.09504,78.89281,145.49185
"3786",62.10836,78.88548,145.44992
"3787",62.121696,78.87572,145.40532
"3788",62.135033,78.86839,145.36285
"3789",62.14837,78.85863,145.31772
"3790",62.161705,78.8513,145.27472
"3791",62.175026,78.836655,145.22417
"3792",62.188362,78.82689,145.17804
"3793",62.2017,78.819565,145.13405
"3794",62.21502,78.81468,145.09227
"3795",62.228355,78.82933,145.06987
"3796",62.24169,78.90013,145.10408
"3797",62.255028,79.08324,145.2528
"3798",62.268364,79.42504,145.56596
"3799",62.281685,79.92554,146.0485
"3800",62.29502,80.52857,146.6492
"3801",62.308357,81.146255,147.2834
"3802",62.32168,81.67849,147.85146
"3803",62.335014,82.04959,148.27501
"3804",62.34835,82.23758,148.52705
"3805",62.361687,82.266884,148.62628
"3806",62.375023,82.19119,148.62143
"3807",62.388344,82.056915,148.55563
"3808",62.40168,81.90555,148.46855
"3809",62.415016,81.76639,148.38895
"3810",62.428337,81.671165,148.34892
"3811",62.441673,81.61501,148.345
"3812",62.45501,81.59548,148.37595
"3813",62.468346,81.59792,148.42825
"3814",62.48168,81.602806,148.48308
"3815",62.495003,81.57839,148.50876
"3816",62.50834,81.514915,148.49461
"3817",62.521675,81.40017,148.42722
"3818",62.534996,81.24635,148.31715
"3819",62.548332,81.06081,148.17056
"3820",62.56167,80.87038,148.01329
"3821",62.575005,80.69947,147.86958
"3822",62.58834,80.56275,147.75473
"3823",62.60166,80.462654,147.67223
"3824",62.614998,80.39185,147.61589
"3825",62.628334,80.34058,147.57687
"3826",62.641655,80.2942,147.54114
"3827",62.65499,80.2478,147.50394
"3828",62.668327,80.19165,147.45554
"3829",62.681664,80.11597,147.38583
"3830",62.695,80.028076,147.30157
"3831",62.70832,79.92554,147.19992
"3832",62.721657,79.815674,147.08774
"3833",62.734993,79.70336,146.96967
"3834",62.748314,79.5935,146.85052
"3835",62.76165,79.49584,146.74016
"3836",62.774986,79.40063,146.62918
"3837",62.788322,79.31762,146.52744
"3838",62.80166,79.24193,146.43042
"3839",62.81498,79.17845,146.34325
"3840",62.828316,79.12474,146.26385
"3841",62.841652,79.08324,146.19499
"3842",62.854973,79.04906,146.13216
"3843",62.86831,79.01976,146.07314
"3844",62.881645,78.992905,146.01564
"3845",62.89498,78.96849,145.95975
"3846",62.908318,78.941635,145.90065
"3847",62.92164,78.91722,145.84315
"3848",62.934975,78.89281,145.7849
"3849",62.94831,78.86839,145.72588
"3850",62.96163,78.84642,145.66853
"3851",62.974968,78.82933,145.61539
"3852",62.988304,78.81712,145.56659
"3853",63.00164,78.80492,145.51741
"3854",63.014977,78.79515,145.47029
"3855",63.028297,78.78294,145.42043
"3856",63.041634,78.77562,145.37506
"3857",63.05497,78.765854,145.32703
"3858",63.06829,78.75853,145.28113
"3859",63.081627,78.751205,145.235
"3860",63.094963,78.74387,145.18864
"3861",63.1083,78.73655,145.14206
"3862",63.121635,78.73167,145.09769
"3863",63.134956,78.73167,145.05804
"3864",63.148293,78.73411,145.02084
"3865",63.16163,78.73167,144.97884
"3866",63.17495,78.729225,144.93675
"3867",63.188286,78.729225,144.89703
"3868",63.201622,78.73899,144.86708
"3869",63.21496,78.79515,144.88383
"3870",63.228294,78.95384,145.00487
"3871",63.241615,79.26391,145.28224
"3872",63.25495,79.725334,145.72066
"3873",63.268288,80.306404,146.29314
"3874",63.28161,80.936295,146.9326
"3875",63.294945,81.512474,147.53804
"3876",63.30828,81.94461,148.01744
"3877",63.321617,82.20096,148.33456
"3878",63.334953,82.29618,148.49857
"3879",63.348274,82.266884,148.54103
"3880",63.36161,82.15701,148.502
"3881",63.374947,82.01541,148.42781
"3882",63.388268,81.87625,148.35164
"3883",63.401604,81.761505,148.29553
"3884",63.41494,81.68337,148.27245
"3885",63.428276,81.63943,148.28111
"3886",63.441612,81.62234,148.31526
"3887",63.454933,81.61501,148.35864
"3888",63.46827,81.59548,148.38959
"3889",63.481606,81.54177,148.38574
"3890",63.494926,81.446556,148.33871
"3891",63.508263,81.307396,148.24477
"3892",63.5216,81.13893,148.11716
"3893",63.534935,80.970474,147.9843
"3894",63.54827,80.80934,147.8535
"3895",63.561592,80.6775,147.74695
"3896",63.57493,80.570076,147.6607
"3897",63.588264,80.49195,147.6004
"3898",63.601585,80.43336,147.55719
"3899",63.61492,80.38697,147.52435
"3900",63.628258,80.33814,147.48763
"3901",63.641594,80.28443,147.44449
"3902",63.65493,80.218506,147.38745
"3903",63.66825,80.13794,147.31372
"3904",63.681587,80.042725,147.22281
"3905",63.694923,79.9353,147.11673
"3906",63.708244,79.82544,147.00485
"3907",63.72158,79.710686,146.88464
"3908",63.734917,79.59838,146.76329
"3909",63.748253,79.4934,146.64575
"3910",63.76159,79.40063,146.53714
"3911",63.77491,79.32006,146.43784
"3912",63.788246,79.2517,146.34822
"3913",63.801582,79.19066,146.2638
"3914",63.814903,79.13939,146.18723
"3915",63.82824,79.09056,146.1115
"3916",63.841576,79.04906,146.04156
"3917",63.85491,79.01732,145.9801
"3918",63.868248,78.98802,145.92009
"3919",63.88157,78.96605,145.86649
"3920",63.894905,78.94896,145.81708
"3921",63.90824,78.93431,145.76958
"3922",63.921562,78.91722,145.71918
"3923",63.9349,78.90013,145.66824
"3924",63.948235,78.8806,145.61433
"3925",63.96157,78.86351,145.56226
"3926",63.974907,78.84398,145.5072
"3927",63.988228,78.82689,145.45398
"3928",64.001564,78.81224,145.40266
"3929",64.0149,78.79759,145.35089
"3930",64.02822,78.785385,145.3011
"3931",64.04156,78.77318,145.25093
"3932",64.05489,78.765854,145.20526
"3933",64.06823,78.76097,145.1618
"3934",64.081566,78.75853,145.12064
"3935",64.09489,78.75365,145.07695
"3936",64.10822,78.751205,145.03555
"3937",64.12156,78.74876,144.99408
"3938",64.13488,78.746315,144.95253
"3939",64.14822,78.75365,144.92068
"3940",64.16155,78.79027,144.91835
"3941",64.17489,78.887924,144.9782
"3942",64.188225,79.07347,145.12898
"3943",64.201546,79.364006,145.39056
"3944",64.21488,79.742424,145.7491
"3945",64.22822,80.16724,146.16586
"3946",64.24154,80.5774,146.58125
"3947",64.254875,80.92409,146.94598
"3948",64.26821,81.18288,147.23366
"3949",64.28155,81.358665,147.44641
"3950",64.29488,81.46609,147.5963
"3951",64.308205,81.53933,147.71536
"3952",64.32154,81.58816,147.8123
"3953",64.33488,81.62478,147.89856
"3954",64.3482,81.651634,147.9762
"3955",64.361534,81.671165,148.04735
"3956",64.37487,81.67849,148.1069
"3957",64.38821,81.67849,148.15936
"3958",64.40154,81.65652,148.18985
"3959",64.41486,81.60525,148.19035
"3960",64.4282,81.52224,148.15752
"3961",64.441536,81.40017,148.08302
"3962",64.45486,81.248795,147.9754
"3963",64.46819,81.08034,147.84598
"3964",64.48153,80.91676,147.71617
"3965",64.494865,80.780045,147.60811
"3966",64.5082,80.67506,147.5275
"3967",64.52152,80.59937,147.47292
"3968",64.53486,80.550545,147.44283
"3969",64.548195,80.51881,147.4283
"3970",64.561516,80.49195,147.41766
"3971",64.57485,80.45777,147.39886
"3972",64.58819,80.41627,147.37167
"3973",64.601524,80.36256,147.33098
"3974",64.61486,80.289314,147.26907
"3975",64.62818,80.201416,147.19022
"3976",64.64152,80.09888,147.09396
"3977",64.654854,79.98901,146.98718
"3978",64.668175,79.87915,146.87698
"3979",64.68151,79.77417,146.76822
"3980",64.69485,79.67162,146.65862
"3981",64.70818,79.57885,146.55557
"3982",64.72152,79.49828,146.46184
"3983",64.73484,79.42504,146.37291
"3984",64.74818,79.36889,146.29878
"3985",64.76151,79.32006,146.23022
"3986",64.77483,79.28588,146.17479
"3987",64.78817,79.25414,146.12073
"3988",64.801506,79.2224,146.06567
"3989",64.81484,79.18822,146.00719
"3990",64.82818,79.15892,145.95251
"3991",64.8415,79.12474,145.89204
"3992",64.854836,79.097885,145.83783
"3993",64.86817,79.07347,145.78522
"3994",64.88149,79.05394,145.73672
"3995",64.89483,79.03441,145.68762
"3996",64.908165,79.01488,145.63791
"3997",64.9215,78.995346,145.58759
"3998",64.93484,78.97337,145.53421
"3999",64.94816,78.9514,145.48015
"4000",64.961494,78.92699,145.42296
"4001",64.97483,78.90257,145.365
"4002",64.98815,78.87816,145.30629
"4003",65.00149,78.86351,145.25658
"4004",65.014824,78.86839,145.22594
"4005",65.02816,78.92699,145.24916
"4006",65.0415,79.061264,145.3499
"4007",65.05482,79.293205,145.5525
"4008",65.06815,79.61547,145.85268
"4009",65.08149,79.99634,146.22153
"4010",65.09481,80.38209,146.60716
"4011",65.10815,80.726326,146.96335
"4012",65.12148,81.00221,147.26193
"4013",65.13482,81.20241,147.49345
"4014",65.148155,81.34402,147.67264
"4015",65.161476,81.446556,147.81718
"4016",65.17481,81.5198,147.93564
"4017",65.18815,81.57595,148.03929
"4018",65.20147,81.617455,148.13005
"4019",65.214806,81.64675,148.2099
"4020",65.22814,81.6614,148.27602
"4021",65.24148,81.66384,148.33038
"4022",65.268135,81.59304,148.3629
"4023",65.28147,81.50515,148.3248
"4024",65.29481,81.3782,148.24489
"4025",65.30813,81.2195,148.12926
"4026",65.321465,81.0486,147.99648
"4027",65.3348,80.88258,147.86324
"4028",65.34814,80.740974,147.7492
"4029",65.36147,80.63355,147.66495
"4030",65.374794,80.56031,147.61151
"4031",65.38813,80.51148,147.5802
"4032",65.40147,80.4773,147.56201
"4033",65.41479,80.448006,147.54764
"4034",65.42812,80.411385,147.52502
"4035",65.44146,80.365,147.4915
"4036",65.454796,80.30396,147.44188
"4037",65.46813,80.23071,147.37813
"4038",65.48145,80.13794,147.29257
"4039",65.49479,80.0354,147.19434
"4040",65.508125,79.92798,147.08801
"4041",65.52145,79.818115,146.97589
"4042",65.53478,79.7058,146.8579
"4043",65.54812,79.5935,146.73639
"4044",65.561455,79.49096,146.62114
"4045",65.57479,79.395744,146.51001
"4046",65.58811,79.31518,146.41055
"4047",65.60145,79.24925,146.32323
"4048",65.614784,79.19798,146.24849
"4049",65.628105,79.15892,146.18436
"4050",65.64144,79.11742,146.11656
"4051",65.65478,79.078354,146.04991
"4052",65.66811,79.03685,145.9796
"4053",65.68145,78.99779,145.91043
"4054",65.69477,78.96117,145.84248
"4055",65.70811,78.93431,145.78316
"4056",65.72144,78.91478,145.73032
"4057",65.734764,78.90257,145.68419
"4058",65.7481,78.890366,145.63768
"4059",65.76144,78.87816,145.59079
"4060",65.77477,78.853745,145.53131
"4061",65.78811,78.82445,145.46619
"4062",65.80143,78.79027,145.39526
"4063",65.814766,78.75853,145.32571
"4064",65.8281,78.73411,145.2625
"4065",65.84142,78.72678,145.2156
"4066",65.85476,78.768295,145.21733
"4067",65.868095,78.89281,145.30334
"4068",65.88143,79.132065,145.508
"4069",65.89477,79.49096,145.83977
"4070",65.90809,79.940186,146.27309
"4071",65.921425,80.428474,146.7595
"4072",65.93476,80.88258,147.227
"4073",65.94808,81.25857,147.63057
"4074",65.96142,81.532005,147.94334
"4075",65.974754,81.70779,148.167
"4076",65.98809,81.81033,148.32292
"4077",66.00143,81.85916,148.42833
"4078",66.01475,81.866486,148.49376
"4079",66.02808,81.85184,148.53745
"4080",66.04142,81.815216,148.5587
"4081",66.05474,81.76883,148.56905
"4082",66.06808,81.71755,148.57304
"4083",66.08141,81.66384,148.57301
"4084",66.09475,81.602806,148.56398
"4085",66.108086,81.52468,148.53595
"4086",66.12141,81.42458,148.4835
"4087",66.13474,81.290306,148.39375
"4088",66.14808,81.13405,148.27782
"4089",66.1614,80.955826,148.13504
"4090",66.174736,80.780045,147.98914
"4091",66.18807,80.62379,147.85725
"4092",66.20141,80.499275,147.75224
"4093",66.214745,80.40894,147.67752
"4094",66.228065,80.35035,147.63171
"4095",66.2414,80.308846,147.60117
"4096",66.25474,80.274666,147.57664
"4097",66.26806,80.235596,147.54616
"4098",66.281395,80.17944,147.49738
"4099",66.29473,80.10376,147.4273
"4100",66.30807,80.01343,147.34021
"4101",66.3214,79.906006,147.23322
"4102",66.334724,79.78638,147.11066
"4103",66.34806,79.6643,146.9819
"4104",66.3614,79.537346,146.84445
"4105",66.37472,79.415276,146.70792
"4106",66.388054,79.29809,146.57245
"4107",66.40139,79.19554,146.44797
"4108",66.41473,79.10765,146.33493
"4109",66.42806,79.03441,146.2338
"4110",66.44138,78.97337,146.14258
"4111",66.45472,78.92699,146.0641
"4112",66.468056,78.88548,145.98906
"4113",66.48138,78.853745,145.92249
"4114",66.49471,78.82201,145.85492
"4115",66.50805,78.79515,145.79124
"4116",66.521385,78.77318,145.73161
"4117",66.53472,78.74876,145.66885
"4118",66.54804,78.72434,145.60533
"4119",66.56138,78.70237,145.54349
"4120",66.574715,78.677956,145.47852
"4121",66.588036,78.658424,145.41766
"4122",66.60137,78.641335,145.35864
"4123",66.61471,78.626686,145.30153
"4124",66.628044,78.6096,145.24152
"4125",66.64138,78.59983,145.1883
"4126",66.6547,78.590065,145.13477
"4127",66.66804,78.57786,145.07849
"4128",66.68137,78.56321,145.0194
"4129",66.694695,78.54856,144.95984
"4130",66.70803,78.52903,144.89494
"4131",66.72137,78.51682,144.83676
"4132",66.7347,78.52415,144.79773
"4133",66.74804,78.59495,144.8224
"4134",66.76136,78.7805,144.96405
"4135",66.7747,79.12474,145.27017
"4136",66.78803,79.63012,145.7482
"4137",66.80135,80.255135,146.36165
"4138",66.81469,80.90944,147.02393
"4139",66.828026,81.50027,147.64317
"4140",66.84136,81.93973,148.12952
"4141",66.8547,82.2034,148.45381
"4142",66.86802,82.303505,148.62277
"4143",66.881355,82.29374,148.685
"4144",66.89469,82.213165,148.6761
"4145",66.90801,82.09842,148.63052
"4146",66.92135,81.97879,148.57648
"4147",66.934685,81.87137,148.5309
"4148",66.94802,81.78348,148.5015
"4149",66.96136,81.722435,148.49619
"4150",66.97468,81.68337,148.51096
"4151",66.988014,81.65652,148.53671
"4152",67.00135,81.619896,148.55186
"4153",67.01467,81.56374,148.54634
"4154",67.02801,81.46609,148.49756
"4155",67.04134,81.322044,148.39934
"4156",67.05468,81.143814,148.26242
"4157",67.068016,80.955826,148.11018
"4158",67.08134,80.780045,147.96428
"4159",67.09467,80.62867,147.83728
"4160",67.10801,80.51148,147.73975
"4161",67.12133,80.430916,147.67517
"4162",67.13467,80.36988,147.62761
"4163",67.148,80.31861,147.5879
"4164",67.16134,80.26734,147.5466
"4165",67.174675,80.21118,147.4988
"4166",67.187996,80.13794,147.43216
"4167",67.20133,80.04761,147.34613
"4168",67.21467,79.94263,147.24265
"4169",67.22799,79.82544,147.12366
"4170",67.241325,79.7058,146.99857
"4171",67.25466,79.58373,146.8673
"4172",67.268,79.466545,146.73709
"4173",67.281334,79.35668,146.61055
"4174",67.294655,79.256584,146.49034
"4175",67.32133,79.08812,146.27258
"4176",67.33465,79.0222,146.17816
"4177",67.347984,78.96605,146.09145
"4178",67.36132,78.91966,146.01274
"4179",67.37466,78.88548,145.9448
"4180",67.38799,78.853745,145.87822
"4181",67.40131,78.82689,145.81554
"4182",67.41465,78.80003,145.75201
"4183",67.427986,78.77074,145.68521
"4184",67.44131,78.74143,145.6175
"4185",67.45464,78.71458,145.5513
"4186",67.46798,78.692604,145.48915
"4187",67.481316,78.67063,145.42632
"4188",67.49465,78.65354,145.36768
"4189",67.50797,78.641335,145.31339
"4190",67.52131,78.62913,145.25871
"4191",67.534645,78.6218,145.20854
"4192",67.547966,78.6096,145.15326
"4193",67.5613,78.59983,145.10004
"4194",67.57464,78.58762,145.04407
"4195",67.587975,78.5803,144.9926
"4196",67.60131,78.57542,144.94334
"4197",67.61463,78.57542,144.89882
"4198",67.62797,78.5803,144.85918
"4199",67.641304,78.58518,144.81969
"4200",67.654625,78.58762,144.77791
"4201",67.66796,78.607155,144.7533
"4202",67.6813,78.692604,144.79521
"4203",67.69463,78.90257,144.96432
"4204",67.70797,79.281,145.30846
"4205",67.72129,79.823,145.82799
"4206",67.73463,80.47486,146.47432
"4207",67.74796,81.143814,147.15811
"4208",67.761284,81.72976,147.7798
"4209",67.77462,82.159454,148.26355
"4210",67.78796,82.41581,148.58739
"4211",67.80129,82.52079,148.76787
"4212",67.81463,82.513466,148.83932
"4213",67.82795,82.43778,148.8422
"4214",67.841286,82.32792,148.80852
"4215",67.85462,82.20584,148.75919
"4216",67.86794,82.08865,148.71094
"4217",67.88128,81.991,148.67856
"4218",67.894615,81.92264,148.67242
"4219",67.90795,81.87381,148.68369
"4220",67.92129,81.83963,148.70807
"4221",67.93461,81.80545,148.73138
"4222",67.947945,81.74197,148.72432
"4223",67.96128,81.636986,148.67378
"4224",67.9746,81.49294,148.5809
"4225",67.98794,81.31716,148.45178
"4226",68.001274,81.13405,148.30983
"4227",68.01461,80.972916,148.18414
"4228",68.02795,80.84108,148.08272
"4229",68.04127,80.74586,148.01378
"4230",68.0546,80.672615,147.96385
"4231",68.06794,80.61158,147.92384
"4232",68.08126,80.552986,147.88437
"4233",68.0946,80.48463,147.8333
"4234",68.10793,80.40894,147.77277
"4235",68.12127,80.325935,147.70255
"4236",68.134605,80.23071,147.61751
"4237",68.14793,80.12085,147.51486
"4238",68.16126,80.00122,147.39902
"4239",68.1746,79.87915,147.27698
"4240",68.18792,79.75708,147.15112
"4241",68.201256,79.63744,147.0239
"4242",68.21459,79.52758,146.9027
"4243",68.22793,79.41772,146.77806
"4244",68.241264,79.31518,146.65732
"4245",68.254585,79.22484,146.54558
"4246",68.26792,79.14671,146.44322
"4247",68.28126,79.080795,146.35063
"4248",68.29458,79.029526,146.27063
"4249",68.307915,78.98558,146.19635
"4250",68.32125,78.94652,146.12558
"4251",68.33459,78.9099,146.05603
"4252",68.34792,78.87816,145.99022
"4253",68.361244,78.84886,145.92586
"4254",68.37458,78.81712,145.85814
"4255",68.38792,78.79515,145.7992
"4256",68.40124,78.77318,145.73956
"4257",68.41457,78.751205,145.67924
"4258",68.42791,78.73167,145.62068
"4259",68.441246,78.71458,145.56395
"4260",68.45458,78.69749,145.50668
"4261",68.4679,78.6804,145.44888
"4262",68.48124,78.66575,145.39299
"4263",68.494576,78.6511,145.33664
"4264",68.5079,78.63645,145.27983
"4265",68.52123,78.6218,145.22256
"4266",68.53457,78.60471,145.1624
"4267",68.547905,78.58762,145.1017
"4268",68.56124,78.56809,145.03802
"4269",68.57456,78.55833,144.9835
"4270",68.5879,78.58762,144.96774
"4271",68.601234,78.70725,145.04323
"4272",68.614555,78.96605,145.26163
"4273",68.62789,79.37133,145.6346
"4274",68.64123,79.89868,146.1423
"4275",68.654564,80.482185,146.72264
"4276",68.6679,81.041275,147.2968
"4277",68.68122,81.50271,147.79077
"4278",68.69456,81.83719,148.17221
"4279",68.70789,82.04227,148.43471
"4280",68.721214,82.144806,148.60107
"4281",68.73455,82.1741,148.6974
"4282",68.74789,82.161896,148.75314
"4283",68.76122,82.125275,148.78409
"4284",68.77456,82.08133,148.80656
"4285",68.78788,82.039825,148.83011
"4286",68.801216,82.003204,148.85724
"4287",68.81455,81.96414,148.88078
"4288",68.82787,81.9202,148.89822
"4289",68.84121,81.866486,148.90453
"4290",68.854546,81.78836,148.88474
"4291",68.86788,81.67605,148.82831
"4292",68.88122,81.529564,148.7342
"4293",68.89454,81.358665,148.61111
"4294",68.907875,81.17555,148.47046
"4295",68.92121,81.004654,148.3363
"4296",68.93453,80.86305,148.2261
"4297",68.94787,80.762955,148.15298
"4298",68.961205,80.69459,148.10846
"4299",68.97454,80.64332,148.0789
"4300",68.98788,80.59693,148.05263
"4301",69.0012,80.54322,148.01758
"4302",69.014534,80.47486,147.9662
"4303",69.02787,80.39185,147.89804
"4304",69.04119,80.289314,147.80775
"4305",69.05453,80.17456,147.70204
"4306",69.06786,80.05249,147.58542
"4307",69.0812,79.923096,147.45767
"4308",69.094536,79.7937,147.32587
"4309",69.10786,79.66918,147.1949
"4310",69.12119,79.54467,147.06004
"4311",69.13453,79.42748,146.92862
"4312",69.14785,79.32006,146.8033
"4313",69.16119,79.22484,146.68683
"4314",69.17452,79.14427,146.58203
"4315",69.18786,79.080795,146.4918
"4316",69.201195,79.03197,146.41425
"4317",69.214516,78.98802,146.34004
"4318",69.22785,78.94896,146.26935
"4319",69.24119,78.91234,146.19987
"4320",69.25451,78.87572,146.12926
"4321",69.267845,78.84154,146.05994
"4322",69.28118,78.80492,145.9871
"4323",69.29452,78.77806,145.9229
"4324",69.30785,78.746315,145.85297
"4325",69.321175,78.71458,145.78204
"4326",69.33451,78.68284,145.71013
"4327",69.34785,78.65354,145.63966
"4328",69.36117,78.6218,145.56584
"4329",69.374504,78.59251,145.49347
"4330",69.38784,78.56565,145.42262
"4331",69.40118,78.54124,145.35338
"4332",69.41451,78.52415,145.2907
"4333",69.42783,78.53147,145.25189
"4334",69.44117,78.58518,145.2597
"4335",69.454506,78.70725,145.33755
"4336",69.46783,78.9099,145.4998
"4337",69.48116,79.185776,145.74161
"4338",69.4945,79.50805,146.03844
"4339",69.507835,79.84009,146.3551
"4340",69.52117,80.14526,146.65527
"4341",69.53449,80.40162,146.91617
"4342",69.54783,80.60914,147.13625
"4343",69.561165,80.77272,147.31886
"4344",69.574486,80.902115,147.47241
"4345",69.58782,81.00954,147.60803
"4346",69.60116,81.09743,147.72748
"4347",69.614494,81.16823,147.83258
"4348",69.62783,81.22438,147.92525
"4349",69.64115,81.26589,148.00502
"4350",69.65449,81.290306,148.069
"4351",69.66782,81.287865,148.10689
"4352",69.681145,81.25124,148.11052
"4353",69.69448,81.16579,148.06416
"4354",69.70782,81.03883,147.97365
"4355",69.72115,80.88747,147.85475
"4356",69.73449,80.723885,147.7189
"4357",69.74781,80.57496,147.5926
"4358",69.76115,80.45533,147.49095
"4359",69.77448,80.36988,147.41974
"4360",69.7878,80.31373,147.37515
"4361",69.80114,80.27955,147.35078
"4362",69.814476,80.25025,147.33023
"4363",69.82781,80.22095,147.30875
"4364",69.84115,80.181885,147.27658
"4365",69.85447,80.130615,147.23099
"4366",69.867805,80.062256,147.16672
"4367",69.88114,79.98657,147.09299
"4368",69.89446,79.89624,147.00223
"4369",69.9078,79.79614,146.8989
"4370",69.921135,79.693596,146.78998
"4371",69.93447,79.59106,146.67786
"4372",69.94781,79.48852,146.56253
"4373",69.96113,79.39086,146.44888
"4374",69.974464,79.30541,146.34439
"4375",69.9878,79.22728,146.24455
"4376",70.00112,79.15892,146.15204
"4377",70.01446,79.10033,146.06715
"4378",70.027794,79.05394,145.99265
"4379",70.04113,79.0222,145.93134
"4380",70.05447,79.00267,145.88124
"4381",70.06779,78.98558,145.83298
"4382",70.08112,78.96849,145.78418
"4383",70.09446,78.94408,145.72752
"4384",70.10778,78.91234,145.66278
"4385",70.12112,78.87816,145.5946
"4386",70.13445,78.84642,145.5278
"4387",70.14779,78.81224,145.45757
"4388",70.161125,78.78783,145.39603
"4389",70.174446,78.76097,145.33128
"4390",70.18778,78.74387,145.27547
"4391",70.20112,78.75853,145.25087
"4392",70.21444,78.84154,145.29507
"4393",70.227776,79.02464,145.44197
"4394",70.24111,79.31762,145.70447
"4395",70.25445,79.7058,146.07132
"4396",70.267784,80.14038,146.4967
"4397",70.281105,80.56031,146.92102
"4398",70.29444,80.91676,147.29498
"4399",70.30778,81.18288,147.58975
"4400",70.3211,81.36355,147.80739
"4401",70.334435,81.47341,147.95987
"4402",70.34777,81.53933,148.07184
"4403",70.36111,81.566185,148.1468
"4404",70.37444,81.566185,148.19576
"4405",70.387764,81.54665,148.22517
"4406",70.4011,81.514915,148.24178
"4407",70.41444,81.47585,148.25006
"4408",70.42776,81.42947,148.2498
"4409",70.44109,81.373314,148.23833
"4410",70.45443,81.29763,148.20557
"4411",70.467766,81.1902,148.13869
"4412",70.4811,81.05348,148.03917
"4413",70.49442,80.89235,147.91096
"4414",70.50776,80.719,147.7655
"4415",70.521095,80.56275,147.63173
"4416",70.53442,80.43336,147.51993
"4417",70.54775,80.33814,147.43826
"4418",70.56109,80.27711,147.3878
"4419",70.574425,80.235596,147.35495
"4420",70.58776,80.2063,147.33301
"4421",70.60108,80.17944,147.31259
"4422",70.61442,80.14038,147.27914
"4423",70.627754,80.09155,147.23471
"4424",70.641075,80.025635,147.17166
"4425",70.65441,79.94263,147.08945
"4426",70.66775,79.84253,146.98755
"4427",70.68108,79.73266,146.87276
"4428",70.69442,79.61791,146.74965
"4429",70.70774,79.51049,146.63028
"4430",70.72108,79.40795,146.51244
"4431",70.73441,79.31518,146.40115
"4432",70.747734,79.23216,146.29674
"4433",70.76107,79.15648,146.19705
"4434",70.77441,79.093,146.10721
"4435",70.78774,79.03929,146.02515
"4436",70.80108,78.992905,145.94873
"4437",70.8144,78.95628,145.88063
"4438",70.827736,78.92699,145.81871
"4439",70.84107,78.905014,145.7632
"4440",70.85439,78.887924,145.71188
"4441",70.86773,78.873276,145.66248
"4442",70.881065,78.86107,145.61505
"4443",70.8944,78.84642,145.5648
"4444",70.90774,78.83421,145.51654
"4445",70.92106,78.819565,145.46545
"4446",70.934395,78.80492,145.41391
"4447",70.94773,78.78783,145.35947
"4448",70.96105,78.765854,145.2996
"4449",70.97439,78.73655,145.23174
"4450",70.987724,78.70481,145.1605
"4451",71.00106,78.67307,145.08829
"4452",71.0144,78.65354,145.02728
"4453",71.02772,78.677956,145.00961
"4454",71.04105,78.79515,145.0855
"4455",71.05439,79.0515,145.30418
"4456",71.06771,79.4641,145.68715
"4457",71.08105,80.0061,146.2124
"4458",71.09438,80.61158,146.81807
"4459",71.10772,81.18532,147.41092
"4460",71.121056,81.64919,147.91183
"4461",71.13438,81.96414,148.27832
"4462",71.14771,82.1326,148.50816
"4463",71.16105,82.18143,148.62364
"4464",71.17437,82.15457,148.66496
"4465",71.187706,82.08621,148.66394
"4466",71.20104,82.00076,148.64369
"4467",71.21438,81.9202,148.62566
"4468",71.227715,81.85184,148.61731
"4469",71.241035,81.80545,148.6288
"4470",71.25437,81.78104,148.66081
"4471",71.26771,81.761505,148.69695
"4472",71.28103,81.73464,148.72513
"4473",71.294365,81.68093,148.72563
"4474",71.3077,81.58572,148.68295
"4475",71.32104,81.444115,148.59091
"4476",71.33437,81.26345,148.45538
"4477",71.347694,81.06813,148.29955
"4478",71.36103,80.87526,148.14006
"4479",71.37437,80.70435,147.9965
"4480",71.38769,80.567635,147.8818
"4481",71.401024,80.465096,147.79701
"4482",71.41436,80.38941,147.73587
"4483",71.4277,80.32838,147.68701
"4484",71.44103,80.27711,147.64601
"4485",71.45435,80.22339,147.60095
"4486",71.46769,80.16235,147.5469
"4487",71.481026,80.08423,147.47385
"4488",71.49435,79.99634,147.38858
"4489",71.50768,79.89624,147.28836
"4490",71.52102,79.783936,147.17282
"4491",71.534355,79.66186,147.04399
"4492",71.54769,79.54711,146.91867
"4493",71.56101,79.429924,146.78732
"4494",71.57435,79.32006,146.65964
"4495",71.587685,79.217514,146.53584
"4496",71.601006,79.12962,146.4235
"4497",71.61434,79.05638,146.32304
"4498",71.62768,78.992905,146.23007
"4499",71.641014,78.93919,146.14488
"4500",71.65435,78.89281,146.06534
"4501",71.66767,78.853745,145.99167
"4502",71.68101,78.81712,145.91922
"4503",71.69434,78.7805,145.84563
"4504",71.707664,78.751205,145.77821
"4505",71.721,78.72434,145.71233
"4506",71.73434,78.695045,145.64316
"4507",71.74767,78.67063,145.57796
"4508",71.76101,78.64866,145.51443
"4509",71.77433,78.626686,145.45023
"4510",71.78767,78.6096,145.39021
"4511",71.801,78.59251,145.32967
"4512",71.81432,78.57786,145.27103
"4513",71.82766,78.56321,145.21193
"4514",71.840996,78.54368,145.14749
"4515",71.85433,78.52415,145.08244
"4516",71.86767,78.50706,145.01923
"4517",71.88099,78.49241,144.95792
"4518",71.894325,78.4802,144.89859
"4519",71.90766,78.470436,144.84132
"4520",71.92098,78.46067,144.78375
"4521",71.93432,78.45579,144.73076
"4522",71.947655,78.47288,144.69958
"4523",71.96099,78.56809,144.74707
"4524",71.97433,78.79271,144.92694
"4525",71.98765,79.18089,145.27739
"4526",72.000984,79.710686,145.78159
"4527",72.01432,80.33082,146.39267
"4528",72.02764,80.94606,147.01825
"4529",72.04098,81.463646,147.5654
"4530",72.05431,81.82254,147.97003
"4531",72.06765,82.01541,148.21986
"4532",72.080986,82.06668,148.33412
"4533",72.09431,82.020294,148.35233
"4534",72.10764,81.917755,148.31293
"4535",72.12098,81.79813,148.25323
"4536",72.1343,81.68093,148.19223
"4537",72.14764,81.58572,148.14955
"4538",72.16097,81.52468,148.13808
"4539",72.17431,81.4905,148.15155
"4540",72.187645,81.47097,148.1786
"4541",72.200966,81.45632,148.20993
"4542",72.2143,81.41726,148.21638
"4543",72.22764,81.33669,148.18011
"4544",72.24096,81.21217,148.09737
"4545",72.254295,81.04372,147.9668
"4546",72.26763,80.85573,147.81143
"4547",72.28097,80.66773,147.65018
"4548",72.294304,80.50172,147.50504
"4549",72.307625,80.36988,147.38889
"4550",72.32096,80.27711,147.30768
"4551",72.3343,80.216064,147.2553
"4552",72.34762,80.16968,147.21567
"4553",72.360954,80.128174,147.17947
"4554",72.37429,80.08179,147.13708
"4555",72.38763,80.01831,147.07617
"4556",72.40096,79.937744,146.99619
"4557",72.41428,79.84497,146.90146
"4558",72.42762,79.742424,146.79407
"4559",72.440956,79.63256,146.67615
"4560",72.45428,79.52758,146.55968
"4561",72.46761,79.42504,146.44237
"4562",72.48095,79.327385,146.32674
"4563",72.494286,79.237045,146.21538
"4564",72.50762,79.151596,146.10608
"4565",72.52094,79.07347,146.00143
"4566",72.53428,79.00511,145.90411
"4567",72.547615,78.94408,145.81198
"4568",72.560936,78.89281,145.7277
"4569",72.57427,78.853745,145.65404
"4570",72.58761,78.82201,145.58647
"4571",72.600945,78.79759,145.52524
"4572",72.61428,78.77806,145.46812
"4573",72.6276,78.75853,145.4104
"4574",72.64094,78.74143,145.3545
"4575",72.654274,78.7219,145.29564
"4576",72.667595,78.70481,145.2386
"4577",72.68093,78.68284,145.17615
"4578",72.69427,78.66331,145.11545
"4579",72.7076,78.64622,145.05658
"4580",72.72094,78.63157,144.99962
"4581",72.73426,78.61936,144.94464
"4582",72.7476,78.6096,144.89172
"4583",72.76093,78.59739,144.83606
"4584",72.774254,78.58762,144.78246
"4585",72.78759,78.5803,144.73099
"4586",72.80093,78.5803,144.68661
"4587",72.81426,78.58274,144.64468
"4588",72.8276,78.58518,144.60283
"4589",72.84092,78.58518,144.55861
"4590",72.854256,78.5803,144.5095
"4591",72.86759,78.57053,144.45537
"4592",72.88091,78.56077,144.40092
"4593",72.89425,78.551,144.34618
"4594",72.907585,78.56077,144.31065
"4595",72.92092,78.61936,144.32426
"4596",72.93426,78.7805,144.44226
"4597",72.94758,79.078354,144.702
"4598",72.960915,79.520256,145.1151
"4599",72.97425,80.062256,145.6421
"4600",72.98757,80.62867,146.21046
"4601",73.00091,81.13405,146.73549
"4602",73.014244,81.50759,147.14447
"4603",73.02758,81.722435,147.40643
"4604",73.04092,81.79813,147.53595
"4605",73.05424,81.77371,147.56773
"4606",73.06757,81.685814,147.53526
"4607",73.08091,81.566185,147.46832
"4608",73.09423,81.43923,147.39032
"4609",73.10757,81.322044,147.31812
"4610",73.1209,81.22194,147.25932
"4611",73.13424,81.146255,147.22183
"4612",73.147575,81.092545,147.20395
"4613",73.1609,81.05104,147.1966
"4614",73.17423,81.004654,147.18306
"4615",73.18757,80.94362,147.15343
"4616",73.20089,80.85329,147.09259
"4617",73.214226,80.73365,146.99962
"4618",73.22756,80.59205,146.88095
"4619",73.2409,80.448006,146.75542
"4620",73.254234,80.32105,146.64247
"4621",73.267555,80.216064,146.54752
"4622",73.28089,80.14526,146.48346
"4623",73.29423,80.09888,146.44162
"4624",73.30755,80.0647,146.41052
"4625",73.320885,80.03296,146.3808
"4626",73.33422,79.99878,146.34766
"4627",73.34756,79.96216,146.311
"4628",73.36089,79.91821,146.26587
"4629",73.374214,79.8645,146.2096
"4630",73.38755,79.801025,146.14188
"4631",73.40089,79.727776,146.06241
"4632",73.41421,79.65209,145.97821
"4633",73.42754,79.571526,145.88676
"4634",73.44088,79.4934,145.79524
"4635",73.454216,79.41772,145.70372
"4636",73.46755,79.34692,145.61472
"4637",73.48087,79.28344,145.53082
"4638",73.49421,79.22728,145.45227
"4639",73.507545,79.183334,145.38417
"4640",73.52087,79.14671,145.32202
"4641",73.5342,79.114975,145.26361
"4642",73.54754,79.09056,145.21153
"4643",73.560875,79.07103,145.16357
"4644",73.57421,79.05638,145.11989
"4645",73.58753,79.04173,145.07574
"4646",73.60087,79.029526,145.03358
"4647",73.614204,79.02464,144.99837
"4648",73.627525,79.01732,144.96056
"4649",73.64086,79.01488,144.9274
"4650",73.6542,79.009995,144.89172
"4651",73.667534,79.00267,144.85345
"4652",73.68087,78.995346,144.81496
"4653",73.69419,78.98314,144.77135
"4654",73.70753,78.96605,144.72247
"4655",73.72086,78.9514,144.6755
"4656",73.734184,78.93919,144.63052
"4657",73.74752,78.93187,144.59004
"4658",73.76086,78.92699,144.55177
"4659",73.77419,78.922104,144.51335
"4660",73.78753,78.922104,144.47966
"4661",73.80085,78.91966,144.44353
"4662",73.814186,78.91722,144.40732
"4663",73.82752,78.922104,144.37836
"4664",73.84084,78.95384,144.3764
"4665",73.85418,79.044174,144.43404
"4666",73.867516,79.23216,144.59215
"4667",73.88085,79.52514,144.86113
"4668",73.89419,79.90112,145.22227
"4669",73.90751,80.31373,145.63179
"4670",73.920845,80.70191,146.02979
"4671",73.93418,81.01198,146.36179
"4672",73.9475,81.2195,146.60094
"4673",73.96084,81.33425,146.7538
"4674",73.974174,81.38064,146.84189
"4675",73.98751,81.38308,146.88748
"4676",74.00085,81.356224,146.90385
"4677",74.01417,81.31716,146.90718
"4678",74.027504,81.270775,146.90196
"4679",74.04084,81.2195,146.8904
"4680",74.05416,81.16579,146.8748
"4681",74.0675,81.112076,146.85753
"4682",74.08083,81.05348,146.8337
"4683",74.09417,80.98024,146.79338
"4684",74.107506,80.885025,146.7288
"4685",74.12083,80.76784,146.63928
"4686",74.13416,80.63355,146.52899
"4687",74.1475,80.49439,146.40964
"4688",74.16082,80.365,146.2957
"4689",74.17416,80.26002,146.20213
"4690",74.18749,80.184326,146.13457
"4691",74.20083,80.14282,146.09882
"4692",74.214165,80.12085,146.0813
"4693",74.227486,80.113525,146.07776
"4694",74.24082,80.10864,146.07642
"4695",74.25416,80.10132,146.07248
"4696",74.26748,80.079346,146.05368
"4697",74.280815,80.045166,146.02197
"4698",74.29415,79.99634,145.97455
"4699",74.30749,79.93286,145.91095
"4700",74.32082,79.86206,145.83804
"4701",74.334145,79.79126,145.76294
"4702",74.34748,79.72045,145.68561
"4703",74.36082,79.65453,145.61095
"4704",74.37414,79.588615,145.53423
"4705",74.387474,79.52514,145.45789
"4706",74.40081,79.466545,145.38445
"4707",74.41415,79.41039,145.31161
"4708",74.42748,79.36889,145.25168
"4709",74.4408,79.33715,145.20021
"4710",74.45414,79.31518,145.15752
"4711",74.467476,79.30297,145.1239
"4712",74.4808,79.29809,145.09723
"4713",74.49413,79.30053,145.07773
"4714",74.50747,79.30541,145.06075
"4715",74.520805,79.30785,145.04147
"4716",74.53414,79.30785,145.01984
"4717",74.54746,79.30297,144.99332
"4718",74.5608,79.290764,144.95932
"4719",74.574135,79.276115,144.9225
"4720",74.587456,79.259026,144.88278
"4721",74.60079,79.24193,144.84253
"4722",74.61413,79.22728,144.80418
"4723",74.627464,79.21263,144.76538
"4724",74.6408,79.19798,144.72612
"4725",74.65412,79.183334,144.6864
"4726",74.66746,79.17113,144.64867
"4727",74.68079,79.168686,144.62032
"4728",74.694115,79.20775,144.63339
"4729",74.70745,79.31762,144.7185
"4730",74.72079,79.53002,144.90958
"4731",74.73412,79.84253,145.2074
"4732",74.74746,80.22583,145.58578
"4733",74.76078,80.621346,145.98836
"4734",74.77412,80.96803,146.35446
"4735",74.78745,81.22438,146.64107
"4736",74.80077,81.38064,146.83559
"4737",74.81411,81.45144,146.94954
"4738",74.827446,81.46853,147.012
"4739",74.84078,81.45388,147.04324
"4740",74.85412,81.42214,147.05695
"4741",74.86744,81.38064,147.05989
"4742",74.880775,81.32693,147.04933
"4743",74.89411,81.26833,147.03221
"4744",74.90743,81.20485,147.00836
"4745",74.92077,81.14137,146.98254
"4746",74.934105,81.06813,146.94498
"4747",74.94744,80.987564,146.8978
"4748",74.96078,80.88747,146.82857
"4749",74.9741,80.77272,146.74156
"4750",74.987434,80.64332,146.6363
"4751",75.00077,80.51148,146.52458
"4752",75.01409,80.394295,146.42339
"4753",75.02743,80.30152,146.34294
"4754",75.040764,80.24048,146.29132
"4755",75.0541,80.20874,146.26709
"4756",75.06744,80.19409,146.25897
"4757",75.08076,80.19409,146.26505
"4758",75.09409,80.18921,146.26624
"4759",75.10743,80.17212,146.25507
"4760",75.12075,80.13794,146.22626
"4761",75.13409,80.09155,146.18417
"4762",75.14742,80.0354,146.13089
"4763",75.16076,79.96704,146.06363
"4764",75.174095,79.89868,145.99423
"4765",75.187416,79.82788,145.92026
"4766",75.20075,79.75708,145.84409
"4767",75.21409,79.68627,145.76569
"4768",75.22741,79.62035,145.68996
"4769",75.240746,79.56176,145.61949
"4770",75.25408,79.51049,145.55452
"4771",75.26742,79.466545,145.49527
"4772",75.280754,79.432365,145.44441
"4773",75.294075,79.40551,145.39981
"4774",75.30741,79.38598,145.3617
"4775",75.32075,79.37133,145.32785
"4776",75.33407,79.35668,145.29355
"4777",75.347404,79.344475,145.26123
"4778",75.36074,79.33715,145.23341
"4779",75.37408,79.33715,145.21269
"4780",75.38741,79.33471,145.18953
"4781",75.400734,79.33471,145.16873
"4782",75.41407,79.327385,145.14061
"4783",75.42741,79.31762,145.10982
"4784",75.44073,79.30541,145.07628
"4785",75.45406,79.28832,145.03748
"4786",75.4674,79.276115,145.00302
"4787",75.480736,79.26147,144.96574
"4788",75.49407,79.24437,144.92557
"4789",75.50739,79.22728,144.88486
"4790",75.52073,79.21019,144.84361
"4791",75.534065,79.19066,144.7994
"4792",75.547386,79.18089,144.76433
"4793",75.56072,79.21019,144.76802
"4794",75.57406,79.31274,144.84589
"4795",75.587395,79.534904,145.04657
"4796",75.60073,79.89624,145.39337
"4797",75.61407,80.37232,145.86621
"4798",75.6274,80.89967,146.4052
"4799",75.64074,81.39773,146.93137
"4800",75.654076,81.78592,147.36324
"4801",75.66741,82.02518,147.65831
"4802",75.68075,82.12283,147.81926
"4803",75.694084,82.11063,147.8734
"4804",75.70742,82.02762,147.85635
"4805",75.72076,81.91287,147.80498
"4806",75.73409,81.79324,147.74513
"4807",75.74743,81.68337,147.6913
"4808",75.760765,81.59548,147.65602
"4809",75.7741,81.529564,147.63997
"4810",75.78744,81.48806,147.64627
"4811",75.80077,81.461205,147.66592
"4812",75.81411,81.43191,147.6823
"4813",75.827446,81.38796,147.6831
"4814",75.84078,81.30984,147.64836
"4815",75.85412,81.197525,147.57698
"4816",75.867455,81.05592,147.47281
"4817",75.88079,80.902115,147.352
"4818",75.89413,80.75807,147.23616
"4819",75.90746,80.638435,147.14021
"4820",75.9208,80.5481,147.06984
"4821",75.934135,80.48463,147.0235
"4822",75.94747,80.44068,146.9947
"4823",75.96081,80.40406,146.97186
"4824",75.974144,80.37232,146.95276
"4825",75.98748,80.33326,146.92534
"4826",76.00082,80.28443,146.88693
"4827",76.01415,80.22339,146.83478
"4828",76.02749,80.15259,146.77097
"4829",76.040825,80.07202,146.69516
"4830",76.05416,79.98657,146.61197
"4831",76.0675,79.90112,146.5261
"4832",76.08083,79.81079,146.43268
"4833",76.09417,79.72045,146.33643
"4834",76.107506,79.63744,146.24467
"4835",76.12084,79.56176,146.15765
"4836",76.13418,79.4934,146.07559
"4837",76.147514,79.43481,146.00116
"4838",76.16085,79.38598,145.93466
"4839",76.17419,79.34692,145.8764
"4840",76.18752,79.31762,145.82669
"4841",76.20086,79.29809,145.78583
"4842",76.214195,79.28344,145.74924
"4843",76.22753,79.26879,145.71219
"4844",76.24087,79.25414,145.67468
"4845",76.2542,79.237045,145.63428
"4846",76.26754,79.217514,145.5909
"4847",76.280876,79.19798,145.5469
"4848",76.29421,79.17845,145.5023
"4849",76.30755,79.15648,145.45465
"4850",76.320885,79.14183,145.41364
"4851",76.33422,79.12962,145.3746
"4852",76.34756,79.1223,145.34007
"4853",76.36089,79.11986,145.3102
"4854",76.37423,79.11253,145.27536
"4855",76.387566,79.10033,145.23541
"4856",76.4009,79.08568,145.19264
"4857",76.41424,79.06615,145.14453
"4858",76.427574,79.046616,145.09581
"4859",76.44091,79.03441,145.0538
"4860",76.45425,79.0222,145.01141
"4861",76.46758,79.01732,144.97597
"4862",76.48092,79.0222,144.95013
"4863",76.494255,79.061264,144.95863
"4864",76.50759,79.17601,145.04404
"4865",76.52093,79.4226,145.26488
"4866",76.53426,79.82544,145.64967
"4867",76.5476,80.360115,146.1789
"4868",76.560936,80.96071,146.79074
"4869",76.57427,81.53689,147.39694
"4870",76.58761,81.988556,147.89664
"4871",76.600945,82.27177,148.24199
"4872",76.61428,82.38651,148.42773
"4873",76.62762,82.36942,148.48523
"4874",76.64095,82.266884,148.45674
"4875",76.65429,82.12283,148.38353
"4876",76.667625,81.96658,148.29362
"4877",76.68096,81.82498,148.21349
"4878",76.6943,81.71511,148.16064
"4879",76.707634,81.63943,148.13857
"4880",76.72097,81.59792,148.1483
"4881",76.73431,81.58572,148.18604
"4882",76.74764,81.57595,148.22583
"4883",76.76098,81.55398,148.25311
"4884",76.774315,81.497826,148.24553
"4885",76.78765,81.39773,148.19225
"4886",76.80099,81.25613,148.09433
"4887",76.81432,81.08766,147.96512
"4888",76.82766,80.91432,147.82578
"4889",76.840996,80.76051,147.70055
"4890",76.85433,80.64088,147.60468
"4891",76.86767,80.552986,147.53682
"4892",76.881004,80.48951,147.49063
"4893",76.89434,80.448006,147.46443
"4894",76.90768,80.40894,147.43938
"4895",76.92101,80.36744,147.41066
"4896",76.93435,80.31129,147.366
"4897",76.947685,80.24048,147.30492
"4898",76.96102,80.15015,147.2221
"4899",76.97436,80.04761,147.12427
"4900",76.98769,79.940186,147.01834
"4901",77.00103,79.83276,146.90906
"4902",77.014366,79.727776,146.79884
"4903",77.0277,79.63012,146.69267
"4904",77.04104,79.53979,146.59077
"4905",77.054375,79.45678,146.49338
"4906",77.06771,79.381096,146.40071
"4907",77.08105,79.31518,146.31544
"4908",77.09438,79.259026,146.23788
"4909",77.10772,79.21019,146.1659
"4910",77.121056,79.166245,146.09726
"4911",77.13439,79.12962,146.03458
"4912",77.14773,79.097885,145.97563
"4913",77.161064,79.06859,145.91814
"4914",77.1744,79.046616,145.86705
"4915",77.18774,79.03197,145.8226
"4916",77.20107,79.01488,145.77525
"4917",77.21441,79.00023,145.72981
"4918",77.227745,78.98314,145.68147
"4919",77.24108,78.96849,145.63504
"4920",77.25442,78.95384,145.58815
"4921",77.26775,78.93675,145.53836
"4922",77.28109,78.91722,145.4856
"4923",77.294426,78.89525,145.42978
"4924",77.30776,78.8806,145.3806
"4925",77.3211,78.86595,145.33096
"4926",77.334435,78.84886,145.27843
"4927",77.34777,78.836655,145.23024
"4928",77.36111,78.82201,145.17923
"4929",77.37444,78.80492,145.12532
"4930",77.38778,78.79027,145.07332
"4931",77.401115,78.785385,145.03062
"4932",77.41445,78.7805,144.98778
"4933",77.42779,78.785385,144.95454
"4934",77.441124,78.81224,144.94344
"4935",77.45446,78.89525,144.98932
"4936",77.4678,79.08812,145.14766
"4937",77.48113,79.42748,145.45853
"4938",77.49447,79.91089,145.92404
"4939",77.507805,80.48951,146.49988
"4940",77.52114,81.08034,147.106
"4941",77.53448,81.58572,147.64514
"4942",77.54781,81.94461,148.05359
"4943",77.56115,82.13748,148.30724
"4944",77.574486,82.18631,148.42287
"4945",77.58782,82.13748,148.44237
"4946",77.60116,82.02762,148.3993
"4947",77.614494,81.8909,148.32596
"4948",77.62783,81.75174,148.2459
"4949",77.64117,81.62722,148.17612
"4950",77.6545,81.532005,148.13176
"4951",77.66784,81.463646,148.11128
"4952",77.681175,81.41726,148.11064
"4953",77.69451,81.38064,148.11832
"4954",77.70785,81.33669,148.11752
"4955",77.72118,81.26833,148.09094
"4956",77.73452,81.17067,148.03291
"4957",77.747856,81.04372,147.94255
"4958",77.76119,80.89967,147.83113
"4959",77.77453,80.75075,147.71033
"4960",77.787865,80.61646,147.5995
"4961",77.8012,80.50172,147.50403
"4962",77.81454,80.411385,147.42938
"4963",77.82787,80.343025,147.37389
"4964",77.84121,80.289314,147.3309
"4965",77.854546,80.24048,147.2911
"4966",77.86788,80.19409,147.25223
"4967",77.88122,80.13794,147.20215
"4968",77.894554,80.076904,147.14542
"4969",77.90789,80.00122,147.07214
"4970",77.92123,79.91577,146.98672
"4971",77.93456,79.82056,146.88889
"4972",77.9479,79.71801,146.78073
"4973",77.961235,79.61303,146.66693
"4974",77.97457,79.51049,146.55229
"4975",77.98791,79.415276,146.44177
"4976",78.00124,79.327385,146.3356
"4977",78.01458,79.256584,146.24377
"4978",78.027916,79.19798,146.16194
"4979",78.04125,79.151596,146.09048
"4980",78.05459,79.11253,146.0249
"4981",78.067924,79.078354,145.96298
"4982",78.08126,79.04906,145.90488
"4983",78.0946,79.01976,145.84586
"4984",78.10793,78.99046,145.78592
"4985",78.12127,78.96117,145.72507
"4986",78.134605,78.93675,145.66818
"4987",78.14794,78.91234,145.61053
"4988",78.16128,78.89281,145.557
"4989",78.174614,78.87816,145.50775
"4990",78.18795,78.86839,145.46292
"4991",78.20129,78.85863,145.41779
"4992",78.21462,78.853745,145.37723
"4993",78.22796,78.84886,145.33652
"4994",78.241295,78.84398,145.29565
"4995",78.25463,78.839096,145.25464
"4996",78.26797,78.83177,145.21103
"4997",78.2813,78.82445,145.16719
"4998",78.29464,78.81712,145.12312
"4999",78.307976,78.81224,145.08127
"5000",78.32131,78.80736,145.03926
"5001",78.33465,78.802475,144.9971
"5002",78.347984,78.79759,144.95479
"5003",78.36132,78.78783,144.90744
"5004",78.37466,78.785385,144.86711
"5005",78.38799,78.80003,144.8438
"5006",78.40133,78.86839,144.87465
"5007",78.414665,79.0222,144.99309
"5008",78.428,79.28832,145.22865
"5009",78.44134,79.65209,145.57018
"5010",78.45467,80.08423,145.99144
"5011",78.46801,80.53101,146.44086
"5012",78.481346,80.92653,146.85297
"5013",78.49468,81.234146,147.18954
"5014",78.50802,81.446556,147.44052
"5015",78.521355,81.57351,147.61269
"5016",78.53469,81.636986,147.72534
"5017",78.54803,81.65652,147.79604
"5018",78.56136,81.64675,147.83804
"5019",78.5747,81.619896,147.86266
"5020",78.588036,81.57839,147.87178
"5021",78.60137,81.529564,147.87228
"5022",78.61471,81.47585,147.86638
"5023",78.628044,81.4197,147.85635
"5024",78.64138,81.356224,147.83725
"5025",78.65472,81.27322,147.79663
"5026",78.66805,81.163345,147.72655
"5027",78.68139,81.03395,147.63351
"5028",78.694725,80.885025,147.5169
"5029",78.70806,80.73365,147.39319
"5030",78.7214,80.59693,147.2794
"5031",78.73473,80.48463,147.18576
"5032",78.74807,80.4065,147.12279
"5033",78.761406,80.35523,147.08423
"5034",78.77474,80.323494,147.0636
"5035",78.78808,80.30396,147.05418
"5036",78.801414,80.28199,147.04172
"5037",78.81475,80.2478,147.01634
"5038",78.82809,80.198975,146.97525
"5039",78.84142,80.1355,146.918
"5040",78.85476,80.05493,146.84167
"5041",78.868095,79.96948,146.75793
"5042",78.88143,79.87915,146.66666
"5043",78.89477,79.783936,146.56766
"5044",78.908104,79.691154,146.46812
"5045",78.92144,79.60082,146.36813
"5046",78.93478,79.51293,146.26776
"5047",78.94811,79.432365,146.17197
"5048",78.96145,79.35912,146.08098
"5049",78.974785,79.29565,145.99747
"5050",78.98812,79.24193,145.92174
"5051",79.00146,79.19798,145.8541
"5052",79.01479,79.168686,145.79973
"5053",79.02813,79.14183,145.74689
"5054",79.041466,79.1223,145.70053
"5055",79.0548,79.10277,145.65356
"5056",79.06814,79.08568,145.60843
"5057",79.081474,79.06859,145.56276
"5058",79.09481,79.05394,145.519
"5059",79.10815,79.04173,145.47722
"5060",79.12148,79.029526,145.43506
"5061",79.13482,79.01488,145.39008
"5062",79.148155,79.00023,145.34464
"5063",79.16149,78.98802,145.30118
"5064",79.17483,78.97826,145.25978
"5065",79.18816,78.97337,145.22296
"5066",79.2015,78.96849,145.18599
"5067",79.214836,78.958725,145.14398
"5068",79.22817,78.94652,145.09923
"5069",79.24151,78.924545,145.04433
"5070",79.254845,78.91234,144.9985
"5071",79.26818,78.941635,144.9938
"5072",79.28152,79.04906,145.06815
"5073",79.29485,79.26147,145.25084
"5074",79.30819,79.586174,145.55246
"5075",79.321526,79.98657,145.93993
"5076",79.33486,80.411385,146.36432
"5077",79.3482,80.80446,146.77025
"5078",79.361534,81.1194,147.11034
"5079",79.37487,81.33669,147.36261
"5080",79.38821,81.47097,147.53867
"5081",79.40154,81.53933,147.653
"5082",79.41488,81.56374,147.72552
"5083",79.428215,81.55642,147.76707
"5084",79.44155,81.532005,147.7913
"5085",79.45489,81.495384,147.80257
"5086",79.46822,81.45388,147.8078
"5087",79.48156,81.40749,147.80685
"5088",79.494896,81.36111,147.80446
"5089",79.50823,81.30251,147.7884
"5090",79.52157,81.22682,147.75342
"5091",79.534904,81.126724,147.69167
"5092",79.54824,80.99977,147.59993
"5093",79.56158,80.85573,147.48714
"5094",79.57491,80.71168,147.36983
"5095",79.58825,80.57984,147.26024
"5096",79.601585,80.47486,147.17339
"5097",79.61492,80.396736,147.1101
"5098",79.62826,80.34547,147.07124
"5099",79.641594,80.31129,147.04787
"5100",79.65493,80.28687,147.03319
"5101",79.66827,80.26246,147.01775
"5102",79.6816,80.22827,146.99176
"5103",79.69494,80.184326,146.95496
"5104",79.708275,80.128174,146.90457
"5105",79.72161,80.05249,146.83289
"5106",79.73495,79.96704,146.74908
"5107",79.74828,79.87427,146.65527
"5108",79.76162,79.77905,146.55612
"5109",79.774956,79.68139,146.45155
"5110",79.78829,79.588615,146.34882
"5111",79.80163,79.49828,146.24562
"5112",79.814964,79.412834,146.14449
"5113",79.8283,79.33959,146.05289
"5114",79.84164,79.27123,145.96388
"5115",79.85497,79.21507,145.88495
"5116",79.86831,79.168686,145.81403
"5117",79.881645,79.12718,145.74654
"5118",79.89498,79.09056,145.68263
"5119",79.90832,79.061264,145.62491
"5120",79.92165,79.04173,145.57603
"5121",79.93499,79.029526,145.53387
"5122",79.948326,79.0222,145.49622
"5123",79.96166,79.01488,145.45833
"5124",79.975,79.00755,145.42021
"5125",79.988335,79.00023,145.38187
"5126",80.00167,78.98558,145.33597
"5127",80.01501,78.97337,145.29205
"5128",80.02834,78.95628,145.24287
"5129",80.04168,78.93675,145.19072
"5130",80.055016,78.9099,145.13063
"5131",80.06835,78.88548,145.07214
"5132",80.08169,78.86839,145.02022
"5133",80.095024,78.873276,144.98973
"5134",80.10836,78.94408,145.02531
"5135",80.1217,79.1223,145.17053
"5136",80.13503,79.44457,145.46538
"5137",80.14837,79.90112,145.90457
"5138",80.161705,80.445564,146.44592
"5139",80.17504,80.99977,147.01405
"5140",80.18838,81.48806,147.53358
"5141",80.20171,81.846954,147.93898
"5142",80.21505,82.0618,148.21155
"5143",80.228386,82.15701,148.3712
"5144",80.24172,82.159454,148.44106
"5145",80.25506,82.10086,148.44995
"5146",80.268394,82.00809,148.42284
"5147",80.28173,81.900665,148.37817
"5148",80.29507,81.79813,148.33504
"5149",80.3084,81.71267,148.30577
"5150",80.32174,81.64919,148.29582
"5151",80.335075,81.602806,148.30098
"5152",80.34841,81.56374,148.31201
"5153",80.36175,81.51736,148.3145
"5154",80.375084,81.444115,148.28868
"5155",80.38842,81.33425,148.22395
"5156",80.40176,81.19264,148.12404
"5157",80.41509,81.02907,147.99774
"5158",80.42843,80.86305,147.86389
"5159",80.441765,80.71168,147.73949
"5160",80.4551,80.587166,147.63722
"5161",80.46844,80.48951,147.55792
"5162",80.48177,80.42115,147.50487
"5163",80.49511,80.36744,147.46432
"5164",80.508446,80.325935,147.43431
"5165",80.52178,80.27711,147.39568
"5166",80.53512,80.218506,147.34573
"5167",80.548454,80.14526,147.27933
"5168",80.56179,80.05737,147.19598
"5169",80.57513,79.957275,147.09769
"5170",80.58846,79.84741,146.98648
"5171",80.6018,79.7351,146.8694
"5172",80.615135,79.622795,146.74881
"5173",80.62847,79.50561,146.61983
"5174",80.64181,79.398186,146.49695
"5175",80.65514,79.29565,146.3756
"5176",80.66848,79.20775,146.26569
"5177",80.681816,79.13939,146.17256
"5178",80.69515,79.08324,146.08951
"5179",80.70849,79.03441,146.01202
"5180",80.721825,78.995346,145.94278
"5181",80.73516,78.96117,145.8772
"5182",80.7485,78.92699,145.81055
"5183",80.76183,78.89769,145.74771
"5184",80.77517,78.873276,145.68884
"5185",80.788506,78.853745,145.6341
"5186",80.80184,78.836655,145.58118
"5187",80.81518,78.81712,145.52528
"5188",80.828514,78.80003,145.47122
"5189",80.84185,78.78294,145.41663
"5190",80.85519,78.768295,145.36394
"5191",80.86852,78.751205,145.30835
"5192",80.88186,78.73899,145.25711
"5193",80.895195,78.72678,145.20549
"5194",80.90853,78.71458,145.15349
"5195",80.92187,78.70237,145.1011
"5196",80.9352,78.692604,145.05078
"5197",80.94854,78.6804,144.99771
"5198",80.961876,78.66575,144.94182
"5199",80.97521,78.6511,144.88547
"5200",80.98855,78.641335,144.83354
"5201",81.001884,78.643776,144.79352
"5202",81.01522,78.692604,144.79996
"5203",81.02856,78.839096,144.9056
"5204",81.04189,79.14183,145.17204
"5205",81.05523,79.61303,145.61642
"5206",81.068565,80.22827,146.21957
"5207",81.0819,80.91188,146.91031
"5208",81.09524,81.55886,147.58578
"5209",81.108574,82.06912,148.14476
"5210",81.12191,82.39628,148.53658
"5211",81.13525,82.55009,148.76527
"5212",81.14858,82.562294,148.85718
"5213",81.16192,82.48417,148.85913
"5214",81.175255,82.3621,148.8147
"5215",81.18859,82.22537,148.75179
"5216",81.20193,82.09842,148.69438
"5217",81.21526,81.99344,148.65498
"5218",81.2286,81.917755,148.6416
"5219",81.241936,81.87381,148.6576
"5220",81.25527,81.85428,148.69662
"5221",81.26861,81.83963,148.73993
"5222",81.281944,81.80789,148.76569
"5223",81.29528,81.74197,148.75626
"5224",81.30862,81.62966,148.6984
"5225",81.32195,81.47585,148.59552
"5226",81.33529,81.30251,148.4683
"5227",81.348625,81.129166,148.33566
"5228",81.36196,80.970474,148.21227
"5229",81.3753,80.84108,148.1132
"5230",81.38863,80.73609,148.0345
"5231",81.40197,80.6482,147.96962
"5232",81.415306,80.57496,147.91664
"5233",81.42864,80.50172,147.86137
"5234",81.44198,80.42359,147.79893
"5235",81.455315,80.34058,147.72917
"5236",81.46865,80.24536,147.64459
"5237",81.48199,80.13306,147.53995
"5238",81.49532,80.02075,147.4318
"5239",81.50866,79.90112,147.3128
"5240",81.521996,79.781494,147.1901
"5241",81.53533,79.66186,147.06363
"5242",81.54867,79.54467,146.93587
"5243",81.562004,79.432365,146.80933
"5244",81.57534,79.32494,146.68416
"5245",81.58868,79.22728,146.5654
"5246",81.60201,79.13695,146.45091
"5247",81.61535,79.05882,146.34581
"5248",81.628685,78.995346,146.25291
"5249",81.64202,78.93675,146.16292
"5250",81.65536,78.890366,146.0833
"5251",81.66869,78.84886,146.00711
"5252",81.68203,78.81712,145.93939
"5253",81.695366,78.78294,145.86824
"5254",81.7087,78.75609,145.80334
"5255",81.72204,78.73167,145.74005
"5256",81.735374,78.709694,145.67844
"5257",81.74871,78.68528,145.6137
"5258",81.76205,78.66575,145.55307
"5259",81.77538,78.643776,145.4894
"5260",81.78872,78.624245,145.42747
"5261",81.802055,78.60227,145.3625
"5262",81.81539,78.58274,145.29929
"5263",81.82873,78.56077,145.23302
"5264",81.842064,78.54124,145.1685
"5265",81.8554,78.51682,145.0985
"5266",81.86874,78.49485,145.03017
"5267",81.88207,78.47776,144.96603
"5268",81.89541,78.46067,144.90137
"5269",81.908745,78.45335,144.84593
"5270",81.92208,78.46067,144.80492
"5271",81.93542,78.51682,144.81296
"5272",81.94875,78.677956,144.92773
"5273",81.96209,78.99779,145.20625
"5274",81.975426,79.483635,145.66078
"5275",81.98876,80.10376,146.26477
"5276",82.0021,80.77272,146.93698
"5277",82.015434,81.40017,147.58858
"5278",82.02877,81.898224,148.13039
"5279",82.04211,82.230255,148.52174
"5280",82.05544,82.4036,148.76479
"5281",82.06878,82.44999,148.88629
"5282",82.082115,82.39872,148.91159
"5283",82.09545,82.2913,148.87914
"5284",82.10879,82.15457,148.81401
"5285",82.12212,82.02518,148.75195
"5286",82.13546,81.91287,148.70294
"5287",82.148796,81.832306,148.68216
"5288",82.16213,81.78348,148.6906
"5289",82.17547,81.75174,148.7146
"5290",82.188805,81.71511,148.73271
"5291",82.20214,81.651634,148.72284
"5292",82.21548,81.55398,148.6768
"5293",82.22881,81.41726,148.58865
"5294",82.24215,81.253685,148.46938
"5295",82.255486,81.08034,148.3352
"5296",82.26882,80.91432,148.20296
"5297",82.28216,80.765396,148.08261
"5298",82.295494,80.64332,147.98445
"5299",82.30883,80.54322,147.90446
"5300",82.32217,80.46021,147.83844
"5301",82.3355,80.38697,147.77959
"5302",82.34884,80.31617,147.72089
"5303",82.362175,80.23804,147.65263
"5304",82.37551,80.147705,147.56973
"5305",82.38885,80.04028,147.46692
"5306",82.40218,79.923096,147.35098
"5307",82.41552,79.79614,147.22162
"5308",82.428856,79.66186,147.08096
"5309",82.44219,79.53002,146.93855
"5310",82.45553,79.40063,146.79446
"5311",82.468864,79.276115,146.65121
"5312",82.4822,79.16136,146.51384
"5313",82.49554,79.05394,146.3802
"5314",82.50887,78.958725,146.25542
"5315",82.52221,78.87816,146.1423
"5316",82.535545,78.802475,146.03156
"5317",82.54888,78.74143,145.93309
"5318",82.56222,78.695045,145.84737
"5319",82.575554,78.65354,145.76508
"5320",82.58889,78.61692,145.68637
"5321",82.60223,78.58518,145.6114
"5322",82.61556,78.551,145.533
"5323",82.6289,78.51682,145.45354
"5324",82.642235,78.48264,145.373
"5325",82.65557,78.450905,145.29384
"5326",82.66891,78.42649,145.22101
"5327",82.68224,78.40696,145.1523
"5328",82.69558,78.39475,145.0903
"5329",82.708916,78.380104,145.02548
"5330",82.72225,78.37034,144.96509
"5331",82.73559,78.35813,144.90195
"5332",82.748924,78.34348,144.83598
"5333",82.76226,78.32639,144.76712
"5334",82.7756,78.311745,144.70016
"5335",82.78893,78.2971,144.63275
"5336",82.80227,78.28489,144.56732
"5337",82.815605,78.27512,144.50395
"5338",82.82894,78.27024,144.44516
"5339",82.84228,78.277565,144.39842
"5340",82.85561,78.31907,144.3861
"5341",82.86895,78.43137,144.44586
"5342",82.882286,78.65598,144.62144
"5343",82.89562,78.995346,144.91881
"5344",82.90896,79.429924,145.32199
"5345",82.922295,79.91089,145.78514
"5346",82.93563,80.377205,146.24867
"5347",82.94897,80.76784,146.6511
"5348",82.9623,81.05592,146.96318
"5349",82.97564,81.24635,147.18661
"5350",82.988976,81.35134,147.33055
"5351",83.00231,81.39773,147.41917
"5352",83.01565,81.40261,147.46774
"5353",83.028984,81.38064,147.48961
"5354",83.04232,81.341576,147.4937
"5355",83.05566,81.29275,147.4868
"5356",83.06899,81.234146,147.4686
"5357",83.08233,81.17555,147.44858
"5358",83.095665,81.112076,147.42184
"5359",83.109,81.03395,147.37848
"5360",83.12234,80.938736,147.31558
"5361",83.13567,80.81911,147.2253
"5362",83.14901,80.6775,147.10928
"5363",83.162346,80.51881,146.97177
"5364",83.17568,80.36744,146.83662
"5365",83.18902,80.24536,146.72603
"5366",83.202354,80.15259,146.64093
"5367",83.21569,80.093994,146.5871
"5368",83.22903,80.062256,146.55829
"5369",83.24236,80.03784,146.53583
"5370",83.2557,80.01587,146.51505
"5371",83.269035,79.98901,146.48868
"5372",83.28237,79.94995,146.44928
"5373",83.29571,79.89868,146.39645
"5374",83.309044,79.83032,146.32492
"5375",83.32238,79.7522,146.24149
"5376",83.33572,79.66186,146.1434
"5377",83.34905,79.569084,146.04005
"5378",83.36239,79.46899,145.92648
"5379",83.375725,79.37377,145.81467
"5380",83.38906,79.28344,145.70476
"5381",83.4024,79.202866,145.60179
"5382",83.41573,79.13451,145.50851
"5383",83.42907,79.080795,145.42775
"5384",83.442406,79.04173,145.35995
"5385",83.45574,79.009995,145.29826
"5386",83.46908,78.98558,145.2429
"5387",83.482414,78.96361,145.18922
"5388",83.49575,78.94408,145.1373
"5389",83.50909,78.92943,145.08965
"5390",83.52242,78.91478,145.04153
"5391",83.53576,78.90257,144.9954
"5392",83.549095,78.89281,144.95134
"5393",83.56243,78.887924,144.91185
"5394",83.57577,78.88304,144.87221
"5395",83.5891,78.87816,144.83241
"5396",83.60244,78.87816,144.79735
"5397",83.615776,78.87816,144.76228
"5398",83.62911,78.870834,144.7199
"5399",83.64245,78.85863,144.6724
"5400",83.655785,78.839096,144.61719
"5401",83.66912,78.819565,144.56137
"5402",83.68246,78.80736,144.51227
"5403",83.69579,78.82445,144.49208
"5404",83.70913,78.9099,144.54079
"5405",83.722466,79.097885,144.6947
"5406",83.7358,79.398186,144.96681
"5407",83.74914,79.79614,145.34596
"5408",83.762474,80.24292,145.78638
"5409",83.77581,80.6775,146.22855
"5410",83.78915,81.03639,146.60861
"5411",83.80248,81.290306,146.89491
"5412",83.81582,81.43435,147.07928
"5413",83.829155,81.48562,147.17538
"5414",83.84249,81.47585,147.21205
"5415",83.85583,81.42458,147.20691
"5416",83.86916,81.35134,147.17819
"5417",83.8825,81.270775,147.13986
"5418",83.895836,81.19264,147.10144
"5419",83.90917,81.1194,147.06548
"5420",83.92251,81.05592,147.03699
"5421",83.935844,80.99245,147.00652
"5422",83.94918,80.92409,146.96918
"5423",83.96252,80.8362,146.91017
"5424",83.97585,80.723885,146.82399
"5425",83.98919,80.59205,146.71478
"5426",84.002525,80.448006,146.58925
"5427",84.01586,80.31617,146.47142
"5428",84.0292,80.20386,146.36899
"5429",84.042534,80.12329,146.2948
"5430",84.05587,80.07446,146.24982
"5431",84.06921,80.05493,146.2326
"5432",84.08254,80.05005,146.22943
"5433",84.09588,80.042725,146.22366
"5434",84.109215,80.025635,146.20792
"5435",84.12255,79.98901,146.17209
"5436",84.13589,79.9353,146.11804
"5437",84.14922,79.8645,146.04523
"5438",84.16256,79.78638,145.96286
"5439",84.175896,79.708244,145.87805
"5440",84.18923,79.63256,145.79324
"5441",84.20257,79.55932,145.70851
"5442",84.215904,79.49096,145.62637
"5443",84.22924,79.4226,145.5421
"5444",84.24258,79.361565,145.46301
"5445",84.25591,79.30541,145.3869
"5446",84.26925,79.259026,145.3188
"5447",84.282585,79.219955,145.25658
"5448",84.29592,79.19066,145.2029
"5449",84.30926,79.166245,145.15318
"5450",84.32259,79.151596,145.11247
"5451",84.33593,79.14427,145.07863
"5452",84.349266,79.13939,145.047
"5453",84.3626,79.132065,145.01277
"5454",84.37594,79.1223,144.97588
"5455",84.389275,79.10765,144.93379
"5456",84.40261,79.09544,144.89369
"5457",84.41595,79.08324,144.85321
"5458",84.42928,79.078354,144.81967
"5459",84.44262,79.07591,144.78842
"5460",84.455956,79.07103,144.75465
"5461",84.46929,79.063705,144.71829
"5462",84.48263,79.05394,144.67926
"5463",84.495964,79.044174,144.63992
"5464",84.5093,79.03685,144.60272
"5465",84.52264,79.03197,144.56773
"5466",84.53597,79.027084,144.5326
"5467",84.54931,79.0222,144.4973
"5468",84.562645,79.029526,144.47406
"5469",84.57598,79.06859,144.48279
"5470",84.58932,79.19554,144.58063
"5471",84.60265,79.45434,144.81429
"5472",84.61599,79.852295,145.19519
"5473",84.629326,80.35523,145.69351
"5474",84.64266,80.89723,146.24661
"5475",84.656,81.38552,146.76294
"5476",84.669334,81.74685,147.16757
"5477",84.68267,81.951935,147.42725
"5478",84.69601,82.01053,147.54684
"5479",84.70934,81.9617,147.56085
"5480",84.72268,81.84207,147.50253
"5481",84.736015,81.69314,147.41116
"5482",84.74935,81.53689,147.30783
"5483",84.76269,81.39773,147.2167
"5484",84.776024,81.28298,147.14565
"5485",84.78936,81.20241,147.10516
"5486",84.8027,81.143814,147.08415
"5487",84.81603,81.10719,147.08328
"5488",84.82937,81.07057,147.08127
"5489",84.842705,81.01686,147.06102
"5490",84.85604,80.936295,147.01224
"5491",84.86938,80.82643,146.93164
"5492",84.88271,80.689705,146.82074
"5493",84.89605,80.5481,146.7007
"5494",84.909386,80.41627,146.586
"5495",84.92272,80.306404,146.48915
"5496",84.93606,80.22827,146.4206
"5497",84.949394,80.177,146.37646
"5498",84.96273,80.14038,146.34537
"5499",84.97607,80.10864,146.31802
"5500",84.9894,80.076904,146.28967
"5501",85.00274,80.03784,146.25302
"5502",85.016075,79.98657,146.20294
"5503",85.02941,79.93042,146.14636
"5504",85.04275,79.8645,146.07828
"5505",85.05608,79.79614,146.00568
"5506",85.06942,79.725334,145.9285
"5507",85.082756,79.64965,145.84422
"5508",85.09609,79.57885,145.76247
"5509",85.10943,79.50805,145.6785
"5510",85.122765,79.44457,145.59964
"5511",85.1361,79.39086,145.52856
"5512",85.14944,79.344475,145.46313
"5513",85.16277,79.30785,145.40602
"5514",85.17611,79.27856,145.35509
"5515",85.189445,79.25414,145.30812
"5516",85.20278,79.237045,145.26772
"5517",85.21612,79.22484,145.23166
"5518",85.229454,79.21507,145.19766
"5519",85.24279,79.20531,145.16336
"5520",85.25613,79.19798,145.1312
"5521",85.26946,79.19066,145.0988
"5522",85.2828,79.18089,145.06374
"5523",85.296135,79.17357,145.0308
"5524",85.30947,79.168686,145.00009
"5525",85.32281,79.1638,144.96922
"5526",85.33614,79.15404,144.93332
"5527",85.34948,79.14671,144.89955
"5528",85.362816,79.13939,144.86555
"5529",85.37615,79.132065,144.83133
"5530",85.38949,79.12474,144.79688
"5531",85.402824,79.11986,144.76463
"5532",85.41616,79.11986,144.73712
"5533",85.4295,79.11986,144.70961
"5534",85.44283,79.1223,144.68454
"5535",85.45617,79.12474,144.65955
"5536",85.469505,79.12962,144.63707
"5537",85.48284,79.12962,144.60986
"5538",85.49618,79.12962,144.58266
"5539",85.509514,79.132065,144.55789
"5540",85.52285,79.15404,144.55273
"5541",85.53619,79.23216,144.60442
"5542",85.54952,79.42748,144.77574
"5543",85.56286,79.77173,145.1021
"5544",85.576195,80.257576,145.58081
"5545",85.58953,80.82155,146.15283
"5546",85.60287,81.38308,146.74004
"5547",85.6162,81.84451,147.24469
"5548",85.62954,82.13748,147.5953
"5549",85.642876,82.25712,147.78174
"5550",85.65621,82.23514,147.83029
"5551",85.66955,82.11551,147.78052
"5552",85.682884,81.94461,147.67574
"5553",85.69622,81.75662,147.54852
"5554",85.70956,81.58083,147.42763
"5555",85.72289,81.43435,147.33055
"5556",85.73623,81.32693,147.26796
"5557",85.749565,81.25857,147.24107
"5558",85.7629,81.22194,147.24377
"5559",85.77624,81.19997,147.26
"5560",85.78957,81.17067,147.2682
"5561",85.80291,81.11696,147.25108
"5562",85.816246,81.02907,147.1981
"5563",85.82958,80.90456,147.10576
"5564",85.84292,80.76051,146.98999
"5565",85.856255,80.60914,146.86238
"5566",85.86959,80.46998,146.74226
"5567",85.88293,80.360115,146.6471
"5568",85.89626,80.28443,146.58267
"5569",85.9096,80.233154,146.54028
"5570",85.922935,80.20386,146.51828
"5571",85.93627,80.181885,146.50269
"5572",85.94961,80.15747,146.48395
"5573",85.962944,80.11841,146.4498
"5574",85.97628,80.06714,146.40222
"5575",85.98962,80.00122,146.33841
"5576",86.00295,79.92798,146.2652
"5577",86.01629,79.852295,146.18726
"5578",86.029625,79.77661,146.10696
"5579",86.04296,79.69848,146.02185
"5580",86.0563,79.62768,145.94162
"5581",86.06963,79.5642,145.8665
"5582",86.08297,79.50561,145.79428
"5583",86.096306,79.4519,145.72511
"5584",86.10964,79.40795,145.66403
"5585",86.12298,79.37377,145.61134
"5586",86.136314,79.344475,145.56247
"5587",86.14965,79.31762,145.51512
"5588",86.16299,79.29809,145.47426
"5589",86.17632,79.28344,145.43767
"5590",86.18966,79.27123,145.40306
"5591",86.202995,79.26391,145.37296
"5592",86.21633,79.26147,145.3475
"5593",86.22967,79.25414,145.3171
"5594",86.243004,79.24925,145.2889
"5595",86.25634,79.23949,145.25566
"5596",86.26968,79.22728,145.21968
"5597",86.28301,79.217514,145.18576
"5598",86.29635,79.21263,145.15642
"5599",86.309685,79.20531,145.12448
"5600",86.32302,79.19798,145.09232
"5601",86.33636,79.1931,145.06236
"5602",86.34969,79.1931,145.03714
"5603",86.36303,79.1931,145.01192
"5604",86.376366,79.1931,144.9867
"5605",86.3897,79.1931,144.96147
"5606",86.40304,79.18822,144.93137
"5607",86.416374,79.18089,144.89867
"5608",86.42971,79.17113,144.8633
"5609",86.44305,79.16136,144.82762
"5610",86.45638,79.166245,144.80629
"5611",86.46972,79.21507,144.82906
"5612",86.483055,79.35668,144.94614
"5613",86.49639,79.639885,145.20923
"5614",86.50973,80.07202,145.63011
"5615",86.52306,80.61402,146.17436
"5616",86.5364,81.18288,146.7624
"5617",86.549736,81.685814,147.3023
"5618",86.56307,82.039825,147.709
"5619",86.57641,82.21805,147.95097
"5620",86.589745,82.24002,148.04227
"5621",86.60308,82.15213,148.02438
"5622",86.61642,82.003204,147.94272
"5623",86.62975,81.832306,147.83443
"5624",86.64309,81.671165,147.73055
"5625",86.656425,81.53445,147.64606
"5626",86.66976,81.42458,147.58415
"5627",86.6831,81.34646,147.55055
"5628",86.696434,81.29275,147.53893
"5629",86.70977,81.25124,147.53783
"5630",86.72311,81.20973,147.53542
"5631",86.73644,81.15602,147.51952
"5632",86.74978,81.07301,147.47264
"5633",86.763115,80.96071,147.39388
"5634",86.77645,80.82887,147.29207
"5635",86.78979,80.69215,147.18124
"5636",86.80312,80.567635,147.07837
"5637",86.81646,80.46021,146.9887
"5638",86.829796,80.38209,146.92496
"5639",86.84313,80.325935,146.88075
"5640",86.85647,80.28687,146.85188
"5641",86.869804,80.26002,146.834
"5642",86.88314,80.23071,146.81282
"5643",86.89648,80.19409,146.78342
"5644",86.90981,80.14526,146.74066
"5645",86.92315,80.079346,146.67929
"5646",86.936485,80.00122,146.60364
"5647",86.94982,79.91577,146.51822
"5648",86.96316,79.82544,146.42526
"5649",86.976494,79.73754,146.33191
"5650",86.98983,79.656975,146.24313
"5651",87.00317,79.57885,146.15428
"5652",87.0165,79.50805,146.07031
"5653",87.02984,79.447014,145.9939
"5654",87.043175,79.3933,145.9229
"5655",87.05651,79.3518,145.86243
"5656",87.06985,79.31762,145.80798
"5657",87.08318,79.29565,145.76468
"5658",87.09652,79.281,145.72801
"5659",87.109856,79.26879,145.69333
"5660",87.12319,79.256584,145.65826
"5661",87.13653,79.24681,145.62526
"5662",87.149864,79.23216,145.58707
"5663",87.1632,79.219955,145.55086
"5664",87.17654,79.20775,145.51427
"5665",87.18987,79.19554,145.4773
"5666",87.20321,79.185776,145.44238
"5667",87.216545,79.17601,145.40717
"5668",87.22988,79.17113,145.37653
"5669",87.24322,79.16136,145.34085
"5670",87.25655,79.15404,145.30731
"5671",87.26989,79.14427,145.2711
"5672",87.283226,79.132065,145.23215
"5673",87.29656,79.11742,145.19037
"5674",87.3099,79.10765,145.15302
"5675",87.323235,79.10033,145.1178
"5676",87.33657,79.10033,145.08968
"5677",87.34991,79.11009,145.07132
"5678",87.36324,79.15404,145.08745
"5679",87.37658,79.27123,145.1782
"5680",87.389915,79.48608,145.37027
"5681",87.40325,79.80591,145.67404
"5682",87.41659,80.201416,146.06348
"5683",87.429924,80.61646,146.48482
"5684",87.44326,80.98268,146.8703
"5685",87.4566,81.25857,147.1769
"5686",87.46993,81.43191,147.38957
"5687",87.48327,81.51736,147.51978
"5688",87.496605,81.54421,147.59406
"5689",87.50994,81.53933,147.63744
"5690",87.52328,81.52224,147.66846
"5691",87.53661,81.495384,147.68918
"5692",87.54995,81.46609,147.70662
"5693",87.563286,81.43191,147.71826
"5694",87.57662,81.39773,147.72884
"5695",87.58996,81.358665,147.73346
"5696",87.603294,81.31472,147.73198
"5697",87.61663,81.25124,147.7096
"5698",87.62997,81.16579,147.66324
"5699",87.6433,81.05592,147.58981
"5700",87.65664,80.92653,147.49342
"5701",87.669975,80.79469,147.39055
"5702",87.68331,80.672615,147.2933
"5703",87.69665,80.57984,147.22156
"5704",87.709984,80.51148,147.17133
"5705",87.72332,80.46754,147.14337
"5706",87.73666,80.43336,147.12381
"5707",87.74999,80.4065,147.1105
"5708",87.76333,80.37965,147.09636
"5709",87.776665,80.34791,147.07649
"5710",87.79,80.308846,147.04831
"5711",87.80334,80.257576,147.0067
"5712",87.81667,80.19165,146.94882
"5713",87.83001,80.113525,146.87668
"5714",87.843346,80.028076,146.79477
"5715",87.85668,79.937744,146.70532
"5716",87.87002,79.85474,146.62036
"5717",87.883354,79.77661,146.53769
"5718",87.89669,79.708244,146.46234
"5719",87.91003,79.64965,146.39462
"5720",87.92336,79.59594,146.32996
"5721",87.9367,79.54467,146.26605
"5722",87.950035,79.500725,146.20787
"5723",87.96337,79.45678,146.14832
"5724",87.97671,79.4226,146.09715
"5725",87.99004,79.395744,146.05225
"5726",88.00338,79.37377,146.01138
"5727",88.016716,79.3518,145.96983
"5728",88.03005,79.33227,145.93004
"5729",88.04339,79.30785,145.88475
"5730",88.056725,79.28588,145.84114
"5731",88.07006,79.26147,145.7944
"5732",88.0834,79.24193,145.75179
"5733",88.09673,79.217514,145.70367
"5734",88.11007,79.19554,145.65724
"5735",88.123405,79.17601,145.61256
"5736",88.13674,79.15892,145.56972
"5737",88.15008,79.15892,145.54343
"5738",88.163414,79.19554,145.55376
"5739",88.17675,79.290764,145.62384
"5740",88.19009,79.466545,145.77745
"5741",88.20342,79.72289,146.01712
"5742",88.21676,80.04028,146.32585
"5743",88.230095,80.37965,146.66647
"5744",88.24343,80.69947,146.99817
"5745",88.25677,80.96803,147.28859
"5746",88.2701,81.17799,147.52881
"5747",88.28344,81.32937,147.717
"5748",88.296776,81.43679,147.86597
"5749",88.31011,81.512474,147.98656
"5750",88.32345,81.57351,148.09486
"5751",88.336784,81.617455,148.18799
"5752",88.35012,81.64187,148.26295
"5753",88.36346,81.64919,148.3216
"5754",88.37679,81.636986,148.36093
"5755",88.39013,81.600365,148.37547
"5756",88.403465,81.53689,148.36201
"5757",88.4168,81.44167,148.31483
"5758",88.43014,81.31228,148.2305
"5759",88.443474,81.160904,148.12013
"5760",88.45681,80.99245,147.98796
"5761",88.470146,80.82643,147.85297
"5762",88.48348,80.68482,147.73718
"5763",88.49682,80.584724,147.6585
"5764",88.510155,80.51881,147.61086
"5765",88.52349,80.48463,147.5929
"5766",88.53683,80.46754,147.59096
"5767",88.55016,80.45777,147.59581
"5768",88.5635,80.44068,147.59303
"5769",88.576836,80.40162,147.56775
"5770",88.59017,80.34547,147.52415
"5771",88.60351,80.26734,147.45683
"5772",88.616844,80.17456,147.3724
"5773",88.63018,80.06958,147.27289
"5774",88.64352,79.96216,147.16763
"5775",88.65685,79.852295,147.05658
"5776",88.67019,79.744865,146.94453
"5777",88.683525,79.639885,146.83157
"5778",88.69686,79.54223,146.72266
"5779",88.7102,79.45434,146.62045
"5780",88.72353,79.378654,146.52771
"5781",88.73687,79.32006,146.44969
"5782",88.750206,79.27856,146.38693
"5783",88.76354,79.2517,146.33752
"5784",88.77688,79.22972,146.29216
"5785",88.790215,79.21507,146.25343
"5786",88.80355,79.19798,146.2118
"5787",88.81689,79.17845,146.1672
"5788",88.83022,79.15648,146.11955
"5789",88.84356,79.13451,146.07121
"5790",88.856895,79.10521,146.01486
"5791",88.87023,79.07347,145.95515
"5792",88.88357,79.03929,145.89201
"5793",88.896904,79.00511,145.8278
"5794",88.91024,78.97093,145.76253
"5795",88.92358,78.93919,145.69862
"5796",88.93691,78.91234,145.63861
"5797",88.95025,78.91478,145.60706
"5798",88.963585,78.98314,145.6415
"5799",88.97692,79.166245,145.79282
"5800",88.99026,79.48852,146.08904
"5801",89.00359,79.940186,146.52472
"5802",89.01693,80.462654,147.04532
"5803",89.030266,80.987564,147.58469
"5804",89.0436,81.43435,148.06233
"5805",89.05694,81.75906,148.43187
"5806",89.070274,81.95682,148.6846
"5807",89.08361,82.05203,148.84097
"5808",89.09695,82.06668,148.91975
"5809",89.11028,82.0325,148.95016
"5810",89.12362,81.969025,148.95021
"5811",89.136955,81.898224,148.94095
"5812",89.15029,81.832306,148.93436
"5813",89.16363,81.78348,148.9428
"5814",89.17696,81.74929,148.96434
"5815",89.1903,81.71999,148.98972
"5816",89.203636,81.685814,149.0093
"5817",89.21697,81.6321,149.00827
"5818",89.23031,81.53933,148.9665
"5819",89.243645,81.40261,148.8779
"5820",89.25698,81.23659,148.7557
"5821",89.27032,81.05592,148.6137
"5822",89.28365,80.88014,148.47092
"5823",89.29699,80.723885,148.34216
"5824",89.310326,80.59937,148.24028
"5825",89.32366,80.51392,148.17357
"5826",89.337,80.45289,148.1286
"5827",89.350334,80.4065,148.09637
"5828",89.36367,80.365,148.06758
"5829",89.37701,80.31373,148.02773
"5830",89.39034,80.24292,147.96672
"5831",89.40368,80.15015,147.88153
"5832",89.417015,80.042725,147.77881
"5833",89.43035,79.923096,147.66052
"5834",89.44369,79.7937,147.52872
"5835",89.45702,79.6643,147.39287
"5836",89.47036,79.54711,147.26518
"5837",89.483696,79.432365,147.13628
"5838",89.49703,79.33227,147.01843
"5839",89.51037,79.24437,146.90967
"5840",89.523705,79.166245,146.80792
"5841",89.53704,79.09544,146.71106
"5842",89.55038,79.03197,146.61931
"5843",89.56371,78.9807,146.53778
"5844",89.57705,78.93431,146.45953
"5845",89.590385,78.89525,146.38716
"5846",89.60372,78.86351,146.32089
"5847",89.61706,78.836655,146.25851
"5848",89.630394,78.81224,146.19774
"5849",89.64373,78.78783,146.1362
"5850",89.65707,78.76341,146.0739
"5851",89.6704,78.73655,146.00839
"5852",89.68374,78.71458,145.94693
"5853",89.697075,78.68772,145.8799
"5854",89.71041,78.65598,145.80714
"5855",89.72375,78.6218,145.73096
"5856",89.73708,78.58762,145.6537
"5857",89.75042,78.553444,145.57538
"5858",89.763756,78.521706,145.49843
"5859",89.77709,78.5095,145.44002
"5860",89.79043,78.54124,145.42517
"5861",89.803764,78.67307,145.51141
"5862",89.8171,78.958725,145.7556
"5863",89.83044,79.4226,146.18694
"5864",89.84377,80.03784,146.78413
"5865",89.85711,80.72877,147.47624
"5866",89.870445,81.39529,148.16554
"5867",89.88378,81.9324,148.74626
"5868",89.89712,82.286415,149.16066
"5869",89.91045,82.459755,149.40546
"5870",89.92379,82.48173,149.5043
"5871",89.937126,82.4036,149.50374
"5872",89.95046,82.27177,149.44702
"5873",89.9638,82.1326,149.37885
"5874",89.977135,82.020294,149.33319
"5875",89.99047,81.94949,149.32553
"5876",90.00381,81.92752,149.36449
"5877",90.01714,81.94217,149.43938
"5878",90.03048,81.969025,149.52693
"5879",90.043816,81.98123,149.60068
"5880",90.05715,81.95438,149.63574
"5881",90.07049,81.87137,149.61382
"5882",90.083824,81.72488,149.5258
"5883",90.09716,81.53445,149.38928
"5884",90.1105,81.31716,149.21996
"5885",90.12383,81.10475,149.0487
"5886",90.13717,80.91432,148.8928
"5887",90.150505,80.762955,148.77002
"5888",90.16384,80.6482,148.67911
"5889",90.17718,80.56519,148.61636
"5890",90.19051,80.49439,148.56323
"5891",90.20385,80.42359,148.50789
"5892",90.217186,80.34058,148.43813
"5893",90.23052,80.24536,148.35355
"5894",90.24386,80.1355,148.25134
"5895",90.257195,80.01343,148.13351
"5896",90.27053,79.886475,148.00699
"5897",90.28387,79.7522,147.86917
"5898",90.2972,79.61791,147.72714
"5899",90.31054,79.483635,147.58092
"5900",90.323875,79.35424,147.43538
"5901",90.33721,79.22972,147.29068
"5902",90.35055,79.11742,147.1543
"5903",90.363884,79.01488,147.02417
"5904",90.37722,78.92699,146.90549
"5905",90.39056,78.8513,146.79626
"5906",90.40389,78.78294,146.692
"5907",90.41723,78.72434,146.59537
"5908",90.430565,78.67063,146.50179
"5909",90.4439,78.624245,146.41385
"5910",90.45724,78.58518,146.33179
"5911",90.47057,78.551,146.25339
"5912",90.48391,78.52415,146.18124
"5913",90.497246,78.49729,146.10826
"5914",90.51058,78.47532,146.03932
"5915",90.52392,78.44602,145.96237
"5916",90.537254,78.41428,145.88206
"5917",90.55059,78.37766,145.79588
"5918",90.56393,78.3386,145.70612
"5919",90.57726,78.2971,145.61269
"5920",90.5906,78.25803,145.5204
"5921",90.603935,78.22385,145.43178
"5922",90.61727,78.19455,145.34697
"5923",90.63061,78.167694,145.26369
"5924",90.64394,78.15549,145.19421
"5925",90.65728,78.18967,145.17075
"5926",90.670616,78.331276,145.25578
"5927",90.68395,78.63889,145.51125
"5928",90.69729,79.132065,145.96188
"5929",90.710625,79.78882,146.5915
"5930",90.72396,80.52613,147.32222
"5931",90.7373,81.231705,148.04424
"5932",90.75063,81.80789,148.65892
"5933",90.76397,82.19119,149.09872
"5934",90.777306,82.38163,149.35764
"5935",90.79064,82.41581,149.46625
"5936",90.80398,82.34257,149.4685
"5937",90.817314,82.21805,149.41719
"5938",90.83065,82.08865,149.35712
"5939",90.84399,81.98367,149.31741
"5940",90.85732,81.92264,149.31837
"5941",90.87066,81.91043,149.36626
"5942",90.883995,81.92752,149.44305
"5943",90.89733,81.95682,149.5326
"5944",90.91067,81.96658,149.60352
"5945",90.924,81.92508,149.62347
"5946",90.93734,81.82498,149.58354
"5947",90.950676,81.66384,149.47943
"5948",90.96401,81.46609,149.33368
"5949",90.97735,81.25124,149.16466
"5950",90.990685,81.0486,149.00111
"5951",91.00402,80.87526,148.86055
"5952",91.01736,80.73365,148.74629
"5953",91.03069,80.618904,148.65448
"5954",91.04403,80.52369,148.57861
"5955",91.057365,80.44068,148.51198
"5956",91.0707,80.35767,148.44275
"5957",91.08404,80.26734,148.3636
"5958",91.097374,80.164795,148.26941
"5959",91.11071,80.04761,148.15738
"5960",91.12405,79.91577,148.02704
"5961",91.13738,79.77173,147.88037
"5962",91.15072,79.62035,147.72186
"5963",91.164055,79.466545,147.55618
"5964",91.17739,79.31762,147.39058
"5965",91.19073,79.18089,147.23253
"5966",91.20406,79.05394,147.07997
"5967",91.2174,78.94652,146.94298
"5968",91.230736,78.853745,146.81728
"5969",91.24407,78.768295,146.696
"5970",91.25741,78.69016,146.57938
"5971",91.270744,78.61936,146.46764
"5972",91.28408,78.553444,146.35857
"5973",91.29742,78.49241,146.25232
"5974",91.31075,78.4387,146.15149
"5975",91.32409,78.39231,146.0563
"5976",91.337425,78.35081,145.96455
"5977",91.35076,78.311745,145.87395
"5978",91.3641,78.277565,145.787
"5979",91.37743,78.24582,145.70143
"5980",91.39077,78.21408,145.61487
"5981",91.404106,78.184784,145.52975
"5982",91.41744,78.15549,145.44373
"5983",91.43078,78.12863,145.35922
"5984",91.444115,78.09689,145.269
"5985",91.45745,78.065155,145.17778
"5986",91.47079,78.03586,145.08801
"5987",91.48412,78.00412,144.99489
"5988",91.49746,77.97238,144.90077
"5989",91.510796,77.945526,144.81055
"5990",91.52413,77.93088,144.73169
"5991",91.53747,77.95285,144.689
"5992",91.550804,78.06271,144.73488
"5993",91.56414,78.30686,144.91849
"5994",91.57748,78.71702,145.27573
"5995",91.59081,79.26879,145.7874
"5996",91.60415,79.91089,146.40665
"5997",91.617485,80.5481,147.04108
"5998",91.63082,81.0901,147.6002
"5999",91.64416,81.478294,148.02246
"6000",91.65749,81.70046,148.29083
"6001",91.67083,81.78348,148.42699
"6002",91.684166,81.76639,148.46564
"6003",91.6975,81.69558,148.45003
"6004",91.71084,81.602806,148.41025
"6005",91.724174,81.5198,148.37733
"6006",91.73751,81.45876,148.3638
"6007",91.75085,81.42947,148.3801
"6008",91.76418,81.42214,148.41745
"6009",91.77752,81.41726,148.45702
"6010",91.790855,81.39773,148.48178
"6011",91.80419,81.33425,148.46199
"6012",91.81753,81.22194,148.39137
"6013",91.830864,81.06325,148.27087
"6014",91.8442,80.88014,148.121
"6015",91.85754,80.68726,147.95563
"6016",91.87087,80.51881,147.80865
"6017",91.88421,80.37965,147.68571
"6018",91.897545,80.27955,147.59749
"6019",91.91088,80.20874,147.53542
"6020",91.92422,80.15503,147.48822
"6021",91.93755,80.10376,147.4418
"6022",91.95089,80.04028,147.38156
"6023",91.964226,79.9646,147.30713
"6024",91.97756,79.86694,147.20837
"6025",91.9909,79.75952,147.0968
"6026",92.004234,79.639885,146.96965
"6027",92.01757,79.51537,146.83388
"6028",92.03091,79.38842,146.69177
"6029",92.04424,79.26879,146.55302
"6030",92.05758,79.15404,146.41542
"6031",92.070915,79.0515,146.28644
"6032",92.08425,78.96361,146.1689
"6033",92.09759,78.88548,146.05838
"6034",92.11092,78.81712,145.95518
"6035",92.12426,78.751205,145.8523
"6036",92.137596,78.692604,145.75467
"6037",92.15093,78.643776,145.66498
"6038",92.16427,78.60471,145.58353
"6039",92.177605,78.57786,145.51306
"6040",92.19094,78.56077,145.45152
"6041",92.20428,78.54856,145.39433
"6042",92.21761,78.536354,145.33676
"6043",92.23095,78.519264,145.27393
"6044",92.244286,78.49729,145.20567
"6045",92.25762,78.47288,145.1343
"6046",92.27096,78.44602,145.05971
"6047",92.284294,78.41917,144.98428
"6048",92.29763,78.39231,144.90802
"6049",92.31097,78.36057,144.82603
"6050",92.3243,78.331276,144.7455
"6051",92.33764,78.30686,144.66893
"6052",92.350975,78.29221,144.60136
"6053",92.36431,78.28733,144.5431
"6054",92.37765,78.30442,144.50667
"6055",92.39098,78.37766,144.52692
"6056",92.40432,78.54368,144.64223
"6057",92.417656,78.836655,144.8897
"6058",92.43099,79.2517,145.26839
"6059",92.44433,79.74731,145.7406
"6060",92.457664,80.26002,146.2454
"6061",92.471,80.70435,146.69788
"6062",92.48434,81.03639,147.05193
"6063",92.49767,81.23659,147.28452
"6064",92.51101,81.322044,147.40862
"6065",92.524345,81.32693,147.45482
"6066",92.53768,81.287865,147.45723
"6067",92.55102,81.231705,147.44131
"6068",92.564354,81.17555,147.42366
"6069",92.57769,81.13405,147.4189
"6070",92.59103,81.10475,147.42505
"6071",92.60436,81.08278,147.4376
"6072",92.6177,81.05348,147.44215
"6073",92.631035,81.004654,147.42625
"6074",92.64437,80.919205,147.37221
"6075",92.65771,80.79225,147.27399
"6076",92.67104,80.635994,147.14249
"6077",92.68438,80.465096,146.99147
"6078",92.697716,80.29908,146.84
"6079",92.71105,80.16235,146.71262
"6080",92.72439,80.06958,146.62491
"6081",92.737724,80.01587,146.57336
"6082",92.75106,79.991455,146.54944
"6083",92.7644,79.98169,146.5394
"6084",92.77773,79.971924,146.52905
"6085",92.79107,79.94751,146.50375
"6086",92.804405,79.89868,146.45328
"6087",92.81774,79.83276,146.38419
"6088",92.83108,79.7522,146.2984
"6089",92.84441,79.656975,146.19543
"6090",92.85775,79.55688,146.08461
"6091",92.871086,79.45434,145.96822
"6092",92.88442,79.35668,145.8535
"6093",92.89776,79.26635,145.74306
"6094",92.911095,79.19066,145.64444
"6095",92.92443,79.12718,145.55566
"6096",92.93777,79.078354,145.47955
"6097",92.9511,79.03685,145.40924
"6098",92.96444,79.00023,145.34251
"6099",92.977776,78.97337,145.28441
"6100",92.99111,78.9514,145.23035
"6101",93.00445,78.93675,145.18292
"6102",93.017784,78.924545,145.13748
"6103",93.03112,78.91478,145.0941
"6104",93.04446,78.90257,145.04797
"6105",93.05779,78.88304,144.99414
"6106",93.07113,78.85863,144.93481
"6107",93.084465,78.83421,144.87473
"6108",93.0978,78.80736,144.81143
"6109",93.11114,78.7805,144.7473
"6110",93.12447,78.76097,144.68965
"6111",93.13781,78.75609,144.64604
"6112",93.151146,78.78294,144.63402
"6113",93.16448,78.887924,144.70096
"6114",93.17782,79.10521,144.88348
"6115",93.191154,79.45678,145.20709
"6116",93.20449,79.91089,145.64423
"6117",93.21783,80.411385,146.14194
"6118",93.23116,80.88014,146.62355
"6119",93.2445,81.24391,147.01483
"6120",93.257835,81.463646,147.27344
"6121",93.27117,81.55154,147.40707
"6122",93.28451,81.53689,147.44092
"6123",93.297844,81.463646,147.41571
"6124",93.31118,81.36355,147.36136
"6125",93.32452,81.270775,147.3112
"6126",93.33785,81.19508,147.27522
"6127",93.35119,81.143814,147.2613
"6128",93.364525,81.11452,147.26776
"6129",93.37786,81.092545,147.28062
"6130",93.3912,81.06813,147.29036
"6131",93.40453,81.02174,147.27736
"6132",93.41787,80.93385,147.2214
"6133",93.431206,80.80446,147.1212
"6134",93.44454,80.64332,146.9852
"6135",93.45788,80.4773,146.8393
"6136",93.471214,80.325935,146.70285
"6137",93.48455,80.20386,146.59096
"6138",93.49789,80.11841,146.51187
"6139",93.51122,80.06958,146.46674
"6140",93.52456,80.0354,146.43472
"6141",93.537895,80.0061,146.40652
"6142",93.55123,79.974365,146.37497
"6143",93.56457,79.93286,146.33267
"6144",93.5779,79.87427,146.27197
"6145",93.59124,79.798584,146.19235
"6146",93.604576,79.71557,146.10304
"6147",93.61791,79.62768,146.00626
"6148",93.63125,79.54223,145.90916
"6149",93.644585,79.45922,145.81184
"6150",93.65792,79.378654,145.71437
"6151",93.67126,79.30297,145.61926
"6152",93.68459,79.23216,145.52667
"6153",93.69793,79.17113,145.44164
"6154",93.711266,79.11742,145.36201
"6155",93.7246,79.078354,145.29536
"6156",93.73794,79.044174,145.23238
"6157",93.751274,79.01732,145.17564
"6158",93.76461,78.992905,145.12051
"6159",93.77795,78.975815,145.07195
"6160",93.79128,78.958725,145.02284
"6161",93.80462,78.94652,144.97809
"6162",93.817955,78.93675,144.9354
"6163",93.83129,78.922104,144.88751
"6164",93.84463,78.9099,144.84161
"6165",93.85796,78.89769,144.79533
"6166",93.8713,78.887924,144.75111
"6167",93.884636,78.88548,144.71391
"6168",93.89797,78.88548,144.67908
"6169",93.91131,78.88304,144.6418
"6170",93.924644,78.8806,144.60445
"6171",93.93798,78.87816,144.56702
"6172",93.95132,78.873276,144.52707
"6173",93.96465,78.86839,144.48697
"6174",93.97799,78.86595,144.44916
"6175",93.991325,78.86107,144.40883
"6176",94.00466,78.86107,144.37323
"6177",94.018,78.86107,144.33763
"6178",94.031334,78.86839,144.30936
"6179",94.04467,78.92699,144.33258
"6180",94.05801,79.08812,144.46017
"6181",94.07134,79.40307,144.74663
"6182",94.08468,79.87427,145.19917
"6183",94.098015,80.45045,145.77142
"6184",94.11135,81.05104,146.3861
"6185",94.12469,81.5613,146.9292
"6186",94.13802,81.90555,147.32224
"6187",94.15136,82.056915,147.53316
"6188",94.164696,82.04471,147.58524
"6189",94.17803,81.92996,147.5344
"6190",94.19137,81.76883,147.43358
"6191",94.204704,81.61013,147.33015
"6192",94.21804,81.48318,147.25352
"6193",94.23138,81.40749,147.2242
"6194",94.24471,81.38308,147.24377
"6195",94.25805,81.40017,147.3041
"6196",94.271385,81.43679,147.38448
"6197",94.28472,81.463646,147.45624
"6198",94.29806,81.45876,147.4971
"6199",94.31139,81.40505,147.48898
"6200",94.32473,81.29275,147.4206
"6201",94.338066,81.129166,147.29741
"6202",94.3514,80.94118,147.14471
"6203",94.36474,80.75319,146.98615
"6204",94.378075,80.584724,146.84122
"6205",94.39141,80.45533,146.7301
"6206",94.40475,80.36256,146.65157
"6207",94.41808,80.29908,146.59943
"6208",94.43142,80.25269,146.5624
"6209",94.444756,80.21118,146.52878
"6210",94.45809,80.164795,146.48898
"6211",94.47143,80.111084,146.44043
"6212",94.484764,80.05005,146.38287
"6213",94.4981,79.974365,146.30875
"6214",94.51144,79.8938,146.22739
"6215",94.52477,79.80835,146.13861
"6216",94.53811,79.725334,146.0496
"6217",94.551445,79.64233,145.95801
"6218",94.56478,79.55932,145.86382
"6219",94.57812,79.48119,145.77191
"6220",94.59145,79.41039,145.68489
"6221",94.60479,79.34203,145.5981
"6222",94.618126,79.290764,145.52626
"6223",94.63146,79.2517,145.46503
"6224",94.6448,79.22728,145.41722
"6225",94.658134,79.20775,145.37354
"6226",94.67147,79.18822,145.32924
"6227",94.68481,79.166245,145.28189
"6228",94.69814,79.13939,145.22897
"6229",94.71148,79.114975,145.17766
"6230",94.724815,79.093,145.12802
"6231",94.73815,79.07103,145.0777
"6232",94.75149,79.0515,145.02913
"6233",94.764824,79.027084,144.97507
"6234",94.77816,79.00267,144.92024
"6235",94.7915,78.98314,144.86954
"6236",94.80483,78.96849,144.8231
"6237",94.81817,78.958725,144.7811
"6238",94.831505,78.95628,144.74611
"6239",94.84484,78.95628,144.71349
"6240",94.85818,78.958725,144.6833
"6241",94.87151,78.95628,144.64832
"6242",94.88485,78.95384,144.61325
"6243",94.898186,78.94652,144.57323
"6244",94.91152,78.93675,144.53053
"6245",94.92486,78.92943,144.48997
"6246",94.938194,78.922104,144.44919
"6247",94.95153,78.91234,144.40573
"6248",94.96487,78.907455,144.36685
"6249",94.9782,78.9099,144.33514
"6250",94.99154,78.93919,144.33037
"6251",95.004875,79.046616,144.40463
"6252",95.01821,79.281,144.60922
"6253",95.03155,79.6643,144.97005
"6254",95.04488,80.177,145.47226
"6255",95.05822,80.743416,146.0442
"6256",95.071556,81.27322,146.59724
"6257",95.08489,81.671165,147.03499
"6258",95.09823,81.89578,147.31183
"6259",95.111565,81.94949,147.42479
"6260",95.1249,81.87625,147.41248
"6261",95.13824,81.73708,147.33194
"6262",95.15157,81.58572,147.23486
"6263",95.16491,81.45388,147.15259
"6264",95.178246,81.36843,147.11258
"6265",95.19158,81.33425,147.12117
"6266",95.20492,81.34402,147.17264
"6267",95.218254,81.3782,147.24883
"6268",95.23159,81.41238,147.32608
"6269",95.24493,81.42458,147.38243
"6270",95.25826,81.39529,147.39766
"6271",95.2716,81.31228,147.35826
"6272",95.284935,81.17799,147.26498
"6273",95.29827,81.00954,147.13335
"6274",95.31161,80.831314,146.98668
"6275",95.32494,80.66773,146.84908
"6276",95.33828,80.533455,146.73567
"6277",95.351616,80.44068,146.65958
"6278",95.36495,80.38453,146.6172
"6279",95.37829,80.34791,146.5926
"6280",95.391624,80.31373,146.5693
"6281",95.40496,80.272224,146.53761
"6282",95.4183,80.218506,146.4924
"6283",95.43163,80.15503,146.43576
"6284",95.44497,80.08179,146.36737
"6285",95.458305,80.00122,146.28937
"6286",95.47164,79.91577,146.20395
"6287",95.48498,79.83032,146.11588
"6288",95.498314,79.742424,146.02267
"6289",95.51165,79.656975,145.92917
"6290",95.52499,79.57885,145.84032
"6291",95.53832,79.50805,145.75635
"6292",95.55166,79.447014,145.67993
"6293",95.564995,79.395744,145.61137
"6294",95.57833,79.34692,145.54366
"6295",95.59167,79.30541,145.48174
"6296",95.605,79.26879,145.4234
"6297",95.61834,79.234604,145.36636
"6298",95.631676,79.21019,145.31802
"6299",95.64501,79.19066,145.2738
"6300",95.65835,79.17845,145.2363
"6301",95.671684,79.168686,145.20085
"6302",95.68502,79.15404,145.16022
"6303",95.69836,79.13695,145.11668
"6304",95.71169,79.11986,145.07262
"6305",95.72503,79.10033,145.02557
"6306",95.738365,79.08324,144.98036
"6307",95.7517,79.06859,144.93706
"6308",95.76504,79.05882,144.89818
"6309",95.77837,79.04906,144.859
"6310",95.79171,79.03929,144.8195
"6311",95.805046,79.029526,144.77971
"6312",95.81838,79.0222,144.74205
"6313",95.83172,79.00755,144.69684
"6314",95.845055,78.995346,144.65361
"6315",95.85839,78.98558,144.61244
"6316",95.87173,78.9807,144.57585
"6317",95.88506,78.97826,144.54155
"6318",95.8984,78.975815,144.50717
"6319",95.911736,78.975815,144.47516
"6320",95.92507,78.97826,144.44559
"6321",95.93841,78.98314,144.41853
"6322",95.951744,78.992905,144.39651
"6323",95.96508,79.03197,144.4041
"6324",95.97842,79.13939,144.48126
"6325",95.99175,79.361565,144.67654
"6326",96.00509,79.710686,145.0057
"6327",96.018425,80.16235,145.44833
"6328",96.03176,80.66285,145.9539
"6329",96.0451,81.129166,146.44093
"6330",96.05843,81.48318,146.83023
"6331",96.07177,81.69558,147.08899
"6332",96.085106,81.77615,147.22255
"6333",96.09844,81.75906,147.26097
"6334",96.11178,81.68337,147.24025
"6335",96.125114,81.58572,147.1952
"6336",96.13845,81.48562,147.14467
"6337",96.15179,81.40505,147.11053
"6338",96.16512,81.3489,147.0983
"6339",96.17846,81.3196,147.11116
"6340",96.191795,81.30984,147.14264
"6341",96.20513,81.304955,147.1787
"6342",96.21847,81.287865,147.2024
"6343",96.231804,81.23659,147.19136
"6344",96.24514,81.146255,147.13968
"6345",96.25848,81.02174,147.051
"6346",96.27181,80.87526,146.93645
"6347",96.28515,80.723885,146.81242
"6348",96.298485,80.59693,146.7081
"6349",96.31182,80.50416,146.63399
"6350",96.32516,80.44068,146.58627
"6351",96.33849,80.39918,146.55855
"6352",96.35183,80.36988,146.54173
"6353",96.365166,80.34058,146.524
"6354",96.3785,80.29908,146.49315
"6355",96.39184,80.2478,146.45122
"6356",96.405174,80.18677,146.39792
"6357",96.41851,80.12085,146.33783
"6358",96.43185,80.042725,146.26349
"6359",96.44518,79.96216,146.18427
"6360",96.45852,79.87427,146.09518
"6361",96.471855,79.79126,146.00824
"6362",96.48519,79.708244,145.9187
"6363",96.49853,79.635,145.83633
"6364",96.51186,79.571526,145.76144
"6365",96.5252,79.517815,145.69434
"6366",96.538536,79.47875,145.6402
"6367",96.55187,79.44213,145.58728
"6368",96.56521,79.412834,145.54054
"6369",96.578545,79.38598,145.49533
"6370",96.59188,79.364006,145.45416
"6371",96.60522,79.33959,145.40987
"6372",96.61855,79.31762,145.36725
"6373",96.63189,79.30053,145.32883
"6374",96.645226,79.28832,145.29475
"6375",96.65856,79.273674,145.25786
"6376",96.6719,79.259026,145.2205
"6377",96.685234,79.24925,145.18758
"6378",96.69857,79.23949,145.15434
"6379",96.71191,79.22972,145.1208
"6380",96.72524,79.21507,145.08208
"6381",96.73858,79.202866,145.04533
"6382",96.751915,79.18822,145.00577
"6383",96.76525,79.17357,144.96574
"6384",96.77859,79.15404,144.92038
"6385",96.79192,79.13939,144.87929
"6386",96.80526,79.1223,144.8353
"6387",96.818596,79.10521,144.79077
"6388",96.83193,79.09544,144.75304
"6389",96.84527,79.10765,144.73697
"6390",96.858604,79.183334,144.78476
"6391",96.87194,79.35424,144.93015
"6392",96.88528,79.64477,145.20049
"6393",96.89861,80.04028,145.5849
"6394",96.91195,80.48951,146.03539
"6395",96.925285,80.93141,146.49258
"6396",96.93862,81.29763,146.88791
"6397",96.95196,81.54421,147.17505
"6398",96.965294,81.66384,147.34294
"6399",96.97863,81.688255,147.41936
"6400",96.99197,81.64431,147.42818
"6401",97.0053,81.56374,147.399
"6402",97.01864,81.47341,147.35754
"6403",97.031975,81.392845,147.32303
"6404",97.04531,81.32937,147.30309
"6405",97.05865,81.28542,147.30069
"6406",97.07198,81.25857,147.31401
"6407",97.08532,81.23659,147.33136
"6408",97.098656,81.20241,147.33583
"6409",97.11199,81.13893,147.30994
"6410",97.12533,81.041275,147.24788
"6411",97.138664,80.91432,147.15347
"6412",97.152,80.76784,147.03557
"6413",97.16534,80.62379,146.91551
"6414",97.17867,80.50172,146.81294
"6415",97.19201,80.411385,146.7383
"6416",97.205345,80.34547,146.68524
"6417",97.21868,80.306404,146.65698
"6418",97.23202,80.27955,146.63971
"6419",97.24535,80.25269,146.6216
"6420",97.25869,80.22339,146.60019
"6421",97.272026,80.184326,146.56812
"6422",97.28536,80.13306,146.52261
"6423",97.2987,80.0647,146.4584
"6424",97.312035,79.98413,146.37985
"6425",97.32537,79.89868,146.29391
"6426",97.33871,79.80835,146.20041
"6427",97.35204,79.71801,146.10408
"6428",97.36538,79.63744,146.0147
"6429",97.378716,79.569084,145.935
"6430",97.39205,79.50561,145.85805
"6431",97.40539,79.4519,145.78888
"6432",97.418724,79.40795,145.7278
"6433",97.43206,79.37133,145.67267
"6434",97.4454,79.33959,145.62128
"6435",97.45873,79.31274,145.57378
"6436",97.47207,79.28832,145.52788
"6437",97.485405,79.26635,145.48366
"6438",97.49874,79.24925,145.44363
"6439",97.51208,79.22972,145.40063
"6440",97.52541,79.21507,145.36191
"6441",97.53875,79.200424,145.32272
"6442",97.552086,79.185776,145.28308
"6443",97.56542,79.17357,145.24542
"6444",97.57876,79.16136,145.20738
"6445",97.592094,79.151596,145.1714
"6446",97.60543,79.13939,145.13268
"6447",97.61877,79.12718,145.09357
"6448",97.6321,79.114975,145.05408
"6449",97.64544,79.10277,145.0142
"6450",97.658775,79.08812,144.97151
"6451",97.67211,79.078354,144.93324
"6452",97.68545,79.06615,144.89223
"6453",97.698784,79.05394,144.85083
