"","Time..s.","PPG.trace","Preprocessed.PPG"
"37185",496.1039,79.95239,88.3156
"37186",496.11728,79.97681,88.338524
"37187",496.13058,79.954834,88.31583
"37188",496.14395,79.89624,88.25582
"37189",496.15726,79.798584,88.15492
"37190",496.17062,79.67895,88.02899
"37191",496.18393,79.54955,87.889565
"37192",496.1973,79.41772,87.74365
"37193",496.2106,79.28344,87.59118
"37194",496.22397,79.15404,87.439384
"37195",496.23727,79.03929,87.2982
"37196",496.25064,78.93675,87.16564
"37197",496.26395,78.84886,87.044525
"37198",496.2773,78.77318,86.93287
"37199",496.29062,78.712135,86.83349
"37200",496.304,78.66575,86.74686
"37201",496.3173,78.63157,86.67098
"37202",496.33066,78.6096,86.60625
"37203",496.34396,78.59983,86.55303
"37204",496.35733,78.59739,86.506836
"37205",496.37064,78.60471,86.47033
"37206",496.384,78.63401,86.456024
"37207",496.3973,78.71702,86.496346
"37208",496.41068,78.90013,86.639366
"37209",496.42398,79.2224,86.92726
"37210",496.43735,79.708244,87.38881
"37211",496.45065,80.3357,88.00715
"37212",496.46402,81.041275,88.72321
"37213",496.47733,81.74197,89.45644
"37214",496.4907,82.340126,90.10904
"37215",496.504,82.760056,90.6021
"37216",496.51736,82.97734,90.90563
"37217",496.53067,83.001755,91.02309
"37218",496.54404,82.86992,90.985054
"37219",496.55734,82.62577,90.83059
"37220",496.5707,82.32548,90.61235
"37221",496.584,82.00809,90.36763
"37222",496.59738,81.7029,90.1252
"37223",496.6107,81.427025,89.902534
"37224",496.62405,81.1902,89.710304
"37225",496.63736,80.98512,89.54242
"37226",496.65073,80.799576,89.38766
"37227",496.66403,80.62379,89.236855
"37228",496.6774,80.448006,89.08057
"37229",496.6907,80.26978,88.91634
"37230",496.70407,80.093994,88.748985
"37231",496.71738,79.9353,88.59323
"37232",496.73074,79.80835,88.46426
"37233",496.74405,79.73266,88.382576
"37234",496.75742,79.70092,88.34248
"37235",496.77072,79.710686,88.3429
"37236",496.7841,79.742424,88.3656
"37237",496.7974,79.77417,88.3893
"37238",496.81076,79.78882,88.39689
"37239",496.82407,79.77661,88.37808
"37240",496.83743,79.73022,88.32471
"37241",496.85074,79.656975,88.243034
"37242",496.8641,79.554436,88.129776
"37243",496.8774,79.43725,87.998665
"37244",496.89078,79.31274,87.85657
"37245",496.90408,79.18822,87.71057
"37246",496.91745,79.06859,87.565575
"37247",496.93076,78.96117,87.42905
"37248",496.94412,78.86595,87.30137
"37249",496.95743,78.7805,87.18048
"37250",496.9708,78.712135,87.074005
"37251",496.9841,78.65354,86.97517
"37252",496.99747,78.607155,86.8867
"37253",497.01077,78.57053,86.80656
"37254",497.02414,78.54124,86.73259
"37255",497.03745,78.519264,86.66503
"37256",497.0508,78.51194,86.611435
"37257",497.06412,78.51682,86.56982
"37258",497.07748,78.538795,86.54544
"37259",497.0908,78.59983,86.560814
"37260",497.10416,78.73655,86.65378
"37261",497.11746,78.995346,86.87309
"37262",497.13083,79.40551,87.25186
"37263",497.14413,79.95972,87.78749
"37264",497.1575,80.618904,88.44542
"37265",497.1708,81.29763,89.143486
"37266",497.18417,81.900665,89.78707
"37267",497.19748,82.354774,90.300575
"37268",497.21085,82.62333,90.642715
"37269",497.22415,82.703896,90.80526
"37270",497.23752,82.62821,90.81407
"37271",497.25082,82.4329,90.70089
"37272",497.2642,82.1741,90.51812
"37273",497.2775,81.8909,90.30286
"37274",497.29086,81.617455,90.0885
"37275",497.30417,81.36843,89.89002
"37276",497.31754,81.15602,89.720375
"37277",497.33084,80.96803,89.56851
"37278",497.3442,80.799576,89.430305
"37279",497.3575,80.62867,89.284386
"37280",497.37088,80.45045,89.12581
"37281",497.3842,80.26246,88.9519
"37282",497.39755,80.08179,88.77943
"37283",497.41086,79.920654,88.62085
"37284",497.42422,79.80347,88.50118
"37285",497.43753,79.744865,88.43644
"37286",497.4509,79.74731,88.43091
"37287",497.4642,79.7937,88.469406
"37288",497.47757,79.85962,88.52888
"37289",497.49088,79.91577,88.58064
"37290",497.50424,79.94507,88.60731
"37291",497.51755,79.93042,88.59094
"37292",497.5309,79.87671,88.53506
"37293",497.54422,79.78882,88.44331
"37294",497.5576,79.674065,88.32196
"37295",497.5709,79.54711,88.18482
"37296",497.58426,79.41039,88.03395
"37297",497.59756,79.27856,87.88369
"37298",497.61093,79.15648,87.73907
"37299",497.62424,79.04906,87.605286
"37300",497.6376,78.958725,87.48524
"37301",497.6509,78.887924,87.3819
"37302",497.66428,78.839096,87.29832
"37303",497.67758,78.80492,87.22786
"37304",497.69095,78.7805,87.1661
"37305",497.70425,78.76097,87.10846
"37306",497.71762,78.746315,87.055084
"37307",497.73093,78.73411,87.0037
"37308",497.7443,78.72678,86.95682
"37309",497.7576,78.7219,86.91215
"37310",497.77097,78.72434,86.87465
"37311",497.78427,78.74387,86.85432
"37312",497.79764,78.78783,86.85902
"37313",497.81094,78.89281,86.92612
"37314",497.8243,79.10521,87.10392
"37315",497.83762,79.45678,87.42753
"37316",497.85098,79.94507,87.89884
"37317",497.8643,80.5359,88.48795
"37318",497.87766,81.160904,89.12971
"37319",497.89096,81.72488,89.72996
"37320",497.90433,82.15457,90.213554
"37321",497.91763,82.406044,90.53236
"37322",497.931,82.4744,90.6759
"37323",497.9443,82.39384,90.67266
"37324",497.95767,82.20096,90.55459
"37325",497.97098,81.94949,90.3719
"37326",497.98434,81.67361,90.15694
"37327",497.99765,81.40749,89.94312
"37328",498.01102,81.163345,89.74296
"37329",498.02432,80.94606,89.56203
"37330",498.0377,80.74586,89.39139
"37331",498.051,80.55543,89.224266
"37332",498.06436,80.360115,89.04631
"37333",498.07767,80.16235,88.8598
"37334",498.09103,79.971924,88.674446
"37335",498.10434,79.80591,88.50755
"37336",498.1177,79.68871,88.38429
"37337",498.131,79.63744,88.323296
"37338",498.14438,79.65209,88.326614
"37339",498.15768,79.725334,88.388985
"37340",498.17105,79.82056,88.475624
"37341",498.18436,79.91089,88.56035
"37342",498.19772,79.96704,88.613716
"37343",498.21103,79.97681,88.62245
"37344",498.2244,79.937744,88.582664
"37345",498.2377,79.85474,88.49771
"37346",498.25107,79.74731,88.38574
"37347",498.26437,79.61547,88.24601
"37348",498.27774,79.466545,88.08507
"37349",498.29105,79.310295,87.91215
"37350",498.3044,79.149155,87.729454
"37351",498.31772,78.98802,87.54173
"37352",498.3311,78.836655,87.35874
"37353",498.3444,78.70237,87.1881
"37354",498.35776,78.590065,87.03525
"37355",498.37106,78.50706,86.90818
"37356",498.38443,78.45579,86.81026
"37357",498.39774,78.4387,86.74491
"37358",498.4111,78.45579,86.71321
"37359",498.4244,78.504616,86.71378
"37360",498.43777,78.58274,86.74518
"37361",498.45108,78.68528,86.80343
"37362",498.46445,78.802475,86.87954
"37363",498.47775,78.924545,86.96419
"37364",498.49112,79.03685,87.042885
"37365",498.50443,79.132065,87.108
"37366",498.5178,79.2224,87.17121
"37367",498.5311,79.327385,87.2519
"37368",498.54446,79.48119,87.38469
"37369",498.55777,79.73022,87.6175
"37370",498.57114,80.093994,87.97285
"37371",498.58444,80.56275,88.44454
"37372",498.5978,81.08522,88.9846
"37373",498.6111,81.59304,89.52633
"37374",498.62448,82.01297,89.99604
"37375",498.6378,82.286415,90.33239
"37376",498.65115,82.39628,90.5137
"37377",498.66446,82.354774,90.54708
"37378",498.67783,82.196075,90.46197
"37379",498.69113,81.96414,90.29866
"37380",498.7045,81.69558,90.09148
"37381",498.7178,81.42947,89.87835
"37382",498.73117,81.17799,89.67155
"37383",498.74448,80.94606,89.476425
"37384",498.75784,80.726326,89.286255
"37385",498.77115,80.50904,89.09167
"37386",498.78452,80.28687,88.88541
"37387",498.79782,80.06958,88.67708
"37388",498.8112,79.871826,88.4815
"37389",498.8245,79.72045,88.32612
"37390",498.83786,79.635,88.23193
"37391",498.85117,79.62524,88.21076
"37392",498.86453,79.68383,88.257645
"37393",498.87784,79.78638,88.35031
"37394",498.8912,79.89868,88.45594
"37395",498.9045,80.00122,88.55531
"37396",498.91788,80.0647,88.61883
"37397",498.93118,80.07446,88.630615
"37398",498.94455,80.028076,88.586555
"37399",498.95786,79.937744,88.4971
"37400",498.97122,79.81323,88.37064
"37401",498.98453,79.676506,88.22808
"37402",498.9979,79.53002,88.07149
"37403",499.0112,79.39086,87.91764
"37404",499.02457,79.26391,87.77165
"37405",499.03787,79.14671,87.631454
"37406",499.05124,79.044174,87.50225
"37407",499.06454,78.958725,87.38693
"37408",499.0779,78.89525,87.29092
"37409",499.09122,78.84886,87.21001
"37410",499.10458,78.82445,87.14962
"37411",499.1179,78.82445,87.112885
"37412",499.13126,78.84642,87.09812
"37413",499.14456,78.87572,87.09137
"37414",499.15793,78.91234,87.09286
"37415",499.17123,78.93919,87.085724
"37416",499.1846,78.9514,87.06478
"37417",499.1979,78.95628,87.036896
"37418",499.21127,78.95384,87.00184
"37419",499.22458,78.9514,86.966705
"37420",499.23795,78.958725,86.94126
"37421",499.25125,79.00023,86.950226
"37422",499.26462,79.11742,87.03617
"37423",499.27792,79.34936,87.24053
"37424",499.2913,79.727776,87.59862
"37425",499.3046,80.24536,88.1077
"37426",499.31796,80.85817,88.72817
"37427",499.33127,81.480736,89.377556
"37428",499.34464,82.02518,89.96827
"37429",499.35794,82.42069,90.42707
"37430",499.3713,82.63798,90.72
"37431",499.3846,82.67948,90.84394
"37432",499.39798,82.58427,90.83246
"37433",499.4113,82.39384,90.722786
"37434",499.42465,82.15457,90.55833
"37435",499.43796,81.90799,90.379074
"37436",499.45132,81.671165,90.20187
"37437",499.46463,81.463646,90.04658
"37438",499.478,81.28054,89.90921
"37439",499.4913,81.11696,89.785645
"37440",499.50467,80.94606,89.64965
"37441",499.51797,80.762955,89.49611
"37442",499.53134,80.56275,89.31975
"37443",499.54465,80.34791,89.12249
"37444",499.558,80.14526,88.93072
"37445",499.57132,79.97681,88.7668
"37446",499.5847,79.86206,88.65133
"37447",499.598,79.81079,88.59575
"37448",499.61136,79.818115,88.59716
"37449",499.62466,79.86694,88.640305
"37450",499.63803,79.923096,88.6923
"37451",499.65134,79.96948,88.73628
"37452",499.6647,79.98413,88.74998
"37453",499.678,79.954834,88.720184
"37454",499.69138,79.888916,88.652855
"37455",499.70468,79.78882,88.549286
"37456",499.71805,79.67162,88.42549
"37457",499.73135,79.54467,88.28828
"37458",499.74472,79.42016,88.149536
"37459",499.75803,79.29565,88.006905
"37460",499.7714,79.183334,87.87258
"37461",499.7847,79.080795,87.74452
"37462",499.79807,78.98802,87.623024
"37463",499.81137,78.9099,87.513275
"37464",499.82474,78.84886,87.418175
"37465",499.83804,78.8098,87.34314
"37466",499.8514,78.79515,87.2913
"37467",499.86472,78.80003,87.25853
"37468",499.87808,78.81468,87.23568
"37469",499.8914,78.839096,87.22305
"37470",499.90475,78.86595,87.21363
"37471",499.91806,78.887924,87.200165
"37472",499.93143,78.90013,87.17762
"37473",499.94473,78.90257,87.14569
"37474",499.9581,78.89525,87.10407
"37475",499.9714,78.88304,87.05734
"37476",499.98477,78.873276,87.01267
"37477",499.99808,78.89281,86.996994
"37478",500.01144,78.975815,87.0454
"37479",500.02475,79.17601,87.21359
"37480",500.03812,79.52514,87.53697
"37481",500.05142,80.025635,88.02263
"37482",500.0648,80.638435,88.63623
"37483",500.0781,81.287865,89.30561
"37484",500.09146,81.87625,89.93424
"37485",500.10477,82.320595,90.43722
"37486",500.11813,82.58427,90.77341
"37487",500.13144,82.67216,90.942055
"37488",500.1448,82.62089,90.97429
"37489",500.1581,82.46952,90.90482
"37490",500.17148,82.27177,90.78424
"37491",500.18478,82.05203,90.6355
"37492",500.19815,81.83963,90.48722
"37493",500.21146,81.64431,90.34939
"37494",500.22482,81.47341,90.22987
"37495",500.23813,81.31716,90.11967
"37496",500.2515,81.16579,90.00945
"37497",500.2648,81.00221,89.88231
"37498",500.27817,80.816666,89.72808
"37499",500.29147,80.601814,89.53875
"37500",500.30484,80.36988,89.32562
"37501",500.31815,80.14038,89.10768
"37502",500.3315,79.940186,88.91187
"37503",500.34482,79.78882,88.75864
"37504",500.3582,79.693596,88.656815
"37505",500.3715,79.65209,88.605736
"37506",500.38486,79.64965,88.59242
"37507",500.39816,79.66674,88.598564
"37508",500.41153,79.67895,88.60036
"37509",500.42484,79.674065,88.58544
"37510",500.4382,79.64233,88.54352
"37511",500.4515,79.58129,88.471306
"37512",500.46487,79.49096,88.36789
"37513",500.47818,79.381096,88.24212
"37514",500.49155,79.25414,88.095825
"37515",500.50485,79.11742,87.93579
"37516",500.51822,78.98558,87.776375
"37517",500.53152,78.86351,87.622604
"37518",500.5449,78.751205,87.474785
"37519",500.5582,78.658424,87.34298
"37520",500.57156,78.5803,87.22293
"37521",500.58487,78.51682,87.11509
"37522",500.59824,78.467995,87.01991
"37523",500.61154,78.4387,86.94274
"37524",500.6249,78.42649,86.881744
"37525",500.6382,78.42649,86.83257
"37526",500.65158,78.43626,86.79317
"37527",500.6649,78.45335,86.76139
"37528",500.67825,78.47532,86.73503
"37529",500.69156,78.502174,86.71424
"37530",500.70493,78.536354,86.701614
"37531",500.71823,78.572975,86.6925
"37532",500.7316,78.607155,86.68208
"37533",500.7449,78.63157,86.66297
"37534",500.75827,78.63889,86.62753
"37535",500.77158,78.62913,86.57523
"37536",500.78494,78.607155,86.51042
"37537",500.79825,78.57542,86.43516
"37538",500.8116,78.536354,86.35158
"37539",500.82492,78.504616,86.2741
"37540",500.8383,78.49241,86.215164
"37541",500.8516,78.52659,86.20223
"37542",500.86496,78.65598,86.28558
"37543",500.87827,78.93187,86.51947
"37544",500.89163,79.38354,86.93776
"37545",500.90494,79.99634,87.531296
"37546",500.9183,80.71656,88.2514
"37547",500.9316,81.45388,89.011116
"37548",500.94498,82.09598,89.69865
"37549",500.95828,82.564735,90.2329
"37550",500.97165,82.828415,90.57673
"37551",500.98495,82.899216,90.735916
"37552",500.99832,82.81621,90.74351
"37553",501.01163,82.63798,90.65328
"37554",501.025,82.41337,90.51111
"37555",501.0383,82.1741,90.34726
"37556",501.05167,81.94949,90.19059
"37557",501.06497,81.74441,90.046425
"37558",501.07834,81.55886,89.91539
"37559",501.09164,81.3904,89.79565
"37560",501.105,81.22926,89.677956
"37561",501.11832,81.05592,89.54303
"37562",501.13168,80.86061,89.380714
"37563",501.145,80.64332,89.190315
"37564",501.15836,80.413826,88.98093
"37565",501.17166,80.19409,88.774124
"37566",501.18503,80.0061,88.5922
"37567",501.19833,79.87427,88.460556
"37568",501.2117,79.80347,88.385826
"37569",501.225,79.78638,88.362595
"37570",501.23837,79.81079,88.38033
"37571",501.25168,79.84497,88.4086
"37572",501.26505,79.869385,88.42817
"37573",501.27835,79.87427,88.42897
"37574",501.29172,79.85474,88.40551
"37575",501.30502,79.81323,88.35947
"37576",501.3184,79.75952,88.29992
"37577",501.3317,79.7058,88.238686
"37578",501.34506,79.65942,88.183105
"37579",501.35837,79.61059,88.123634
"37580",501.37173,79.55932,88.060196
"37581",501.38504,79.50561,87.992714
"37582",501.3984,79.45678,87.92844
"37583",501.4117,79.415276,87.86996
"37584",501.42508,79.38842,87.82483
"37585",501.4384,79.37377,87.79107
"37586",501.45175,79.37621,87.77394
"37587",501.46506,79.38354,87.76177
"37588",501.47842,79.395744,87.754715
"37589",501.49173,79.415276,87.75536
"37590",501.5051,79.43969,87.761505
"37591",501.5184,79.46899,87.77329
"37592",501.53177,79.49096,87.77867
"37593",501.54507,79.50561,87.77741
"37594",501.55844,79.50317,87.75952
"37595",501.57175,79.48852,87.72935
"37596",501.5851,79.45922,87.68407
"37597",501.59842,79.42748,87.63543
"37598",501.6118,79.38598,87.576035
"37599",501.6251,79.33715,87.50802
"37600",501.63846,79.27856,87.42871
"37601",501.65176,79.21019,87.3378
"37602",501.66513,79.132065,87.23499
"37603",501.67844,79.0515,87.127304
"37604",501.6918,78.97093,87.0171
"37605",501.7051,78.89525,86.909256
"37606",501.71848,78.82933,86.808815
"37607",501.73178,78.765854,86.708755
"37608",501.74515,78.69993,86.60426
"37609",501.75845,78.63645,86.50016
"37610",501.77182,78.56565,86.38675
"37611",501.78513,78.49485,86.271126
"37612",501.79843,78.42161,86.15085
"37613",501.81174,78.363014,86.04293
"37614",501.82504,78.34348,85.972244
"37615",501.83835,78.41428,85.99128
"37616",501.85165,78.63889,86.166336
"37617",501.86496,79.063705,86.548615
"37618",501.87827,79.69604,87.15169
"37619",501.89157,80.47242,87.91857
"37620",501.90488,81.28542,88.74634
"37621",501.91818,82.003204,89.50429
"37622",501.9315,82.51835,90.08203
"37623",501.9448,82.76982,90.4122
"37624",501.9581,82.76494,90.49387
"37625",501.9714,82.55497,90.37031
"37626",501.9847,82.20584,90.10102
"37627",501.99802,81.79324,89.757355
"37628",502.01132,81.375755,89.395905
"37629",502.02463,80.99733,89.06047
"37630",502.03793,80.68482,88.77913
"37631",502.05124,80.445564,88.56127
"37632",502.06454,80.26002,88.38965
"37633",502.07785,80.111084,88.24884
"37634",502.09116,79.974365,88.11559
"37635",502.10446,79.83765,87.97807
"37636",502.11777,79.691154,87.82651
"37637",502.13107,79.54223,87.66793
"37638",502.14438,79.40063,87.512024
"37639",502.15768,79.290764,87.38343
"37640",502.171,79.22484,87.29534
"37641",502.1843,79.20775,87.25403
"37642",502.1976,79.237045,87.25857
"37643",502.2109,79.30053,87.29821
"37644",502.2242,79.37621,87.352036
"37645",502.23752,79.44213,87.39846
"37646",502.25082,79.483635,87.42253
"37647",502.26413,79.4934,87.41616
"37648",502.27744,79.47143,87.37836
"37649",502.29074,79.42504,87.31545
"37650",502.30405,79.35912,87.23157
"37651",502.31735,79.281,87.133415
"37652",502.33066,79.19066,87.02061
"37653",502.34396,79.093,86.89766
"37654",502.35727,79.00023,86.77654
"37655",502.37057,78.905014,86.650085
"37656",502.38388,78.819565,86.53042
"37657",502.3972,78.751205,86.42517
"37658",502.4105,78.69749,86.33243
"37659",502.4238,78.65354,86.24778
"37660",502.4371,78.626686,86.17885
"37661",502.4504,78.61936,86.12861
"37662",502.4637,78.626686,86.09279
"37663",502.47702,78.643776,86.06696
"37664",502.49033,78.677956,86.05876
"37665",502.50363,78.7219,86.06139
"37666",502.51694,78.765854,86.06541
"37667",502.53024,78.8098,86.070786
"37668",502.54355,78.8513,86.075096
"37669",502.55685,78.890366,86.07826
"37670",502.57016,78.924545,86.07777
"37671",502.58347,78.958725,86.07834
"37672",502.59677,78.98558,86.072655
"37673",502.61008,79.00267,86.058044
"37674",502.62338,79.009995,86.0342
"37675",502.6367,79.00511,85.99838
"37676",502.65,78.98802,85.9502
"37677",502.6633,78.958725,85.88928
"37678",502.6766,78.91966,85.81768
"37679",502.6899,78.870834,85.73509
"37680",502.70322,78.81468,85.643654
"37681",502.71652,78.75853,85.55046
"37682",502.72983,78.71702,85.47015
"37683",502.74313,78.71702,85.43006
"37684",502.75644,78.81224,85.48519
"37685",502.76974,79.05882,85.69466
"37686",502.78305,79.50317,86.10959
"37687",502.79636,80.14526,86.73616
"37688",502.80966,80.92653,87.521965
"37689",502.82297,81.74441,88.3688
"37690",502.83627,82.47929,89.15819
"37691",502.84958,83.021286,89.777664
"37692",502.86288,83.32403,90.17482
"37693",502.8762,83.39483,90.349495
"37694",502.8895,83.282524,90.34328
"37695",502.9028,83.038376,90.201706
"37696",502.9161,82.72587,89.984146
"37697",502.9294,82.391396,89.734856
"37698",502.94272,82.06424,89.48243
"37699",502.95602,81.77127,89.25397
"37700",502.96933,81.5198,89.057846
"37701",502.98264,81.31472,88.90026
"37702",502.99594,81.13893,88.76556
"37703",503.00925,80.97536,88.63757
"37704",503.02255,80.81178,88.50448
"37705",503.03586,80.635994,88.35406
"37706",503.04916,80.45289,88.19083
"37707",503.06247,80.28199,88.03408
"37708",503.07578,80.13794,87.89884
"37709",503.08908,80.03784,87.803055
"37710",503.1024,79.98901,87.75541
"37711",503.1157,79.98413,87.75018
"37712",503.129,80.008545,87.7741
"37713",503.1423,80.045166,87.81099
"37714",503.1556,80.06958,87.836815
"37715",503.1689,80.06714,87.83655
"37716",503.18222,80.03296,87.80447
"37717",503.19553,79.95972,87.732254
"37718",503.20883,79.86206,87.63334
"37719",503.22214,79.73998,87.50695
"37720",503.23544,79.61303,87.37187
"37721",503.24875,79.47875,87.2255
"37722",503.26205,79.34692,87.07738
"37723",503.27536,79.22728,86.93733
"37724",503.28867,79.11742,86.80332
"37725",503.30197,79.01732,86.675644
"37726",503.31528,78.93187,86.55949
"37727",503.32858,78.86351,86.45775
"37728",503.3419,78.8098,86.36852
"37729",503.3552,78.77318,86.29471
"37730",503.3685,78.75609,86.23928
"37731",503.3818,78.75609,86.20041
"37732",503.3951,78.768295,86.173744
"37733",503.40842,78.79271,86.15967
"37734",503.42172,78.82933,86.15856
"37735",503.43503,78.870834,86.16348
"37736",503.44833,78.91722,86.17458
"37737",503.46164,78.958725,86.18225
"37738",503.47495,78.98802,86.17901
"37739",503.48825,79.00267,86.16203
"37740",503.50156,79.00023,86.128426
"37741",503.51486,78.97337,86.07033
"37742",503.52817,78.92699,85.99186
"37743",503.54147,78.870834,85.902176
"37744",503.55478,78.81468,85.81074
"37745",503.56808,78.77806,85.737076
"37746",503.5814,78.79515,85.71598
"37747",503.5947,78.922104,85.80528
"37748",503.608,79.2224,86.07189
"37749",503.6213,79.71801,86.543205
"37750",503.6346,80.39185,87.20824
"37751",503.64792,81.16823,87.99686
"37752",503.66122,81.94217,88.807304
"37753",503.67453,82.59647,89.5223
"37754",503.68784,83.04814,90.05511
"37755",503.70114,83.267876,90.370094
"37756",503.71445,83.284966,90.4893
"37757",503.72775,83.14336,90.45035
"37758",503.74106,82.899216,90.304436
"37759",503.75436,82.598915,90.094734
"37760",503.76767,82.286415,89.86345
"37761",503.78098,81.986115,89.6346
"37762",503.79428,81.71023,89.42078
"37763",503.8076,81.46853,89.23252
"37764",503.8209,81.25124,89.06113
"37765",503.8342,81.05592,88.90491
"37766",503.8475,80.867935,88.749916
"37767",503.8608,80.6775,88.5866
"37768",503.8741,80.4773,88.40758
"37769",503.88742,80.27955,88.22474
"37770",503.90073,80.09888,88.0528
"37771",503.91403,79.94507,87.902084
"37772",503.92734,79.84009,87.79539
"37773",503.94064,79.78882,87.73912
"37774",503.95395,79.783936,87.72764
"37775",503.96725,79.80835,87.7453
"37776",503.98056,79.83765,87.76861
"37777",503.99387,79.85718,87.783066
"37778",504.00717,79.852295,87.77372
"37779",504.02048,79.815674,87.73248
"37780",504.03378,79.74731,87.658356
"37781",504.0471,79.65942,87.56257
"37782",504.0604,79.54955,87.44206
"37783",504.0737,79.42504,87.303474
"37784",504.087,79.290764,87.15123
"37785",504.1003,79.15648,86.99478
"37786",504.11362,79.027084,86.83903
"37787",504.12692,78.9099,86.69144
"37788",504.14023,78.8098,86.557274
"37789",504.15353,78.72678,86.437065
"37790",504.16684,78.66331,86.3338
"37791",504.18015,78.6096,86.23832
"37792",504.19345,78.56809,86.153366
"37793",504.20676,78.538795,86.07932
"37794",504.22006,78.52903,86.023895
"37795",504.23337,78.53391,85.98281
"37796",504.24667,78.555885,85.95897
"37797",504.25998,78.59495,85.9529
"37798",504.2733,78.641335,85.95538
"37799",504.2866,78.692604,85.964195
"37800",504.2999,78.74387,85.97461
"37801",504.3132,78.785385,85.97687
"37802",504.3265,78.81224,85.96577
"37803",504.3398,78.82201,85.938416
"37804",504.35312,78.80736,85.886955
"37805",504.36642,78.77074,85.813065
"37806",504.37973,78.72434,85.72826
"37807",504.39304,78.675514,85.639565
"37808",504.40634,78.641335,85.563995
"37809",504.41965,78.66331,85.54351
"37810",504.43295,78.802475,85.64091
"37811",504.44626,79.12962,85.93063
"37812",504.45956,79.68383,86.45764
"37813",504.47287,80.44312,87.207054
"37814",504.48618,81.322044,88.09982
"37815",504.49948,82.20096,89.02005
"37816",504.5128,82.93828,89.82615
"37817",504.5261,83.45098,90.43067
"37818",504.5394,83.70489,90.79242
"37819",504.5527,83.72198,90.925285
"37820",504.566,83.5584,90.87802
"37821",504.5793,83.265434,90.69625
"37822",504.59262,82.899216,90.432076
"37823",504.60593,82.513466,90.136925
"37824",504.61923,82.142365,89.84437
"37825",504.63254,81.80545,89.5744
"37826",504.64584,81.514915,89.34029
"37827",504.65915,81.27322,89.14593
"37828",504.67245,81.06081,88.973305
"37829",504.68576,80.86061,88.80626
"37830",504.69907,80.66529,88.63783
"37831",504.71237,80.47242,88.46575
"37832",504.72568,80.28443,88.29253
"37833",504.73898,80.111084,88.12807
"37834",504.7523,79.971924,87.99238
"37835",504.7656,79.88159,87.90117
"37836",504.7789,79.83276,87.84864
"37837",504.7922,79.823,87.83365
"37838",504.8055,79.84009,87.84521
"37839",504.81882,79.85962,87.85974
"37840",504.83212,79.86694,87.86268
"37841",504.84543,79.84985,87.84143
"37842",504.85873,79.80347,87.79035
"37843",504.87204,79.73022,87.71096
"37844",504.88535,79.63012,87.60243
"37845",504.89865,79.50805,87.4688
"37846",504.91196,79.36889,87.31427
"37847",504.92526,79.2224,87.148056
"37848",504.93857,79.07591,86.97727
"37849",504.95187,78.93675,86.809235
"37850",504.96518,78.81468,86.65394
"37851",504.9785,78.70481,86.50703
"37852",504.9918,78.61204,86.37378
"37853",505.0051,78.538795,86.257164
"37854",505.0184,78.485085,86.15779
"37855",505.0317,78.44114,86.066505
"37856",505.045,78.416725,85.99338
"37857",505.05832,78.40452,85.931694
"37858",505.07162,78.40696,85.88428
"37859",505.08493,78.41428,85.84182
"37860",505.09824,78.4387,85.81668
"37861",505.11154,78.470436,85.79963
"37862",505.12485,78.50706,85.78845
"37863",505.13815,78.551,85.78574
"37864",505.15146,78.59739,85.78685
"37865",505.16476,78.63889,85.78452
"37866",505.17807,78.67063,85.77373
"37867",505.19138,78.692604,85.75416
"37868",505.20468,78.695045,85.715744
"37869",505.218,78.6804,85.66032
"37870",505.2313,78.641335,85.58002
"37871",505.2446,78.59251,85.48873
"37872",505.2579,78.53147,85.38371
"37873",505.2712,78.4802,85.28655
"37874",505.28452,78.470436,85.229294
"37875",505.29782,78.57053,85.28159
"37876",505.31113,78.86107,85.52746
"37877",505.32443,79.40795,86.03875
"37878",505.33774,80.198975,86.81127
"37879",505.35104,81.15602,87.774536
"37880",505.36435,82.142365,88.797005
"37881",505.37766,83.001755,89.72334
"37882",505.39096,83.617,90.43239
"37883",505.40427,83.93927,90.86769
"37884",505.41757,83.99054,91.04206
"37885",505.43088,83.83917,91.015396
"37886",505.44418,83.55108,90.847275
"37887",505.4575,83.18486,90.592026
"37888",505.4708,82.78447,90.29116
"37889",505.4841,82.391396,89.9851
"37890",505.4974,82.03006,89.698494
"37891",505.5107,81.71023,89.4421
"37892",505.52402,81.44167,89.22699
"37893",505.53732,81.21706,89.047424
"37894",505.55063,81.02174,88.890144
"37895",505.56393,80.8362,88.73653
"37896",505.57724,80.6482,88.57466
"37897",505.59055,80.45777,88.40449
"37898",505.60385,80.27955,88.24057
"37899",505.61716,80.1355,88.105255
"37900",505.63046,80.03296,88.00695
"37901",505.64377,79.97681,87.95183
"37902",505.65707,79.9646,87.938896
"37903",505.67038,79.98413,87.95732
"37904",505.6837,80.0061,87.9788
"37905",505.697,80.02075,87.99364
"37906",505.7103,80.01343,87.98696
"37907",505.7236,79.96704,87.940994
"37908",505.7369,79.886475,87.8594
"37909",505.7502,79.77417,87.743546
"37910",505.76352,79.639885,87.6022
"37911",505.77682,79.4934,87.444466
"37912",505.79013,79.33959,87.274826
"37913",505.80344,79.18822,87.10281
"37914",505.81674,79.04173,86.93096
"37915",505.83005,78.907455,86.76674
"37916",505.84335,78.79027,86.61541
"37917",505.85666,78.69016,86.4775
"37918",505.86996,78.60471,86.35112
"37919",505.88327,78.53147,86.234276
"37920",505.89658,78.47776,86.134674
"37921",505.90988,78.44358,86.052925
"37922",505.9232,78.42893,85.98964
"37923",505.9365,78.433815,85.94543
"37924",505.9498,78.45335,85.916016
"37925",505.9631,78.485085,85.89942
"37926",505.9764,78.52415,85.89114
"37927",505.98972,78.572975,85.89385
"37928",506.00302,78.6218,85.89809
"37929",506.01633,78.67307,85.90629
"37930",506.02963,78.71702,85.90877
"37931",506.04294,78.74876,85.90041
"37932",506.05624,78.76097,85.87353
"37933",506.06955,78.75609,85.829926
"37934",506.08286,78.73411,85.76907
"37935",506.09616,78.69993,85.695335
"37936",506.10947,78.65598,85.61076
"37937",506.12277,78.61448,85.52726
"37938",506.13608,78.607155,85.47664
"37939",506.14938,78.69016,85.51612
"37940",506.1627,78.94652,85.731544
"37941",506.176,79.4519,86.204
"37942",506.1893,80.201416,86.93639
"37943",506.2026,81.1194,87.86067
"37944",506.2159,82.08133,88.85758
"37945",506.22922,82.92851,89.769806
"37946",506.24252,83.54131,90.47412
"37947",506.25583,83.86359,90.90706
"37948",506.26913,83.91974,91.08395
"37949",506.28244,83.76349,91.050186
"37950",506.29575,83.46319,90.86749
"37951",506.30905,83.075,90.587524
"37952",506.32236,82.65507,90.26369
"37953",506.33566,82.24246,89.93405
"37954",506.34897,81.8616,89.62327
"37955",506.36227,81.52468,89.34452
"37956",506.37558,81.23659,89.10407
"37957",506.3889,80.98512,88.89125
"37958",506.4022,80.75807,88.694984
"37959",506.4155,80.54566,88.50626
"37960",506.4288,80.34058,88.31824
"37961",506.4421,80.15015,88.13844
"37962",506.4554,79.9939,87.986885
"37963",506.46872,79.886475,87.87927
"37964",506.48203,79.83032,87.81957
"37965",506.49533,79.82788,87.81183
"37966",506.50864,79.86694,87.84551
"37967",506.52194,79.923096,87.89751
"37968",506.53525,79.96948,87.94149
"37969",506.54855,79.98901,87.96007
"37970",506.56186,79.97925,87.94996
"37971",506.57516,79.92554,87.8956
"37972",506.58847,79.84009,87.80782
"37973",506.60178,79.725334,87.68807
"37974",506.61508,79.59106,87.54521
"37975",506.6284,79.44213,87.38351
"37976",506.6417,79.281,87.20494
"37977",506.655,79.114975,87.01645
"37978",506.6683,78.96117,86.834984
"37979",506.6816,78.82201,86.66336
"37980",506.69492,78.69749,86.50203
"37981",506.70822,78.590065,86.353905
"37982",506.72153,78.504616,86.224396
"37983",506.73483,78.4387,86.11175
"37984",506.74814,78.38987,86.01413
"37985",506.76144,78.365456,85.9394
"37986",506.77475,78.36057,85.88344
"37987",506.78806,78.37278,85.84441
"37988",506.80136,78.397194,85.81798
"37989",506.81467,78.42893,85.79963
"37990",506.82797,78.467995,85.7896
"37991",506.84128,78.51438,85.78811
"37992",506.85458,78.56565,85.79295
"37993",506.8679,78.61936,85.80184
"37994",506.8812,78.67063,85.80997
"37995",506.8945,78.709694,85.80749
"37996",506.9078,78.73167,85.78914
"37997",506.9211,78.729225,85.74706
"37998",506.93442,78.69993,85.678055
"37999",506.94772,78.64866,85.58616
"38000",506.96103,78.5803,85.47557
"38001",506.97433,78.50706,85.35796
"38002",506.98764,78.44358,85.24783
"38003",507.00095,78.43626,85.19187
"38004",507.01425,78.55833,85.265076
"38005",507.02756,78.90257,85.56427
"38006",507.04086,79.5227,86.1501
"38007",507.05417,80.40162,87.01411
"38008",507.06747,81.43923,88.06427
"38009",507.08078,82.48417,89.15418
"38010",507.0941,83.370415,90.11806
"38011",507.1074,83.97833,90.8313
"38012",507.1207,84.27619,91.25348
"38013",507.134,84.300606,91.41152
"38014",507.1473,84.11261,91.35792
"38015",507.1606,83.78302,91.156845
"38016",507.17392,83.3753,90.86734
"38017",507.18723,82.933395,90.530914
"38018",507.20053,82.5037,90.19289
"38019",507.21384,82.11063,89.87805
"38020",507.22714,81.77127,89.60465
"38021",507.24045,81.48562,89.37435
"38022",507.25375,81.24391,89.17907
"38023",507.26706,81.03151,89.00554
"38024",507.28036,80.831314,88.83758
"38025",507.29367,80.63355,88.665794
"38026",507.30698,80.445564,88.497604
"38027",507.32028,80.274666,88.34063
"38028",507.3336,80.13794,88.21249
"38029",507.3469,80.04028,88.11914
"38030",507.3602,79.98901,88.06913
"38031",507.3735,79.97681,88.05658
"38032",507.3868,79.98901,88.06806
"38033",507.40012,80.0061,88.08481
"38034",507.41342,80.01343,88.09232
"38035",507.42673,80.00122,88.080536
"38036",507.44003,79.957275,88.03663
"38037",507.45334,79.87915,87.95717
"38038",507.46664,79.77173,87.84597
"38039",507.47995,79.63744,87.70455
"38040",507.49326,79.48119,87.53697
"38041",507.50656,79.30785,87.34742
"38042",507.51987,79.12962,87.14756
"38043",507.53317,78.95384,86.94458
"38044",507.54648,78.79027,86.748314
"38045",507.55978,78.641335,86.56158
"38046",507.5731,78.51438,86.392166
"38047",507.5864,78.40696,86.23832
"38048",507.5997,78.31907,86.10065
"38049",507.613,78.24826,85.97731
"38050",507.6263,78.19943,85.87374
"38051",507.63962,78.167694,85.785736
"38052",507.65292,78.15793,85.71871
"38053",507.66623,78.17258,85.6758
"38054",507.67953,78.20187,85.64799
"38055",507.69284,78.24338,85.6333
"38056",507.70615,78.2971,85.632126
"38057",507.71945,78.35569,85.637505
"38058",507.73276,78.416725,85.647156
"38059",507.74606,78.467995,85.64895
"38060",507.75937,78.50706,85.64014
"38061",507.77267,78.52659,85.613014
"38062",507.78598,78.51682,85.557205
"38063",507.7993,78.485085,85.47912
"38064",507.8126,78.44114,85.38783
"38065",507.8259,78.38987,85.28785
"38066",507.8392,78.363014,85.21068
"38067",507.8525,78.42893,85.22544
"38068",507.8658,78.677956,85.42537
"38069",507.87912,79.18822,85.89432
"38070",507.89243,79.97925,86.65998
"38071",507.90573,80.98024,87.660324
"38072",507.91904,82.05203,88.76275
"38073",507.93234,83.02373,89.79857
"38074",507.94565,83.75128,90.62061
"38075",507.95895,84.16388,91.15044
"38076",507.97226,84.27619,91.39287
"38077",507.98557,84.14923,91.399536
"38078",507.99887,83.85626,91.23623
"38079",508.01218,83.46075,90.96122
"38080",508.02548,83.0164,90.62502
"38081",508.0388,82.55985,90.26273
"38082",508.0521,82.125275,89.90815
"38083",508.0654,81.73708,89.58637
"38084",508.0787,81.40505,89.308624
"38085",508.092,81.126724,89.0742
"38086",508.10532,80.88747,88.870155
"38087",508.11862,80.672615,88.68304
"38088",508.13193,80.46754,88.49898
"38089",508.14523,80.274666,88.32072
"38090",508.15854,80.10376,88.158394
"38091",508.17184,79.96948,88.02736
"38092",508.18515,79.886475,87.9434
"38093",508.19846,79.85962,87.912994
"38094",508.21176,79.88403,87.93302
"38095",508.22507,79.937744,87.98311
"38096",508.23837,79.99878,88.0422
"38097",508.25168,80.04761,88.09099
"38098",508.26498,80.06714,88.11201
"38099",508.2783,80.04028,88.08725
"38100",508.2916,79.96948,88.01771
"38101",508.3049,79.86206,87.90933
"38102",508.3182,79.725334,87.768295
"38103",508.3315,79.56664,87.60102
"38104",508.34482,79.3933,87.41414
"38105",508.35812,79.21019,87.21207
"38106",508.37143,79.027084,87.00428
"38107",508.38474,78.84398,86.79077
"38108",508.39804,78.67307,86.58374
"38109",508.41135,78.521706,86.39091
"38110",508.42465,78.397194,86.2202
"38111",508.43796,78.30198,86.0749
"38112",508.45126,78.238495,85.95835
"38113",508.46457,78.19699,85.8618
"38114",508.47787,78.18234,85.79081
"38115",508.49118,78.18234,85.73401
"38116",508.5045,78.19943,85.6943
"38117",508.5178,78.23117,85.66977
"38118",508.5311,78.277565,85.66089
"38119",508.5444,78.331276,85.660774
"38120",508.5577,78.382545,85.6599
"38121",508.571,78.42893,85.65574
"38122",508.58432,78.46311,85.64082
"38123",508.59763,78.48264,85.61233
"38124",508.61093,78.48264,85.56491
"38125",508.62424,78.467995,85.502846
"38126",508.63754,78.43626,85.42323
"38127",508.65085,78.4094,85.34751
"38128",508.66415,78.42893,85.31734
"38129",508.67746,78.57542,85.41473
"38130",508.69077,78.93675,85.731544
"38131",508.70407,79.571526,86.33309
"38132",508.71738,80.46021,87.20839
"38133",508.73068,81.49294,88.2555
"38134",508.744,82.51591,89.32512
"38135",508.7573,83.36797,90.255806
"38136",508.7706,83.929504,90.922585
"38137",508.7839,84.16388,91.279755
"38138",508.7972,84.11749,91.36349
"38139",508.81052,83.861145,91.23581
"38140",508.82382,83.46807,90.963394
"38141",508.83713,82.99931,90.60301
"38142",508.85043,82.513466,90.21089
"38143",508.86374,82.04227,89.81824
"38144",508.87704,81.60525,89.44504
"38145",508.89035,81.21217,89.10213
"38146",508.90366,80.86305,88.790886
"38147",508.91696,80.54566,88.500465
"38148",508.93027,80.26002,88.23187
"38149",508.94357,80.00366,87.98364
"38150",508.95688,79.79126,87.771355
"38151",508.97018,79.64233,87.6159
"38152",508.9835,79.57397,87.53636
"38153",508.9968,79.588615,87.5377
"38154",509.0101,79.68627,87.6225
"38155",509.0234,79.84009,87.76651
"38156",509.0367,80.01099,87.93241
"38157",509.05002,80.164795,88.08656
"38158",509.06332,80.26734,88.19426
"38159",509.07663,80.29908,88.23435
"38160",509.08994,80.257576,88.202194
"38161",509.10324,80.15747,88.11014
"38162",509.11655,80.0061,87.96369
"38163",509.12985,79.82544,87.78322
"38164",509.14316,79.63256,87.584885
"38165",509.15646,79.42748,87.368324
"38166",509.16977,79.2224,87.14535
"38167",509.18307,79.01976,86.91841
"38168",509.19638,78.82689,86.69491
"38169",509.2097,78.6511,86.48246
"38170",509.223,78.49485,86.28406
"38171",509.2363,78.365456,86.10763
"38172",509.2496,78.260475,85.95157
"38173",509.2629,78.187225,85.82396
"38174",509.2762,78.14084,85.720924
"38175",509.28952,78.12375,85.64574
"38176",509.30283,78.133514,85.59687
"38177",509.31613,78.167694,85.57272
"38178",509.32944,78.21164,85.55941
"38179",509.34274,78.260475,85.55236
"38180",509.35605,78.30442,85.54195
"38181",509.36935,78.34104,85.52558
"38182",509.38266,78.3679,85.500595
"38183",509.39597,78.39231,85.47401
"38184",509.40927,78.42893,85.46039
"38185",509.42258,78.51682,85.49918
"38186",509.43588,78.73167,85.66768
"38187",509.4492,79.15892,86.0553
"38188",509.4625,79.84253,86.71262
"38189",509.4758,80.74586,87.61103
"38190",509.4891,81.761505,88.64999
"38191",509.5024,82.74296,89.686485
"38192",509.51572,83.529106,90.55835
"38193",509.52902,84.02716,91.16669
"38194",509.54233,84.21759,91.48296
"38195",509.55563,84.14923,91.5464
"38196",509.56894,83.888,91.41483
"38197",509.58224,83.49737,91.1457
"38198",509.59555,83.03105,90.78867
"38199",509.60886,82.547646,90.39999
"38200",509.62216,82.07889,90.01084
"38201",509.63547,81.651634,89.64855
"38202",509.64877,81.2781,89.32663
"38203",509.66208,80.955826,89.0443
"38204",509.67538,80.672615,88.790955
"38205",509.6887,80.413826,88.553185
"38206",509.702,80.17944,88.33173
"38207",509.7153,79.974365,88.13226
"38208",509.7286,79.82056,87.97765
"38209",509.7419,79.73022,87.88171
"38210",509.75522,79.71557,87.85863
"38211",509.76852,79.77417,87.90834
"38212",509.78183,79.88403,88.01115
"38213",509.79514,80.01343,88.13692
"38214",509.80844,80.130615,88.254524
"38215",509.82175,80.20874,88.33673
"38216",509.83505,80.22583,88.360344
"38217",509.84836,80.177,88.31857
"38218",509.86166,80.07202,88.219124
"38219",509.87497,79.923096,88.07245
"38220",509.88828,79.744865,87.891815
"38221",509.90158,79.54955,87.68853
"38222",509.9149,79.34936,87.47426
"38223",509.9282,79.14671,87.25128
"38224",509.9415,78.9514,87.029305
"38225",509.9548,78.77318,86.81831
"38226",509.9681,78.61204,86.618835
"38227",509.9814,78.47776,86.441185
"38228",509.99472,78.37034,86.286194
"38229",510.00803,78.294655,86.159584
"38230",510.02133,78.24582,86.05746
"38231",510.03464,78.22629,85.98311
"38232",510.04794,78.22629,85.92768
"38233",510.06125,78.24582,85.891785
"38234",510.07455,78.27268,85.86383
"38235",510.08786,78.30442,85.84159
"38236",510.10117,78.32639,85.81058
"38237",510.11447,78.345924,85.77781
"38238",510.12778,78.365456,85.74565
"38239",510.14108,78.40696,85.73608
"38240",510.1544,78.51438,85.79372
"38241",510.1677,78.765854,85.998764
"38242",510.181,79.22728,86.42162
"38243",510.1943,79.91821,87.08841
"38244",510.2076,80.79225,87.95989
"38245",510.22092,81.74685,88.93925
"38246",510.23422,82.63798,89.884964
"38247",510.24753,83.34112,90.67054
"38248",510.26083,83.775696,91.209526
"38249",510.27414,83.93927,91.49109
"38250",510.28745,83.86847,91.54339
"38251",510.30075,83.62676,91.42257
"38252",510.31406,83.2752,91.18434
"38253",510.32736,82.87236,90.88385
"38254",510.34067,82.459755,90.561005
"38255",510.35397,82.06668,90.2448
"38256",510.36728,81.71023,89.95293
"38257",510.38058,81.39773,89.69387
"38258",510.3939,81.126724,89.466545
"38259",510.4072,80.88991,89.26494
"38260",510.4205,80.68238,89.08522
"38261",510.4338,80.48707,88.91123
"38262",510.4471,80.30152,88.740906
"38263",510.46042,80.128174,88.57698
"38264",510.47372,79.971924,88.424736
"38265",510.48703,79.852295,88.30423
"38266",510.50034,79.77417,88.22149
"38267",510.51364,79.73998,88.180244
"38268",510.52695,79.742424,88.17456
"38269",510.54025,79.76929,88.193375
"38270",510.55356,79.79614,88.21302
"38271",510.56686,79.80835,88.21886
"38272",510.58017,79.79126,88.19578
"38273",510.59348,79.742424,88.14042
"38274",510.60678,79.656975,88.04692
"38275",510.6201,79.54467,87.9239
"38276",510.6334,79.40551,87.77051
"38277",510.6467,79.25414,87.60056
"38278",510.66,79.09544,87.41856
"38279",510.6733,78.93431,87.22916
"38280",510.6866,78.78294,87.04449
"38281",510.69992,78.641335,86.864845
"38282",510.71323,78.51682,86.697876
"38283",510.72653,78.40208,86.53678
"38284",510.73984,78.30442,86.38919
"38285",510.75314,78.23361,86.265396
"38286",510.76645,78.18967,86.16625
"38287",510.77975,78.16525,86.085266
"38288",510.79306,78.16281,86.02549
"38289",510.80637,78.17746,85.98273
"38290",510.81967,78.19699,85.945305
"38291",510.83298,78.21896,85.910934
"38292",510.84628,78.24094,85.87725
"38293",510.8596,78.25559,85.83694
"38294",510.8729,78.27024,85.79707
"38295",510.8862,78.28489,85.75767
"38296",510.8995,78.32151,85.74069
"38297",510.9128,78.43626,85.802986
"38298",510.92612,78.712135,86.03
"38299",510.93942,79.21263,86.49025
"38300",510.95273,79.94263,87.19564
"38301",510.96603,80.84596,88.09718
"38302",510.97934,81.80789,89.08555
"38303",510.99265,82.686806,90.02096
"38304",511.00595,83.353325,90.77144
"38305",511.01926,83.75128,91.274185
"38306",511.03256,83.88556,91.52569
"38307",511.04587,83.80255,91.5641
"38308",511.05917,83.55596,91.43634
"38309",511.07248,83.211716,91.20322
"38310",511.0858,82.82353,90.9154
"38311",511.0991,82.43534,90.61544
"38312",511.1124,82.06912,90.325325
"38313",511.1257,81.74197,90.06283
"38314",511.139,81.461205,89.8365
"38315",511.1523,81.22194,89.6429
"38316",511.16562,81.01686,89.476006
"38317",511.17892,80.82887,89.31979
"38318",511.19223,80.64576,89.16258
"38319",511.20554,80.465096,89.0021
"38320",511.21884,80.28443,88.83597
"38321",511.23215,80.113525,88.67395
"38322",511.24545,79.971924,88.5359
"38323",511.25876,79.869385,88.43248
"38324",511.27206,79.815674,88.37469
"38325",511.28537,79.801025,88.35428
"38326",511.29868,79.81323,88.36027
"38327",511.31198,79.83032,88.37152
"38328",511.3253,79.83765,88.37354
"38329",511.3386,79.815674,88.3465
"38330",511.3519,79.76196,88.287025
"38331",511.3652,79.674065,88.19169
"38332",511.3785,79.55932,88.06676
"38333",511.3918,79.4226,87.91627
"38334",511.40512,79.276115,87.75174
"38335",511.41843,79.12718,87.580185
"38336",511.43173,78.97826,87.403984
"38337",511.44504,78.836655,87.23045
"38338",511.45834,78.70725,87.0647
"38339",511.47165,78.58762,86.90467
"38340",511.48495,78.4802,86.75311
"38341",511.49826,78.38987,86.61529
"38342",511.51157,78.32151,86.49661
"38343",511.52487,78.27512,86.39777
"38344",511.53818,78.25071,86.31946
"38345",511.55148,78.24582,86.2599
"38346",511.5648,78.25803,86.2173
"38347",511.5781,78.28245,86.18728
"38348",511.5914,78.30686,86.15802
"38349",511.6047,78.32639,86.12464
"38350",511.618,78.34104,86.08699
"38351",511.63132,78.34348,86.03759
"38352",511.64462,78.34104,85.98338
"38353",511.65793,78.35081,85.94131
"38354",511.67123,78.416725,85.95569
"38355",511.68454,78.60227,86.09176
"38356",511.69785,78.98558,86.43139
"38357",511.71115,79.59594,87.01005
"38358",511.72446,80.40406,87.80554
"38359",511.73776,81.3196,88.73371
"38360",511.75107,82.21805,89.67339
"38361",511.76437,82.96513,90.48979
"38362",511.77768,83.47295,91.09027
"38363",511.791,83.719536,91.44538
"38364",511.8043,83.73174,91.57382
"38365",511.8176,83.56573,91.52442
"38366",511.8309,83.2752,91.34532
"38367",511.8442,82.91875,91.09122
"38368",511.8575,82.54276,90.80644
"38369",511.87082,82.178986,90.522125
"38370",511.88412,81.85184,90.26307
"38371",511.89743,81.57351,90.04261
"38372",511.91074,81.341576,89.85985
"38373",511.92404,81.1487,89.70889
"38374",511.93735,80.9778,89.57389
"38375",511.95065,80.8069,89.43355
"38376",511.96396,80.63355,89.285416
"38377",511.97726,80.45777,89.12943
"38378",511.99057,80.2942,88.98016
"38379",512.0039,80.15747,88.85263
"38380",512.0172,80.062256,88.76234
"38381",512.0305,80.01343,88.715454
"38382",512.0438,80.0061,88.70855
"38383",512.0571,80.02075,88.72339
"38384",512.07043,80.04028,88.74357
"38385",512.08374,80.04028,88.74483
"38386",512.09705,80.01099,88.71679
"38387",512.11035,79.94263,88.64877
"38388",512.12366,79.84985,88.55421
"38389",512.13696,79.7351,88.43476
"38390",512.15027,79.605705,88.29709
"38391",512.1636,79.4641,88.143166
"38392",512.1769,79.31762,87.979935
"38393",512.1902,79.17113,87.81212
"38394",512.2035,79.027084,87.64217
"38395",512.2168,78.890366,87.47505
"38396",512.2301,78.77074,87.32075
"38397",512.2434,78.67307,87.18467
"38398",512.2567,78.59983,87.06996
"38399",512.27,78.54856,86.97494
"38400",512.2833,78.51682,86.89784
"38401",512.29663,78.502174,86.836845
"38402",512.30994,78.49973,86.7876
"38403",512.32324,78.504616,86.7456
"38404",512.33655,78.51682,86.711075
"38405",512.34985,78.53147,86.679375
"38406",512.36316,78.54124,86.64325
"38407",512.37646,78.54124,86.597664
"38408",512.3898,78.53147,86.54231
"38409",512.4031,78.52415,86.4891
"38410",512.4164,78.536354,86.455185
"38411",512.4297,78.6096,86.48269
"38412",512.443,78.802475,86.63212
"38413",512.4563,79.17845,86.97067
"38414",512.4696,79.74731,87.513855
"38415",512.4829,80.48707,88.24572
"38416",512.4962,81.30984,89.08371
"38417",512.5095,82.11307,89.92787
"38418",512.5228,82.77226,90.6531
"38419",512.53613,83.22148,91.18895
"38420",512.54944,83.43633,91.50447
"38421",512.56274,83.438774,91.614296
"38422",512.57605,83.2752,91.55818
"38423",512.58936,82.99931,91.38464
"38424",512.60266,82.667274,91.14633
"38425",512.61597,82.32548,90.887886
"38426",512.6293,82.005646,90.640724
"38427",512.6426,81.71755,90.415306
"38428",512.6559,81.47341,90.22484
"38429",512.6692,81.26589,90.06336
"38430",512.6825,81.08034,89.917366
"38431",512.6958,80.89479,89.76558
"38432",512.7091,80.706795,89.605545
"38433",512.7224,80.51148,89.43232
"38434",512.7357,80.32105,89.25787
"38435",512.749,80.15747,89.104324
"38436",512.7623,80.042725,88.9945
"38437",512.77563,79.97925,88.93236
"38438",512.78894,79.96704,88.9195
"38439",512.80225,79.98657,88.938
"38440",512.81555,80.02319,88.974205
"38441",512.82886,80.05249,89.00423
"38442",512.84216,80.05493,89.00831
"38443",512.85547,80.02319,88.97829
"38444",512.8688,79.954834,88.91065
"38445",512.8821,79.85474,88.80914
"38446",512.8954,79.73022,88.680084
"38447",512.9087,79.59106,88.53249
"38448",512.922,79.449455,88.37811
"38449",512.9353,79.31274,88.22419
"38450",512.9486,79.183334,88.07331
"38451",512.9619,79.06615,87.9306
"38452",512.9752,78.95628,87.79156
"38453",512.9885,78.85863,87.661285
"38454",513.00183,78.7805,87.54749
"38455",513.01514,78.7219,87.45078
"38456",513.02844,78.6804,87.36934
"38457",513.04175,78.658424,87.30613
"38458",513.05505,78.65354,87.25932
"38459",513.06836,78.6511,87.214806
"38460",513.08167,78.64866,87.17021
"38461",513.095,78.643776,87.1231
"38462",513.1083,78.63889,87.075836
"38463",513.1216,78.62913,87.02354
"38464",513.1349,78.6218,86.97337
"38465",513.1482,78.6096,86.9181
"38466",513.1615,78.61448,86.87953
"38467",513.1748,78.66575,86.887505
"38468",513.1881,78.81468,86.99474
"38469",513.2014,79.11742,87.26044
"38470",513.2147,79.603264,87.718704
"38471",513.228,80.255135,88.35818
"38472",513.24133,81.004654,89.11567
"38473",513.25464,81.74685,89.88926
"38474",513.26794,82.37919,90.57619
"38475",513.28125,82.82109,91.09244
"38476",513.29456,83.04814,91.407646
"38477",513.30786,83.072556,91.52731
"38478",513.32117,82.93584,91.48661
"38479",513.3345,82.684364,91.32688
"38480",513.3478,82.37675,91.10315
"38481",513.3611,82.054474,90.85515
"38482",513.3744,81.74441,90.60928
"38483",513.3877,81.47097,90.39036
"38484",513.401,81.231705,90.19706
"38485",513.4143,81.02174,90.02559
"38486",513.4276,80.82399,89.859764
"38487",513.4409,80.62867,89.69019
"38488",513.4542,80.428474,89.50964
"38489",513.4675,80.235596,89.330154
"38490",513.48083,80.0647,89.16662
"38491",513.49414,79.940186,89.04413
"38492",513.50745,79.87915,88.981224
"38493",513.52075,79.87427,88.972565
"38494",513.53406,79.90845,89.002815
"38495",513.54736,79.9646,89.05611
"38496",513.56067,80.01587,89.10627
"38497",513.574,80.04028,89.13118
"38498",513.5873,80.025635,89.11779
"38499",513.6006,79.96948,89.06244
"38500",513.6139,79.871826,88.96383
"38501",513.6272,79.73998,88.82798
"38502",513.6405,79.58129,88.66116
"38503",513.6538,79.415276,88.48206
"38504",513.6671,79.24925,88.29777
"38505",513.6804,79.09544,88.1205
"38506",513.6937,78.95628,87.95307
"38507",513.70703,78.84154,87.80571
"38508",513.72034,78.746315,87.674286
"38509",513.73364,78.67063,87.559425
"38510",513.74695,78.61448,87.46173
"38511",513.76025,78.5803,87.384254
"38512",513.77356,78.56321,87.3228
"38513",513.78687,78.56321,87.2779
"38514",513.8002,78.57786,87.24765
"38515",513.8135,78.60471,87.230064
"38516",513.8268,78.63645,87.2182
"38517",513.8401,78.66575,87.20489
"38518",513.8534,78.68284,87.18028
"38519",513.8667,78.68528,87.14156
"38520",513.88,78.66819,87.08339
"38521",513.8933,78.643776,87.01736
"38522",513.9066,78.61936,86.95056
"38523",513.9199,78.61692,86.904976
"38524",513.9332,78.68284,86.92767
"38525",513.94653,78.870834,87.07451
"38526",513.95984,79.22484,87.39323
"38527",513.97314,79.76196,87.90613
"38528",513.98645,80.44312,88.57985
"38529",513.99976,81.19508,89.34566
"38530",514.01306,81.90555,90.09347
"38531",514.02637,82.48173,90.729195
"38532",514.0397,82.86015,91.18517
"38533",514.053,83.03349,91.44789
"38534",514.0663,83.018845,91.52804
"38535",514.0796,82.865036,91.46857
"38536",514.0929,82.62577,91.31883
"38537",514.1062,82.34745,91.12257
"38538",514.1195,82.0618,90.91027
"38539",514.1328,81.7908,90.703705
"38540",514.1461,81.549095,90.51796
"38541",514.1594,81.33669,90.353966
"38542",514.1727,81.14137,90.20042
"38543",514.18604,80.94606,90.04077
"38544",514.19934,80.74586,89.87013
"38545",514.21265,80.533455,89.68104
"38546",514.22595,80.32105,89.485306
"38547",514.23926,80.13306,89.30734
"38548",514.25256,79.991455,89.1699
"38549",514.26587,79.90845,89.086624
"38550",514.2792,79.886475,89.06179
"38551",514.2925,79.91821,89.08998
"38552",514.3058,79.974365,89.14358
"38553",514.3191,80.0354,89.20381
"38554",514.3324,80.06958,89.2391
"38555",514.3457,80.06714,89.23883
"38556",514.359,80.01587,89.18966
"38557",514.3723,79.92554,89.09982
"38558",514.3856,79.80347,88.975426
"38559",514.3989,79.6643,88.83012
"38560",514.41223,79.517815,88.67314
"38561",514.42554,79.37377,88.51403
"38562",514.43884,79.234604,88.35529
"38563",514.45215,79.10277,88.19954
"38564",514.46545,78.97826,88.04699
"38565",514.47876,78.86839,87.9052
"38566",514.49207,78.77074,87.77218
"38567",514.5054,78.695045,87.65807
"38568",514.5187,78.63401,87.55626
"38569",514.532,78.59251,87.47207
"38570",514.5453,78.56809,87.40367
"38571",514.5586,78.555885,87.34672
"38572",514.5719,78.56077,87.30647
"38573",514.5852,78.5803,87.28103
"38574",514.5985,78.6218,87.27817
"38575",514.6118,78.677956,87.29125
"38576",514.6251,78.73899,87.310974
"38577",514.6384,78.79027,87.322845
"38578",514.65173,78.82689,87.32166
"38579",514.66504,78.84398,87.30209
"38580",514.67834,78.84886,87.27085
"38581",514.69165,78.873276,87.25929
"38582",514.70496,78.94652,87.297325
"38583",514.71826,79.12718,87.44507
"38584",514.73157,79.4641,87.754715
"38585",514.7449,80.00122,88.275085
"38586",514.7582,80.726326,89.00023
"38587",514.7715,81.59304,89.88964
"38588",514.7848,82.51591,90.86229
"38589",514.7981,83.39971,91.824715
"38590",514.8114,84.15411,92.685356
"38591",514.8247,84.715645,93.3767
"38592",514.838,85.08186,93.89028
"38593",514.8513,85.26742,94.23464
"38594",514.8646,85.3016,94.433426
"38595",514.8779,85.20882,94.50632
"38596",514.89124,85.030594,94.49087
"38597",514.90454,84.80354,94.42102
"38598",514.91785,84.53986,94.30745
"38599",514.93115,84.25666,94.166115
"38600",514.94446,83.966125,94.0086
"38601",514.95776,83.66827,93.83468
"38602",514.97107,83.34844,93.629486
"38603",514.9844,82.99687,93.38255
"38604",514.9977,82.61845,93.09778
"38605",515.011,82.22049,92.78165
"38606",515.0243,81.82254,92.45309
"38607",515.0376,81.45144,92.13894
"38608",515.0509,81.14137,91.87423
"38609",515.0642,80.89479,91.663315
"38610",515.0775,80.706795,91.50328
"38611",515.0908,80.56519,91.383766
"38612",515.1041,80.45045,91.28668
"38613",515.11743,80.34058,91.190895
"38614",515.13074,80.20874,91.069695
"38615",515.14404,80.059814,90.92729
"38616",515.15735,79.886475,90.75582
"38617",515.17065,79.691154,90.55695
"38618",515.18396,79.48119,90.33734
"38619",515.19727,79.27123,90.11117
"38620",515.2106,79.061264,89.878426
"38621",515.2239,78.86351,89.65134
"38622",515.2372,78.68284,89.43515
"38623",515.2505,78.52659,89.23774
"38624",515.2638,78.39231,89.05742
"38625",515.2771,78.28001,88.894875
"38626",515.2904,78.19211,88.75323
"38627",515.3037,78.12375,88.62837
"38628",515.317,78.07004,88.51603
"38629",515.3303,78.028534,88.414215
"38630",515.3436,78.00168,88.32575
"38631",515.35693,77.98947,88.2511
"38632",515.37024,77.98703,88.18583
"38633",515.38354,77.99924,88.13513
"38634",515.39685,78.02121,88.09458
"38635",515.41016,78.04318,88.05472
"38636",515.42346,78.07004,88.020424
"38637",515.43677,78.09445,87.98453
"38638",515.4501,78.10422,87.934746
"38639",515.4634,78.09689,87.86818
"38640",515.4767,78.065155,87.77697
"38641",515.49,78.013885,87.66524
"38642",515.5033,77.95529,87.54458
"38643",515.5166,77.92355,87.448944
"38644",515.5299,77.97482,87.435326
"38645",515.5432,78.170135,87.56735
"38646",515.5565,78.55833,87.89836
"38647",515.5698,79.149155,88.44414
"38648",515.5831,79.89624,89.164635
"38649",515.59644,80.70435,89.969505
"38650",515.60974,81.461205,90.74837
"38651",515.62305,82.05936,91.39218
"38652",515.63635,82.44755,91.84473
"38653",515.64966,82.616005,92.08967
"38654",515.66296,82.6038,92.15921
"38655",515.6763,82.45731,92.09409
"38656",515.6896,82.230255,91.943825
"38657",515.7029,81.97391,91.75717
"38658",515.7162,81.71267,91.55762
"38659",515.7295,81.47585,91.37432
"38660",515.7428,81.270775,91.21536
"38661",515.7561,81.0901,91.0744
"38662",515.7694,80.92653,90.94489
"38663",515.7827,80.76051,90.80783
"38664",515.796,80.57984,90.650925
"38665",515.8093,80.37476,90.46397
"38666",515.82263,80.15015,90.25106
"38667",515.83594,79.920654,90.02626
"38668",515.84924,79.710686,89.81381
"38669",515.86255,79.54467,89.638756
"38670",515.87585,79.43725,89.517105
"38671",515.88916,79.38598,89.44825
"38672",515.90247,79.378654,89.42174
"38673",515.9158,79.395744,89.41941
"38674",515.9291,79.412834,89.41762
"38675",515.9424,79.40795,89.39439
"38676",515.9557,79.37133,89.339264
"38677",515.969,79.30541,89.2537
"38678",515.9823,79.21019,89.13677
"38679",515.9956,79.08812,88.99002
"38680",516.0089,78.9514,88.82481
"38681",516.0222,78.8098,88.65044
"38682",516.0355,78.67307,88.47652
"38683",516.0488,78.54124,88.303215
"38684",516.06213,78.42161,88.138
"38685",516.07544,78.31663,87.983696
"38686",516.08875,78.22873,87.84319
"38687",516.10205,78.14572,87.704834
"38688",516.11536,78.07492,87.57609
"38689",516.12866,78.009,87.45001
"38690",516.14197,77.943085,87.32188
"38691",516.1553,77.87961,87.19412
"38692",516.1686,77.81369,87.06194
"38693",516.1819,77.747765,86.9277
"38694",516.1952,77.68429,86.79384
"38695",516.2085,77.625694,86.66288
"38696",516.2218,77.57931,86.5423
"38697",516.2351,77.5378,86.42515
"38698",516.2484,77.49874,86.30914
"38699",516.2617,77.467,86.19924
"38700",516.275,77.43282,86.08591
"38701",516.2883,77.401085,85.973946
"38702",516.30164,77.37179,85.863434
"38703",516.31494,77.34005,85.749565
"38704",516.32825,77.31075,85.637146
"38705",516.34155,77.29122,85.53358
"38706",516.35486,77.30343,85.461136
"38707",516.36816,77.40597,85.47941
"38708",516.3815,77.65499,85.64737
"38709",516.3948,78.09201,86.01111
"38710",516.4081,78.71702,86.57649
"38711",516.4214,79.47143,87.29081
"38712",516.4347,80.2649,88.067764
"38713",516.448,80.98512,88.796265
"38714",516.4613,81.549095,89.39102
"38715",516.4746,81.91043,89.800766
"38716",516.4879,82.06668,90.016716
"38717",516.5012,82.054474,90.06909
"38718",516.5145,81.91531,89.99413
"38719",516.52783,81.70046,89.839134
"38720",516.54114,81.461205,89.653015
"38721",516.55444,81.234146,89.47162
"38722",516.56775,81.03151,89.30755
"38723",516.58105,80.867935,89.17621
"38724",516.59436,80.73365,89.069046
"38725",516.60767,80.61158,88.9699
"38726",516.621,80.48707,88.8645
"38727",516.6343,80.34791,88.74056
"38728",516.6476,80.19409,88.59762
"38729",516.6609,80.03052,88.44011
"38730",516.6742,79.87671,88.287254
"38731",516.6875,79.7522,88.15889
"38732",516.7008,79.676506,88.075455
"38733",516.7141,79.64721,88.03605
"38734",516.7274,79.65942,88.03723
"38735",516.7407,79.70092,88.06809
"38736",516.754,79.73998,88.09781
"38737",516.76733,79.766846,88.11655
"38738",516.78064,79.75708,88.099495
"38739",516.79395,79.708244,88.04307
"38740",516.80725,79.62768,87.953384
"38741",516.82056,79.5227,87.83677
"38742",516.83386,79.412834,87.71199
"38743",516.84717,79.310295,87.5911
"38744",516.8605,79.217514,87.47677
"38745",516.8738,79.132065,87.36687
"38746",516.8871,79.0515,87.25918
"38747",516.9004,78.975815,87.153854
"38748",516.9137,78.90013,87.046165
"38749",516.927,78.82933,86.940994
"38750",516.9403,78.77318,86.84826
"38751",516.9536,78.73655,86.77329
"38752",516.9669,78.71458,86.71184
"38753",516.9802,78.712135,86.66923
"38754",516.9935,78.73167,86.64851
"38755",517.00684,78.76097,86.63818
"38756",517.02014,78.802475,86.64097
"38757",517.03345,78.8513,86.652374
"38758",517.04675,78.9099,86.67507
"38759",517.06006,78.97826,86.709366
"38760",517.07336,79.061264,86.760445
"38761",517.0867,79.15892,86.828766
"38762",517.1,79.26635,86.90991
"38763",517.1133,79.37621,86.99685
"38764",517.1266,79.47631,87.07745
"38765",517.1399,79.551994,87.13677
"38766",517.1532,79.58373,87.15451
"38767",517.1665,79.56176,87.11953
"38768",517.1798,79.48852,87.03259
"38769",517.1931,79.361565,86.889656
"38770",517.2064,79.18822,86.69636
"38771",517.2197,78.98558,86.46835
"38772",517.23303,78.77318,86.22425
"38773",517.24634,78.5803,85.993034
"38774",517.25964,78.47532,85.84369
"38775",517.27295,78.55833,85.87905
"38776",517.28625,78.94896,86.22463
"38777",517.29956,79.68871,86.93154
"38778",517.31287,80.72144,87.954544
"38779",517.3262,81.89578,89.15143
"38780",517.3395,83.01396,90.32885
"38781",517.3528,83.89288,91.301956
"38782",517.3661,84.41779,91.94852
"38783",517.3794,84.58869,92.25747
"38784",517.3927,84.473946,92.28612
"38785",517.406,84.16632,92.1183
"38786",517.4193,83.74395,91.826126
"38787",517.4326,83.27764,91.476814
"38788",517.4459,82.81621,91.117805
"38789",517.4592,82.39384,90.78344
"38790",517.47253,82.02762,90.49203
"38791",517.48584,81.71023,90.238
"38792",517.49915,81.42947,90.01068
"38793",517.51245,81.17311,89.798996
"38794",517.52576,80.936295,89.59884
"38795",517.53906,80.71168,89.40348
"38796",517.55237,80.50904,89.22308
"38797",517.5657,80.34058,89.07053
"38798",517.579,80.22095,88.96154
"38799",517.5923,80.16724,88.914734
"38800",517.6056,80.17212,88.92484
"38801",517.6189,80.22583,88.98393
"38802",517.6322,80.30396,89.06912
"38803",517.6455,80.37232,89.14698
"38804",517.6588,80.4065,89.192795
"38805",517.6721,80.38453,89.183525
"38806",517.6854,80.306404,89.11742
"38807",517.6987,80.16724,88.98782
"38808",517.71204,79.98413,88.809944
"38809",517.72534,79.76929,88.594604
"38810",517.73865,79.537346,88.35545
"38811",517.75195,79.30297,88.10662
"38812",517.76526,79.07591,87.85778
"38813",517.77856,78.853745,87.606735
"38814",517.7919,78.63889,87.356064
"38815",517.8052,78.43137,87.10601
"38816",517.8185,78.24338,86.868996
"38817",517.8318,78.07248,86.6432
"38818",517.8451,77.93088,86.44137
"38819",517.8584,77.823456,86.26929
"38820",517.8717,77.75021,86.12803
"38821",517.885,77.70626,86.01377
"38822",517.8983,77.68429,85.92012
"38823",517.9116,77.68429,85.847755
"38824",517.9249,77.68673,85.77783
"38825",517.93823,77.68673,85.70554
"38826",517.95154,77.67452,85.62105
"38827",517.96484,77.65743,85.53129
"38828",517.97815,77.642784,85.443436
"38829",517.99146,77.64034,85.36733
"38830",518.00476,77.642784,85.296036
"38831",518.01807,77.64767,85.22726
"38832",518.0314,77.6379,85.14398
"38833",518.0447,77.60128,85.03355
"38834",518.058,77.53292,84.89023
"38835",518.0713,77.44503,84.72524
"38836",518.0846,77.34249,84.54286
"38837",518.0979,77.24483,84.36215
"38838",518.1112,77.1667,84.19793
"38839",518.1245,77.120316,84.063
"38840",518.1378,77.14717,83.99987
"38841",518.1511,77.3254,84.08895
"38842",518.1644,77.76242,84.44239
"38843",518.17773,78.51194,85.12199
"38844",518.19104,79.53979,86.10333
"38845",518.20435,80.723885,87.27305
"38846",518.21765,81.88846,88.46024
"38847",518.23096,82.845505,89.4763
"38848",518.24426,83.46807,90.18779
"38849",518.25757,83.73907,90.56716
"38850",518.2709,83.71465,90.65959
"38851",518.2842,83.48272,90.54374
"38852",518.2975,83.11894,90.288795
"38853",518.3108,82.684364,89.95168
"38854",518.3241,82.23514,89.58634
"38855",518.3374,81.81033,89.231384
"38856",518.3507,81.42458,88.90221
"38857",518.364,81.08278,88.60492
"38858",518.3773,80.78981,88.34579
"38859",518.3906,80.52125,88.101906
"38860",518.40393,80.274666,87.87161
"38861",518.41724,80.03784,87.64337
"38862",518.43054,79.82788,87.43459
"38863",518.44385,79.66674,87.268074
"38864",518.45715,79.57885,87.16977
"38865",518.47046,79.57885,87.15661
"38866",518.48376,79.64721,87.21181
"38867",518.4971,79.764404,87.31798
"38868",518.5104,79.886475,87.432686
"38869",518.5237,79.97681,87.51947
"38870",518.537,80.01587,87.55781
"38871",518.5503,80.0061,87.54854
"38872",518.5636,79.94995,87.49258
"38873",518.5769,79.85718,87.39824
"38874",518.5902,79.7351,87.2717
"38875",518.6035,79.588615,87.116936
"38876",518.6168,79.42748,86.94295
"38877",518.6301,79.259026,86.7566
"38878",518.64343,79.08568,86.5601
"38879",518.65674,78.91966,86.36551
"38880",518.67004,78.76341,86.1755
"38881",518.68335,78.61692,85.990364
"38882",518.69666,78.48997,85.82019
"38883",518.70996,78.37766,85.6607
"38884",518.72327,78.28489,85.51723
"38885",518.7366,78.2092,85.38794
"38886",518.7499,78.15549,85.27827
"38887",518.7632,78.12619,85.19133
"38888",518.7765,78.118866,85.12545
"38889",518.7898,78.13107,85.07887
"38890",518.8031,78.15793,85.047325
"38891",518.8164,78.18967,85.0215
"38892",518.8297,78.21896,84.994225
"38893",518.843,78.25071,84.970314
"38894",518.8563,78.28489,84.94983
"38895",518.8696,78.31907,84.93041
"38896",518.88293,78.35081,84.90962
"38897",518.89624,78.37766,84.88494
"38898",518.90955,78.39231,84.84889
"38899",518.92285,78.399635,84.80598
"38900",518.93616,78.42405,84.78038
"38901",518.94946,78.51194,84.81902
"38902",518.96277,78.75853,85.01911
"38903",518.9761,79.24437,85.466156
"38904",518.9894,79.991455,86.18963
"38905",519.0027,80.94606,87.14397
"38906",519.016,81.99832,88.22579
"38907",519.0293,82.984665,89.27458
"38908",519.0426,83.76105,90.14423
"38909",519.0559,84.244446,90.74516
"38910",519.0692,84.43,91.063354
"38911",519.0825,84.36408,91.13587
"38912",519.0958,84.11261,91.020775
"38913",519.10913,83.74639,90.78307
"38914",519.12244,83.32403,90.47778
"38915",519.13574,82.88945,90.14708
"38916",519.14905,82.4744,89.82233
"38917",519.16235,82.09598,89.521225
"38918",519.17566,81.76639,89.25713
"38919",519.18896,81.48318,89.02912
"38920",519.2023,81.234146,88.82644
"38921",519.2156,81.00221,88.63307
"38922",519.2289,80.77272,88.4349
"38923",519.2422,80.54566,88.23199
"38924",519.2555,80.33326,88.03664
"38925",519.2688,80.15015,87.86394
"38926",519.2821,80.01343,87.73191
"38927",519.2954,79.9353,87.654205
"38928",519.3087,79.903564,87.620445
"38929",519.322,79.90112,87.61499
"38930",519.3353,79.90845,87.619225
"38931",519.34863,79.906006,87.61392
"38932",519.36194,79.87915,87.58413
"38933",519.37524,79.823,87.5242
"38934",519.38855,79.73266,87.42833
"38935",519.40186,79.61791,87.30523
"38936",519.41516,79.483635,87.15901
"38937",519.42847,79.33227,86.99151
"38938",519.4418,79.17113,86.8095
"38939",519.4551,78.99779,86.61026
"38940",519.4684,78.82689,86.40804
"38941",519.4817,78.66331,86.2078
"38942",519.495,78.51194,86.01466
"38943",519.5083,78.37766,85.833885
"38944",519.5216,78.2678,85.673325
"38945",519.5349,78.17502,85.52641
"38946",519.5482,78.101776,85.39614
"38947",519.5615,78.05051,85.28555
"38948",519.5748,78.02609,85.20022
"38949",519.58813,78.028534,85.140976
"38950",519.60144,78.05783,85.108665
"38951",519.61475,78.101776,85.09192
"38952",519.62805,78.150604,85.08143
"38953",519.64136,78.19943,85.072464
"38954",519.65466,78.23605,85.05282
"38955",519.66797,78.25559,85.017235
"38956",519.6813,78.25559,84.96272
"38957",519.6946,78.238495,84.89111
"38958",519.7079,78.21652,84.814095
"38959",519.7212,78.20187,84.74371
"38960",519.7345,78.238495,84.724144
"38961",519.7478,78.40208,84.83268
"38962",519.7611,78.785385,85.16605
"38963",519.7744,79.42748,85.770195
"38964",519.7877,80.31373,86.63855
"38965",519.801,81.34402,87.67864
"38966",519.81433,82.36942,88.74605
"38967",519.82764,83.23857,89.68924
"38968",519.84094,83.84161,90.393486
"38969",519.85425,84.14191,90.81383
"38970",519.86755,84.173645,90.975
"38971",519.88086,83.99786,90.92964
"38972",519.89417,83.68047,90.73718
"38973",519.9075,83.282524,90.45425
"38974",519.9208,82.85039,90.12469
"38975",519.9341,82.423134,89.78651
"38976",519.9474,82.0325,89.471596
"38977",519.9607,81.688255,89.190865
"38978",519.974,81.39773,88.953094
"38979",519.9873,81.15358,88.752625
"38980",520.0006,80.938736,88.57383
"38981",520.0139,80.73609,88.40052
"38982",520.0272,80.5359,88.22333
"38983",520.0405,80.32838,88.032555
"38984",520.05383,80.12573,87.84017
"38985",520.06714,79.94995,87.66832
"38986",520.08044,79.815674,87.53248
"38987",520.09375,79.73998,87.45103
"38988",520.10706,79.71557,87.41849
"38989",520.12036,79.73022,87.42425
"38990",520.13367,79.76196,87.44756
"38991",520.147,79.7937,87.47186
"38992",520.1603,79.80591,87.47762
"38993",520.1736,79.78638,87.45203
"38994",520.1869,79.7351,87.39407
"38995",520.2002,79.65209,87.30279
"38996",520.2135,79.53246,87.17229
"38997",520.2268,79.38842,87.01363
"38998",520.2401,79.22972,86.83582
"38999",520.2534,79.063705,86.64574
"39000",520.2667,78.89769,86.45046
"39001",520.28,78.73655,86.254875
"39002",520.29333,78.58274,86.061584
"39003",520.30664,78.44114,85.875694
"39004",520.31995,78.314186,85.70003
"39005",520.33325,78.204315,85.537476
"39006",520.34656,78.11398,85.39103
"39007",520.35986,78.04562,85.26373
"39008",520.37317,78.00412,85.161156
"39009",520.3865,77.98459,85.079254
"39010",520.3998,77.99191,85.0236
"39011",520.4131,78.01633,84.98526
"39012",520.4264,78.05295,84.95989
"39013",520.4397,78.08957,84.93567
"39014",520.453,78.12375,84.91015
"39015",520.4663,78.14572,84.87349
"39016",520.4796,78.153046,84.82287
"39017",520.4929,78.150604,84.76271
"39018",520.5062,78.14816,84.70248
"39019",520.51953,78.170135,84.66658
"39020",520.53284,78.28245,84.72171
"39021",520.54614,78.57786,84.96345
"39022",520.55945,79.14183,85.48298
"39023",520.57275,79.98901,86.303345
"39024",520.58606,81.04372,87.357704
"39025",520.59937,82.16922,88.51582
"39026",520.6127,83.18974,89.60413
"39027",520.626,83.95148,90.465546
"39028",520.6393,84.386055,91.023605
"39029",520.6526,84.50324,91.277855
"39030",520.6659,84.37385,91.289185
"39031",520.6792,84.06378,91.1158
"39032",520.6925,83.64629,90.8253
"39033",520.7058,83.17265,90.46561
"39034",520.7191,82.69169,90.083786
"39035",520.7324,82.23514,89.71135
"39036",520.7457,81.82498,89.37104
"39037",520.75903,81.46853,89.07162
"39038",520.77234,81.160904,88.80988
"39039",520.78564,80.89235,88.57761
"39040",520.79895,80.6482,88.36134
"39041",520.81226,80.411385,88.14478
"39042",520.82556,80.181885,87.92814
"39043",520.83887,79.97681,87.728745
"39044",520.8522,79.80835,87.55956
"39045",520.8655,79.69848,87.4437
"39046",520.8788,79.65209,87.38789
"39047",520.8921,79.65942,87.384346
"39048",520.9054,79.70336,87.41765
"39049",520.9187,79.75952,87.46454
"39050",520.932,79.80347,87.50097
"39051",520.9453,79.823,87.51436
"39052",520.9586,79.80591,87.49174
"39053",520.9719,79.75464,87.4344
"39054",520.9852,79.66674,87.33884
"39055",520.99854,79.54711,87.20879
"39056",521.01184,79.40063,87.04816
"39057",521.02515,79.22972,86.85852
"39058",521.03845,79.044174,86.6489
"39059",521.05176,78.853745,86.428604
"39060",521.06506,78.660866,86.199905
"39061",521.07837,78.47776,85.97495
"39062",521.0917,78.311745,85.76137
"39063",521.105,78.16281,85.55968
"39064",521.1183,78.04074,85.380196
"39065",521.1316,77.94064,85.21887
"39066",521.1449,77.86252,85.07639
"39067",521.1582,77.81125,84.95833
"39068",521.1715,77.78439,84.863075
"39069",521.1848,77.77707,84.786514
"39070",521.1981,77.789276,84.729256
"39071",521.2114,77.81369,84.684586
"39072",521.22473,77.84787,84.650444
"39073",521.23804,77.88449,84.61981
"39074",521.25134,77.92111,84.590324
"39075",521.26465,77.95773,84.56198
"39076",521.27795,77.98459,84.52502
"39077",521.29126,78.00412,84.48157
"39078",521.30457,78.02365,84.43873
"39079",521.3179,78.07736,84.43068
"39080",521.3312,78.24826,84.5415
"39081",521.3445,78.658424,84.89692
"39082",521.3578,79.378654,85.575226
"39083",521.3711,80.4065,86.58366
"39084",521.3844,81.62966,87.81952
"39085",521.3977,82.862595,89.10338
"39086",521.411,83.90509,90.23533
"39087",521.4243,84.610664,91.062935
"39088",521.4376,84.93294,91.52929
"39089",521.4509,84.92073,91.671234
"39090",521.46423,84.661934,91.56621
"39091",521.47754,84.23956,91.28952
"39092",521.49084,83.7293,90.91174
"39093",521.50415,83.177536,90.47652
"39094",521.51746,82.62821,90.02649
"39095",521.53076,82.108185,89.58859
"39096",521.54407,81.63943,89.185715
"39097",521.5574,81.231705,88.82922
"39098",521.5707,80.8777,88.51371
"39099",521.584,80.567635,88.23107
"39100",521.5973,80.28687,87.96805
"39101",521.6106,80.0354,87.72554
"39102",521.6239,79.82056,87.5118
"39103",521.6372,79.65942,87.345055
"39104",521.6505,79.57641,87.2514
"39105",521.6638,79.57885,87.24061
"39106",521.6771,79.64965,87.29825
"39107",521.6904,79.77417,87.41182
"39108",521.70374,79.920654,87.55125
"39109",521.71704,80.05005,87.67816
"39110",521.73035,80.1355,87.765175
"39111",521.74365,80.16235,87.796265
"39112",521.75696,80.12329,87.762276
"39113",521.77026,80.02075,87.66359
"39114",521.78357,79.86206,87.50555
"39115",521.7969,79.66918,87.30836
"39116",521.8102,79.449455,87.07829
"39117",521.8235,79.2224,86.83403
"39118",521.8368,78.995346,86.58268
"39119",521.8501,78.77318,86.32912
"39120",521.8634,78.56321,86.08081
"39121",521.8767,78.37034,85.84304
"39122",521.89,78.19699,85.61877
"39123",521.9033,78.04562,85.41106
"39124",521.9166,77.925995,85.230354
"39125",521.92993,77.840546,85.08009
"39126",521.94324,77.78195,84.95402
"39127",521.95654,77.7551,84.85785
"39128",521.96985,77.752655,84.785255
"39129",521.98315,77.77219,84.73456
"39130",521.99646,77.803925,84.69668
"39131",522.00977,77.84299,84.667114
"39132",522.0231,77.88205,84.63877
"39133",522.0364,77.91623,84.606766
"39134",522.0497,77.9382,84.56362
"39135",522.063,77.962616,84.523605
"39136",522.0763,78.011444,84.508766
"39137",522.0896,78.14816,84.58334
"39138",522.1029,78.487526,84.86484
"39139",522.1162,79.12474,85.45479
"39140",522.1295,80.08179,86.38448
"39141",522.1428,81.27566,87.58091
"39142",522.1561,82.545204,88.89032
"39143",522.16943,83.68047,90.105125
"39144",522.18274,84.51057,91.05023
"39145",522.19604,84.95247,91.63309
"39146",522.20935,85.02083,91.85621
"39147",522.22266,84.805984,91.79826
"39148",522.23596,84.39582,91.538284
"39149",522.24927,83.87091,91.15074
"39150",522.2626,83.29229,90.693085
"39151",522.2759,82.70634,90.210014
"39152",522.2892,82.14725,89.7355
"39153",522.3025,81.6321,89.28745
"39154",522.3158,81.16823,88.87458
"39155",522.3291,80.75319,88.49605
"39156",522.3424,80.37232,88.13872
"39157",522.3557,80.02075,87.79878
"39158",522.369,79.710686,87.489365
"39159",522.3823,79.45922,87.22886
"39160",522.3956,79.290764,87.0435
"39161",522.40894,79.22484,86.955414
"39162",522.42224,79.26635,86.9727
"39163",522.43555,79.40063,87.08405
"39164",522.44885,79.588615,87.25331
"39165",522.46216,79.79614,87.44798
"39166",522.47546,79.97681,87.62228
"39167",522.4888,80.10376,87.748505
"39168",522.5021,80.14526,87.79325
"39169",522.5154,80.1062,87.75873
"39170",522.5287,79.99878,87.654625
"39171",522.542,79.83765,87.493454
"39172",522.5553,79.63744,87.28818
"39173",522.5686,79.412834,87.05224
"39174",522.5819,79.17113,86.79218
"39175",522.5952,78.92699,86.52214
"39176",522.6085,78.68284,86.24446
"39177",522.6218,78.44846,85.968925
"39178",522.63513,78.238495,85.71047
"39179",522.64844,78.05783,85.47476
"39180",522.66174,77.90646,85.2627
"39181",522.67505,77.789276,85.08009
"39182",522.68835,77.70626,84.92799
"39183",522.70166,77.65011,84.80016
"39184",522.71497,77.61837,84.69499
"39185",522.7283,77.60616,84.60836
"39186",522.7416,77.59884,84.52623
"39187",522.7549,77.60128,84.453636
"39188",522.7682,77.611046,84.38844
"39189",522.7815,77.625694,84.32844
"39190",522.7948,77.66476,84.293304
"39191",522.8081,77.77707,84.33264
"39192",522.8214,78.065155,84.55126
"39193",522.8347,78.64866,85.0743
"39194",522.848,79.58373,85.96715
"39195",522.8613,80.81911,87.189514
"39196",522.87463,82.20584,88.601845
"39197",522.88794,83.526665,89.9916
"39198",522.90125,84.57404,91.149185
"39199",522.91455,85.223465,91.94154
"39200",522.92786,85.472496,92.353806
"39201",522.94116,85.39437,92.44669
"39202",522.95447,85.08675,92.30764
"39203",522.9678,84.63264,92.01249
"39204",522.9811,84.09796,91.62258
"39205",522.9944,83.529106,91.181786
"39206",523.0077,82.97002,90.73298
"39207",523.021,82.44755,90.30332
"39208",523.0343,81.97879,89.91105
"39209",523.0476,81.57107,89.56516
"39210",523.0609,81.22438,89.26757
"39211",523.0742,80.92409,89.00554
"39212",523.0875,80.65064,88.76097
"39213",523.1008,80.396736,88.5274
"39214",523.11414,80.164795,88.30785
"39215",523.12744,79.9646,88.11281
"39216",523.14075,79.815674,87.962776
"39217",523.15405,79.73022,87.87156
"39218",523.16736,79.71313,87.84604
"39219",523.18066,79.74975,87.873695
"39220",523.194,79.815674,87.9318
"39221",523.2073,79.88403,87.9944
"39222",523.2206,79.92798,88.03472
"39223",523.2339,79.93042,88.03491
"39224",523.2472,79.886475,87.98879
"39225",523.2605,79.7937,87.89247
"39226",523.2738,79.66186,87.75418
"39227",523.2871,79.49096,87.572716
"39228",523.3004,79.30053,87.36638
"39229",523.3137,79.097885,87.14188
"39230",523.327,78.890366,86.906166
"39231",523.34033,78.69016,86.67129
"39232",523.35364,78.49485,86.43504
"39233",523.36694,78.314186,86.207344
"39234",523.38025,78.14572,85.9862
"39235",523.39355,78.00168,85.78421
"39236",523.40686,77.88449,85.604576
"39237",523.42017,77.79904,85.45302
"39238",523.4335,77.73556,85.320755
"39239",523.4468,77.68917,85.203606
"39240",523.4601,77.65255,85.09477
"39241",523.4734,77.62325,84.99212
"39242",523.4867,77.60128,84.895874
"39243",523.5,77.58907,84.80871
"39244",523.5133,77.60372,84.74802
"39245",523.5266,77.69161,84.761024
"39246",523.5399,77.94064,84.93792
"39247",523.5532,78.45579,85.38871
"39248",523.5665,79.29809,86.182755
"39249",523.57983,80.42603,87.288765
"39250",523.59314,81.70046,88.57651
"39251",523.60645,82.93584,89.86502
"39252",523.61975,83.94415,90.96508
"39253",523.63306,84.59113,91.73531
"39254",523.64636,84.86946,92.15711
"39255",523.65967,84.8304,92.27022
"39256",523.673,84.56428,92.155045
"39257",523.6863,84.15411,91.88751
"39258",523.6996,83.665825,91.52904
"39259",523.7129,83.15068,91.12845
"39260",523.7262,82.652626,90.72885
"39261",523.7395,82.193634,90.35275
"39262",523.7528,81.78348,90.01115
"39263",523.7661,81.42458,89.707985
"39264",523.7794,81.112076,89.439995
"39265",523.7927,80.82643,89.1891
"39266",523.806,80.56275,88.95125
"39267",523.81934,80.31129,88.71737
"39268",523.83264,80.076904,88.492714
"39269",523.84595,79.87427,88.29248
"39270",523.85925,79.72289,88.13718
"39271",523.87256,79.63256,88.038185
"39272",523.88586,79.605705,87.99985
"39273",523.8992,79.639885,88.021706
"39274",523.9125,79.708244,88.07881
"39275",523.9258,79.77661,88.13806
"39276",523.9391,79.82788,88.18235
"39277",523.9524,79.84009,88.18918
"39278",523.9657,79.801025,88.14512
"39279",523.979,79.71313,88.051
"39280",523.9923,79.588615,87.91753
"39281",524.0056,79.429924,87.74598
"39282",524.0189,79.24925,87.54749
"39283",524.0322,79.0515,87.32628
"39284",524.04553,78.84642,87.09156
"39285",524.05884,78.643776,86.85287
"39286",524.07214,78.450905,86.617615
"39287",524.08545,78.27024,86.38854
"39288",524.09875,78.1091,86.17335
"39289",524.11206,77.97238,85.97754
"39290",524.12537,77.857635,85.79943
"39291",524.1387,77.7673,85.64215
"39292",524.152,77.70138,85.506454
"39293",524.1653,77.64767,85.38091
"39294",524.1786,77.60372,85.26346
"39295",524.1919,77.5671,85.151955
"39296",524.2052,77.53536,85.04419
"39297",524.2185,77.51827,84.95008
"39298",524.2318,77.53292,84.88718
"39299",524.2451,77.6379,84.91506
"39300",524.2584,77.91623,85.119576
"39301",524.2717,78.46555,85.60378
"39302",524.28503,79.31762,86.4079
"39303",524.29834,80.430916,87.49987
"39304",524.31165,81.66384,88.74626
"39305",524.32495,82.83086,89.96527
"39306",524.33826,83.76349,90.98637
"39307",524.35156,84.35432,91.6948
"39308",524.36487,84.59113,92.06769
"39309",524.3782,84.53742,92.15745
"39310",524.3915,84.27375,92.03557
"39311",524.4048,83.87091,91.76628
"39312",524.4181,83.389946,91.40628
"39313",524.4314,82.88945,91.01172
"39314",524.4447,82.4036,90.616165
"39315",524.458,81.95926,90.24693
"39316",524.4713,81.56863,89.91753
"39317",524.4846,81.231705,89.62962
"39318",524.4979,80.93385,89.37026
"39319",524.5112,80.66529,89.13088
"39320",524.52454,80.41871,88.90509
"39321",524.53784,80.18921,88.688675
"39322",524.55115,79.98901,88.49439
"39323",524.56445,79.83032,88.33536
"39324",524.57776,79.73022,88.22995
"39325",524.59106,79.69604,88.18734
"39326",524.6044,79.72045,88.202255
"39327",524.6177,79.79126,88.26433
"39328",524.631,79.87915,88.345695
"39329",524.6443,79.94995,88.41272
"39330",524.6576,79.98413,88.445335
"39331",524.6709,79.96704,88.42775
"39332",524.6842,79.8938,88.35348
"39333",524.6975,79.77417,88.23053
"39334",524.7108,79.61547,88.06477
"39335",524.7241,79.432365,87.86965
"39336",524.7374,79.23216,87.65171
"39337",524.75073,79.03197,87.42752
"39338",524.76404,78.83421,87.19952
"39339",524.77734,78.64866,86.97753
"39340",524.79065,78.47288,86.75952
"39341",524.80396,78.311745,86.55067
"39342",524.81726,78.16525,86.35142
"39343",524.83057,78.04562,86.17445
"39344",524.8439,77.95285,86.02061
"39345",524.8572,77.88937,85.89316
"39346",524.8705,77.855194,85.79302
"39347",524.8838,77.84299,85.71379
"39348",524.8971,77.838104,85.6415
"39349",524.9104,77.840546,85.576385
"39350",524.9237,77.84543,85.51379
"39351",524.937,77.84543,85.44646
"39352",524.9503,77.855194,85.38889
"39353",524.9636,77.88937,85.35605
"39354",524.9769,78.00168,85.4024
"39355",524.99023,78.27512,85.613396
"39356",525.00354,78.79515,86.07952
"39357",525.01685,79.588615,86.835335
"39358",525.03015,80.6067,87.84056
"39359",525.04346,81.71511,88.96793
"39360",525.05676,82.75517,90.06159
"39361",525.07007,83.57061,90.96313
"39362",525.0834,84.068665,91.57276
"39363",525.0967,84.24689,91.87813
"39364",525.11,84.15411,91.91807
"39365",525.1233,83.861145,91.75491
"39366",525.1366,83.43633,91.45076
"39367",525.1499,82.94316,91.06497
"39368",525.1632,82.4329,90.64668
"39369",525.1765,81.94461,90.23442
"39370",525.1898,81.497826,89.848404
"39371",525.2031,81.09987,89.49725
"39372",525.21643,80.743416,89.17517
"39373",525.22974,80.41627,88.871254
"39374",525.24304,80.11841,88.5864
"39375",525.25635,79.85474,88.32643
"39376",525.26965,79.64477,88.11192
"39377",525.28296,79.51049,87.966545
"39378",525.29626,79.46899,87.909744
"39379",525.3096,79.52514,87.9493
"39380",525.3229,79.65209,88.06142
"39381",525.3362,79.82056,88.21901
"39382",525.3495,79.98657,88.37942
"39383",525.3628,80.10864,88.50107
"39384",525.3761,80.16724,88.56306
"39385",525.3894,80.15259,88.553635
"39386",525.4027,80.06958,88.475395
"39387",525.416,79.9353,88.34329
"39388",525.4293,79.75708,88.16305
"39389",525.4426,79.55688,87.95525
"39390",525.45593,79.34692,87.731445
"39391",525.46924,79.13695,87.50107
"39392",525.48254,78.93675,87.2739
"39393",525.49585,78.74876,87.05268
"39394",525.50916,78.5803,86.84512
"39395",525.52246,78.43137,86.65183
"39396",525.53577,78.30442,86.47586
"39397",525.5491,78.204315,86.32277
"39398",525.5624,78.12863,86.19097
"39399",525.5757,78.07492,86.07878
"39400",525.589,78.04074,85.98444
"39401",525.6023,78.01877,85.901245
"39402",525.6156,78.00168,85.82224
"39403",525.6289,77.98947,85.74759
"39404",525.6422,77.977264,85.672554
"39405",525.6555,77.97482,85.6069
"39406",525.6688,77.98947,85.558266
"39407",525.6821,78.05295,85.558914
"39408",525.69543,78.22629,85.67141
"39409",525.70874,78.59495,85.98464
"39410",525.72205,79.21263,86.55842
"39411",525.73535,80.076904,87.39809
"39412",525.74866,81.109634,88.43322
"39413",525.76196,82.17166,89.52992
"39414",525.77527,83.11162,90.53774
"39415",525.7886,83.80011,91.32347
"39416",525.8019,84.17853,91.82064
"39417",525.8152,84.266426,92.039116
"39418",525.8285,84.119934,92.02595
"39419",525.8418,83.809875,91.844635
"39420",525.8551,83.404594,91.55841
"39421",525.8684,82.950485,91.21069
"39422",525.8817,82.496376,90.848785
"39423",525.895,82.06668,90.4971
"39424",525.9083,81.67849,90.17349
"39425",525.92163,81.32693,89.87438
"39426",525.93494,81.02174,89.610664
"39427",525.94824,80.7483,89.36915
"39428",525.96155,80.50172,89.14595
"39429",525.97485,80.26734,88.92725
"39430",525.98816,80.062256,88.73052
"39431",526.00146,79.8938,88.56401
"39432",526.0148,79.77661,88.443504
"39433",526.0281,79.72045,88.38036
"39434",526.0414,79.72289,88.37407
"39435",526.0547,79.76929,88.411804
"39436",526.068,79.84009,88.475395
"39437",526.0813,79.90845,88.53876
"39438",526.0946,79.94751,88.57496
"39439",526.1079,79.94263,88.568436
"39440",526.1212,79.886475,88.51049
"39441",526.1345,79.781494,88.40196
"39442",526.1478,79.64233,88.25597
"39443",526.16113,79.47631,88.07877
"39444",526.17444,79.29565,87.881744
"39445",526.18774,79.11253,87.67662
"39446",526.20105,78.92943,87.46578
"39447",526.21436,78.74876,87.251656
"39448",526.22766,78.58274,87.04654
"39449",526.24097,78.433815,86.853325
"39450",526.2543,78.29954,86.670105
"39451",526.2676,78.187225,86.504654
"39452",526.2809,78.10422,86.365
"39453",526.2942,78.04318,86.24472
"39454",526.3075,78.00656,86.14695
"39455",526.3208,77.98703,86.065125
"39456",526.3341,77.98459,85.99978
"39457",526.3474,77.98459,85.9368
"39458",526.3607,77.98459,85.87382
"39459",526.374,77.98459,85.81084
"39460",526.3873,77.98459,85.747856
"39461",526.40063,77.98947,85.68976
"39462",526.41394,78.01877,85.65623
"39463",526.42725,78.12131,85.69685
"39464",526.44055,78.380104,85.89694
"39465",526.45386,78.873276,86.33949
"39466",526.46716,79.62768,87.058685
"39467",526.48047,80.59937,88.018745
"39468",526.4938,81.67361,89.11171
"39469",526.5071,82.69657,90.18697
"39470",526.5204,83.51934,91.09401
"39471",526.5337,84.051575,91.73622
"39472",526.547,84.2884,92.099655
"39473",526.5603,84.263985,92.20925
"39474",526.5736,84.04181,92.12032
"39475",526.5869,83.6878,91.89262
"39476",526.6002,83.267876,91.58794
"39477",526.6135,82.828415,91.250595
"39478",526.62683,82.41093,90.92149
"39479",526.64014,82.0325,90.61841
"39480",526.65344,81.70779,90.35721
"39481",526.66675,81.43191,90.1347
"39482",526.68005,81.19264,89.94018
"39483",526.69336,80.972916,89.75772
"39484",526.70667,80.76051,89.57572
"39485",526.72,80.550545,89.38952
"39486",526.7333,80.34547,89.201645
"39487",526.7466,80.15503,89.022
"39488",526.7599,80.00122,88.87304
"39489",526.7732,79.8938,88.765656
"39490",526.7865,79.84009,88.708626
"39491",526.7998,79.83276,88.696304
"39492",526.8131,79.85718,88.71549
"39493",526.8264,79.886475,88.740326
"39494",526.8397,79.89624,88.746544
"39495",526.853,79.87671,88.72377
"39496",526.86633,79.815674,88.65888
"39497",526.87964,79.71313,88.550575
"39498",526.89294,79.58129,88.409775
"39499",526.90625,79.42748,88.24288
"39500",526.91956,79.259026,88.05653
"39501",526.93286,79.078354,87.85271
"39502",526.94617,78.89769,87.64324
"39503",526.9595,78.71946,87.430565
"39504",526.9728,78.551,87.22209
"39505",526.9861,78.399635,87.025444
"39506",526.9994,78.26536,86.841156
"39507",527.0127,78.15793,86.67952
"39508",527.026,78.07004,86.534065
"39509",527.0393,78.00168,86.405396
"39510",527.0526,77.95041,86.29168
"39511",527.0659,77.92111,86.19833
"39512",527.0792,77.89914,86.1114
"39513",527.0925,77.891815,86.03842
"39514",527.10583,77.891815,85.97254
"39515",527.11914,77.89426,85.9091
"39516",527.13245,77.891815,85.84086
"39517",527.14575,77.87961,85.76277
"39518",527.15906,77.86252,85.67942
"39519",527.17236,77.86252,85.612625
"39520",527.18567,77.91867,85.60198
"39521",527.199,78.116425,85.734695
"39522",527.2123,78.538795,86.098206
"39523",527.2256,79.2224,86.736145
"39524",527.2389,80.14282,87.63227
"39525",527.2522,81.19997,88.69388
"39526",527.2655,82.24979,89.7812
"39527",527.2788,83.13603,90.73775
"39528",527.2921,83.758606,91.45832
"39529",527.3054,84.085754,91.90292
"39530",527.3187,84.14435,92.089195
"39531",527.33203,83.9881,92.062454
"39532",527.34534,83.682915,91.8819
"39533",527.35864,83.28985,91.60392
"39534",527.37195,82.85771,91.27459
"39535",527.38525,82.4329,90.93908
"39536",527.39856,82.037384,90.61959
"39537",527.41187,81.688255,90.33413
"39538",527.4252,81.38552,90.08415
"39539",527.4385,81.1194,89.86133
"39540",527.4518,80.87526,89.65217
"39541",527.4651,80.64332,89.44758
"39542",527.4784,80.42115,89.245514
"39543",527.4917,80.21118,89.048706
"39544",527.505,80.03296,88.87708
"39545",527.5183,79.903564,88.74872
"39546",527.5316,79.82788,88.67002
"39547",527.5449,79.80835,88.64511
"39548",527.5582,79.83765,88.66842
"39549",527.57153,79.8938,88.7195
"39550",527.58484,79.954834,88.777214
"39551",527.59814,79.99634,88.81731
"39552",527.61145,79.99634,88.81719
"39553",527.62476,79.94995,88.77069
"39554",527.63806,79.85718,88.67635
"39555",527.65137,79.72289,88.537605
"39556",527.6647,79.5642,88.370255
"39557",527.678,79.38598,88.17841
"39558",527.6913,79.1931,87.96635
"39559",527.7046,79.00023,87.74826
"39560",527.7179,78.80736,87.52415
"39561",527.7312,78.61692,87.29644
"39562",527.7445,78.44114,87.07744
"39563",527.7578,78.277565,86.86515
"39564",527.7711,78.135956,86.669716
"39565",527.7844,78.011444,86.48695
"39566",527.7977,77.91867,86.33204
"39567",527.81104,77.85275,86.20108
"39568",527.82434,77.823456,86.10468
"39569",527.83765,77.8259,86.03911
"39570",527.85095,77.85275,85.998024
"39571",527.86426,77.88937,85.967545
"39572",527.87756,77.925995,85.93821
"39573",527.89087,77.95285,85.90025
"39574",527.9042,77.960175,85.843605
"39575",527.9175,77.945526,85.76521
"39576",527.9308,77.92111,85.6766
"39577",527.9441,77.91135,85.60187
"39578",527.9574,77.960175,85.58543
"39579",527.9707,78.153046,85.714554
"39580",527.984,78.5803,86.08409
"39581",527.9973,79.28344,86.74287
"39582",528.0106,80.22095,87.65798
"39583",528.0239,81.287865,88.731804
"39584",528.03723,82.33036,89.814545
"39585",528.05054,83.194626,90.75163
"39586",528.06384,83.77081,91.42765
"39587",528.07715,84.03204,91.80672
"39588",528.09045,84.01984,91.92051
"39589",528.10376,83.790344,91.816635
"39590",528.11707,83.41924,91.56398
"39591",528.1304,82.97002,91.2216
"39592",528.1437,82.49882,90.843216
"39593",528.157,82.04471,90.46719
"39594",528.1703,81.62478,90.11116
"39595",528.1836,81.25124,89.7884
"39596",528.1969,80.919205,89.49546
"39597",528.2102,80.621346,89.226326
"39598",528.2235,80.34791,88.972305
"39599",528.2368,80.10132,88.73659
"39600",528.2501,79.886475,88.52491
"39601",528.2634,79.72045,88.35534
"39602",528.27673,79.63012,88.25627
"39603",528.29004,79.61791,88.232506
"39604",528.30334,79.68627,88.288925
"39605",528.31665,79.80347,88.39632
"39606",528.32996,79.937744,88.52445
"39607",528.34326,80.04761,88.63237
"39608",528.35657,80.10864,88.69489
"39609",528.3699,80.10864,88.69829
"39610",528.3832,80.04761,88.64065
"39611",528.3965,79.937744,88.53227
"39612",528.4098,79.78638,88.37896
"39613",528.4231,79.61303,88.19894
"39614",528.4364,79.42504,87.998856
"39615",528.4497,79.22728,87.78313
"39616",528.463,79.027084,87.558784
"39617",528.4763,78.82933,87.33063
"39618",528.4896,78.641335,87.10605
"39619",528.5029,78.467995,86.89025
"39620",528.51624,78.32395,86.69833
"39621",528.52954,78.2092,86.531204
"39622",528.54285,78.12619,86.392235
"39623",528.55615,78.0676,86.275085
"39624",528.56946,78.03342,86.18052
"39625",528.58276,78.011444,86.09709
"39626",528.59607,77.99924,86.02274
"39627",528.6094,77.99924,85.96022
"39628",528.6227,78.00656,85.90502
"39629",528.636,78.011444,85.84761
"39630",528.6493,78.013885,85.78791
"39631",528.6626,78.01877,85.73073
"39632",528.6759,78.05051,85.700554
"39633",528.6892,78.15549,85.74461
"39634",528.7025,78.40452,85.936005
"39635",528.7158,78.873276,86.354904
"39636",528.7291,79.588615,87.035034
"39637",528.74243,80.49683,87.9304
"39638",528.75574,81.497826,88.946915
"39639",528.76904,82.45243,89.948326
"39640",528.78235,83.22392,90.796455
"39641",528.79565,83.72686,91.40014
"39642",528.80896,83.94415,91.733894
"39643",528.82227,83.914856,91.82785
"39644",528.8356,83.69512,91.73045
"39645",528.8489,83.34844,91.499245
"39646",528.8622,82.93584,91.19128
"39647",528.8755,82.50614,90.853325
"39648",528.8888,82.08865,90.51415
"39649",528.9021,81.70779,90.198555
"39650",528.9154,81.36843,89.91257
"39651",528.9287,81.077896,89.664795
"39652",528.942,80.81911,89.43969
"39653",528.9553,80.584724,89.2309
"39654",528.9686,80.365,89.02945
"39655",528.98193,80.15991,88.83577
"39656",528.99524,79.97681,88.65766
"39657",529.00854,79.83276,88.51289
"39658",529.02185,79.744865,88.41977
"39659",529.03516,79.71557,88.3825
"39660",529.04846,79.73754,88.395584
"39661",529.06177,79.798584,88.448425
"39662",529.0751,79.86694,88.51049
"39663",529.0884,79.920654,88.56004
"39664",529.1017,79.937744,88.57465
"39665",529.115,79.90845,88.54341
"39666",529.1283,79.82788,88.459984
"39667",529.1416,79.70336,88.330086
"39668",529.1549,79.54711,88.164566
"39669",529.1682,79.36645,87.96975
"39670",529.1815,79.168686,87.75219
"39671",529.1948,78.96849,87.52602
"39672",529.2081,78.77074,87.29603
"39673",529.22144,78.58274,87.06962
"39674",529.23474,78.41184,86.85443
"39675",529.24805,78.26292,86.655876
"39676",529.26135,78.14328,86.48196
"39677",529.27466,78.05539,86.336044
"39678",529.28796,78.00168,86.221565
"39679",529.3013,77.977264,86.134705
"39680",529.3146,77.979706,86.07394
"39681",529.3279,77.996796,86.02789
"39682",529.3412,78.02121,85.98971
"39683",529.3545,78.0383,85.94496
"39684",529.3678,78.04318,85.88854
"39685",529.3811,78.04074,85.82495
"39686",529.3944,78.03342,85.7564
"39687",529.4077,78.030975,85.692505
"39688",529.421,78.05295,85.65295
"39689",529.4343,78.16037,85.699524
"39690",529.44763,78.43626,85.91792
"39691",529.46094,78.95384,86.38664
"39692",529.47424,79.73022,87.130325
"39693",529.48755,80.709236,88.100914
"39694",529.50085,81.77615,89.189995
"39695",529.51416,82.76982,90.23917
"39696",529.52747,83.55352,91.10942
"39697",529.5408,84.04669,91.71364
"39698",529.5541,84.25422,92.04762
"39699",529.5674,84.21515,92.141495
"39700",529.5807,83.99542,92.05349
"39701",529.594,83.66094,91.843864
"39702",529.6073,83.267876,91.5652
"39703",529.6206,82.862595,91.26204
"39704",529.6339,82.4744,90.9633
"39705",529.6472,82.125275,90.6915
"39706",529.6605,81.82254,90.45518
"39707",529.6738,81.5613,90.25089
"39708",529.68713,81.32693,90.06531
"39709",529.70044,81.10475,89.8846
"39710",529.71375,80.88014,89.69451
"39711",529.72705,80.65064,89.492516
"39712",529.74036,80.42115,89.283356
"39713",529.75366,80.21118,89.08655
"39714",529.76697,80.042725,88.92469
"39715",529.7803,79.920654,88.803955
"39716",529.7936,79.85474,88.73556
"39717",529.8069,79.84253,88.71881
"39718",529.8202,79.85962,88.73098
"39719",529.8335,79.88159,88.748566
"39720",529.8468,79.886475,88.74975
"39721",529.8601,79.8645,88.72423
"39722",529.8734,79.79614,88.651634
"39723",529.8867,79.69604,88.54516
"39724",529.9,79.56664,88.406265
"39725",529.9133,79.415276,88.241356
"39726",529.92664,79.2517,88.05951
"39727",529.93994,79.08568,87.8701
"39728",529.95325,78.91478,87.67063
"39729",529.96655,78.75609,87.47803
"39730",529.97986,78.6096,87.29266
"39731",529.99316,78.4802,87.11982
"39732",530.0065,78.365456,86.95758
"39733",530.0198,78.2678,86.808846
"39734",530.0331,78.18234,86.66926
"39735",530.0464,78.1091,86.539215
"39736",530.0597,78.04318,86.41421
"39737",530.073,77.98459,86.294464
"39738",530.0863,77.93576,86.182655
"39739",530.0996,77.89426,86.076645
"39740",530.1129,77.86496,85.981544
"39741",530.1262,77.85275,85.90262
"39742",530.1395,77.88693,85.8697
"39743",530.15283,78.01877,85.9355
"39744",530.16614,78.31907,86.17389
"39745",530.17944,78.84642,86.64871
"39746",530.19275,79.605705,87.37195
"39747",530.20605,80.54078,88.2947
"39748",530.21936,81.53445,89.30527
"39749",530.23267,82.44755,90.26632
"39750",530.246,83.16289,91.05814
"39751",530.2593,83.612114,91.60621
"39752",530.2726,83.79523,91.9022
"39753",530.2859,83.75128,91.97685
"39754",530.2992,83.53887,91.88167
"39755",530.3125,83.2166,91.66998
"39756",530.3258,82.83818,91.39208
"39757",530.3391,82.44755,91.09014
"39758",530.3524,82.07156,90.79064
"39759",530.3657,81.73708,90.5209
"39760",530.379,81.446556,90.28465
"39761",530.39233,81.19997,90.08327
"39762",530.40564,80.97536,89.89616
"39763",530.41895,80.75807,89.70935
"39764",530.43225,80.53834,89.513306
"39765",530.44556,80.31861,89.3104
"39766",530.45886,80.10132,89.103065
"39767",530.47217,79.91821,88.92313
"39768",530.4855,79.781494,88.78385
"39769",530.4988,79.70092,88.69645
"39770",530.5121,79.674065,88.66025
"39771",530.5254,79.68871,88.66471
"39772",530.5387,79.72045,88.68672
"39773",530.552,79.74731,88.70484
"39774",530.5653,79.74975,88.69939
"39775",530.5786,79.71557,88.65739
"39776",530.5919,79.639885,88.572815
"39777",530.6052,79.52758,88.44926
"39778",530.6185,79.3933,88.30022
"39779",530.63184,79.24681,88.134766
"39780",530.64514,79.09544,87.95986
"39781",530.65845,78.941635,87.77779
"39782",530.67175,78.79271,87.59579
"39783",530.68506,78.64866,87.41401
"39784",530.69836,78.51682,87.239944
"39785",530.7117,78.39475,87.071526
"39786",530.725,78.28001,86.90662
"39787",530.7383,78.1799,86.75276
"39788",530.7516,78.08713,86.60311
"39789",530.7649,78.00168,86.457886
"39790",530.7782,77.92111,86.31487
"39791",530.7915,77.86008,86.18887
"39792",530.8048,77.8259,86.08782
"39793",530.8181,77.84299,86.03697
"39794",530.8314,77.9675,86.09408
"39795",530.8447,78.260475,86.32354
"39796",530.85803,78.77074,86.77944
"39797",530.87134,79.4934,87.46369
"39798",530.88464,80.37476,88.32922
"39799",530.89795,81.30984,89.27601
"39800",530.91125,82.16678,90.17388
"39801",530.92456,82.83574,90.91055
"39802",530.93787,83.25811,91.42154
"39803",530.9512,83.42901,91.69425
"39804",530.9645,83.38506,91.75746
"39805",530.9778,83.17998,91.65816
"39806",530.9911,82.86992,91.44747
"39807",531.0044,82.50858,91.17582
"39808",531.0177,82.13748,90.88311
"39809",531.031,81.78104,90.59346
"39810",531.0443,81.45388,90.32196
"39811",531.0576,81.16579,90.0793
"39812",531.0709,80.91676,89.86671
"39813",531.0842,80.68482,89.663414
"39814",531.09753,80.465096,89.46509
"39815",531.11084,80.25269,89.26722
"39816",531.12415,80.05005,89.07247
"39817",531.13745,79.86694,88.89093
"39818",531.15076,79.72289,88.74272
"39819",531.16406,79.622795,88.633965
"39820",531.17737,79.57641,88.57579
"39821",531.1907,79.57641,88.56255
"39822",531.204,79.605705,88.57861
"39823",531.2173,79.64721,88.607796
"39824",531.2306,79.68383,88.63339
"39825",531.2439,79.691154,88.63084
"39826",531.2572,79.656975,88.587006
"39827",531.2705,79.57885,88.49816
"39828",531.2838,79.466545,88.372696
"39829",531.2971,79.327385,88.216866
"39830",531.3104,79.17357,88.04203
"39831",531.3237,79.012436,87.85507
"39832",531.33704,78.856186,87.66796
"39833",531.35034,78.70237,87.4784
"39834",531.36365,78.555885,87.29137
"39835",531.37695,78.42405,87.1144
"39836",531.39026,78.30686,86.94797
"39837",531.40356,78.20676,86.79495
"39838",531.4169,78.12131,86.653465
"39839",531.4302,78.05051,86.52396
"39840",531.4435,77.99191,86.40444
"39841",531.4568,77.9382,86.28798
"39842",531.4701,77.891815,86.17716
"39843",531.4834,77.85275,86.07222
"39844",531.4967,77.821014,85.97338
"39845",531.51,77.81369,85.897964
"39846",531.5233,77.86008,85.87603
"39847",531.5366,78.01633,85.96541
"39848",531.5499,78.35081,86.2379
"39849",531.56323,78.907455,86.74301
"39850",531.57654,79.68139,87.4828
"39851",531.58984,80.60914,88.4006
"39852",531.60315,81.57595,89.386444
"39853",531.61646,82.44511,90.30485
"39854",531.62976,83.104294,91.04044
"39855",531.64307,83.49737,91.530525
"39856",531.6564,83.62432,91.76677
"39857",531.6697,83.53155,91.787254
"39858",531.683,83.28008,91.64615
"39859",531.6963,82.93584,91.4044
"39860",531.7096,82.55253,91.11284
"39861",531.7229,82.1741,90.81418
"39862",531.7362,81.82742,90.53544
"39863",531.7495,81.5198,90.28492
"39864",531.7628,81.253685,90.0663
"39865",531.7761,81.01442,89.86621
"39866",531.7894,80.78981,89.6733
"39867",531.80273,80.56519,89.473366
"39868",531.81604,80.34058,89.26642
"39869",531.82935,80.128174,89.06465
"39870",531.84265,79.94263,88.88311
"39871",531.85596,79.80347,88.74216
"39872",531.86926,79.72289,88.65544
"39873",531.88257,79.693596,88.617485
"39874",531.8959,79.71313,88.62744
"39875",531.9092,79.76196,88.66731
"39876",531.9225,79.81323,88.71114
"39877",531.9358,79.84497,88.737045
"39878",531.9491,79.84253,88.72976
"39879",531.9624,79.798584,88.68089
"39880",531.9757,79.71313,88.58914
"39881",531.989,79.5935,88.46055
"39882",532.0023,79.45678,88.31113
"39883",532.0156,79.30297,88.14034
"39884",532.02893,79.13695,87.95254
"39885",532.04224,78.96605,87.75467
"39886",532.05554,78.79271,87.54902
"39887",532.06885,78.626686,87.34527
"39888",532.08215,78.4802,87.15587
"39889",532.09546,78.35813,86.986305
"39890",532.10876,78.26536,86.842224
"39891",532.1221,78.20676,86.729416
"39892",532.1354,78.17502,86.64164
"39893",532.1487,78.170135,86.57973
"39894",532.162,78.1799,86.53231
"39895",532.1753,78.20187,86.497406
"39896",532.1886,78.22629,86.46563
"39897",532.2019,78.24826,86.432175
"39898",532.2152,78.26292,86.39209
"39899",532.2285,78.26292,86.33781
"39900",532.2418,78.25315,86.27376
"39901",532.2551,78.23361,86.19963
"39902",532.26843,78.21652,86.12734
"39903",532.28174,78.21408,86.06917
"39904",532.29504,78.27512,86.0744
"39905",532.30835,78.467995,86.21337
"39906",532.32166,78.85863,86.55613
"39907",532.33496,79.47875,87.14059
"39908",532.34827,80.2942,87.93974
"39909",532.3616,81.20973,88.86447
"39910",532.3749,82.08865,89.7812
"39911",532.3882,82.811325,90.56914
"39912",532.4015,83.28741,91.13307
"39913",532.4148,83.49737,91.44576
"39914",532.4281,83.46319,91.520874
"39915",532.4414,83.243454,91.40936
"39916",532.4547,82.899216,91.16648
"39917",532.468,82.496376,90.85424
"39918",532.4813,82.08133,90.517204
"39919",532.4946,81.69314,90.19405
"39920",532.50793,81.3489,89.902725
"39921",532.52124,81.03639,89.63237
"39922",532.53455,80.7483,89.37666
"39923",532.54785,80.479744,89.13149
"39924",532.56116,80.22095,88.88769
"39925",532.57446,79.991455,88.6651
"39926",532.58777,79.801025,88.4744
"39927",532.6011,79.67162,88.33878
"39928",532.6144,79.61547,88.27237
"39929",532.6277,79.63744,88.282326
"39930",532.641,79.71801,88.35156
"39931",532.6543,79.83032,88.45506
"39932",532.6676,79.940186,88.55962
"39933",532.6809,80.02319,88.64076
"39934",532.6942,80.05005,88.66834
"39935",532.7075,80.02075,88.64061
"39936",532.7208,79.93286,88.55337
"39937",532.73413,79.80591,88.42432
"39938",532.74744,79.64477,88.25711
"39939",532.76074,79.46166,88.062904
"39940",532.77405,79.273674,87.85809
"39941",532.78735,79.08812,87.64984
"39942",532.80066,78.91234,87.445564
"39943",532.81396,78.74876,87.24799
"39944",532.8273,78.59983,87.05997
"39945",532.8406,78.470436,86.88682
"39946",532.8539,78.365456,86.73404
"39947",532.8672,78.28733,86.604836
"39948",532.8805,78.23361,86.4976
"39949",532.8938,78.20676,86.41554
"39950",532.9071,78.19943,86.35218
"39951",532.9204,78.20676,86.30324
"39952",532.9337,78.22629,86.26673
"39953",532.947,78.260475,86.24549
"39954",532.9603,78.2971,86.22775
"39955",532.97363,78.331276,86.20872
"39956",532.98694,78.35325,86.17854
"39957",533.00024,78.36057,86.13441
"39958",533.01355,78.35569,86.07829
"39959",533.02686,78.34348,86.0147
"39960",533.04016,78.33616,85.95561
"39961",533.05347,78.37034,85.9378
"39962",533.0668,78.502174,86.01871
"39963",533.0801,78.81224,86.28197
"39964",533.0934,79.33959,86.7722
"39965",533.1067,80.079346,87.49132
"39966",533.12,80.96315,88.3776
"39967",533.1333,81.87869,89.32324
"39968",533.1466,82.68192,90.18518
"39969",533.1599,83.267876,90.85494
"39970",533.1732,83.59258,91.28177
"39971",533.1865,83.66827,91.46972
"39972",533.1998,83.53887,91.454956
"39973",533.21313,83.265434,91.29211
"39974",533.22644,82.90898,91.0377
"39975",533.23975,82.52323,90.74285
"39976",533.25305,82.144806,90.443275
"39977",533.26636,81.80057,90.16606
"39978",533.27966,81.495384,89.917145
"39979",533.29297,81.22682,89.69531
"39980",533.3063,80.98512,89.49195
"39981",533.3196,80.75563,89.29324
"39982",533.3329,80.52857,89.0898
"39983",533.3462,80.306404,88.88415
"39984",533.3595,80.1062,88.69352
"39985",533.3728,79.94263,88.533264
"39986",533.3861,79.82788,88.416725
"39987",533.3994,79.77905,88.36252
"39988",533.4127,79.781494,88.358055
"39989",533.426,79.82788,88.39761
"39990",533.43933,79.886475,88.45083
"39991",533.45264,79.940186,88.50099
"39992",533.46594,79.9646,88.52354
"39993",533.47925,79.94751,88.50534
"39994",533.49255,79.88159,88.43778
"39995",533.50586,79.76929,88.32178
"39996",533.51917,79.62524,88.17052
"39997",533.5325,79.45922,87.99279
"39998",533.5458,79.281,87.79767
"39999",533.5591,79.10277,87.59697
"40000",533.5724,78.93187,87.39803
"40001",533.5857,78.765854,87.19864
"40002",533.599,78.61692,87.01114
"40003",533.6123,78.485085,86.83608
"40004",533.6256,78.37034,86.673996
"40005",533.6389,78.28001,86.53274
"40006",533.6522,78.21408,86.41306
"40007",533.6655,78.167694,86.31087
"40008",533.67883,78.1384,86.22431
"40009",533.69214,78.13107,86.15881
"40010",533.70544,78.14328,86.11262
"40011",533.71875,78.167694,86.07901
"40012",533.73206,78.204315,86.05837
"40013",533.74536,78.25071,86.04865
"40014",533.75867,78.29954,86.042816
"40015",533.772,78.34104,86.03118
"40016",533.7853,78.37766,86.01596
"40017",533.7986,78.39475,85.98235
"40018",533.8119,78.397194,85.93463
"40019",533.8252,78.37766,85.86501
"40020",533.8385,78.34104,85.777695
"40021",533.8518,78.28977,85.67458
"40022",533.8651,78.23361,85.56498
"40023",533.8784,78.19455,85.47072
"40024",533.8917,78.22629,85.44604
"40025",533.905,78.416725,85.58105
"40026",533.91833,78.84154,85.95638
"40027",533.93164,79.537346,86.61599
"40028",533.94495,80.465096,87.52928
"40029",533.95825,81.51736,88.59608
"40030",533.97156,82.53788,89.66402
"40031",533.98486,83.38506,90.59051
"40032",533.99817,83.95392,91.265144
"40033",534.0115,84.22247,91.65726
"40034",534.0248,84.2298,91.79653
"40035",534.0381,84.03937,91.73828
"40036",534.0514,83.717094,91.54224
"40037",534.0647,83.32891,91.27021
"40038",534.078,82.92851,90.97384
"40039",534.0913,82.545204,90.682045
"40040",534.1046,82.2034,90.41978
"40041",534.1179,81.90311,90.18834
"40042",534.1312,81.64675,89.991455
"40043",534.14453,81.42458,89.82075
"40044",534.15784,81.21706,89.65774
"40045",534.17114,81.004654,89.48337
"40046",534.18445,80.78737,89.29748
"40047",534.19775,80.567635,89.10235
"40048",534.21106,80.360115,88.91257
"40049",534.22437,80.181885,88.74559
"40050",534.2377,80.05737,88.62676
"40051",534.251,79.98901,88.560196
"40052",534.2643,79.974365,88.545204
"40053",534.2776,79.98657,88.55661
"40054",534.2909,80.00366,88.57328
"40055",534.3042,80.00122,88.57095
"40056",534.3175,79.96704,88.53681
"40057",534.3308,79.8938,88.46254
"40058",534.3441,79.79126,88.35668
"40059",534.3574,79.66186,88.22076
"40060",534.3707,79.517815,88.06615
"40061",534.38403,79.35912,87.89239
"40062",534.39734,79.19554,87.70878
"40063",534.41064,79.03197,87.520065
"40064",534.42395,78.87572,87.333565
"40065",534.43726,78.72678,87.1495
"40066",534.45056,78.59251,86.97543
"40067",534.46387,78.47532,86.81426
"40068",534.4772,78.37522,86.66652
"40069",534.4905,78.28733,86.527855
"40070",534.5038,78.21652,86.40353
"40071",534.5171,78.167694,86.298965
"40072",534.5304,78.133514,86.20753
"40073",534.5437,78.118866,86.13455
"40074",534.557,78.118866,86.07577
"40075",534.5703,78.13107,86.02919
"40076",534.5836,78.14816,85.98788
"40077",534.5969,78.17258,85.95442
"40078",534.6102,78.19699,85.92173
"40079",534.62354,78.22385,85.89224
"40080",534.63684,78.24826,85.86115
"40081",534.65015,78.2678,85.82595
"40082",534.66345,78.28001,85.78403
"40083",534.67676,78.28245,85.73272
"40084",534.69006,78.27512,85.67172
"40085",534.70337,78.25803,85.60073
"40086",534.7167,78.22873,85.51699
"40087",534.73,78.187225,85.420135
"40088",534.7433,78.1384,85.31466
"40089",534.7566,78.07492,85.19301
"40090",534.7699,78.009,85.06693
"40091",534.7832,77.95529,84.951004
"40092",534.7965,77.95041,84.882225
"40093",534.8098,78.0798,84.94757
"40094",534.8231,78.44846,85.256226
"40095",534.8364,79.11742,85.87669
"40096",534.84973,80.08423,86.815926
"40097",534.86304,81.24147,87.9758
"40098",534.87634,82.43046,89.20358
"40099",534.88965,83.47051,90.31959
"40100",534.90295,84.224915,91.18244
"40101",534.91626,84.63996,91.729515
"40102",534.92957,84.74494,91.97949
"40103",534.9429,84.59846,91.981285
"40104",534.9562,84.281075,91.8076
"40105",534.9695,83.861145,91.521454
"40106",534.9828,83.39971,91.18068
"40107",534.9961,82.93584,90.823044
"40108",535.0094,82.511024,90.489975
"40109",535.0227,82.13992,90.19734
"40110",535.036,81.82498,89.94927
"40111",535.0493,81.56374,89.74506
"40112",535.0626,81.33669,89.56688
"40113",535.0759,81.126724,89.39868
"40114",535.08923,80.91676,89.22393
"40115",535.10254,80.71168,89.04749
"40116",535.11584,80.51148,88.86954
"40117",535.12915,80.3357,88.70974
"40118",535.14246,80.201416,88.585945
"40119",535.15576,80.11597,88.50679
"40120",535.16907,80.079346,88.47379
"40121",535.1824,80.076904,88.47383
"40122",535.1957,80.09155,88.49088
"40123",535.209,80.09888,88.50107
"40124",535.2223,80.079346,88.48463
"40125",535.2356,80.01831,88.42607
"40126",535.2489,79.91821,88.326546
"40127",535.2622,79.783936,88.18971
"40128",535.2755,79.62768,88.0267
"40129",535.2888,79.45922,87.84661
"40130",535.3021,79.281,87.65149
"40131",535.3154,79.10277,87.45079
"40132",535.32874,78.91722,87.237206
"40133",535.34204,78.73655,87.0227
"40134",535.35535,78.56321,86.809875
"40135",535.36865,78.4094,86.61117
"40136",535.38196,78.277565,86.42963
"40137",535.39526,78.17258,86.27081
"40138",535.40857,78.08713,86.12826
"40139",535.4219,78.02365,86.005005
"40140",535.4352,77.97238,85.891975
"40141",535.4485,77.9382,85.79443
"40142",535.4618,77.92111,85.71291
"40143",535.4751,77.92355,85.65039
"40144",535.4884,77.94064,85.60259
"40145",535.5017,77.9675,85.565094
"40146",535.515,78.00168,85.53576
"40147",535.5283,78.0383,85.50993
"40148",535.5416,78.07004,85.48037
"40149",535.55493,78.099335,85.449356
"40150",535.56824,78.12863,85.41926
"40151",535.58154,78.153046,85.38519
"40152",535.59485,78.167694,85.342125
"40153",535.60815,78.1799,85.29707
"40154",535.62146,78.17746,85.237755
"40155",535.63477,78.16037,85.16371
"40156",535.6481,78.12619,85.072044
"40157",535.6614,78.07492,84.96222
"40158",535.6747,78.011444,84.838585
"40159",535.688,77.9382,84.7032
"40160",535.7013,77.86984,84.57041
"40161",535.7146,77.84543,84.47943
"40162",535.7279,77.93088,84.49755
"40163",535.7412,78.24338,84.74539
"40164",535.7545,78.870834,85.317955
"40165",535.7678,79.84009,86.25192
"40166",535.7811,81.06081,87.46764
"40167",535.79443,82.36942,88.80941
"40168",535.80774,83.563286,90.07732
"40169",535.82104,84.46418,91.08956
"40170",535.83435,84.98665,91.75153
"40171",535.84766,85.14046,92.06117
"40172",535.86096,85.00374,92.08509
"40173",535.87427,84.661934,91.89965
"40174",535.8876,84.19562,91.57902
"40175",535.9009,83.66827,91.18278
"40176",535.9142,83.13115,90.76029
"40177",535.9275,82.61845,90.345436
"40178",535.9408,82.14969,89.9585
"40179",535.9541,81.74441,89.6204
"40180",535.9674,81.39773,89.32823
"40181",535.9807,81.094986,89.06917
"40182",535.994,80.82399,88.83239
"40183",536.0073,80.57496,88.60911
"40184",536.0206,80.35279,88.40491
"40185",536.03394,80.16724,88.23038
"40186",536.04724,80.045166,88.11353
"40187",536.06055,79.99878,88.06856
"40188",536.07385,80.028076,88.09782
"40189",536.08716,80.113525,88.18414
"40190",536.10046,80.23071,88.30488
"40191",536.1138,80.343025,88.4244
"40192",536.1271,80.41627,88.50836
"40193",536.1404,80.430916,88.53602
"40194",536.1537,80.37965,88.498215
"40195",536.167,80.26734,88.39777
"40196",536.1803,80.10376,88.242546
"40197",536.1936,79.90845,88.050476
"40198",536.2069,79.691154,87.83032
"40199",536.2202,79.4641,87.59362
"40200",536.2335,79.22972,87.34249
"40201",536.2468,79.00023,87.08893
"40202",536.26013,78.77806,86.83552
"40203",536.27344,78.57053,86.589806
"40204",536.28674,78.38499,86.35959
"40205",536.30005,78.22385,86.14798
"40206",536.31335,78.08957,85.9582
"40207",536.32666,77.98215,85.79108
"40208",536.33997,77.90402,85.649895
"40209",536.3533,77.857635,85.53801
"40210",536.3666,77.838104,85.45153
"40211",536.3799,77.85275,85.39862
"40212",536.3932,77.89426,85.373024
"40213",536.4065,77.95285,85.365814
"40214",536.4198,78.02121,85.3702
"40215",536.4331,78.09689,85.38405
"40216",536.4464,78.170135,85.39782
"40217",536.4597,78.23361,85.40411
"40218",536.473,78.277565,85.39287
"40219",536.4863,78.29954,85.361015
"40220",536.49963,78.294655,85.30299
"40221",536.51294,78.26536,85.220406
"40222",536.52625,78.21896,85.119804
"40223",536.53955,78.170135,85.01532
"40224",536.55286,78.14328,84.93128
"40225",536.56616,78.19699,84.92697
"40226",536.57947,78.42405,85.09769
"40227",536.5928,78.922104,85.54649
"40228",536.6061,79.73266,86.323364
"40229",536.6194,80.80202,87.38437
"40230",536.6327,81.991,88.59841
"40231",536.646,83.123825,89.79346
"40232",536.6593,84.017395,90.784645
"40233",536.6726,84.56428,91.45707
"40234",536.6859,84.7596,91.79502
"40235",536.6992,84.65949,91.84365
"40236",536.7125,84.33723,91.66699
"40237",536.7258,83.88068,91.34598
"40238",536.73914,83.353325,90.939896
"40239",536.75244,82.80644,90.4978
"40240",536.76575,82.27177,90.05083
"40241",536.77905,81.77127,89.62132
"40242",536.79236,81.31716,89.222565
"40243",536.80566,80.902115,88.84868
"40244",536.819,80.52613,88.500885
"40245",536.8323,80.18921,88.180405
"40246",536.8456,79.90112,87.89823
"40247",536.8589,79.674065,87.66808
"40248",536.8722,79.52514,87.50897
"40249",536.8855,79.47631,87.445305
"40250",536.8988,79.5227,87.47533
"40251",536.9121,79.656975,87.59469
"40252",536.9254,79.84009,87.76708
"40253",536.9387,80.03296,87.954956
"40254",536.952,80.19165,88.11468
"40255",536.96533,80.289314,88.21833
"40256",536.97864,80.30396,88.24202
"40257",536.99194,80.24048,88.188034
"40258",537.00525,80.10864,88.06371
"40259",537.01855,79.92554,87.884
"40260",537.03186,79.708244,87.66438
"40261",537.04517,79.47387,87.42089
"40262",537.0585,79.23216,87.16274
"40263",537.0718,78.99046,86.89705
"40264",537.0851,78.75365,86.628685
"40265",537.0984,78.52903,86.36512
"40266",537.1117,78.32639,86.116516
"40267",537.125,78.14816,85.88599
"40268",537.1383,78.00168,85.68163
"40269",537.1516,77.88449,85.502
"40270",537.1649,77.803925,85.35532
"40271",537.1782,77.75021,85.23299
"40272",537.1915,77.72091,85.13338
"40273",537.20483,77.72579,85.06704
"40274",537.21814,77.7551,85.025276
"40275",537.23145,77.80148,85.00151
"40276",537.24475,77.86008,84.9914
"40277",537.25806,77.91867,84.98312
"40278",537.27136,77.96994,84.96935
"40279",537.28467,78.009,84.94498
"40280",537.298,78.03586,84.909615
"40281",537.3113,78.07004,84.882416
"40282",537.3246,78.153046,84.90511
"40283",537.3379,78.37034,85.06469
"40284",537.3512,78.82201,85.46543
"40285",537.3645,79.58129,86.187904
"40286",537.3778,80.618904,87.21243
"40287",537.3911,81.82742,88.44029
"40288",537.4044,83.04082,89.71079
"40289",537.4177,84.07599,90.84099
"40290",537.431,84.8011,91.693474
"40291",537.44434,85.169754,92.21216
"40292",537.45764,85.22835,92.432304
"40293",537.47095,85.0428,92.41014
"40294",537.48425,84.68391,92.20883
"40295",537.49756,84.224915,91.89621
"40296",537.51086,83.719536,91.52286
"40297",537.5242,83.211716,91.13127
"40298",537.5375,82.73075,90.75067
"40299",537.5508,82.29862,90.40388
"40300",537.5641,81.9202,90.09728
"40301",537.5774,81.602806,89.8399
"40302",537.5907,81.324486,89.611664
"40303",537.604,81.07057,89.39914
"40304",537.6173,80.82643,89.18845
"40305",537.6306,80.59205,88.9799
"40306",537.6439,80.377205,88.783554
"40307",537.6572,80.20386,88.621994
"40308",537.67053,80.08179,88.506294
"40309",537.68384,80.02075,88.447815
"40310",537.69714,80.01343,88.44114
"40311",537.71045,80.045166,88.4733
"40312",537.72375,80.10132,88.53086
"40313",537.73706,80.15503,88.58774
"40314",537.75037,80.15015,88.5877
"40315",537.7637,80.008545,88.45079
"40316",537.777,79.69604,88.13855
"40317",537.7903,79.237045,87.67006
"40318",537.8036,78.70725,87.116425
"40319",537.8169,78.18234,86.55112
"40320",537.8302,77.752655,86.06463
"40321",537.8435,77.48409,85.72584
"40322",537.8568,77.37179,85.53491
"40323",537.8701,77.36935,85.45034
"40324",537.8834,77.44015,85.438934
"40325",537.8967,77.56954,85.488335
"40326",537.91003,77.71603,85.55887
"40327",537.92334,77.84543,85.6169
"40328",537.93665,77.94797,85.65211
"40329",537.94995,78.02365,85.663666
"40330",537.96326,78.0798,85.65806
"40331",537.97656,78.12131,85.63956
"40332",537.98987,78.170135,85.62968
"40333",538.0032,78.23117,85.63353
"40334",538.0165,78.2971,85.64418
"40335",538.0298,78.365456,85.659325
"40336",538.0431,78.42405,85.66684
"40337",538.0564,78.46311,85.656654
"40338",538.0697,78.47776,85.623276
"40339",538.083,78.47288,85.57082
"40340",538.0963,78.45579,85.50601
"40341",538.1096,78.44358,85.44555
"40342",538.1229,78.48264,85.435974
"40343",538.1362,78.658424,85.56434
"40344",538.14954,79.07347,85.93746
"40345",538.16284,79.783936,86.61897
"40346",538.17615,80.77028,87.598564
"40347",538.18945,81.92752,88.77988
"40348",538.20276,83.09453,90.00712
"40349",538.21606,84.09308,91.10237
"40350",538.2294,84.791336,91.928535
"40351",538.2427,85.152664,92.43959
"40352",538.256,85.20149,92.64944
"40353",538.2693,85.00618,92.61667
"40354",538.2826,84.6424,92.40933
"40355",538.2959,84.18585,92.097855
"40356",538.3092,83.6878,91.730606
"40357",538.3225,83.19951,91.35756
"40358",538.3358,82.74052,90.99855
"40359",538.3491,82.33036,90.674034
"40360",538.3624,81.971466,90.38796
"40361",538.37573,81.66628,90.14439
"40362",538.38904,81.39773,89.9279
"40363",538.40234,81.15114,89.72499
"40364",538.41565,80.91676,89.52659
"40365",538.42896,80.689705,89.32818
"40366",538.44226,80.47486,89.13489
"40367",538.45557,80.291756,88.96662
"40368",538.4689,80.15503,88.83901
"40369",538.4822,80.06714,88.75597
"40370",538.4955,80.03296,88.723885
"40371",538.5088,80.03296,88.724915
"40372",538.5221,80.05005,88.743034
"40373",538.5354,80.05737,88.75192
"40374",538.5487,80.042725,88.73907
"40375",538.562,79.98657,88.68425
"40376",538.5753,79.89624,88.5935
"40377",538.5886,79.77173,88.465744
"40378",538.6019,79.62035,88.307236
"40379",538.61523,79.449455,88.12447
"40380",538.62854,79.26147,87.91928
"40381",538.64185,79.06859,87.70332
"40382",538.65515,78.873276,87.478905
"40383",538.66846,78.68772,87.25814
"40384",538.68176,78.51438,87.04379
"40385",538.69507,78.35813,86.84112
"40386",538.7084,78.21652,86.6482
"40387",538.7217,78.09201,86.46796
"40388",538.735,77.98215,86.29847
"40389",538.7483,77.8967,86.14996
"40390",538.7616,77.83566,86.0232
"40391",538.7749,77.806366,85.92627
"40392",538.7882,77.80148,85.85284
"40393",538.8015,77.81613,85.79878
"40394",538.8148,77.84543,85.759834
"40395",538.8281,77.88449,85.73157
"40396",538.84143,77.925995,85.70696
"40397",538.85474,77.96994,85.6861
"40398",538.86804,78.00168,85.654396
"40399",538.88135,78.01633,85.6066
"40400",538.89465,78.00656,85.53484
"40401",538.90796,77.97482,85.44081
"40402",538.92126,77.925995,85.3287
"40403",538.9346,77.88693,85.22482
"40404",538.9479,77.90402,85.17588
"40405",538.9612,78.07004,85.2764
"40406",538.9745,78.4802,85.62625
"40407",538.9878,79.19798,86.29654
"40408",539.0011,80.19409,87.267586
"40409",539.0144,81.36355,88.44311
"40410",539.0277,82.53544,89.65761
"40411",539.041,83.54131,90.742714
"40412",539.0543,84.25422,91.566284
"40413",539.0676,84.63752,92.08253
"40414",539.08093,84.72297,92.3129
"40415",539.09424,84.56672,92.30424
"40416",539.10754,84.244446,92.12467
"40417",539.12085,83.81232,91.82518
"40418",539.13416,83.336235,91.46823
"40419",539.14746,82.85039,91.08664
"40420",539.16077,82.39384,90.71916
"40421",539.1741,81.991,90.39113
"40422",539.1874,81.64431,90.10666
"40423",539.2007,81.3489,89.86263
"40424",539.214,81.092545,89.64843
"40425",539.2273,80.85817,89.4482
"40426",539.2406,80.635994,89.25284
"40427",539.2539,80.42603,89.06275
"40428",539.2672,80.23804,88.88807
"40429",539.2805,80.08911,88.74658
"40430",539.2938,79.991455,88.65171
"40431",539.3071,79.94751,88.6075
"40432",539.32043,79.954834,88.61318
"40433",539.33374,79.9939,88.65083
"40434",539.34705,80.04028,88.69703
"40435",539.36035,80.06958,88.727585
"40436",539.37366,80.06958,88.72976
"40437",539.38696,80.025635,88.68799
"40438",539.40027,79.940186,88.60334
"40439",539.4136,79.818115,88.4794
"40440",539.4269,79.6643,88.3199
"40441",539.4402,79.483635,88.128746
"40442",539.4535,79.28588,87.914856
"40443",539.4668,79.080795,87.687454
"40444",539.4801,78.87572,87.45365
"40445",539.4934,78.675514,87.218315
"40446",539.5067,78.487526,86.98894
"40447",539.52,78.32395,86.7781
"40448",539.5333,78.1799,86.58167
"40449",539.54663,78.065155,86.41005
