"","Time..s.","PPG.trace","Preprocessed.PPG"
"46902",643.0648,79.9646,112.48032
"46903",643.0781,79.708244,112.22286
"46904",643.09143,79.500725,112.006226
"46905",643.10474,79.36889,111.85879
"46906",643.11804,79.344475,111.81465
"46907",643.13135,79.43481,111.8845
"46908",643.14465,79.622795,112.054825
"46909",643.15796,79.86694,112.287186
"46910",643.17126,80.1062,112.522285
"46911",643.1846,80.28687,112.706276
"46912",643.1979,80.37232,112.80069
"46913",643.2112,80.34791,112.78791
"46914",643.2245,80.21118,112.662056
"46915",643.2378,79.97681,112.43428
"46916",643.2511,79.676506,112.133255
"46917",643.2644,79.33227,111.77891
"46918",643.2777,78.97337,111.39915
"46919",643.291,78.624245,111.01794
"46920",643.3043,78.294655,110.645355
"46921",643.3176,77.99924,110.296646
"46922",643.33093,77.74044,109.97533
"46923",643.34424,77.51339,109.677666
"46924",643.35754,77.31808,109.40465
"46925",643.37085,77.16182,109.16458
"46926",643.38416,77.03731,108.95138
"46927",643.39746,76.94942,108.770905
"46928",643.41077,76.89815,108.624306
"46929",643.4241,76.87862,108.50784
"46930",643.4374,76.88594,108.417625
"46931",643.4507,76.91768,108.35205
"46932",643.464,76.97139,108.30944
"46933",643.4773,77.03731,108.280716
"46934",643.4906,77.11299,108.26382
"46935",643.5039,77.19356,108.254166
"46936",643.5172,77.27169,108.2446
"46937",643.5305,77.33761,108.22526
"46938",643.5438,77.39132,108.19577
"46939",643.5571,77.420616,108.14355
"46940",643.57043,77.43038,108.07271
"46941",643.58374,77.418175,107.9802
"46942",643.59705,77.383995,107.86534
"46943",643.61035,77.330284,107.72988
"46944",643.62366,77.26681,107.58298
"46945",643.63696,77.20088,107.43164
"46946",643.65027,77.18379,107.32708
"46947",643.6636,77.33517,107.39045
"46948",643.6769,77.81369,107.7857
"46949",643.6902,78.74387,108.64756
"46950",643.7035,80.128174,109.99261
"46951",643.7168,81.8201,111.68854
"46952",643.7301,83.56817,113.493484
"46953",643.7434,85.06233,115.09915
"46954",643.7567,86.065765,116.26078
"46955",643.77,86.49058,116.875145
"46956",643.7833,86.3856,116.97299
"46957",643.79663,85.8851,116.67204
"46958",643.80994,85.13313,116.10398
"46959",643.82324,84.27375,115.40501
"46960",643.83655,83.407036,114.671844
"46961",643.84985,82.61112,113.9824
"46962",643.86316,81.92264,113.37551
"46963",643.87646,81.35378,112.86674
"46964",643.8898,80.88991,112.44517
"46965",643.9031,80.50172,112.084785
"46966",643.9164,80.16724,111.76598
"46967",643.9297,79.89624,111.50021
"46968",643.943,79.710686,111.31142
"46969",643.9563,79.65209,111.24378
"46970",643.9696,79.744865,111.32568
"46971",643.9829,79.991455,111.5643
"46972",643.9962,80.34547,111.918045
"46973",644.0095,80.73365,112.317024
"46974",644.0228,81.077896,112.6842
"46975",644.03613,81.30984,112.94982
"46976",644.04944,81.39773,113.07864
"46977",644.06274,81.33425,113.058846
"46978",644.07605,81.13649,112.90278
"46979",644.08936,80.84596,112.647766
"46980",644.10266,80.49439,112.32263
"46981",644.11597,80.11597,111.959656
"46982",644.1293,79.7351,111.58241
"46983",644.1426,79.37133,111.210365
"46984",644.1559,79.03441,110.8538
"46985",644.1692,78.73411,110.52332
"46986",644.1825,78.47532,110.224976
"46987",644.1958,78.260475,109.96249
"46988",644.2091,78.08469,109.73234
"46989",644.2224,77.95041,109.53821
"46990",644.2357,77.85275,109.3765
"46991",644.249,77.79172,109.24837
"46992",644.2623,77.769745,109.15739
"46993",644.27563,77.77707,109.09502
"46994",644.28894,77.81369,109.06217
"46995",644.30225,77.8674,109.04756
"46996",644.31555,77.93332,109.04684
"46997",644.32886,78.00656,109.0555
"46998",644.34216,78.08713,109.07377
"46999",644.35547,78.16281,109.089676
"47000",644.3688,78.22873,109.09818
"47001",644.3821,78.27024,109.08434
"47002",644.3954,78.28733,109.04738
"47003",644.4087,78.27024,108.97677
"47004",644.422,78.22385,108.87632
"47005",644.4353,78.153046,108.750015
"47006",644.4486,78.07004,108.60929
"47007",644.4619,77.996796,108.47574
"47008",644.4752,78.00412,108.42046
"47009",644.4885,78.22873,108.5827
"47010",644.50183,78.819565,109.11819
"47011",644.51514,79.85962,110.12135
"47012",644.52844,81.31716,111.57451
"47013",644.54175,83.018845,113.31735
"47014",644.55505,84.69611,115.08896
"47015",644.56836,86.06821,116.6078
"47016",644.58167,86.942245,117.67147
"47017",644.595,87.26208,118.208244
"47018",644.6083,87.08629,118.2594
"47019",644.6216,86.54185,117.9364
"47020",644.6349,85.770355,117.36934
"47021",644.6482,84.90608,116.68539
"47022",644.6615,84.0589,115.991516
"47023",644.6748,83.3045,115.36395
"47024",644.6881,82.684364,114.847084
"47025",644.7014,82.20096,114.44756
"47026",644.7147,81.82498,114.140366
"47027",644.728,81.512474,113.88489
"47028",644.74133,81.24635,113.66603
"47029",644.75464,81.01442,113.473045
"47030",644.76794,80.833755,113.32408
"47031",644.78125,80.740974,113.257355
"47032",644.79456,80.76784,113.30737
"47033",644.80786,80.90456,113.46809
"47034",644.82117,81.1194,113.7112
"47035",644.8345,81.36355,113.990326
"47036",644.8478,81.57351,114.2429
"47037",644.8611,81.6907,114.409256
"47038",644.8744,81.69314,114.46453
"47039",644.8877,81.57351,114.39781
"47040",644.901,81.34402,114.21749
"47041",644.9143,81.02907,113.94454
"47042",644.9276,80.65797,113.6056
"47043",644.9409,80.26002,113.22821
"47044",644.9542,79.86694,112.84326
"47045",644.9675,79.49584,112.468
"47046",644.98083,79.149155,112.10556
"47047",644.99414,78.84154,111.771355
"47048",645.00745,78.5803,111.473915
"47049",645.02075,78.36057,111.20982
"47050",645.03406,78.17746,110.97548
"47051",645.04736,78.03342,110.77448
"47052",645.06067,77.92355,110.603165
"47053",645.074,77.84787,110.46259
"47054",645.0873,77.79904,110.34651
"47055",645.1006,77.78439,110.263084
"47056",645.1139,77.789276,110.19873
"47057",645.1272,77.81369,110.15406
"47058",645.1405,77.84543,110.11748
"47059",645.1538,77.88205,110.08677
"47060",645.1671,77.91623,110.05476
"47061",645.1804,77.94797,110.021385
"47062",645.1937,77.9675,109.97679
"47063",645.20703,77.97482,109.9206
"47064",645.22034,77.962616,109.84511
"47065",645.23364,77.92844,109.74726
"47066",645.24695,77.86496,109.61905
"47067",645.26025,77.78195,109.46932
"47068",645.27356,77.679405,109.29746
"47069",645.28687,77.576866,109.122406
"47070",645.3002,77.506065,108.97588
"47071",645.3135,77.57198,108.96387
"47072",645.3268,77.92111,109.23712
"47073",645.3401,78.6804,109.93144
"47074",645.3534,79.88159,111.0914
"47075",645.3667,81.427025,112.63313
"47076",645.38,83.09453,114.34523
"47077",645.3933,84.6009,115.9483
"47078",645.4066,85.694664,117.185844
"47079",645.4199,86.24399,117.913124
"47080",645.4332,86.261086,118.12534
"47081",645.44653,85.855804,117.91572
"47082",645.45984,85.169754,117.41266
"47083",645.47314,84.34699,116.75145
"47084",645.48645,83.509575,116.04987
"47085",645.49976,82.74784,115.39781
"47086",645.51306,82.11307,114.84891
"47087",645.52637,81.62234,114.42421
"47088",645.5397,81.25613,114.108696
"47089",645.553,80.97536,113.86718
"47090",645.5663,80.73609,113.658394
"47091",645.5796,80.50904,113.454346
"47092",645.5929,80.29908,113.26029
"47093",645.6062,80.128174,113.09873
"47094",645.6195,80.0354,113.009964
"47095",645.6328,80.042725,113.018394
"47096",645.6461,80.13794,113.114944
"47097",645.6594,80.28687,113.26819
"47098",645.6727,80.4358,113.42608
"47099",645.68604,80.53834,113.54224
"47100",645.69934,80.56275,113.58347
"47101",645.71265,80.49683,113.53514
"47102",645.72595,80.343025,113.39686
"47103",645.73926,80.113525,113.17808
"47104",645.75256,79.83032,112.89842
"47105",645.76587,79.51049,112.57329
"47106",645.7792,79.17601,112.22351
"47107",645.7925,78.84642,111.86817
"47108",645.8058,78.53147,111.51717
"47109",645.8191,78.24094,111.18075
"47110",645.8324,77.98215,110.86699
"47111",645.8457,77.76486,110.58665
"47112",645.859,77.58907,110.34101
"47113",645.8723,77.452354,110.12895
"47114",645.8856,77.35226,109.94924
"47115",645.8989,77.281456,109.7957
"47116",645.91223,77.23262,109.66191
"47117",645.92554,77.208206,109.55102
"47118",645.93884,77.205765,109.461334
"47119",645.95215,77.222855,109.391106
"47120",645.96545,77.25704,109.33851
"47121",645.97876,77.30343,109.29918
"47122",645.99207,77.35226,109.26374
"47123",646.0054,77.39864,109.22739
"47124",646.0187,77.44259,109.19004
"47125",646.032,77.47677,109.1443
"47126",646.0453,77.4963,109.084984
"47127",646.0586,77.50118,109.01163
"47128",646.0719,77.488976,108.92133
"47129",646.0852,77.45724,108.81113
"47130",646.0985,77.41085,108.68528
"47131",646.1118,77.35226,108.54578
"47132",646.1251,77.281456,108.392235
"47133",646.1384,77.19844,108.224266
"47134",646.15173,77.11543,108.05371
"47135",646.16504,77.05928,107.90742
"47136",646.17834,77.09102,107.84726
"47137",646.19165,77.33761,108.002945
"47138",646.20496,77.943085,108.52522
"47139",646.21826,78.975815,109.493675
"47140",646.23157,80.37232,110.85818
"47141",646.2449,81.951935,112.449425
"47142",646.2582,83.44854,114.00703
"47143",646.2715,84.58869,115.254944
"47144",646.2848,85.20149,116.01114
"47145",646.2981,85.27718,116.249374
"47146",646.3114,84.91585,116.05295
"47147",646.3247,84.25666,115.54738
"47148",646.338,83.45098,114.87472
"47149",646.3513,82.61845,114.150024
"47150",646.3646,81.85184,113.46524
"47151",646.3779,81.19997,112.87124
"47152",646.39124,80.68726,112.396034
"47153",646.40454,80.306404,112.03665
"47154",646.41785,80.02319,111.763016
"47155",646.43115,79.79614,111.53669
"47156",646.44446,79.5935,111.327675
"47157",646.45776,79.42748,111.14896
"47158",646.47107,79.32006,111.02364
"47159",646.4844,79.310295,110.99263
"47160",646.4977,79.415276,111.07606
"47161",646.511,79.635,111.27751
"47162",646.5243,79.91821,111.54932
"47163",646.5376,80.198975,111.82752
"47164",646.5509,80.41627,112.05103
"47165",646.5642,80.5359,112.18367
"47166",646.5775,80.53834,112.20286
"47167",646.5908,80.430916,112.11226
"47168",646.6041,80.23071,111.92552
"47169",646.61743,79.96216,111.66418
"47170",646.63074,79.64965,111.35049
"47171",646.64404,79.32494,111.01483
"47172",646.65735,79.00511,110.673904
"47173",646.67065,78.712135,110.34984
"47174",646.68396,78.45579,110.053246
"47175",646.69727,78.24582,109.79502
"47176",646.7106,78.07736,109.57175
"47177",646.7239,77.943085,109.37739
"47178",646.7372,77.85031,109.22034
"47179",646.7505,77.786835,109.08968
"47180",646.7638,77.752655,108.98634
"47181",646.7771,77.747765,108.911224
"47182",646.7904,77.7673,108.86038
"47183",646.8037,77.806366,108.82967
"47184",646.817,77.857635,108.81239
"47185",646.8303,77.91623,108.80404
"47186",646.8436,77.98215,108.80484
"47187",646.85693,78.05051,108.81014
"47188",646.87024,78.116425,108.81514
"47189",646.88354,78.17746,108.817314
"47190",646.89685,78.22629,108.80919
"47191",646.91016,78.25559,108.783066
"47192",646.92346,78.25803,108.730995
"47193",646.93677,78.23605,108.65458
"47194",646.9501,78.18967,108.55307
"47195",646.9634,78.12131,108.42814
"47196",646.9767,78.04074,108.288864
"47197",646.99,77.95285,108.13975
"47198",647.0033,77.86984,107.99277
"47199",647.0166,77.82834,107.8847
"47200",647.0299,77.90402,107.89252
"47201",647.0432,78.23117,108.15417
"47202",647.0565,78.922104,108.789825
"47203",647.0698,80.00366,109.8377
"47204",647.0831,81.38308,111.21723
"47205",647.09644,82.85039,112.72776
"47206",647.10974,84.13458,114.10103
"47207",647.12305,85.013504,115.10915
"47208",647.13635,85.367516,115.619835
"47209",647.14966,85.23079,115.65084
"47210",647.16296,84.72053,115.30404
"47211",647.1763,83.99054,114.721565
"47212",647.1896,83.177536,114.033264
"47213",647.2029,82.38163,113.336655
"47214",647.2162,81.67361,112.70306
"47215",647.2295,81.094986,112.176735
"47216",647.2428,80.65308,111.76905
"47217",647.2561,80.323494,111.45987
"47218",647.2694,80.076904,111.22339
"47219",647.2827,79.869385,111.01827
"47220",647.296,79.691154,110.83596
"47221",647.3093,79.54955,110.68471
"47222",647.32263,79.483635,110.60471
"47223",647.33594,79.520256,110.6252
"47224",647.34924,79.676506,110.76646
"47225",647.36255,79.923096,111.00294
"47226",647.37585,80.2063,111.28374
"47227",647.38916,80.465096,111.54898
"47228",647.40247,80.64576,111.74418
"47229",647.4158,80.71656,111.83516
"47230",647.4291,80.66773,111.80872
"47231",647.4424,80.52125,111.683105
"47232",647.4557,80.291756,111.4699
"47233",647.469,80.008545,111.19581
"47234",647.4823,79.69848,110.88601
"47235",647.4956,79.38598,110.56409
"47236",647.5089,79.09056,110.24948
"47237",647.5222,78.82689,109.95739
"47238",647.5355,78.59983,109.69367
"47239",647.5488,78.41184,109.46193
"47240",647.56213,78.25803,109.25849
"47241",647.57544,78.13107,109.077095
"47242",647.58875,78.030975,108.918594
"47243",647.60205,77.95773,108.78382
"47244",647.61536,77.91623,108.6785
"47245",647.62866,77.91135,108.6085
"47246",647.64197,77.94064,108.572525
"47247",647.6553,77.994354,108.56188
"47248",647.6686,78.06271,108.567566
"47249",647.6819,78.133514,108.57783
"47250",647.6952,78.19943,108.58542
"47251",647.7085,78.260475,108.590195
"47252",647.7218,78.314186,108.58955
"47253",647.7351,78.36057,108.58325
"47254",647.7484,78.40208,108.573524
"47255",647.7617,78.43137,108.55289
"47256",647.775,78.44358,108.516075
"47257",647.7883,78.44114,108.465
"47258",647.80164,78.42405,108.39919
"47259",647.81494,78.38743,108.313324
"47260",647.82825,78.33616,108.21166
"47261",647.84155,78.27024,108.09375
"47262",647.85486,78.19699,107.966446
"47263",647.86816,78.12863,107.84174
"47264",647.8815,78.10666,107.76129
"47265",647.8948,78.22385,107.81931
"47266",647.9081,78.61204,108.152
"47267",647.9214,79.39086,108.88745
"47268",647.9347,80.58228,110.05984
"47269",647.948,82.06912,111.56487
"47270",647.9613,83.6292,113.18961
"47271",647.9746,84.98421,114.65803
"47272",647.9879,85.90219,115.731766
"47273",648.0012,86.28062,116.29463
"47274",648.0145,86.1561,116.36638
"47275",648.02783,85.6556,116.05826
"47276",648.04114,84.92317,115.50256
"47277",648.05444,84.1004,114.83364
"47278",648.06775,83.29473,114.156105
"47279",648.08105,82.579384,113.54372
"47280",648.09436,82.005646,113.05058
"47281",648.10767,81.58816,112.69577
"47282",648.121,81.307396,112.46464
"47283",648.1343,81.11696,112.315056
"47284",648.1476,80.972916,112.20592
"47285",648.1609,80.833755,112.09716
"47286",648.1742,80.689705,111.979164
"47287",648.1875,80.567635,111.87865
"47288",648.2008,80.49439,111.82314
"47289",648.2141,80.50416,111.84836
"47290",648.2274,80.59205,111.952
"47291",648.2407,80.73365,112.11211
"47292",648.254,80.88747,112.28885
"47293",648.26733,81.00221,112.43133
"47294",648.28064,81.0486,112.50903
"47295",648.29395,81.01686,112.51006
"47296",648.30725,80.89723,112.42221
"47297",648.32056,80.69947,112.25249
"47298",648.33386,80.448006,112.02288
"47299",648.34717,80.15991,111.74879
"47300",648.3605,79.86206,111.45593
"47301",648.3738,79.57397,111.16353
"47302",648.3871,79.310295,110.88654
"47303",648.4004,79.080795,110.63549
"47304",648.4137,78.88304,110.40901
"47305",648.427,78.71458,110.20564
"47306",648.4403,78.5803,110.0312
"47307",648.4536,78.4802,109.886734
"47308",648.4669,78.4094,109.76844
"47309",648.4802,78.365456,109.67479
"47310",648.4935,78.345924,109.60418
"47311",648.50684,78.34348,109.55005
"47312",648.52014,78.35813,109.51293
"47313",648.53345,78.382545,109.48604
"47314",648.54675,78.41917,109.472115
"47315",648.56006,78.46555,109.4691
"47316",648.57336,78.5095,109.465096
"47317",648.5867,78.54612,109.45514
"47318",648.6,78.57542,109.439
"47319",648.6133,78.590065,109.409134
"47320",648.6266,78.59495,109.36996
"47321",648.6399,78.590065,109.32117
"47322",648.6532,78.58274,109.26978
"47323",648.6665,78.56565,109.208405
"47324",648.6798,78.54368,109.14161
"47325",648.6931,78.51194,109.06436
"47326",648.7064,78.47532,108.98124
"47327",648.7197,78.43137,108.88965
"47328",648.73303,78.37766,108.78692
"47329",648.74634,78.314186,108.672745
"47330",648.75964,78.24338,108.549255
"47331",648.77295,78.1799,108.430885
"47332",648.78625,78.14572,108.33983
"47333",648.79956,78.23605,108.372215
"47334",648.81287,78.59251,108.673546
"47335",648.8262,79.34692,109.38397
"47336",648.8395,80.53101,110.54766
"47337",648.8528,82.04471,112.07795
"47338",648.8661,83.67071,113.767845
"47339",648.8794,85.12581,115.337654
"47340",648.8927,86.153656,116.52568
"47341",648.906,86.63706,117.201385
"47342",648.9193,86.60288,117.37461
"47343",648.9326,86.168304,117.14637
"47344",648.9459,85.472496,116.64332
"47345",648.9592,84.65949,116.00133
"47346",648.97253,83.84161,115.329056
"47347",648.98584,83.104294,114.711784
"47348",648.99915,82.49149,114.19599
"47349",649.01245,82.02762,113.809975
"47350",649.02576,81.70046,113.54618
"47351",649.03906,81.47585,113.37471
"47352",649.05237,81.30007,113.24505
"47353",649.0657,81.143814,113.12942
"47354",649.079,80.99733,113.01868
"47355",649.0923,80.87526,112.92777
"47356",649.1056,80.8069,112.886765
"47357",649.1189,80.81911,112.92419
"47358",649.1322,80.92409,113.05476
"47359",649.1455,81.0901,113.24966
"47360",649.1588,81.270775,113.46439
"47361",649.1721,81.41726,113.65059
"47362",649.1854,81.495384,113.773
"47363",649.1987,81.48318,113.807526
"47364",649.21204,81.38308,113.75378
"47365",649.22534,81.20241,113.616325
"47366",649.23865,80.95827,113.40976
"47367",649.25195,80.672615,113.15405
"47368",649.26526,80.35523,112.85769
"47369",649.27856,80.03296,112.54652
"47370",649.2919,79.725334,112.23992
"47371",649.3052,79.449455,111.95546
"47372",649.3185,79.20531,111.69411
"47373",649.3318,78.99779,111.461754
"47374",649.3451,78.82689,111.25954
"47375",649.3584,78.68528,111.08127
"47376",649.3717,78.57053,110.92544
"47377",649.385,78.485085,110.79532
"47378",649.3983,78.433815,110.69671
"47379",649.4116,78.4094,110.62335
"47380",649.4249,78.40696,110.571205
"47381",649.43823,78.42405,110.53851
"47382",649.45154,78.45579,110.521
"47383",649.46484,78.48997,110.50693
"47384",649.47815,78.52903,110.4988
"47385",649.49146,78.56077,110.48457
"47386",649.50476,78.590065,110.468895
"47387",649.51807,78.607155,110.441925
"47388",649.5314,78.61204,110.40328
"47389",649.5447,78.60227,110.35014
"47390",649.558,78.590065,110.29426
"47391",649.5713,78.56809,110.228226
"47392",649.5846,78.538795,110.15418
"47393",649.5979,78.49973,110.06946
"47394",649.6112,78.45823,109.98107
"47395",649.6245,78.40452,109.87918
"47396",649.6378,78.34348,109.76829
"47397",649.6511,78.27268,109.64572
"47398",649.6644,78.19211,109.51117
"47399",649.67773,78.10666,109.369225
"47400",649.69104,78.03342,109.23682
"47401",649.70435,78.04074,109.182686
"47402",649.71765,78.24094,109.321655
"47403",649.73096,78.7805,109.80625
"47404",649.74426,79.75464,110.74228
"47405",649.75757,81.126724,112.1067
"47406",649.7709,82.738075,113.75326
"47407",649.7842,84.32746,115.42821
"47408",649.7975,85.626305,116.86228
"47409",649.8108,86.44419,117.85599
"47410",649.8241,86.73228,118.34545
"47411",649.8374,86.54917,118.37273
"47412",649.8507,86.03403,118.06224
"47413",649.864,85.31136,117.52814
"47414",649.8773,84.51301,116.89576
"47415",649.8906,83.73174,116.25552
"47416",649.90393,83.03105,115.67145
"47417",649.91724,82.44511,115.18022
"47418",649.93054,81.98367,114.7952
"47419",649.94385,81.619896,114.49341
"47420",649.95715,81.32693,114.25106
"47421",649.97046,81.07057,114.03617
"47422",649.98376,80.848404,113.84746
"47423",649.9971,80.68482,113.71039
"47424",650.0104,80.61402,113.66099
"47425",650.0237,80.66529,113.731445
"47426",650.037,80.848404,113.93535
"47427",650.0503,81.129166,114.24262
"47428",650.0636,81.446556,114.5953
"47429",650.0769,81.7322,114.92615
"47430",650.0902,81.93729,115.18536
"47431",650.1035,82.03006,115.33868
"47432",650.1168,82.005646,115.3777
"47433",650.1301,81.866486,115.301216
"47434",650.14343,81.6321,115.12516
"47435",650.15674,81.324486,114.868546
"47436",650.17004,80.970474,114.55592
"47437",650.18335,80.59693,114.21271
"47438",650.19666,80.23804,113.87247
"47439",650.20996,79.90112,113.54299
"47440",650.22327,79.5935,113.23228
"47441",650.2366,79.31762,112.943695
"47442",650.2499,79.07591,112.680664
"47443",650.2632,78.86595,112.441826
"47444",650.2765,78.692604,112.23304
"47445",650.2898,78.56077,112.06035
"47446",650.3031,78.467995,111.9226
"47447",650.3164,78.41428,111.821014
"47448",650.3297,78.38987,111.74705
"47449",650.343,78.39475,111.701614
"47450",650.3563,78.41917,111.675865
"47451",650.3696,78.46555,111.67285
"47452",650.38293,78.51682,111.67617
"47453",650.39624,78.572975,111.685974
"47454",650.40955,78.6218,111.69021
"47455",650.42285,78.66331,111.688644
"47456",650.43616,78.69016,111.67373
"47457",650.44946,78.70237,111.645004
"47458",650.46277,78.69749,111.59957
"47459",650.4761,78.67063,111.53201
"47460",650.4894,78.626686,111.446526
"47461",650.5027,78.56077,111.33769
"47462",650.516,78.47532,111.20727
"47463",650.5293,78.37522,111.059525
"47464",650.5426,78.26292,110.89645
"47465",650.5559,78.14816,110.72741
"47466",650.5692,78.06271,110.58409
"47467",650.5825,78.07248,110.53332
"47468",650.5958,78.31663,110.71723
"47469",650.60913,78.93187,111.27987
"47470",650.62244,79.97681,112.29143
"47471",650.63574,81.39529,113.70918
"47472",650.64905,83.00664,115.364136
"47473",650.66235,84.54963,117.00108
"47474",650.67566,85.770355,118.36398
"47475",650.68896,86.502785,119.27673
"47476",650.7023,86.727394,119.70455
"47477",650.7156,86.522316,119.7097
"47478",650.7289,86.014496,119.4057
"47479",650.7422,85.330894,118.91005
"47480",650.7555,84.58137,118.32711
"47481",650.7688,83.8465,117.735405
"47482",650.7821,83.175095,117.184204
"47483",650.7954,82.58915,116.69748
"47484",650.8087,82.09842,116.28766
"47485",650.822,81.67849,115.933304
"47486",650.8353,81.307396,115.61466
"47487",650.84863,80.97536,115.32348
"47488",650.86194,80.70435,115.082954
"47489",650.87524,80.52613,114.92674
"47490",650.88855,80.48951,114.90656
"47491",650.90186,80.61646,115.04881
"47492",650.91516,80.88747,115.33908
"47493",650.92847,81.24391,115.72326
"47494",650.9418,81.61257,116.13079
"47495",650.9551,81.91043,116.47904
"47496",650.9684,82.08865,116.716965
"47497",650.9817,82.125275,116.818855
"47498",650.995,82.01541,116.775406
"47499",651.0083,81.78104,116.60401
"47500",651.0216,81.45144,116.33007
"47501",651.0349,81.06325,115.987236
"47502",651.0482,80.65308,115.6103
"47503",651.0615,80.23804,115.21566
"47504",651.0748,79.83765,114.82271
"47505",651.08813,79.45434,114.434326
"47506",651.10144,79.10277,114.065704
"47507",651.11475,78.78783,113.722725
"47508",651.12805,78.50706,113.404076
"47509",651.14136,78.2678,113.118164
"47510",651.15466,78.07736,112.8736
"47511",651.16797,77.92844,112.66459
"47512",651.1813,77.823456,112.49487
"47513",651.1946,77.75754,112.36094
"47514",651.2079,77.72823,112.26156
"47515",651.2212,77.73556,112.19789
"47516",651.2345,77.76486,112.15643
"47517",651.2478,77.81369,112.135414
"47518",651.2611,77.874725,112.12813
"47519",651.2744,77.93332,112.12031
"47520",651.2877,77.979706,112.10211
"47521",651.301,77.994354,112.05363
"47522",651.31433,77.97482,111.97142
"47523",651.32764,77.91379,111.8471
"47524",651.34094,77.821014,111.68913
"47525",651.35425,77.71114,111.51117
"47526",651.36755,77.61593,111.34443
"47527",651.38086,77.61593,111.26993
"47528",651.39417,77.85031,111.42981
"47529",651.4075,78.44846,111.960785
"47530",651.4208,79.46899,112.93282
"47531",651.4341,80.850845,114.29809
"47532",651.4474,82.41093,115.88476
"47533",651.4607,83.89288,117.442055
"47534",651.474,85.0428,118.71362
"47535",651.4873,85.714195,119.5426
"47536",651.5006,85.8851,119.892075
"47537",651.5139,85.63607,119.82695
"47538",651.5272,85.09163,119.45863
"47539",651.5405,84.38361,118.90973
"47540",651.55383,83.62188,118.28498
"47541",651.56714,82.896774,117.67306
"47542",651.58044,82.25956,117.126366
"47543",651.59375,81.73708,116.6745
"47544",651.60706,81.324486,116.316185
"47545",651.62036,80.99489,116.02798
"47546",651.63367,80.706795,115.77097
"47547",651.647,80.4358,115.522064
"47548",651.6603,80.184326,115.28421
"47549",651.6736,79.97925,115.08489
"47550",651.6869,79.85962,114.964615
"47551",651.7002,79.85718,114.95779
"47552",651.7135,79.96948,115.06563
"47553",651.7268,80.15991,115.255104
"47554",651.7401,80.37232,115.47251
"47555",651.7534,80.54566,115.657486
"47556",651.7667,80.638435,115.76731
"47557",651.78,80.62623,115.775055
"47558",651.79333,80.499275,115.66767
"47559",651.80664,80.26734,115.45134
"47560",651.81995,79.94751,115.13986
"47561",651.83325,79.57397,114.76468
"47562",651.84656,79.17113,114.348526
"47563",651.85986,78.77074,113.92223
"47564",651.87317,78.397194,113.51028
"47565",651.8865,78.06027,113.12327
"47566",651.8998,77.76486,112.76724
"47567",651.9131,77.50851,112.44104
"47568",651.9264,77.29122,112.1459
"47569",651.9397,77.10567,111.875694
"47570",651.953,76.95674,111.63632
"47571",651.9663,76.84444,111.42892
"47572",651.9796,76.76631,111.25218
"47573",651.9929,76.717476,111.102295
"47574",652.0062,76.70283,110.98507
"47575",652.01953,76.71259,110.8918
"47576",652.03284,76.74189,110.81837
"47577",652.04614,76.788284,110.76295
"47578",652.05945,76.841995,110.71629
"47579",652.07275,76.893265,110.66888
"47580",652.08606,76.93965,110.61818
"47581",652.09937,76.96895,110.55184
"47582",652.1127,76.978714,110.46689
"47583",652.126,76.96651,110.36027
"47584",652.1393,76.929886,110.22885
"47585",652.1526,76.86641,110.069435
"47586",652.1659,76.78584,109.890945
"47587",652.1792,76.700386,109.70505
"47588",652.1925,76.63691,109.53846
"47589",652.2058,76.67353,109.469986
"47590",652.2191,76.946976,109.63948
"47591",652.2324,77.58663,110.18373
"47592",652.2457,78.65354,111.175224
"47593",652.25903,80.08667,112.56628
"47594",652.27234,81.70779,114.1901
"47595",652.28564,83.25567,115.79135
"47596",652.29895,84.47639,117.11381
"47597",652.31226,85.206375,117.98368
"47598",652.32556,85.42611,118.36611
"47599",652.33887,85.21126,118.32082
"47600",652.3522,84.68879,117.961205
"47601",652.3655,84.00275,117.421684
"47602",652.3788,83.267876,116.8119
"47603",652.3921,82.581825,116.22797
"47604",652.4054,82.00809,115.73491
"47605",652.4187,81.57351,115.36308
"47606",652.432,81.26345,115.102196
"47607",652.4453,81.05104,114.92927
"47608",652.4586,80.88014,114.791214
"47609",652.4719,80.70191,114.64049
"47610",652.4852,80.499275,114.459785
"47611",652.49854,80.289314,114.26543
"47612",652.51184,80.11597,114.10112
"47613",652.52515,80.01831,114.00709
"47614",652.53845,80.01343,114.00278
"47615",652.55176,80.08667,114.07644
"47616",652.56506,80.19409,114.18657
"47617",652.57837,80.2942,114.29274
"47618",652.5917,80.34547,114.3532
"47619",652.605,80.32105,114.339584
"47620",652.6183,80.21362,114.24219
"47621",652.6316,80.028076,114.06332
"47622",652.6449,79.77661,113.81273
"47623",652.6582,79.47387,113.503006
"47624",652.6715,79.151596,113.16429
"47625",652.6848,78.82933,112.81551
"47626",652.6981,78.521706,112.471306
"47627",652.7114,78.24094,112.14434
"47628",652.72473,77.98947,111.837906
"47629",652.73804,77.77219,111.55779
"47630",652.75134,77.58663,111.30262
"47631",652.76465,77.43038,111.07095
"47632",652.77795,77.30587,110.86614
"47633",652.79126,77.21797,110.69405
"47634",652.80457,77.16182,110.550964
"47635",652.8179,77.13008,110.430534
"47636",652.8312,77.1252,110.33597
"47637",652.8445,77.134964,110.2559
"47638",652.8578,77.16182,110.19322
"47639",652.8711,77.19112,110.13383
"47640",652.8844,77.222855,110.07779
"47641",652.8977,77.24971,110.01786
"47642",652.911,77.26681,109.94901
"47643",652.9243,77.27657,109.87337
"47644",652.9376,77.281456,109.793144
"47645",652.9509,77.281456,109.70819
"47646",652.96423,77.27413,109.61591
"47647",652.97754,77.25704,109.51364
"47648",652.99084,77.23262,109.4035
"47649",653.00415,77.196,109.2804
"47650",653.01746,77.14961,109.14639
"47651",653.03076,77.0959,109.00361
"47652",653.04407,77.03975,108.856705
"47653",653.0574,76.97383,108.69828
"47654",653.0707,76.912796,108.54268
"47655",653.084,76.88838,108.42179
"47656",653.0973,76.981155,108.41733
"47657",653.1106,77.33517,108.677
"47658",653.1239,78.07736,109.33592
"47659",653.1372,79.256584,110.45506
"47660",653.1505,80.79225,111.9675
"47661",653.1638,82.48173,113.68173
"47662",653.1771,84.04425,115.32181
"47663",653.1904,85.23323,116.63717
"47664",653.20374,85.90219,117.469666
"47665",653.21704,86.04379,117.79571
"47666",653.23035,85.75815,117.69893
"47667",653.24365,85.1844,117.30512
"47668",653.25696,84.471504,116.754234
"47669",653.27026,83.734184,116.15665
"47670",653.28357,83.070114,115.60927
"47671",653.2969,82.528114,115.16321
"47672",653.3102,82.13748,114.85158
"47673",653.3235,81.87869,114.659584
"47674",653.3368,81.70779,114.547386
"47675",653.3501,81.56863,114.46159
"47676",653.3634,81.41726,114.359245
"47677",653.3767,81.231705,114.21798
"47678",653.39,81.02907,114.05383
"47679",653.4033,80.850845,113.90777
"47680",653.4166,80.73365,113.81716
"47681",653.42993,80.69703,113.80347
"47682",653.44324,80.73609,113.86431
"47683",653.45654,80.81178,113.963005
"47684",653.46985,80.87526,114.05185
"47685",653.48315,80.89235,114.09629
"47686",653.49646,80.84596,114.07779
"47687",653.50977,80.723885,113.98215
"47688",653.5231,80.5359,113.81678
"47689",653.5364,80.29664,113.59427
"47690",653.5497,80.01831,113.32521
"47691",653.563,79.71801,113.02548
"47692",653.5763,79.41772,112.71638
"47693",653.5896,79.12718,112.407646
"47694",653.6029,78.856186,112.109375
"47695",653.6162,78.61204,111.82948
"47696",653.6295,78.40208,111.57615
"47697",653.6428,78.21652,111.34066
"47698",653.6561,78.06027,111.12868
"47699",653.66943,77.93088,110.93867
"47700",653.68274,77.83322,110.77635
"47701",653.69604,77.769745,110.645164
"47702",653.70935,77.733116,110.53884
"47703",653.72266,77.72091,110.455795
"47704",653.73596,77.730675,110.39434
"47705",653.74927,77.747765,110.340515
"47706",653.7626,77.769745,110.292114
"47707",653.7759,77.79172,110.24439
"47708",653.7892,77.81369,110.19736
"47709",653.8025,77.83322,110.14857
"47710",653.8158,77.84787,110.095505
"47711",653.8291,77.855194,110.035576
"47712",653.8424,77.84787,109.96123
"47713",653.8557,77.83322,109.879326
"47714",653.869,77.803925,109.78232
"47715",653.8823,77.7673,109.67707
"47716",653.8956,77.72091,109.560905
"47717",653.90894,77.67452,109.4433
"47718",653.92224,77.62325,109.31936
"47719",653.93555,77.56954,109.191376
"47720",653.94885,77.51095,109.05683
"47721",653.96216,77.44991,108.918015
"47722",653.97546,77.38888,108.77729
"47723",653.9888,77.34493,108.65175
"47724",654.0021,77.37179,108.595634
"47725",654.0154,77.58663,108.72835
"47726",654.0287,78.12863,109.19493
"47727",654.042,79.093,110.10082
"47728",654.0553,80.45533,111.43481
"47729",654.0686,82.07156,113.06527
"47730",654.0819,83.685356,114.7438
"47731",654.0952,85.033035,116.20664
"47732",654.1085,85.907074,117.23796
"47733",654.1218,86.2562,117.77168
"47734",654.13513,86.136566,117.84755
"47735",654.14844,85.67513,117.57788
"47736",654.16174,85.015945,117.09604
"47737",654.17505,84.281075,116.517914
"47738",654.18835,83.57549,115.94611
"47739",654.20166,82.96025,115.442604
"47740",654.21497,82.46952,115.04438
"47741",654.2283,82.1033,114.75533
"47742",654.2416,81.82742,114.54518
"47743",654.2549,81.59792,114.37279
"47744",654.2682,81.38064,114.20544
"47745",654.2815,81.163345,114.03129
"47746",654.2948,80.970474,113.87477
"47747",654.3081,80.83864,113.77326
"47748",654.3214,80.799576,113.76041
"47749",654.3347,80.86549,113.85131
"47750",654.348,81.01442,114.02728
"47751",654.3613,81.19264,114.237206
"47752",654.37463,81.35134,114.433174
"47753",654.38794,81.449,114.57306
"47754",654.40125,81.45388,114.62322
"47755",654.41455,81.36599,114.580765
"47756",654.42786,81.18776,114.44522
"47757",654.44116,80.938736,114.233315
"47758",654.45447,80.638435,113.96235
"47759",654.4678,80.31617,113.660034
"47760",654.4811,79.98901,113.34276
"47761",654.4944,79.66918,113.02258
"47762",654.5077,79.36889,112.71195
"47763",654.521,79.097885,112.42123
"47764",654.5343,78.85863,112.15378
"47765",654.5476,78.6511,111.91058
"47766",654.5609,78.485085,111.702415
"47767",654.5742,78.35081,111.5208
"47768",654.5875,78.24826,111.366714
"47769",654.6008,78.17502,111.23873
"47770",654.61414,78.12619,111.13287
"47771",654.62744,78.10666,111.05479
"47772",654.64075,78.11154,111.0005
"47773",654.65405,78.13107,110.96102
"47774",654.66736,78.16037,110.931915
"47775",654.68066,78.18967,110.903725
"47776",654.694,78.21164,110.869125
"47777",654.7073,78.22385,110.82545
"47778",654.7206,78.22873,110.774826
"47779",654.7339,78.221405,110.71215
"47780",654.7472,78.2092,110.64436
"47781",654.7605,78.187225,110.56643
"47782",654.7738,78.153046,110.4756
"47783",654.7871,78.10422,110.36906
"47784",654.8004,78.04074,110.24634
"47785",654.8137,77.962616,110.10699
"47786",654.827,77.8674,109.948105
"47787",654.84033,77.76486,109.77892
"47788",654.85364,77.65743,109.60165
"47789",654.86694,77.557335,109.428345
"47790",654.88025,77.4963,109.29098
"47791",654.89355,77.55978,109.276215
"47792",654.90686,77.87717,109.51735
"47793",654.92017,78.56809,110.14194
"47794",654.9335,79.66674,111.19584
"47795",654.9468,81.08766,112.606346
"47796",654.9601,82.63554,114.18821
"47797",654.9734,84.054016,115.68905
"47798",654.9867,85.103836,116.865555
"47799",655,85.67025,117.59146
"47800",655.0133,85.75571,117.85411
"47801",655.0266,85.45785,117.736115
"47802",655.0399,84.90608,117.354904
"47803",655.0532,84.227356,116.82949
"47804",655.0665,83.51934,116.25358
"47805",655.07983,82.862595,115.70681
"47806",655.09314,82.29862,115.23229
"47807",655.10645,81.832306,114.83781
"47808",655.11975,81.461205,114.523964
"47809",655.13306,81.143814,114.252235
"47810",655.14636,80.85329,113.99745
"47811",655.15967,80.57252,113.74335
"47812",655.173,80.32838,113.5171
"47813",655.1863,80.164795,113.36378
"47814",655.1996,80.12329,113.32742
"47815",655.2129,80.218506,113.42649
"47816",655.2262,80.43336,113.64817
"47817",655.2395,80.706795,113.93515
"47818",655.2528,80.970474,114.22092
"47819",655.2661,81.15602,114.43679
"47820",655.2794,81.22682,114.54372
"47821",655.2927,81.17555,114.530785
"47822",655.306,81.007095,114.39906
"47823",655.31934,80.740974,114.16441
"47824",655.33264,80.41627,113.86286
"47825",655.34595,80.05493,113.514534
"47826",655.35925,79.68871,113.15003
"47827",655.37256,79.33715,112.78874
"47828",655.38586,79.012436,112.44331
"47829",655.3992,78.7219,112.12192
"47830",655.4125,78.467995,111.82807
"47831",655.4258,78.25071,111.56291
"47832",655.4391,78.065155,111.32269
"47833",655.4524,77.908905,111.10598
"47834",655.4657,77.78439,110.91612
"47835",655.479,77.69161,110.754105
"47836",655.4923,77.63546,110.62582
"47837",655.5056,77.608604,110.52507
"47838",655.5189,77.61349,110.45522
"47839",655.5322,77.65011,110.41727
"47840",655.54553,77.70382,110.397545
"47841",655.55884,77.7673,110.389275
"47842",655.57214,77.83566,110.38786
"47843",655.58545,77.89426,110.37882
"47844",655.59875,77.93088,110.34964
"47845",655.61206,77.94064,110.29475
"47846",655.62537,77.925995,110.215744
"47847",655.6387,77.87961,110.104546
"47848",655.652,77.81125,109.969925
"47849",655.6653,77.72091,109.81119
"47850",655.6786,77.61837,109.63743
"47851",655.6919,77.523155,109.46779
"47852",655.7052,77.48409,109.351326
"47853",655.7185,77.60128,109.38989
"47854",655.7318,78.00412,109.71777
"47855",655.7451,78.78294,110.43423
"47856",655.7584,79.923096,111.53635
"47857",655.7717,81.30251,112.91336
"47858",655.78503,82.70878,114.36033
"47859",655.79834,83.90265,115.63885
"47860",655.81165,84.698555,116.55671
"47861",655.82495,85.030594,117.035576
"47862",655.83826,84.94026,117.10245
"47863",655.85156,84.53742,116.85399
"47864",655.86487,83.946594,116.40495
"47865",655.8782,83.284966,115.86665
"47866",655.8915,82.63798,115.32232
"47867",655.9048,82.06668,114.83346
"47868",655.9181,81.59792,114.42928
"47869",655.9314,81.22682,114.108116
"47870",655.9447,80.93141,113.85104
"47871",655.958,80.67994,113.62868
"47872",655.9713,80.4358,113.405785
"47873",655.9846,80.19653,113.18014
"47874",655.9979,79.98657,112.97632
"47875",656.0112,79.84985,112.83918
"47876",656.02454,79.82056,112.80519
"47877",656.03784,79.903564,112.88259
"47878",656.05115,80.08179,113.0578
"47879",656.06445,80.30396,113.28253
"47880",656.07776,80.5066,113.49467
"47881",656.09106,80.638435,113.642334
"47882",656.1044,80.67017,113.69402
"47883",656.1177,80.59205,113.63684
"47884",656.131,80.411385,113.47468
"47885",656.1443,80.14038,113.21653
"47886",656.1576,79.82056,112.90109
"47887",656.1709,79.47631,112.55124
"47888",656.1842,79.132065,112.19063
"47889",656.1975,78.8098,111.84124
"47890",656.2108,78.52415,111.518394
"47891",656.2241,78.27512,111.22325
"47892",656.2374,78.06027,110.9545
"47893",656.25073,77.87961,110.71322
"47894",656.26404,77.733116,110.500465
"47895",656.27734,77.61837,110.31488
"47896",656.29065,77.540245,110.16233
"47897",656.30396,77.49874,110.04396
"47898",656.31726,77.488976,109.95603
"47899",656.33057,77.503624,109.89221
"47900",656.3439,77.54269,109.853264
"47901",656.3572,77.593956,109.82774
"47902",656.3705,77.65743,109.81603
"47903",656.3838,77.72335,109.80875
"47904",656.3971,77.77951,109.79376
"47905",656.4104,77.81857,109.763435
"47906",656.4237,77.83078,109.70747
"47907",656.437,77.81125,109.620155
"47908",656.4503,77.76242,109.50293
"47909",656.4636,77.69161,109.3622
"47910",656.4769,77.61349,109.21194
"47911",656.49023,77.55245,109.076324
"47912",656.50354,77.58175,109.02914
"47913",656.51685,77.81857,109.19039
"47914",656.53015,78.37766,109.68131
"47915",656.54346,79.30297,110.55592
"47916",656.55676,80.5359,111.76707
"47917",656.57007,81.90799,113.15591
"47918",656.5834,83.192184,114.499725
"47919",656.5967,84.16388,115.571175
"47920",656.61,84.69367,116.23109
"47921",656.6233,84.76936,116.45345
"47922",656.6366,84.48371,116.31684
"47923",656.6499,83.95392,115.92716
"47924",656.6632,83.30694,115.40374
"47925",656.6765,82.65507,114.85521
"47926",656.6898,82.06912,114.352234
"47927",656.7031,81.59304,113.94081
"47928",656.71643,81.234146,113.6317
"47929",656.72974,80.9778,113.41392
"47930",656.74304,80.780045,113.24672
"47931",656.75635,80.59449,113.08554
"47932",656.76965,80.39185,112.90148
"47933",656.78296,80.177,112.698875
"47934",656.79626,79.97681,112.50421
"47935",656.8096,79.83276,112.35944
"47936",656.8229,79.783936,112.30539
"47937",656.8362,79.835205,112.34991
"47938",656.8495,79.95972,112.46927
"47939",656.8628,80.11597,112.62426
"47940",656.8761,80.24292,112.75484
"47941",656.8894,80.30396,112.82347
"47942",656.9027,80.27955,112.808556
"47943",656.916,80.16724,112.70498
"47944",656.9293,79.971924,112.51489
"47945",656.9426,79.71801,112.2601
"47946",656.95593,79.43481,111.96809
"47947",656.96924,79.13939,111.65501
"47948",656.98254,78.8513,111.34003
"47949",656.99585,78.57786,111.030685
"47950",657.00916,78.33372,110.7421
"47951",657.02246,78.11398,110.4703
"47952",657.03577,77.92355,110.22093
"47953",657.0491,77.7673,109.999794
"47954",657.0624,77.645226,109.807945
"47955",657.0757,77.557335,109.64647
"47956",657.089,77.50118,109.513985
"47957",657.1023,77.469444,109.40416
"47958",657.1156,77.46456,109.3202
"47959",657.1289,77.48165,109.25806
"47960",657.1422,77.51339,109.2111
"47961",657.1555,77.55978,109.17978
"47962",657.1688,77.61593,109.159676
"47963",657.1821,77.66476,109.134
"47964",657.19543,77.70626,109.10253
"47965",657.20874,77.73556,109.06015
"47966",657.22205,77.75021,109.00404
"47967",657.23535,77.747765,108.93129
"47968",657.24866,77.730675,108.84382
"47969",657.26196,77.69161,108.73384
"47970",657.27527,77.63302,108.60311
"47971",657.2886,77.55489,108.45102
"47972",657.3019,77.469444,108.28916
"47973",657.3152,77.40353,108.144165
"47974",657.3285,77.40841,108.06791
"47975",657.3418,77.60372,108.182236
"47976",657.3551,78.116425,108.620056
"47977",657.3684,79.01488,109.45965
"47978",657.3817,80.26246,110.676445
"47979",657.395,81.70046,112.12265
"47980",657.4083,83.087204,113.56253
"47981",657.42163,84.1712,114.743004
"47982",657.43494,84.78645,115.4886
"47983",657.44824,84.90364,115.75536
"47984",657.46155,84.61555,115.62051
"47985",657.47485,84.05646,115.20565
"47986",657.48816,83.36309,114.639046
"47987",657.50146,82.652626,114.033676
"47988",657.5148,82.01053,113.47447
"47989",657.5281,81.49294,113.019714
"47990",657.5414,81.1194,112.692825
"47991",657.5547,80.88014,112.48855
"47992",657.568,80.73365,112.36956
"47993",657.5813,80.62623,112.285065
"47994",657.5946,80.51148,112.18989
"47995",657.6079,80.365,112.05939
"47996",657.6212,80.198975,111.90477
"47997",657.6345,80.05493,111.766945
"47998",657.6478,79.9646,111.67833
"47999",657.66113,79.954834,111.66746
"48000",657.67444,80.01343,111.72464
"48001",657.68774,80.11597,111.8276
"48002",657.70105,80.216064,111.93132
"48003",657.71436,80.27711,111.999115
"48004",657.72766,80.2649,111.99557
"48005",657.74097,80.181885,111.92083
"48006",657.7543,80.028076,111.772705
"48007",657.7676,79.823,111.568504
"48008",657.7809,79.58373,111.32371
"48009",657.7942,79.327385,111.05435
"48010",657.8075,79.06615,110.772095
"48011",657.8208,78.81468,110.49145
"48012",657.8341,78.5803,110.220024
"48013",657.8474,78.37522,109.97058
"48014",657.8607,78.19943,109.74402
"48015",657.874,78.05783,109.54615
"48016",657.8873,77.95041,109.37804
"48017",657.90063,77.872284,109.23586
"48018",657.91394,77.823456,109.120544
"48019",657.92725,77.7966,109.02567
"48020",657.94055,77.789276,108.94949
"48021",657.95386,77.79904,108.890175
"48022",657.96716,77.823456,108.84581
"48023",657.98047,77.86008,108.814415
"48024",657.9938,77.90158,108.78905
"48025",658.0071,77.943085,108.76498
"48026",658.0204,77.98215,108.73976
"48027",658.0337,78.009,108.70356
"48028",658.047,78.02609,108.65843
"48029",658.0603,78.030975,108.60163
"48030",658.0736,78.028534,108.53766
"48031",658.0869,78.01877,108.466286
"48032",658.1002,77.996796,108.3824
"48033",658.1135,77.97238,108.29539
"48034",658.12683,77.943085,108.20273
"48035",658.14014,77.90646,108.10183
"48036",658.15344,77.86252,107.99246
"48037",658.16675,77.81125,107.8744
"48038",658.18005,77.752655,107.747406
"48039",658.19336,77.68917,107.61369
"48040",658.20667,77.63302,107.48533
"48041",658.22,77.63058,107.40892
"48042",658.2333,77.77219,107.47649
"48043",658.2466,78.19943,107.834114
"48044",658.2599,79.01488,108.59329
"48045",658.2732,80.22339,109.77102
"48046",658.2865,81.69802,111.25263
"48047",658.2998,83.211716,112.81939
"48048",658.3131,84.48615,114.19419
"48049",658.3264,85.31136,115.15959
"48050",658.3397,85.60677,115.62098
"48051",658.353,85.43343,115.62285
"48052",658.36633,84.92317,115.28238
"48053",658.37964,84.224915,114.73797
"48054",658.39294,83.46563,114.11071
"48055",658.40625,82.7454,113.49878
"48056",658.41956,82.13504,112.97421
"48057",658.43286,81.66628,112.572174
"48058",658.44617,81.339134,112.2971
"48059",658.4595,81.129166,112.128975
"48060",658.4728,80.99489,112.02998
"48061",658.4861,80.87282,111.939
"48062",658.4994,80.73365,111.82711
"48063",658.5127,80.57252,111.6889
"48064",658.526,80.4065,111.54078
"48065",658.5393,80.27955,111.42653
"48066",658.5526,80.22339,111.379105
"48067",658.5659,80.24292,111.40562
"48068",658.5792,80.32105,111.49134
"48069",658.5925,80.42115,111.60147
"48070",658.60583,80.50172,111.6952
"48071",658.61914,80.53101,111.74017
"48072",658.63245,80.49439,111.720146
"48073",658.64575,80.39185,111.63306
"48074",658.65906,80.22339,111.47684
"48075",658.67236,80.0061,111.26653
"48076",658.68567,79.75952,111.02014
"48077",658.699,79.500725,110.75383
"48078",658.7123,79.24437,110.48187
"48079",658.7256,79.012436,110.226326
"48080",658.7389,78.80492,109.987946
"48081",658.7522,78.62913,109.77481
"48082",658.7655,78.47532,109.57816
"48083",658.7788,78.35081,109.406006
"48084",658.7921,78.24826,109.25192
"48085",658.8054,78.17258,109.1215
"48086",658.8187,78.12619,109.018005
"48087",658.83203,78.10422,108.93748
"48088",658.84534,78.10422,108.878235
"48089",658.85864,78.12131,108.83608
"48090",658.87195,78.153046,108.80911
"48091",658.88525,78.19699,108.79534
"48092",658.89856,78.24338,108.785385
"48093",658.91187,78.28733,108.774445
"48094",658.9252,78.328835,108.76243
"48095",658.9385,78.3679,108.74927
"48096",658.9518,78.399635,108.73
"48097",658.9651,78.42161,108.701965
"48098",658.9784,78.43626,108.66729
"48099",658.9917,78.4387,108.620865
"48100",659.005,78.42649,108.55987
"48101",659.0183,78.399635,108.48384
"48102",659.0316,78.3679,108.40209
"48103",659.0449,78.331276,108.31447
"48104",659.0582,78.294655,108.2257
"48105",659.07153,78.25803,108.13579
"48106",659.08484,78.221405,108.04472
"48107",659.09814,78.184784,107.95252
"48108",659.11145,78.14572,107.856735
"48109",659.12476,78.10422,107.757286
"48110",659.13806,78.06271,107.65654
"48111",659.15137,78.03342,107.5667
"48112",659.1647,78.05051,107.52234
"48113",659.178,78.21896,107.629875
"48114",659.1913,78.68284,108.03809
"48115",659.2046,79.551994,108.86609
"48116",659.2179,80.816666,110.11676
"48117",659.2312,82.337685,111.6633
"48118",659.2445,83.87335,113.27202
"48119",659.2578,85.15022,114.66993
"48120",659.2711,85.95102,115.63167
"48121",659.2844,86.20981,116.07642
"48122",659.2977,85.99252,116.05319
"48123",659.31104,85.435875,115.68381
"48124",659.32434,84.68879,115.10659
"48125",659.33765,83.878235,114.44256
"48126",659.35095,83.10918,113.79469
"48127",659.36426,82.44999,113.232666
"48128",659.37756,81.93973,112.798965
"48129",659.39087,81.583275,112.50313
"48130",659.4042,81.358665,112.327995
"48131",659.4175,81.2195,112.231285
"48132",659.4308,81.11696,112.166855
"48133",659.4441,81.01198,112.09678
"48134",659.4574,80.88747,112.00389
"48135",659.4707,80.76051,111.90467
"48136",659.484,80.66041,111.82833
"48137",659.4973,80.62623,111.81479
"48138",659.5106,80.66285,111.87098
"48139",659.5239,80.75807,111.986916
"48140",659.53723,80.87038,112.12291
"48141",659.55054,80.96559,112.24532
"48142",659.56384,81.004654,112.31456
"48143",659.57715,80.970474,112.311775
"48144",659.59045,80.86549,112.23712
"48145",659.60376,80.69703,112.0957
"48146",659.61707,80.4773,111.89776
"48147",659.6304,80.22339,111.65876
"48148",659.6437,79.954834,111.39719
"48149",659.657,79.68627,111.12721
"48150",659.6703,79.42748,110.85862
"48151",659.6836,79.19066,110.603905
"48152",659.6969,78.98314,110.37109
"48153",659.7102,78.80736,110.163536
"48154",659.7235,78.66331,109.982216
"48155",659.7368,78.54368,109.820816
"48156",659.7501,78.44846,109.68009
"48157",659.7634,78.38499,109.56813
"48158",659.77673,78.348366,109.48104
"48159",659.79004,78.328835,109.4099
"48160",659.80334,78.32395,109.35279
"48161",659.81665,78.33616,109.31262
"48162",659.82996,78.36057,109.28504
"48163",659.84326,78.39475,109.26799
"48164",659.85657,78.433815,109.25689
"48165",659.8699,78.47288,109.24701
"48166",659.8832,78.504616,109.231026
"48167",659.8965,78.51682,109.1965
"48168",659.9098,78.51194,109.14527
"48169",659.9231,78.49485,109.08168
"48170",659.9364,78.47288,109.01267
"48171",659.9497,78.44602,108.938095
"48172",659.963,78.42161,108.86512
"48173",659.9763,78.399635,108.79382
"48174",659.9896,78.382545,108.72672
"48175",660.0029,78.36057,108.654205
"48176",660.01624,78.331276,108.57368
"48177",660.02954,78.2971,108.48735
"48178",660.04285,78.25315,108.39019
"48179",660.05615,78.19943,108.28188
"48180",660.06946,78.14328,108.169464
"48181",660.08276,78.09201,108.06017
"48182",660.09607,78.05783,107.96637
"48183",660.1094,78.09201,107.93986
"48184",660.1227,78.30198,108.0902
"48185",660.136,78.82933,108.56449
"48186",660.1493,79.76196,109.46054
"48187",660.1626,81.07057,110.76171
"48188",660.1759,82.6038,112.32839
"48189",660.1892,84.11505,113.92101
"48190",660.2025,85.33578,115.27033
"48191",660.2158,86.07797,116.17927
"48192",660.2291,86.295265,116.586494
"48193",660.24243,86.063324,116.55128
"48194",660.25574,85.51644,116.19387
"48195",660.26904,84.791336,115.64115
"48196",660.28235,84.00519,115.00473
"48197",660.29565,83.24834,114.37304
"48198",660.30896,82.57694,113.803154
"48199",660.32227,82.02518,113.33192
"48200",660.3356,81.60525,112.97527
"48201",660.3489,81.30251,112.7227
"48202",660.3622,81.08522,112.54611
"48203",660.3755,80.921646,112.41645
"48204",660.3888,80.78493,112.30853
"48205",660.4021,80.672615,112.22075
"48206",660.4154,80.601814,112.17097
"48207",660.4287,80.59205,112.18001
"48208",660.442,80.66285,112.26931
"48209",660.4553,80.80202,112.42919
"48210",660.4686,80.98268,112.63492
"48211",660.48193,81.15602,112.83897
"48212",660.49524,81.28542,113.00449
"48213",660.50854,81.341576,113.100815
"48214",660.52185,81.30984,113.111
"48215",660.53516,81.1902,113.032295
"48216",660.54846,80.99733,112.87662
"48217",660.56177,80.74586,112.65631
"48218",660.5751,80.46021,112.393974
"48219",660.5884,80.164795,112.11294
"48220",660.6017,79.871826,111.82512
"48221",660.615,79.603264,111.55255
"48222",660.6283,79.35912,111.29601
"48223",660.6416,79.13939,111.05625
"48224",660.6549,78.94896,110.83893
"48225",660.6682,78.79027,110.64739
"48226",660.6815,78.660866,110.48019
"48227",660.6948,78.57053,110.34801
"48228",660.7081,78.519264,110.25207
"48229",660.72144,78.49485,110.18138
"48230",660.73474,78.48997,110.12946
"48231",660.74805,78.502174,110.09448
"48232",660.76135,78.52659,110.07209
"48233",660.77466,78.56321,110.06267
"48234",660.78796,78.6096,110.064156
"48235",660.8013,78.658424,110.069534
"48236",660.8146,78.70725,110.07644
"48237",660.8279,78.74387,110.07266
"48238",660.8412,78.768295,110.05783
"48239",660.8545,78.77806,110.029106
"48240",660.8678,78.77562,109.98848
"48241",660.8811,78.765854,109.94045
"48242",660.8944,78.75365,109.88968
"48243",660.9077,78.73899,109.836075
"48244",660.921,78.7219,109.77958
"48245",660.9343,78.69993,109.71767
"48246",660.94763,78.66331,109.64042
"48247",660.96094,78.61448,109.54982
"48248",660.97424,78.553444,109.44549
"48249",660.98755,78.4802,109.32704
"48250",661.00085,78.397194,109.19654
"48251",661.01416,78.31663,109.06589
"48252",661.02747,78.26292,108.95957
"48253",661.0408,78.29954,108.94191
"48254",661.0541,78.56321,109.15244
"48255",661.0674,79.18089,109.72523
"48256",661.0807,80.216064,110.7348
"48257",661.094,81.60525,112.13074
"48258",661.1073,83.16777,113.74342
"48259",661.1206,84.63752,115.312164
"48260",661.1339,85.770355,116.58992
"48261",661.1472,86.41245,117.41234
"48262",661.1605,86.55161,117.751884
"48263",661.1738,86.278175,117.68318
"48264",661.18713,85.72396,117.32516
"48265",661.20044,85.015945,116.79601
"48266",661.21375,84.263985,116.2008
"48267",661.22705,83.53643,115.60649
"48268",661.24036,82.88701,115.06758
"48269",661.25366,82.3328,114.60359
"48270",661.26697,81.87625,114.21994
"48271",661.2803,81.50515,113.90747
"48272",661.2936,81.197525,113.64688
"48273",661.3069,80.93385,113.42063
"48274",661.3202,80.71656,113.23252
"48275",661.3335,80.56519,113.103546
"48276",661.3468,80.50416,113.06017
"48277",661.3601,80.570076,113.141846
"48278",661.3734,80.75807,113.34766
"48279",661.3867,81.03639,113.649666
"48280",661.4,81.35378,113.99944
"48281",661.4133,81.64431,114.332275
"48282",661.42664,81.85184,114.59119
"48283",661.43994,81.94461,114.74183
"48284",661.45325,81.90799,114.765976
"48285",661.46655,81.75906,114.676674
"48286",661.47986,81.52224,114.49482
"48287",661.49316,81.22438,114.24453
"48288",661.5065,80.89723,113.95564
"48289",661.5198,80.56031,113.64676
"48290",661.5331,80.23071,113.33467
"48291",661.5464,79.91577,113.02694
"48292",661.5597,79.622795,112.73133
"48293",661.573,79.361565,112.45831
"48294",661.5863,79.12962,112.20642
"48295",661.5996,78.92699,111.976585
"48296",661.6129,78.75853,111.7746
"48297",661.6262,78.62913,111.6064
"48298",661.6395,78.53391,111.468346
"48299",661.65283,78.47776,111.36638
"48300",661.66614,78.45579,111.29684
"48301",661.67944,78.45823,111.25102
"48302",661.69275,78.4802,111.224815
"48303",661.70605,78.51682,111.21394
"48304",661.71936,78.56321,111.21398
"48305",661.73267,78.6096,111.21547
"48306",661.746,78.65598,111.21841
"48307",661.7593,78.69749,111.21791
"48308",661.7726,78.73167,111.21139
"48309",661.7859,78.751205,111.19129
"48310",661.7992,78.76341,111.164474
"48311",661.8125,78.76097,111.12339
"48312",661.8258,78.74143,111.06513
"48313",661.8391,78.70237,110.98674
"48314",661.8524,78.643776,110.887596
"48315",661.8657,78.57053,110.77197
"48316",661.879,78.4802,110.63697
"48317",661.89233,78.380104,110.48938
"48318",661.90564,78.28733,110.345985
"48319",661.91895,78.24826,110.253395
"48320",661.93225,78.3679,110.31829
"48321",661.94556,78.785385,110.68478
"48322",661.95886,79.5935,111.45493
"48323",661.97217,80.78737,112.6361
"48324",661.9855,82.23758,114.110916
"48325",661.9988,83.719536,115.662796
"48326",662.0121,84.981766,117.04126
"48327",662.0254,85.82895,118.04412
"48328",662.0387,86.19516,118.59248
"48329",662.052,86.134125,118.725044
"48330",662.0653,85.748375,118.53098
"48331",662.0786,85.15999,118.12223
"48332",662.0919,84.47883,117.60232
"48333",662.1052,83.78546,117.04891
"48334",662.1185,83.13115,116.51289
"48335",662.13184,82.55253,116.03212
"48336",662.14514,82.054474,115.61383
"48337",662.15845,81.62478,115.24834
"48338",662.17175,81.234146,114.90848
"48339",662.18506,80.87282,114.58572
"48340",662.19836,80.550545,114.29072
"48341",662.2117,80.29908,114.05646
"48342",662.225,80.16724,113.93396
"48343",662.2383,80.19409,113.96604
"48344",662.2516,80.38697,114.164986
"48345",662.2649,80.71168,114.501785
"48346",662.2782,81.10231,114.91466
"48347",662.2915,81.480736,115.32753
"48348",662.3048,81.78104,115.6741
"48349",662.3181,81.95682,115.90554
"48350",662.3314,81.988556,115.99843
"48351",662.3447,81.881134,115.95315
"48352",662.35803,81.6614,115.7922
"48353",662.37134,81.36111,115.54382
"48354",662.38464,81.01198,115.23723
"48355",662.39795,80.64088,114.89775
"48356",662.41125,80.26978,114.546684
"48357",662.42456,79.91821,114.203545
"48358",662.43787,79.588615,113.87139
"48359",662.4512,79.281,113.55092
"48360",662.4645,79.00023,113.24768
"48361",662.4778,78.751205,112.967415
"48362",662.4911,78.536354,112.71354
"48363",662.5044,78.35569,112.48714
"48364",662.5177,78.21408,112.29414
"48365",662.531,78.11154,112.135796
"48366",662.5443,78.048065,112.013306
"48367",662.5576,78.02121,111.92545
"48368",662.5709,78.028534,111.87094
"48369",662.5842,78.07004,111.85084
"48370",662.59753,78.1384,111.85889
"48371",662.61084,78.221405,111.88372
"48372",662.62415,78.30442,111.911156
"48373",662.63745,78.365456,111.919205
"48374",662.65076,78.38987,111.89254
"48375",662.66406,78.37278,111.825134
"48376",662.67737,78.32151,111.723015
"48377",662.6907,78.24582,111.59487
"48378",662.704,78.18234,111.47658
"48379",662.7173,78.184784,111.42222
"48380",662.7306,78.36057,111.54128
"48381",662.7439,78.82933,111.95881
"48382",662.7572,79.65453,112.74743
"48383",662.7705,80.814224,113.896324
"48384",662.7838,82.1741,115.28165
"48385",662.7971,83.529106,116.70459
"48386",662.8104,84.65217,117.937935
"48387",662.8237,85.39193,118.823074
"48388",662.83704,85.69955,119.29919
"48389",662.85034,85.626305,119.40405
"48390",662.86365,85.26986,119.22343
"48391",662.87695,84.732735,118.85098
"48392",662.89026,84.10773,118.37387
"48393",662.90356,83.46319,117.8577
"48394",662.9169,82.847946,117.35068
"48395",662.9302,82.28886,116.880585
"48396",662.9435,81.79813,116.46138
"48397",662.9568,81.36355,116.08299
"48398",662.9701,80.96559,115.727646
"48399",662.9834,80.59205,115.38428
"48400",662.9967,80.26246,115.07319
"48401",663.01,80.0061,114.825035
"48402",663.0233,79.87671,114.69583
"48403",663.0366,79.90845,114.72372
"48404",663.0499,80.09888,114.911285
"48405",663.06323,80.411385,115.22688
"48406",663.07654,80.7776,115.60596
"48407",663.08984,81.12184,115.974495
"48408",663.10315,81.3782,116.26591
"48409",663.11646,81.50515,116.43593
"48410",663.12976,81.48562,116.46343
"48411",663.14307,81.32937,116.35361
"48412",663.1564,81.06813,116.13391
"48413",663.1697,80.73121,115.83037
"48414",663.183,80.35279,115.4748
"48415",663.1963,79.95972,115.09275
"48416",663.2096,79.5642,114.69598
"48417",663.2229,79.185776,114.30393
"48418",663.2362,78.83421,113.926926
"48419",663.2495,78.521706,113.57799
"48420",663.2628,78.25071,113.260796
"48421",663.2761,78.02365,112.97907
"48422",663.2894,77.840546,112.73421
"48423",663.30273,77.68917,112.51535
"48424",663.31604,77.57931,112.333275
"48425",663.32935,77.51095,112.18927
"48426",663.34265,77.48409,112.08463
"48427",663.35596,77.486534,112.00845
"48428",663.36926,77.51339,111.956764
"48429",663.38257,77.54757,111.91324
"48430",663.3959,77.574425,111.86346
"48431",663.4092,77.58663,111.799866
"48432",663.4225,77.58663,111.72445
"48433",663.4358,77.58663,111.64903
"48434",663.4491,77.63546,111.622444
"48435",663.4624,77.823456,111.73655
"48436",663.4757,78.27268,112.11776
"48437",663.489,79.063705,112.854805
"48438",663.5023,80.18921,113.95105
"48439",663.5156,81.54177,115.309525
"48440",663.52893,82.92363,116.73956
"48441",663.54224,84.11261,118.019905
"48442",663.55554,84.93294,118.96875
"48443",663.56885,85.32113,119.51109
"48444",663.58215,85.3016,119.657845
"48445",663.59546,84.96712,119.48904
"48446",663.60876,84.43,119.10714
"48447",663.6221,83.79523,118.6108
"48448",663.6354,83.13847,118.07265
"48449",663.6487,82.52567,117.55792
"48450",663.662,81.991,117.10217
"48451",663.6753,81.54421,116.717606
"48452",663.6886,81.16579,116.387436
"48453",663.7019,80.82887,116.08695
"48454",663.7152,80.51148,115.79546
"48455",663.7285,80.2063,115.50626
"48456",663.7418,79.940186,115.2466
"48457",663.7551,79.75952,115.064064
"48458",663.76843,79.7058,115.00283
"48459",663.78174,79.79126,115.079094
"48460",663.79504,79.99634,115.27765
"48461",663.80835,80.26734,115.54854
"48462",663.82166,80.5359,115.82545
"48463",663.83496,80.73853,116.04483
"48464",663.84827,80.8362,116.16557
"48465",663.8616,80.8069,116.16241
"48466",663.8749,80.65797,116.03869
"48467",663.8882,80.40406,115.80534
"48468",663.9015,80.07446,115.48837
"48469",663.9148,79.70336,115.1196
"48470",663.9281,79.31762,114.72459
"48471",663.9414,78.93919,114.32484
"48472",663.9547,78.58518,113.937675
"48473",663.968,78.26292,113.5712
"48474",663.9813,77.98215,113.236145
"48475",663.9946,77.738,112.92894
"48476",664.00793,77.52804,112.64829
"48477",664.02124,77.3547,112.397705
"48478",664.03455,77.222855,112.1832
"48479",664.04785,77.13252,112.00608
"48480",664.06116,77.083694,111.867645
"48481",664.07446,77.08125,111.77407
"48482",664.08777,77.11055,111.71216
"48483",664.1011,77.15938,111.67069
"48484",664.1144,77.21065,111.633194
"48485",664.1277,77.25704,111.59242
"48486",664.141,77.28634,111.536
"48487",664.1543,77.296104,111.46097
"48488",664.1676,77.29366,111.37403
"48489",664.1809,77.30343,111.299225
"48490",664.1942,77.40597,111.3175
"48491",664.2075,77.713585,111.54405
"48492",664.2208,78.3386,112.09762
"48493",664.23413,79.32983,113.03693
"48494",664.24744,80.62867,114.31483
"48495",664.26074,82.06668,115.772484
"48496",664.27405,83.41924,117.18963
"48497",664.28735,84.471504,118.34874
"48498",664.30066,85.09651,119.11348
"48499",664.31396,85.279625,119.45586
"48500",664.3273,85.101395,119.44261
"48501",664.3406,84.66926,119.16989
"48502",664.3539,84.10773,118.75427
"48503",664.3672,83.51202,118.28693
"48504",664.3805,82.95781,117.84247
"48505",664.3938,82.48661,117.4637
"48506",664.4071,82.11063,117.16542
"48507",664.4204,81.81766,116.93841
"48508",664.4337,81.57351,116.75106
"48509",664.447,81.33669,116.563416
"48510",664.4603,81.08278,116.35127
"48511",664.47363,80.81911,116.12144
"48512",664.48694,80.57984,115.90777
"48513",664.50024,80.40162,115.747665
"48514",664.51355,80.323494,115.68209
"48515",664.52686,80.35035,115.719055
"48516",664.54016,80.45533,115.834984
"48517",664.55347,80.58961,115.98349
"48518",664.5668,80.70191,116.11422
"48519",664.5801,80.75075,116.18499
"48520",664.5934,80.71168,116.16938
"48521",664.6067,80.57984,116.059784
"48522",664.62,80.36744,115.8655
"48523",664.6333,80.08911,115.598656
"48524",664.6466,79.76929,115.28162
"48525",664.6599,79.42748,114.9326
"48526",664.6732,79.08812,114.57535
"48527",664.6865,78.765854,114.22459
"48528",664.6998,78.470436,113.8906
"48529",664.71313,78.204315,113.57668
"48530",664.72644,77.96994,113.286194
"48531",664.73975,77.76242,113.015236
"48532",664.75305,77.58419,112.76708
"48533",664.76636,77.437706,112.545105
"48534",664.77966,77.3254,112.35273
"48535",664.79297,77.24971,112.19346
"48536",664.8063,77.205765,112.06357
"48537",664.8196,77.19112,111.9616
"48538",664.8329,77.19844,111.88115
"48539",664.8462,77.225296,111.82046
"48540",664.8595,77.25948,111.76794
"48541",664.8728,77.298546,111.72136
"48542",664.8861,77.33517,111.67356
"48543",664.8994,77.3547,111.60982
"48544",664.9127,77.35226,111.52471
"48545",664.926,77.32784,111.41756
"48546",664.93933,77.279015,111.285225
"48547",664.95264,77.208206,111.12939
"48548",664.96594,77.117874,110.95181
"48549",664.97925,77.0251,110.768974
"48550",664.99255,76.961624,110.61253
"48551",665.00586,77.02266,110.57862
"48552",665.01917,77.34249,110.80541
"48553",665.0325,78.04318,111.42306
"48554",665.0458,79.15648,112.475204
"48555",665.0591,80.604256,113.89662
"48556",665.0724,82.193634,115.50488
"48557",665.0857,83.67071,117.05051
"48558",665.099,84.805984,118.30049
"48559",665.1123,85.47738,119.12207
"48560",665.1256,85.6849,119.500755
"48561",665.1389,85.50912,119.502625
"48562",665.1522,85.07698,119.242645
"48563",665.1655,84.51789,118.84221
"48564",665.17883,83.94171,118.40721
"48565",665.19214,83.4168,118.00548
"48566",665.20544,82.98711,117.682556
"48567",665.21875,82.66239,117.45119
"48568",665.23206,82.41337,117.28536
"48569",665.24536,82.193634,117.141045
"48570",665.25867,81.95926,116.97522
"48571",665.272,81.688255,116.76544
"48572",665.2853,81.38552,116.515465
"48573",665.2986,81.09743,116.27067
"48574",665.3119,80.867935,116.07547
"48575",665.3252,80.73609,115.97075
"48576",665.3385,80.70435,115.96201
"48577",665.3518,80.7483,116.02797
"48578",665.3651,80.81911,116.12216
"48579",665.3784,80.87526,116.20391
"48580",665.3917,80.87282,116.22882
"48581",665.405,80.79225,116.17553
"48582",665.41833,80.62867,116.036705
"48583",665.43164,80.38941,115.81709
"48584",665.44495,80.08667,115.52652
"48585",665.45825,79.74731,115.189865
"48586",665.47156,79.398186,114.83285
"48587",665.48486,79.046616,114.46247
"48588",665.49817,78.712135,114.0982
"48589",665.5115,78.40696,113.75278
"48590",665.5248,78.133514,113.42955
"48591",665.5381,77.8967,113.13441
"48592",665.5514,77.69405,112.866035
"48593",665.5647,77.52804,112.62796
"48594",665.578,77.3962,112.41888
"48595",665.5913,77.298546,112.23985
"48596",665.6046,77.225296,112.082184
"48597",665.6179,77.18135,111.95153
"48598",665.6312,77.15694,111.839035
"48599",665.64453,77.14229,111.73554
"48600",665.65784,77.137405,111.64136
"48601",665.67114,77.13252,111.54702
"48602",665.68445,77.12764,111.45253
"48603",665.69775,77.117874,111.353004
"48604",665.71106,77.0959,111.24097
"48605",665.72437,77.05684,111.11115
"48606",665.7377,77.00801,110.97035
"48607",665.751,76.9543,110.82314
"48608",665.7643,76.90303,110.6767
"48609",665.7776,76.859085,110.53597
"48610",665.7909,76.81758,110.39632
"48611",665.8042,76.771194,110.25048
"48612",665.8175,76.72236,110.100746
"48613",665.8308,76.66132,109.93729
"48614",665.8441,76.58564,109.75727
"48615",665.8574,76.507515,109.57245
"48616",665.8707,76.43183,109.38763
"48617",665.88403,76.368355,109.21265
"48618",665.89734,76.34638,109.07719
"48619",665.91064,76.46357,109.0802
"48620",665.92395,76.85664,109.36276
"48621",665.93726,77.65255,110.06044
"48622",665.95056,78.88548,111.22002
"48623",665.96387,80.46754,112.76724
"48624",665.9772,82.18143,114.49574
"48625",665.9905,83.75372,116.13621
"48626",666.0038,84.93782,117.43761
"48627",666.0171,85.609215,118.263306
"48628",666.0304,85.785,118.61438
"48629",666.0437,85.56283,118.57298
"48630",666.057,85.07942,118.26341
"48631",666.0703,84.473946,117.816666
"48632",666.0836,83.85138,117.33391
"48633",666.0969,83.28985,116.89273
"48634",666.1102,82.83818,116.54387
"48635",666.12354,82.50126,116.29564
"48636",666.13684,82.262,116.134544
"48637",666.15015,82.074005,116.017235
"48638",666.16345,81.88602,115.89406
"48639",666.17676,81.65896,115.72594
"48640",666.19006,81.39529,115.51411
"48641",666.20337,81.13161,115.29403
"48642",666.2167,80.907,115.10478
"48643",666.23,80.77028,114.99641
"48644",666.2433,80.73609,114.98629
"48645",666.2566,80.77516,115.04836
"48646",666.2699,80.848404,115.14583
"48647",666.2832,80.902115,115.22605
"48648",666.2965,80.89723,115.24936
"48649",666.3098,80.80934,115.18951
"48650",666.3231,80.64332,115.048775
"48651",666.3364,80.4065,114.83206
"48652",666.34973,80.11597,114.55423
"48653",666.36304,79.79126,114.23315
"48654",666.37634,79.45434,113.8897
"48655",666.38965,79.11986,113.53817
"48656",666.40295,78.802475,113.19328
"48657",666.41626,78.51194,112.865326
"48658",666.42957,78.25071,112.557594
"48659",666.4429,78.02365,112.27587
"48660",666.4562,77.823456,112.013916
"48661",666.4695,77.65499,111.777435
"48662",666.4828,77.52071,111.56988
"48663",666.4961,77.420616,111.3923
"48664",666.5094,77.349815,111.2409
"48665",666.5227,77.30587,111.114136
"48666",666.536,77.281456,111.00553
"48667",666.5493,77.26925,110.90837
"48668",666.5626,77.261925,110.81571
"48669",666.5759,77.2546,110.722824
"48670",666.58923,77.24483,110.62726
"48671",666.60254,77.225296,110.52163
"48672",666.61584,77.20088,110.41051
"48673",666.62915,77.16914,110.2913
"48674",666.64246,77.13252,110.166214
"48675",666.65576,77.09346,110.037544
"48676",666.66907,77.04463,109.89789
"48677",666.6824,76.98848,109.74938
"48678",666.6957,76.925,109.5918
"48679",666.709,76.86397,109.43467
"48680",666.7223,76.80049,109.27319
"48681",666.7356,76.74677,109.11949
"48682",666.7489,76.700386,108.97144
"48683",666.7622,76.66865,108.83659
"48684",666.7755,76.63935,108.70319
"48685",666.7888,76.61494,108.57376
"48686",666.8021,76.592964,108.44601
"48687",666.8154,76.56611,108.31268
"48688",666.82874,76.53925,108.17852
"48689",666.84204,76.5124,108.04352
"48690",666.85535,76.50507,107.92721
"48691",666.86865,76.57343,107.88635
"48692",666.88196,76.83711,108.04295
"48693",666.89526,77.435265,108.54227
"48694",666.90857,78.46067,109.487526
"48695",666.9219,79.88159,110.860344
"48696",666.9352,81.53689,112.51194
"48697",666.9485,83.18242,114.2055
"48698",666.9618,84.55695,115.67948
"48699",666.9751,85.46517,116.7301
"48700",666.9884,85.858246,117.29396
"48701",667.0017,85.79965,117.418434
"48702",667.015,85.41146,117.21148
"48703",667.0283,84.82796,116.79708
"48704",667.0416,84.1712,116.2912
"48705",667.05493,83.543755,115.7941
"48706",667.06824,83.00908,115.37016
"48707",667.08154,82.6038,115.058914
"48708",667.09485,82.320595,114.85708
"48709",667.10815,82.127716,114.73672
"48710",667.12146,81.97635,114.65184
"48711",667.13477,81.812775,114.550026
"48712",667.1481,81.617455,114.411354
"48713",667.1614,81.40017,114.24461
"48714",667.1747,81.197525,114.085724
"48715",667.188,81.05348,113.9791
"48716",667.2013,80.99489,113.95343
"48717",667.2146,81.01686,114.00649
"48718",667.2279,81.08278,114.10419
"48719",667.2412,81.146255,114.2015
"48720",667.2545,81.16823,114.25929
"48721",667.2678,81.129166,114.25674
"48722",667.2811,81.0193,114.18216
"48723",667.29443,80.83864,114.03335
"48724",667.30774,80.59693,113.81785
"48725",667.32104,80.31129,113.55086
"48726",667.33435,79.99634,113.245636
"48727",667.34766,79.674065,112.92325
"48728",667.36096,79.35424,112.59324
"48729",667.37427,79.05394,112.27276
"48730",667.3876,78.77806,111.967316
"48731",667.4009,78.53391,111.68498
"48732",667.4142,78.31663,111.42188
"48733",667.4275,78.135956,111.18861
"48734",667.4408,77.98459,110.97899
"48735",667.4541,77.8674,110.79882
"48736",667.4674,77.78195,110.64673
"48737",667.4807,77.72335,110.518814
"48738",667.494,77.68673,110.41105
"48739",667.5073,77.66964,110.32167
"48740",667.5206,77.6672,110.24641
"48741",667.53394,77.66964,110.17595
"48742",667.54724,77.67452,110.10801
"48743",667.56055,77.67696,110.03778
"48744",667.57385,77.67696,109.96519
"48745",667.58716,77.66476,109.88039
"48746",667.60046,77.64034,109.783
"48747",667.6138,77.59884,109.667755
"48748",667.6271,77.54269,109.53657
"48749",667.6404,77.469444,109.386536
"48750",667.6537,77.39376,109.23177
"48751",667.667,77.313194,109.06976
"48752",667.6803,77.23506,108.90767
"48753",667.6936,77.1667,108.75291
"48754",667.7069,77.10811,108.605774
"48755",667.7202,77.05928,108.466576
"48756",667.7335,77.01778,108.333176
"48757",667.7468,76.98848,108.210686
"48758",667.76013,76.96651,108.094604
"48759",667.77344,76.94942,107.98272
"48760",667.78674,76.927444,107.86542
"48761",667.80005,76.90303,107.74499
"48762",667.81335,76.876175,107.62135
"48763",667.82666,76.84688,107.49444
"48764",667.83997,76.82735,107.37637
"48765",667.8533,76.84932,107.2992
"48766",667.8666,76.99092,107.34235
"48767",667.8799,77.38644,107.64383
"48768",667.8932,78.15793,108.33365
"48769",667.9065,79.34692,109.46507
"48770",667.9198,80.87038,110.968124
"48771",667.9331,82.54032,112.66527
"48772",667.9464,84.09796,114.30229
"48773",667.9597,85.30648,115.63887
"48774",667.973,86.03403,116.53224
"48775",667.9863,86.278175,116.96495
"48776",667.99963,86.1268,117.009766
"48777",668.01294,85.69955,116.77397
"48778",668.02625,85.120926,116.37346
"48779",668.03955,84.5008,115.91336
"48780",668.05286,83.9173,115.470505
"48781",668.06616,83.421684,115.097305
"48782",668.07947,83.04082,114.823364
"48783",668.0928,82.77226,114.64983
"48784",668.1061,82.59159,114.55579
"48785",668.1194,82.44755,114.49274
"48786",668.1327,82.29618,114.417854
"48787",668.146,82.11795,114.31138
"48788",668.1593,81.917755,114.17737
"48789",668.1726,81.72976,114.0493
"48790",668.1859,81.600365,113.97396
"48791",668.1992,81.549095,113.9727
"48792",668.2125,81.57107,114.04308
"48793",668.2258,81.634544,114.155655
"48794",668.23914,81.69558,114.26777
"48795",668.25244,81.71755,114.34273
"48796",668.26575,81.67849,114.35734
"48797",668.27905,81.56374,114.295044
"48798",668.29236,81.3782,114.15836
"48799",668.30566,81.126724,113.94996
"48800",668.319,80.82643,113.684875
"48801",668.3323,80.49439,113.37866
"48802",668.3456,80.15259,113.05231
"48803",668.3589,79.81323,112.71772
"48804",668.3722,79.49096,112.38961
"48805",668.3855,79.19554,112.078285
"48806",668.3988,78.922104,111.77971
"48807",668.4121,78.677956,111.50188
"48808",668.4254,78.46311,111.24572
"48809",668.4387,78.27512,111.009705
"48810",668.452,78.116425,110.797104
"48811",668.46533,77.98947,110.61129
"48812",668.47864,77.891815,110.450806
"48813",668.49194,77.81857,110.31168
"48814",668.50525,77.76486,110.189804
"48815",668.51855,77.730675,110.08577
"48816",668.53186,77.70626,109.99044
"48817",668.54517,77.68917,109.90167
"48818",668.5585,77.67452,109.81481
"48819",668.5718,77.65499,109.72261
"48820",668.5851,77.628136,109.622475
"48821",668.5984,77.593956,109.514175
"48822",668.6117,77.55001,109.39504
"48823",668.625,77.49386,109.26233
"48824",668.6383,77.42794,109.118095
"48825",668.6516,77.3547,108.96448
"48826",668.6649,77.27657,108.80369
"48827",668.6782,77.196,108.63801
"48828",668.6915,77.120316,108.4747
"48829",668.70483,77.051956,108.31635
"48830",668.71814,76.99092,108.16319
"48831",668.73145,76.93721,108.01545
"48832",668.74475,76.8835,107.86603
"48833",668.75806,76.83223,107.71737
"48834",668.77136,76.78096,107.56711
"48835",668.78467,76.73945,107.425
"48836",668.798,76.6955,107.27917
"48837",668.8113,76.65644,107.13684
"48838",668.8246,76.61982,106.995735
"48839",668.8379,76.60273,106.87302
"48840",668.8512,76.646675,106.8108
"48841",668.8645,76.86153,106.92086
"48842",668.8778,77.38888,107.350136
"48843",668.8911,78.32151,108.20117
"48844",668.9044,79.65209,109.4793
"48845",668.9177,81.26589,111.08223
"48846",668.931,82.9456,112.8015
"48847",668.94434,84.44465,114.39259
"48848",668.95764,85.56039,115.647224
"48849",668.97095,86.20981,116.470406
"48850",668.98425,86.414894,116.869545
"48851",668.99756,86.261086,116.9162
"48852",669.01086,85.85336,116.70413
"48853",669.0242,85.29916,116.33284
"48854",669.0375,84.69611,115.89539
"48855",669.0508,84.11505,115.46108
"48856",669.0641,83.60967,115.0843
"48857",669.0774,83.20439,114.79182
"48858",669.0907,82.896774,114.584335
"48859",669.104,82.66239,114.440475
"48860",669.1173,82.46708,114.32836
"48861",669.1306,82.27665,114.21503
"48862",669.1439,82.08377,114.09329
"48863",669.1572,81.90799,113.98263
"48864",669.17053,81.77615,113.910416
"48865",669.18384,81.71999,113.90976
"48866",669.19714,81.74197,113.98548
"48867",669.21045,81.832306,114.13026
"48868",669.22375,81.951935,114.307144
"48869",669.23706,82.05203,114.46824
"48870",669.25037,82.09598,114.57631
"48871",669.2637,82.06668,114.61251
"48872",669.277,81.94705,114.557465
"48873",669.2903,81.74441,114.415665
"48874",669.3036,81.47097,114.19674
"48875",669.3169,81.143814,113.91555
"48876",669.3302,80.78981,113.59729
"48877",669.3435,80.42359,113.25575
"48878",669.3568,80.062256,112.90765
"48879",669.3701,79.72045,112.567795
"48880",669.3834,79.40551,112.24412
"48881",669.3967,79.114975,111.935005
"48882",669.41003,78.86107,111.65344
"48883",669.42334,78.63645,111.393234
"48884",669.43665,78.44846,111.162636
"48885",669.44995,78.28733,110.95302
"48886",669.46326,78.16037,110.77254
"48887",669.47656,78.065155,110.619835
"48888",669.48987,77.994354,110.48857
"48889",669.5032,77.945526,110.37707
"48890",669.5165,77.92111,110.28845
"48891",669.5298,77.91379,110.21616
"48892",669.5431,77.92111,110.158295
"48893",669.5564,77.93332,110.10554
"48894",669.5697,77.93088,110.03851
"48895",669.583,77.91379,109.956764
"48896",669.5963,77.88205,109.85983
"48897",669.6096,77.83566,109.74726
"48898",669.6229,77.78195,109.625916
"48899",669.6362,77.72335,109.498
"48900",669.64954,77.6672,109.370705
"48901",669.66284,77.61349,109.244095
"48902",669.67615,77.56466,109.12069
"48903",669.68945,77.51583,108.99576
"48904",669.70276,77.469444,108.87174
"48905",669.71606,77.42306,108.74628
"48906",669.7294,77.37667,108.61936
"48907",669.7427,77.3254,108.486115
"48908",669.756,77.26925,108.34638
"48909",669.7693,77.21065,108.202446
"48910",669.7826,77.14961,108.054245
"48911",669.7959,77.086136,107.901695
"48912",669.8092,77.03487,107.75937
"48913",669.8225,77.02754,107.659386
"48914",669.8358,77.15694,107.69589
"48915",669.8491,77.56222,108.01233
"48916",669.8624,78.36057,108.734505
"48917",669.87573,79.59594,109.91864
"48918",669.88904,81.1902,111.500275
"48919",669.90234,82.948044,113.29531
"48920",669.91565,84.60578,115.04517
"48921",669.92896,85.93149,116.51481
"48922",669.94226,86.783554,117.55223
"48923",669.95557,87.14732,118.12798
"48924",669.9689,87.09361,118.29762
"48925",669.9822,86.73228,118.15796
"48926",669.9955,86.17563,117.81169
"48927",670.0088,85.523766,117.35281
"48928",670.0221,84.857254,116.85892
"48929",670.0354,84.23956,116.39301
"48930",670.0487,83.70977,115.995705
"48931",670.062,83.28008,115.681946
"48932",670.0753,82.93584,115.4402
"48933",670.0886,82.650185,115.24629
"48934",670.1019,82.388954,115.06788
"48935",670.11523,82.13748,114.89106
"48936",670.12854,81.91531,114.73569
"48937",670.14185,81.75906,114.63929
"48938",670.15515,81.7029,114.6381
"48939",670.16846,81.75418,114.74259
"48940",670.18176,81.900665,114.94389
"48941",670.19507,82.09354,115.19616
"48942",670.2084,82.27665,115.444695
"48943",670.2217,82.39628,115.63547
"48944",670.235,82.425575,115.73965
"48945",670.2483,82.34745,115.73732
"48946",670.2616,82.16678,115.630005
"48947",670.2749,81.89578,115.42672
"48948",670.2882,81.55886,115.14904
"48949",670.3015,81.17799,114.81689
"48950",670.3148,80.77516,114.45087
"48951",670.3281,80.36744,114.06737
"48952",670.34143,79.96948,113.68089
"48953",670.35474,79.5935,113.303955
"48954",670.36804,79.24925,112.94701
"48955",670.38135,78.93675,112.611046
"48956",670.39465,78.66331,112.304375
"48957",670.40796,78.42649,112.02579
"48958",670.42126,78.22629,111.77641
"48959",670.4346,78.06271,111.55741
"48960",670.4479,77.93088,111.365036
"48961",670.4612,77.82834,111.19784
"48962",670.4745,77.76242,111.06406
"48963",670.4878,77.72335,110.95506
"48964",670.5011,77.71114,110.87171
"48965",670.5144,77.71114,110.800186
"48966",670.5277,77.72091,110.73843
"48967",670.541,77.730675,110.67697
"48968",670.5543,77.74044,110.61582
"48969",670.5676,77.74532,110.550095
"48970",670.58093,77.74044,110.474754
"48971",670.59424,77.72091,110.38461
"48972",670.60754,77.68917,110.281654
"48973",670.62085,77.65011,110.17038
"48974",670.63416,77.60372,110.05056
"48975",670.64746,77.55978,109.93173
"48976",670.66077,77.51827,109.81397
"48977",670.6741,77.47433,109.692474
"48978",670.6874,77.4255,109.56472
"48979",670.7007,77.36935,109.428116
"48980",670.714,77.30099,109.27755
"48981",670.7273,77.21553,109.10775
"48982",670.7406,77.13008,108.93529
"48983",670.7539,77.049515,108.76504
"48984",670.7672,77.02266,108.64598
"48985",670.7805,77.137405,108.66769
"48986",670.7938,77.5378,108.97863
"48987",670.8071,78.345924,109.70981
"48988",670.82043,79.61303,110.925224
"48989",670.83374,81.25124,112.551346
"48990",670.84705,83.06767,114.406876
"48991",670.86035,84.79378,116.22884
"48992",670.87366,86.187836,117.772705
"48993",670.88696,87.10094,118.87917
"48994",670.90027,87.50622,119.506355
"48995",670.9136,87.47448,119.70918
"48996",670.9269,87.11803,119.5863
"48997",670.9402,86.556496,119.24721
"48998",670.9535,85.88754,118.78314
"48999",670.9668,85.19661,118.27619
"49000",670.9801,84.53986,117.78184
"49001",670.9934,83.95636,117.3402
"49002",671.0067,83.44854,116.95602
"49003",671.02,83.00664,116.62188
"49004",671.0333,82.61845,116.327644
"49005",671.04663,82.26444,116.055466
"49006",671.05994,81.951935,115.81372
"49007",671.07324,81.71023,115.63301
"49008",671.08655,81.58083,115.55706
"49009",671.09985,81.583275,115.6089
"49010",671.11316,81.71999,115.7951
"49011",671.12646,81.951935,116.08079
"49012",671.1398,82.22049,116.41034
"49013",671.1531,82.45731,116.71655
"49014",671.1664,82.62089,116.95692
"49015",671.1797,82.667274,117.085205
"49016",671.193,82.58427,117.08555
"49017",671.2063,82.37675,116.958786
"49018",671.2196,82.06912,116.72543
"49019",671.2329,81.68337,116.40434
"49020",671.2462,81.253685,116.02726
"49021",671.2595,80.80446,115.61721
"49022",671.2728,80.360115,115.198006
"49023",671.28613,79.937744,114.78689
"49024",671.29944,79.54223,114.38943
"49025",671.31274,79.183334,114.01623
"49026",671.32605,78.873276,113.68065
"49027",671.33936,78.60227,113.374435
"49028",671.35266,78.37278,113.101265
"49029",671.36597,78.18234,112.85998
"49030",671.3793,78.02609,112.64693
"49031",671.3926,77.90402,112.46317
"49032",671.4059,77.806366,112.30002
"49033",671.4192,77.73556,112.16066
"49034",671.4325,77.68429,112.03863
"49035",671.4458,77.64767,111.92964
"49036",671.4591,77.62325,111.83172
"49037",671.4724,77.60616,111.74036
"49038",671.4857,77.58663,111.64602
"49039",671.499,77.56954,111.55351
"49040",671.5123,77.55001,111.45803
"49041",671.52563,77.5256,111.357056
"49042",671.53894,77.49386,111.24799
"49043",671.55225,77.46212,111.13794
"49044",671.56555,77.4255,111.02201
"49045",671.57886,77.37667,110.89273
"49046",671.59216,77.313194,110.74728
"49047",671.60547,77.239944,110.590065
"49048",671.6188,77.154495,110.418365
"49049",671.6321,77.05928,110.23423
"49050",671.6454,76.95918,110.04224
"49051",671.6587,76.86153,109.849556
"49052",671.672,76.77608,109.66603
"49053",671.6853,76.72236,109.511566
"49054",671.6986,76.77852,109.4653
"49055",671.7119,77.08125,109.667366
"49056",671.7252,77.76486,110.259766
"49057",671.7385,78.91234,111.337395
"49058",671.75183,80.48707,112.878136
"49059",671.76514,82.33036,114.73665
"49060",671.77844,84.18585,116.66496
"49061",671.79175,85.787445,118.39736
"49062",671.80505,86.942245,119.73302
"49063",671.81836,87.57946,120.58717
"49064",671.83167,87.73571,120.980286
"49065",671.845,87.50378,120.9901
"49066",671.8583,86.99596,120.71677
"49067",671.8716,86.32456,120.26399
"49068",671.8849,85.58968,119.72675
"49069",671.8982,84.86702,119.178764
"49070",671.9115,84.19562,118.659454
"49071",671.9514,82.652626,117.45746
"49072",671.9647,82.2449,117.13263
"49073",671.978,81.89334,116.85122
"49074",671.99133,81.62234,116.63938
"49075",672.00464,81.45876,116.526505
"49076",672.01794,81.43191,116.545235
"49077",672.03125,81.549095,116.70717
"49078",672.04456,81.76883,116.97531
"49079",672.05786,82.03006,117.29182
"49080",672.07117,82.269325,117.59452
"49081",672.0845,82.4329,117.82901
"49082",672.0978,82.47929,117.95142
"49083",672.1111,82.39872,117.94833
"49084",672.1244,82.18631,117.81088
"49085",672.1377,81.864044,117.55694
"49086",672.151,81.45876,117.20991
"49087",672.1643,80.99733,116.79406
"49088",672.1776,80.5066,116.334496
"49089",672.1909,80.01099,115.85471
"49090",672.2042,79.53246,115.37653
"49091",672.2175,79.080795,114.910255
"49092",672.23083,78.66331,114.46404
"49093",672.24414,78.28245,114.04141
"49094",672.25745,77.943085,113.64838
"49095",672.27075,77.65011,113.29112
"49096",672.28406,77.40353,112.97111
"49097",672.29736,77.20332,112.689766
"49098",672.31067,77.04463,112.44368
"49099",672.324,76.929886,112.23658
"49100",672.3373,76.84932,112.060074
"49101",672.3506,76.80293,111.91523
"49102",672.3639,76.78584,111.79823
"49103",672.3772,76.788284,111.70023
"49104",672.3905,76.80049,111.612076
"49105",672.4038,76.81514,111.52674
"49106",672.4171,76.82735,111.43942
"49107",672.4304,76.82979,111.34272
"49108",672.4437,76.82735,111.24121
"49109",672.45703,76.81758,111.1323
"49110",672.47034,76.80293,111.0182
"49111",672.48364,76.77608,110.89144
"49112",672.49695,76.734566,110.74918
"49113",672.51025,76.6833,110.59587
"49114",672.52356,76.62226,110.43119
"49115",672.53687,76.54658,110.249954
"49116",672.5502,76.46357,110.05903
"49117",672.5635,76.3708,109.85574
"49118",672.5768,76.2707,109.642235
"49119",672.5901,76.16571,109.42071
"49120",672.6034,76.0827,109.21788
"49121",672.6167,76.068054,109.08082
"49122",672.63,76.241394,109.13129
"49123",672.6433,76.76143,109.53387
"49124",672.6566,77.752655,110.42389
"49125",672.6699,79.234604,111.83561
"49126",672.6832,81.10475,113.68184
"49127",672.69653,83.13115,115.74276
"49128",672.70984,85.02815,117.73761
"49129",672.72314,86.54185,119.40843
"49130",672.73645,87.535515,120.60653
"49131",672.74976,87.99451,121.30101
"49132",672.76306,87.98474,121.54108
"49133",672.77637,87.61364,121.419495
"49134",672.7897,87.00084,121.04462
"49135",672.803,86.258644,120.521194
"49136",672.8163,85.472496,119.930626
"49137",672.8296,84.715645,119.34479
"49138",672.8429,84.02228,118.79878
"49139",672.8562,83.407036,118.309235
"49140",672.8695,82.85771,117.86638
"49141",672.8828,82.3621,117.46007
"49142",672.8961,81.91531,117.0871
"49143",672.9094,81.54177,116.77341
"49144",672.9227,81.27566,116.55547
"49145",672.93604,81.15602,116.4757
"49146",672.94934,81.19997,116.55577
"49147",672.96265,81.392845,116.78615
"49148",672.97595,81.67849,117.11532
"49149",672.98926,81.98367,117.47295
"49150",673.00256,82.24246,117.79373
"49151",673.01587,82.39384,118.01518
"49152",673.0292,82.41093,118.10708
"49153",673.0425,82.286415,118.05791
"49154",673.0558,82.03006,117.873
"49155",673.0691,81.66384,117.57022
"49156",673.0824,81.21706,117.17543
"49157",673.0957,80.723885,116.72029
"49158",673.109,80.20874,116.22777
"49159",673.1223,79.70336,115.72891
"49160",673.1356,79.21263,115.22891
"49161",673.1489,78.75365,114.74532
"49162",673.16223,78.32639,114.27912
"49163",673.17554,77.9382,113.83863
"49164",673.18884,77.58907,113.42507
"49165",673.20215,77.28878,113.04944
"49166",673.21545,77.03731,112.71324
"49167",673.22876,76.83467,112.41802
"49168",673.24207,76.6833,112.16773
"49169",673.2554,76.58564,111.96643
"49170",673.2687,76.53193,111.80602
"49171",673.282,76.52216,111.68788
"49172",673.2953,76.544136,111.60117
"49173",673.3086,76.58808,111.537125
"49174",673.3219,76.63691,111.47933
"49175",673.3352,76.68818,111.42551
"49176",673.3485,76.734566,111.3684
"49177",673.3618,76.76631,111.2981
"49178",673.3751,76.79317,111.22391
"49179",673.3884,76.80293,111.13346
"49180",673.40173,76.79805,111.02867
"49181",673.41504,76.77852,110.90908
"49182",673.42834,76.734566,110.76446
"49183",673.44165,76.663765,110.59161
"49184",673.45496,76.57099,110.394585
"49185",673.46826,76.456245,110.17268
"49186",673.48157,76.33173,109.93743
"49187",673.4949,76.22186,109.71293
"49188",673.5082,76.19745,109.57045
"49189",673.5215,76.39033,109.6445
"49190",673.5348,76.946976,110.08835
"49191",673.5481,77.98215,111.028114
"49192",673.5614,79.50561,112.48852
"49193",673.5747,81.38552,114.35298
"49194",673.588,83.37774,116.3885
"49195",673.6013,85.20393,118.320244
"49196",673.6146,86.6273,119.90623
"49197",673.6279,87.52819,121.01422
"49198",673.64124,87.904175,121.62546
"49199",673.65454,87.835815,121.80411
"49200",673.66785,87.42809,121.64125
"49201",673.68115,86.800644,121.245926
"49202",673.69446,86.05112,120.708916
"49203",673.70776,85.25765,120.104546
"49204",673.72107,84.48127,119.49246
"49205",673.7344,83.75128,118.90251
"49206",673.7477,83.06523,118.33369
"49207",673.761,82.41581,117.78005
"49208",673.7743,81.812775,117.25251
"49209",673.7876,81.27322,116.7696
"49210",673.8009,80.85329,116.38946
"49211",673.8142,80.60914,116.171974
"49212",673.8275,80.57984,116.16171
"49213",673.8408,80.76784,116.36783
"49214",673.8541,81.12184,116.74583
"49215",673.86743,81.56374,117.222786
"49216",673.88074,82.005646,117.713554
"49217",673.89404,82.36454,118.135124
"49218",673.90735,82.579384,118.42386
"49219",673.92065,82.61845,118.543526
"49220",673.93396,82.48173,118.48863
"49221",673.94727,82.18875,118.27321
"49222",673.9606,81.77371,117.92657
"49223",673.9739,81.2781,117.48638
"49224",673.9872,80.73365,116.98187
"49225",674.0005,80.177,116.44815
"49226",674.0138,79.622795,115.899475
"49227",674.0271,79.08324,115.34813
"49228",674.0404,78.57786,114.8141
"49229",674.0537,78.11398,114.305786
"49230",674.067,77.70138,113.83424
"49231",674.0803,77.34005,113.401085
"49232",674.0936,77.03975,113.01766
"49233",674.10693,76.80293,112.68834
"49234",674.12024,76.629585,112.415085
"49235",674.13354,76.51728,112.19746
"49236",674.14685,76.470894,112.04224
"49237",674.16016,76.48066,111.94172
"49238",674.17346,76.544136,111.89522
"49239",674.18677,76.64179,111.88488
"49240",674.2001,76.75899,111.89713
"49241",674.2134,76.87129,111.90816
"49242",674.2267,76.96651,111.9056
"49243",674.24,77.01778,111.862076
"49244",674.2533,77.02998,111.78109
"49245",674.2666,76.995804,111.6541
"49246",674.2799,76.925,111.48942
"49247",674.2932,76.841995,111.31032
"49248",674.3065,76.81026,111.17989
"49249",674.3198,76.944534,111.21449
"49250",674.3331,77.39376,111.56824
"49251",674.34644,78.28001,112.37304
"49252",674.35974,79.64233,113.68161
"49253",674.37305,81.39773,115.425835
"49254",674.38635,83.33868,117.41046
"49255",674.39966,85.19905,119.37517
"49256",674.41296,86.73472,121.0733
"49257",674.4263,87.78699,122.33603
"49258",674.4396,88.31678,123.10916
"49259",674.4529,88.36561,123.41789
"49260",674.4662,88.04089,123.3546
"49261",674.4795,87.45739,123.02237
"49262",674.4928,86.73228,122.530304
"49263",674.5061,85.9559,121.96431
"49264",674.5194,85.186844,121.38137
"49265",674.5327,84.454414,120.81103
"49266",674.546,83.75128,120.24709
"49267",674.5593,83.06279,119.67583
"49268",674.57263,82.391396,119.10014
"49269",674.58594,81.76883,118.55231
"49270",674.59924,81.25613,118.09488
"49271",674.61255,80.92897,117.80698
"49272",674.62585,80.83864,117.745674
"49273",674.63916,80.990005,117.92325
"49274",674.65247,81.33181,118.29599
"49275",674.6658,81.78348,118.789276
"49276",674.6791,82.24246,119.30399
"49277",674.6924,82.616005,119.74761
"49278",674.7057,82.84306,120.05642
"49279",674.719,82.88701,120.18921
"49280",674.7323,82.738075,120.13049
"49281",674.7456,82.41581,119.89379
"49282",674.7589,81.95438,119.50785
"49283",674.7722,81.40261,119.01716
"49284",674.7855,80.79469,118.45307
"49285",674.7988,80.16968,117.85289
"49286",674.81213,79.551994,117.24051
"49287",674.82544,78.96605,116.640564
"49288",674.83875,78.41428,116.05649
"49289",674.85205,77.91379,115.50644
"49290",674.86536,77.469444,114.9969
"49291",674.87866,77.0959,114.54428
"49292",674.89197,76.79805,114.15568
"49293",674.9053,76.5832,113.84077
"49294",674.9186,76.45136,113.60216
"49295",674.9319,76.387886,113.42779
"49296",674.9452,76.385445,113.31247
"49297",674.9585,76.42451,113.23858
"49298",674.9718,76.47578,113.178116
"49299",674.9851,76.524605,113.11681
"49300",674.9984,76.561226,113.04483
"49301",675.0117,76.58076,112.9569
"49302",675.025,76.60273,112.872025
"49303",675.0383,76.68574,112.84887
"49304",675.05164,76.94942,113.00898
"49305",675.06494,77.53536,113.499596
"49306",675.07825,78.57053,114.45775
"49307",675.09155,80.10132,115.94386
"49308",675.10486,82.04227,117.88798
"49309",675.11816,84.18585,120.09538
"49310",675.1315,86.25132,122.29166
"49311",675.1448,87.97742,124.213104
"49312",675.1581,89.18593,125.67091
"49313",675.1714,89.83292,126.604965
"49314",675.1847,89.95987,127.0392
"49315",675.198,89.67666,127.06724
"49316",675.2113,89.110245,126.80322
"49317",675.2246,88.38758,126.36525
"49318",675.2379,87.603874,125.84366
"49319",675.2512,86.83971,125.31711
"49320",675.2645,86.12436,124.8155
"49321",675.27783,85.4432,124.32572
"49322",675.29114,84.77669,123.82931
"49323",675.30444,84.1004,123.30229
"49324",675.31775,83.43145,122.761475
"49325",675.33105,82.81865,122.255905
"49326",675.34436,82.340126,121.86546
"49327",675.35767,82.0618,121.66026
"49328",675.371,82.003204,121.6661
"49329",675.3843,82.1326,121.85809
"49330",675.3976,82.374306,122.16644
"49331",675.4109,82.633095,122.49943
"49332",675.4242,82.82597,122.77459
"49333",675.4375,82.882126,122.91905
"49334",675.4508,82.77226,122.899254
"49335",675.4641,82.49149,122.70512
"49336",675.4774,82.054474,122.345955
"49337",675.4907,81.49294,121.848625
"49338",675.504,80.84596,121.2483
"49339",675.51733,80.15503,120.5838
"49340",675.53064,79.45434,119.887955
"49341",675.54395,78.77074,119.1873
"49342",675.55725,78.12863,118.50678
"49343",675.57056,77.54513,117.8648
"49344",675.58386,77.0251,117.26806
"49345",675.59717,76.578316,116.72831
"49346",675.6105,76.21454,116.25761
"49347",675.6238,75.931335,115.85611
"49348",675.6371,75.73113,115.52876
"49349",675.6504,75.60662,115.27085
"49350",675.6637,75.545586,115.072525
"49351",675.677,75.526054,114.913795
"49352",675.6903,75.53338,114.78131
"49353",675.7036,75.53826,114.646614
"49354",675.7169,75.528496,114.49742
"49355",675.7302,75.50164,114.33083
"49356",675.7435,75.4699,114.15852
"49357",675.75684,75.45525,114.00231
"49358",675.77014,75.528496,113.93353
"49359",675.78345,75.8288,114.0941
"49360",675.79675,76.52705,114.662
"49361",675.81006,77.76486,115.79129
"49362",675.82336,79.58129,117.53787
"49363",675.8367,81.881134,119.82463
"49364",675.85,84.41047,122.41275
"49365",675.8633,86.84215,124.982254
"49366",675.8766,88.87831,127.23223
"49367",675.8899,90.321205,128.95258
"49368",675.9032,91.11955,130.07346
"49369",675.9165,91.32952,130.6309
"49370",675.9298,91.07805,130.73347
"49371",675.9431,90.51896,130.52057
"49372",675.9564,89.796295,130.12662
"49373",675.9697,89.02968,129.66614
"49374",675.98303,88.292366,129.211
"49375",675.99634,87.60876,128.78653
"49376",676.00964,86.95445,128.37
"49377",676.02295,86.278175,127.91104
"49378",676.03625,85.5433,127.37235
"49379",676.04956,84.7596,126.76188
"49380",676.06287,83.97833,126.12935
"49381",676.0762,83.27764,125.55298
"49382",676.0895,82.738075,125.11584
"49383",676.1028,82.391396,124.85472
"49384",676.1161,82.2327,124.77075
"49385",676.1294,82.19119,124.79902
"49386",676.1427,82.19119,124.86749
"49387",676.156,82.15213,124.896904
"49388",676.1693,82.01297,124.825
"49389",676.1826,81.72732,124.60225
"49390",676.1959,81.29519,124.2241
"49391",676.2092,80.726326,123.69571
"49392",676.22253,80.05249,123.04457
"49393",676.23584,79.30785,122.301575
"49394",676.24915,78.538795,121.51089
"49395",676.26245,77.77463,120.70106
"49396",676.27576,77.04463,119.90152
"49397",676.28906,76.3708,119.13533
"49398",676.30237,75.76532,118.41644
"49399",676.3157,75.228195,117.74699
"49400",676.329,74.76433,117.134
"49401",676.3423,74.37614,116.5822
"49402",676.3556,74.06851,116.09883
"49403",676.3689,73.83902,115.68398
"49404",676.3822,73.6852,115.33764
"49405",676.3955,73.599754,115.054855
"49406",676.4088,73.57046,114.825554
"49407",676.4221,73.582664,114.63684
"49408",676.4354,73.616844,114.47048
"49409",676.4487,73.66079,114.31496
"49410",676.46204,73.69497,114.15104
"49411",676.47534,73.70962,113.96866
"49412",676.48865,73.69253,113.755
"49413",676.50195,73.636375,113.50174
"49414",676.51526,73.54116,113.207664
"49415",676.52856,73.41909,112.88376
"49416",676.5419,73.28481,112.54383
"49417",676.5552,73.19203,112.2412
"49418",676.5685,73.253075,112.0895
"49419",676.5818,73.653465,112.27905
"49420",676.5951,74.60807,113.03533
"49421",676.6084,76.25361,114.512375
"49422",676.6217,78.59495,116.73664
"49423",676.635,81.45144,119.549225
"49424",676.6483,84.491035,122.63418
"49425",676.6616,87.31579,125.59927
"49426",676.6749,89.59365,128.10576
"49427",676.68823,91.141525,129.95343
"49428",676.70154,91.93988,131.09996
"49429",676.71484,92.07904,131.61224
"49430",676.72815,91.72503,131.6357
"49431",676.74146,91.0634,131.34047
"49432",676.75476,90.26261,130.8854
"49433",676.76807,89.44228,130.38579
"49434",676.7814,88.66346,129.90204
"49435",676.7947,87.93591,129.44522
"49436",676.808,87.2108,128.96811
"49437",676.8213,86.42222,128.40486
"49438",676.8346,85.54818,127.731514
"49439",676.8479,84.613106,126.96982
"49440",676.8612,83.69756,126.19843
"49441",676.8745,82.9041,125.520515
"49442",676.8878,82.31083,125.018
"49443",676.9011,81.94461,124.72399
"49444",676.9144,81.76639,124.60654
"49445",676.92773,81.69314,124.588486
"49446",676.94104,81.6321,124.58036
"49447",676.95435,81.50271,124.50197
"49448",676.96765,81.253685,124.299904
"49449",676.98096,80.86549,123.95089
"49450",676.99426,80.3357,123.44814
"49451",677.00757,79.68383,122.80676
"49452",677.0209,78.94896,122.06201
"49453",677.0342,78.167694,121.2479
"49454",677.0475,77.366905,120.389854
"49455",677.0608,76.58076,119.52142
"49456",677.0741,75.83124,118.665054
"49457",677.0874,75.13298,117.836525
"49458",677.1007,74.50065,117.0521
"49459",677.114,73.944,116.3236
"49460",677.1273,73.47036,115.66071
"49461",677.1406,73.08217,115.068474
"49462",677.15393,72.77699,114.54712
"49463",677.16724,72.549934,114.094345
"49464",677.18054,72.393684,113.70528
"49465",677.19385,72.30091,113.3748
"49466",677.20715,72.254524,113.087814
"49467",677.22046,72.24719,112.83844
"49468",677.23376,72.26429,112.613266
"49469",677.2471,72.288704,112.395935
"49470",677.2604,72.308235,112.174484
"49471",677.2737,72.31556,111.94144
"49472",677.287,72.30091,111.686646
"49473",677.3003,72.26673,111.411865
"49474",677.3136,72.21057,111.114044
"49475",677.3269,72.14221,110.80226
"49476",677.3402,72.07141,110.4859
"49477",677.3535,71.993286,110.16
"49478",677.3668,71.920044,109.83655
"49479",677.3801,71.854126,109.51813
"49480",677.39343,71.79553,109.20497
"49481",677.40674,71.7467,108.89975
"49482",677.42004,71.710075,108.60521
"49483",677.43335,71.67834,108.31441
"49484",677.44666,71.6466,108.02261
"49485",677.45996,71.605095,107.72006
"49486",677.47327,71.553825,107.40645
"49487",677.4866,71.502556,107.09123
"49488",677.4999,71.4757,106.79883
"49489",677.5132,71.54894,106.60568
"49490",677.5265,71.885864,106.67851
"49491",677.5398,72.71595,107.255035
"49492",677.5531,74.246735,108.5582
"49493",677.5664,76.56855,110.700226
"49494",677.5797,79.57885,113.603294
"49495",677.593,82.9749,116.98618
"49496",677.6063,86.32212,120.42637
"49497",677.6196,89.18593,123.48774
"49498",677.63293,91.27337,125.86224
"49499",677.64624,92.477,127.41817
"49500",677.65955,92.87007,128.20114
"49501",677.67285,92.6186,128.35185
"49502",677.68616,91.94232,128.0699
"49503",677.69946,91.04875,127.54953
"49504",677.71277,90.09659,126.94264
"49505",677.7261,89.19325,126.35483
"49506",677.7394,88.38026,125.82912
"49507",677.7527,87.63561,125.34636
"49508",677.766,86.90074,124.8501
"49509",677.7793,86.11459,124.279594
"49510",677.7926,85.25765,123.61373
"49511",677.8059,84.3592,122.87958
"49512",677.8192,83.509575,122.166176
"49513",677.8325,82.79912,121.56539
"49514",677.8458,82.2913,121.14504
"49515",677.85913,81.988556,120.9139
"49516",677.87244,81.83963,120.82712
"49517",677.88574,81.74929,120.794266
"49518",677.89905,81.62966,120.7293
"49519",677.91235,81.41482,120.565384
"49520",677.92566,81.06325,120.258026
"49521",677.93896,80.56519,119.7932
"49522",677.9523,79.937744,119.18341
"49523",677.9656,79.21507,118.45879
"49524",677.9789,78.42893,117.648125
"49525",677.9922,77.62081,116.79091
"49526",678.0055,76.822464,115.91821
"49527",678.0188,76.06073,115.05718
"49528",678.0321,75.355156,114.22851
"49529",678.0454,74.71549,113.443695
"49530",678.0587,74.15396,112.717026
"49531",678.072,73.673,112.053375
"49532",678.0853,73.272606,111.45527
"49533",678.09863,72.955215,110.92765
"49534",678.11194,72.71351,110.4658
"49535",678.12524,72.54017,110.06476
"49536",678.13855,72.427864,109.71933
"49537",678.15186,72.36683,109.42166
"49538",678.16516,72.342415,109.15871
"49539",678.17847,72.34974,108.92673
"49540",678.1918,72.37415,108.71207
"49541",678.2051,72.40589,108.50549
"49542",678.2184,72.42542,108.287704
"49543",678.2317,72.42542,108.050995
"49544",678.245,72.40101,107.78987
"49545",678.2583,72.35218,107.50357
"49546",678.2716,72.28138,107.19377
"49547",678.2849,72.19592,106.86711
"49548",678.2982,72.10071,106.528015
"49549",678.3115,72.00061,106.18106
"49550",678.3248,71.902954,105.83342
"49551",678.33813,71.81262,105.49005
"49552",678.35144,71.73205,105.153625
"49553",678.36475,71.66613,104.82933
"49554",678.37805,71.6173,104.520065
"49555",678.39136,71.588005,104.228806
"49556",678.40466,71.588005,103.96593
"49557",678.41797,71.61242,103.72746
"49558",678.4313,71.66125,103.514175
"49559",678.4446,71.73205,103.32439
"49560",678.4579,71.82483,103.1588
"49561",678.4712,71.92981,103.0083
"49562",678.4845,72.047,102.87329
"49563",678.4978,72.15686,102.73462
"49564",678.5111,72.25941,102.59207
"49565",678.5244,72.342415,102.43318
"49566",678.5377,72.410774,102.26224
"49567",678.551,72.47425,102.08855
"49568",678.56433,72.57923,101.95834
"49569",678.57764,72.85268,101.99989
"49570",678.59094,73.497215,102.42108
"49571",678.60425,74.70573,103.426384
"49572",678.61755,76.57343,105.12865
"49573",678.63086,79.0222,107.47034
"49574",678.64417,81.80057,110.21815
"49575",678.6575,84.53742,113.01127
"49576",678.6708,86.8568,115.472435
"49577",678.6841,88.50721,117.33712
"49578",678.6974,89.42275,118.51851
"49579",678.7107,89.67666,119.06688
"49580",678.724,89.41543,119.10805
"49581",678.7373,88.817276,118.80413
"49582",678.7506,88.05554,118.31793
"49583",678.7639,87.25231,117.76643
"49584",678.7772,86.502785,117.243546
"49585",678.7905,85.84848,116.79245
"49586",678.80383,85.3016,116.42833
"49587",678.81714,84.81819,116.110596
"49588",678.83044,84.34699,115.78996
"49589",678.84375,83.85138,115.43019
"49590",678.85706,83.32891,115.028076
"49591",678.87036,82.82353,114.626724
"49592",678.88367,82.406044,114.29747
"49593",678.897,82.13016,114.09677
"49594",678.9103,82.01785,114.05103
"49595",678.9236,82.037384,114.13362
"49596",678.9369,82.11551,114.27541
"49597",678.9502,82.1741,114.400116
"49598",678.9635,82.144806,114.43876
"49599",678.9768,81.991,114.351974
"49600",678.9901,81.69802,114.121216
"49601",679.0034,81.28054,113.7568
"49602",679.0167,80.75807,113.274345
"49603",679.03,80.17456,112.71452
"49604",679.04333,79.554436,112.09985
"49605",679.05664,78.93187,111.46336
"49606",679.06995,78.331276,110.82939
"49607",679.08325,77.76486,110.21083
"49608",679.09656,77.24727,109.62339
"49609",679.10986,76.7834,109.0735
"49610",679.12317,76.38056,108.570145
"49611",679.1365,76.036316,108.11279
"49612",679.1498,75.755554,107.70817
"49613",679.1631,75.53826,107.35824
"49614",679.1764,75.389336,107.069885
"49615",679.1897,75.29656,106.83303
"49616",679.203,75.25262,106.642105
"49617",679.2163,75.24773,106.48886
"49618",679.2296,75.26238,106.35501
"49619",679.2429,75.2868,106.23138
"49620",679.2562,75.30633,106.10362
"49621",679.26953,75.32098,105.971596
"49622",679.28284,75.32586,105.83026
"49623",679.29614,75.31609,105.67443
"49624",679.30945,75.29168,105.50365
"49625",679.32275,75.250175,105.31501
"49626",679.33606,75.191574,105.10798
"49627",679.34937,75.11589,104.882034
"49628",679.3627,75.028,104.64152
"49629",679.376,74.94011,104.398254
"49630",679.3893,74.85466,104.154686
"49631",679.4026,74.77409,103.91333
"49632",679.4159,74.70817,103.6841
"49633",679.4292,74.65446,103.46502
"49634",679.4425,74.60563,103.249146
"49635",679.4558,74.56901,103.04395
"49636",679.4691,74.547035,102.852264
"49637",679.4824,74.54459,102.67942
"49638",679.4957,74.564125,102.52847
"49639",679.50903,74.60563,102.40011
"49640",679.52234,74.669106,102.29501
"49641",679.53564,74.75212,102.21144
"49642",679.54895,74.844894,102.14022
"49643",679.56226,74.93767,102.0719
"49644",679.57556,75.020676,101.99671
"49645",679.58887,75.09392,101.91435
"49646",679.6022,75.14763,101.81475
"49647",679.6155,75.18669,101.70218
"49648",679.6288,75.22331,101.58839
"49649",679.6421,75.30389,101.51969
"49650",679.6554,75.53582,101.60487
"49651",679.6687,76.09247,102.02202
"49652",679.682,77.137405,102.94485
"49653",679.6953,78.73655,104.45454
"49654",679.7086,80.79469,106.4732
"49655",679.7219,83.075,108.778336
"49656",679.7352,85.23811,111.037544
"49657",679.74854,86.97398,112.9371
"49658",679.76184,88.097046,114.2781
"49659",679.77515,88.59022,115.02431
"49660",679.78845,88.5536,115.256134
"49661",679.80176,88.13367,115.1035
"49662",679.81506,87.47692,114.70093
"49663",679.82837,86.712746,114.17041
"49664",679.8417,85.94125,113.60869
"49665",679.855,85.23079,113.083885
"49666",679.8683,84.62531,112.64187
"49667",679.8816,84.139465,112.30056
"49668",679.8949,83.75372,112.044174
"49669",679.9082,83.421684,111.82944
"49670",679.9215,83.104294,111.61897
"49671",679.9348,82.78691,111.3986
"49672",679.9481,82.496376,111.19515
"49673",679.9614,82.27421,111.050995
"49674",679.97473,82.1741,111.02196
"49675",679.98804,82.213165,111.12896
"49676",680.00134,82.371864,111.35682
"49677",680.01465,82.581825,111.6409
"49678",680.02795,82.77959,111.91934
"49679",680.04126,82.896774,112.12339
"49680",680.05457,82.89189,112.20903
"49681",680.0679,82.760056,112.167564
"49682",680.0812,82.50858,112.00234
"49683",680.0945,82.15457,111.72672
"49684",680.1078,81.722435,111.361916
"49685",680.1211,81.23903,110.932335
"49686",680.1344,80.73365,110.465675
"49687",680.1477,80.235596,109.99055
"49688",680.161,79.76196,109.52428
"49689",680.1743,79.32983,109.0847
"49690",680.1876,78.94896,108.68289
"49691",680.2009,78.61936,108.32045
"49692",680.21423,78.34348,108.00143
"49693",680.22754,78.11398,107.72016
"49694",680.24084,77.93088,107.47812
"49695",680.25415,77.80148,107.284065
"49696",680.26746,77.72091,107.13479
"49697",680.28076,77.68673,107.02939
"49698",680.29407,77.69161,106.96198
"49699",680.3074,77.72823,106.92647
"49700",680.3207,77.78439,106.91164
"49701",680.334,77.84299,106.90099
"49702",680.3473,77.88937,106.879974
"49703",680.3606,77.92111,106.84576
"49704",680.3739,77.93088,106.79056
"49705",680.3872,77.91379,106.70881
"49706",680.4005,77.87961,106.609436
"49707",680.4138,77.8259,106.48946
"49708",680.4271,77.7551,106.35072
"49709",680.4404,77.66964,106.195114
"49710",680.45374,77.574425,106.02708
"49711",680.46704,77.48165,105.858505
"49712",680.48035,77.383995,105.68215
"49713",680.49365,77.29122,105.50763
"49714",680.50696,77.208206,105.339966
"49715",680.52026,77.13252,105.17704
"49716",680.53357,77.06172,105.01663
"49717",680.5469,77.00801,104.8711
"49718",680.5602,76.96895,104.73854
"49719",680.5735,76.946976,104.62185
"49720",680.5868,76.944534,104.524
"49721",680.6001,76.95674,104.44073
"49722",680.6134,76.978714,104.3676
"49723",680.6267,77.00069,104.29516
"49724",680.64,77.015335,104.21608
"49725",680.6533,77.02022,104.12769
"49726",680.6666,77.02266,104.03702
"49727",680.67993,77.0251,103.94642
"49728",680.69324,77.05928,103.887634
"49729",680.70654,77.21065,103.947105
"49730",680.71985,77.63546,104.28475
"49731",680.73315,78.485085,105.060486
"49732",680.74646,79.835205,106.363266
"49733",680.75977,81.61257,108.13548
"49734",680.7731,83.60479,110.17809
"49735",680.7864,85.506676,112.19263
"49736",680.7997,87.027695,113.88573
"49737",680.813,87.989624,115.06727
"49738",680.8263,88.37049,115.697815
"49739",680.8396,88.26795,115.85686
"49740",680.8529,87.816284,115.66356
"49741",680.8662,87.15709,115.24863
"49742",680.8795,86.40513,114.72032
"49743",680.8928,85.645836,114.16119
"49744",680.9061,84.93538,113.62716
"49745",680.91943,84.315254,113.16126
"49746",680.93274,83.792786,112.77364
"49747",680.94604,83.35088,112.450264
"49748",680.95935,82.967575,112.17167
"49749",680.97266,82.60868,111.90551
"49750",680.98596,82.262,111.64035
"49751",680.99927,81.94461,111.39365
"49752",681.0126,81.7029,111.21271
"49753",681.0259,81.58572,111.148735
"49754",681.0392,81.617455,111.23003
"49755",681.0525,81.795685,111.4588
"49756",681.0658,82.06912,111.78835
"49757",681.0791,82.35966,112.14355
"49758",681.0924,82.59403,112.45166
"49759",681.1057,82.71366,112.65235
"49760",681.119,82.69169,112.71518
"49761",681.1323,82.528114,112.63572
"49762",681.1456,82.23514,112.421745
"49763",681.15894,81.846954,112.10341
"49764",681.17224,81.392845,111.707016
"49765",681.18555,80.91188,111.26958
"49766",681.19885,80.430916,110.81711
"49767",681.21216,79.97925,110.37891
"49768",681.22546,79.56176,109.96077
"49769",681.2388,79.18822,109.57353
"49770",681.2521,78.8513,109.21125
"49771",681.2654,78.553444,108.877495
"49772",681.2787,78.294655,108.5735
"49773",681.292,78.09201,108.317566
"49774",681.3053,77.945526,108.11146
"49775",681.3186,77.85031,107.95204
"49776",681.3319,77.803925,107.83848
"49777",681.3452,77.7966,107.76253
"49778",681.3585,77.81125,107.70832
"49779",681.3718,77.85031,107.678986
"49780",681.38513,77.90646,107.66796
"49781",681.39844,77.96994,107.666016
"49782",681.41174,78.028534,107.66117
"49783",681.42505,78.07248,107.64351
"49784",681.43835,78.099335,107.61013
"49785",681.45166,78.101776,107.55318
"49786",681.46497,78.08469,107.47677
"49787",681.4783,78.048065,107.380295
"49788",681.4916,77.996796,107.26803
"49789",681.5049,77.92844,107.13707
"49790",681.5182,77.840546,106.98444
"49791",681.5315,77.747765,106.82418
"49792",681.5448,77.645226,106.65126
"49793",681.5581,77.540245,106.472694
"49794",681.5714,77.437706,106.29329
"49795",681.5847,77.35226,106.12777
"49796",681.598,77.279015,105.97179
"49797",681.6113,77.222855,105.8306
"49798",681.62463,77.17891,105.69987
"49799",681.63794,77.14717,105.57997
"49800",681.65125,77.1252,105.46885
"49801",681.66455,77.10811,105.36192
"49802",681.67786,77.0959,105.259346
"49803",681.69116,77.08858,105.16127
"49804",681.70447,77.08125,105.062965
"49805",681.7178,77.07637,104.96687
"49806",681.7311,77.09102,104.89016
"49807",681.7444,77.21309,104.921326
"49808",681.7577,77.593956,105.2151
"49809",681.771,78.38987,105.93583
"49810",681.7843,79.66918,107.164825
"49811",681.7976,81.38064,108.865944
"49812",681.8109,83.31182,110.84027
"49813",681.8242,85.17708,112.80902
"49814",681.8375,86.693214,114.48694
"49815",681.8508,87.691765,115.69465
"49816",681.86414,88.145874,116.38913
"49817",681.87744,88.145874,116.64369
"49818",681.89075,87.8114,116.56378
"49819",681.90405,87.26696,116.26344
"49820",681.91736,86.61265,115.83623
"49821",681.93066,85.924164,115.354385
"49822",681.944,85.25765,114.873
"49823",681.9573,84.647285,114.42693
"49824",681.9706,84.11261,114.03748
"49825",681.9839,83.6585,113.71189
"49826",681.9972,83.25811,113.42583
"49827",682.0105,82.88945,113.15898
"49828",682.0238,82.54032,112.90015
"49829",682.0371,82.22049,112.6597
"49830",682.0504,81.95926,112.46786
"49831",682.0637,81.81033,112.38016
"49832",682.077,81.80789,112.43429
"49833",682.09033,81.951935,112.63483
"49834",682.10364,82.20584,112.94973
"49835",682.11694,82.50858,113.3214
"49836",682.13025,82.78447,113.67568
"49837",682.14355,82.97002,113.94824
"49838",682.15686,83.03349,114.10453
"49839",682.17017,82.95781,114.12364
"49840",682.1835,82.75273,114.010994
"49841",682.1968,82.44022,113.78451
"49842",682.2101,82.04715,113.46769
"49843",682.2234,81.602806,113.08732
"49844",682.2367,81.13893,112.67353
"49845",682.25,80.6775,112.24769
"49846",682.2633,80.233154,111.82452
"49847",682.2766,79.81323,111.41188
"49848",682.2899,79.42504,111.01785
"49849",682.3032,79.078354,110.6532
"49850",682.3165,78.768295,110.31434
"49851",682.32983,78.51438,110.021935
"49852",682.34314,78.31907,109.7802
"49853",682.35645,78.1799,109.5885
"49854",682.36975,78.08713,109.43885
"49855",682.38306,78.04562,109.33757
"49856",682.39636,78.04562,109.2765
"49857",682.40967,78.07736,109.24716
"49858",682.423,78.133514,109.24323
"49859",682.4363,78.19699,109.24838
"49860",682.4496,78.25315,109.2482
"49861",682.4629,78.28977,109.23023
"49862",682.4762,78.30198,109.188995
"49863",682.4895,78.294655,109.12861
"49864",682.5028,78.27512,109.055786
"49865",682.5161,78.24094,108.9677
"49866",682.5294,78.19211,108.8639
"49867",682.5427,78.13107,108.74637
"49868",682.556,78.05783,108.61472
"49869",682.56934,77.97238,108.46858
"49870",682.58264,77.87961,108.31245
"49871",682.59595,77.789276,108.15585
"49872",682.60925,77.70382,108.00131
"49873",682.62256,77.62081,107.84655
"49874",682.63586,77.54269,107.69408
"49875",682.6492,77.47677,107.55137
"49876",682.6625,77.418175,107.413925
"49877",682.6758,77.36935,107.28442
"49878",682.6891,77.32784,107.160706
"49879",682.7024,77.28634,107.0357
"49880",682.7157,77.242386,106.906944
"49881",682.729,77.19356,106.77194
"49882",682.7423,77.14717,106.637856
"49883",682.7556,77.12276,106.52429
"49884",682.7689,77.188675,106.5003
"49885",682.7822,77.486534,106.710304
"49886",682.79553,78.17746,107.322685
"49887",682.80884,79.35912,108.447395
"49888",682.82214,81.007095,110.07534
"49889",682.83545,82.948044,112.04776
"49890",682.84875,84.90608,114.09792
"49891",682.86206,86.588234,115.93339
"49892",682.87537,87.77234,117.32337
"49893",682.8887,88.39979,118.19371
"49894",682.902,88.52186,118.57828
"49895",682.9153,88.2533,118.576035
"49896",682.9286,87.72106,118.30171
"49897",682.9419,87.0399,117.86183
"49898",682.9552,86.30503,117.346954
"49899",682.9685,85.57992,116.81887
"49900",682.9818,84.910965,116.32429
"49901",682.9951,84.315254,115.88204
"49902",683.0084,83.792786,115.49442
"49903",683.0217,83.336235,115.156395
"49904",683.03503,82.916306,114.84072
"49905",683.04834,82.52323,114.53878
"49906",683.06165,82.15701,114.25141
"49907",683.07495,81.84451,114.00632
"49908",683.08826,81.62722,113.846664
"49909",683.10156,81.549095,113.81939
"49910",683.11487,81.619896,113.9386
"49911",683.1282,81.8201,114.18942
"49912",683.1415,82.09354,114.51974
"49913",683.1548,82.35966,114.85128
"49914",683.1681,82.55741,115.12277
"49915",683.1814,82.63798,115.28326
"49916",683.1947,82.579384,115.3071
"49917",683.208,82.38407,115.19239
"49918",683.2213,82.074005,114.956825
"49919",683.2346,81.67361,114.62124
"49920",683.2479,81.2195,114.21943
"49921",683.2612,80.73853,113.77657
"49922",683.27454,80.257576,113.318695
"49923",683.28784,79.78882,112.85799
"49924",683.30115,79.34936,112.41193
"49925",683.31445,78.941635,111.98387
"49926",683.32776,78.57542,111.58458
"49927",683.34106,78.25315,111.2178
"49928",683.3544,77.98215,110.892204
"49929",683.3677,77.76242,110.60942
"49930",683.381,77.58907,110.36615
"49931",683.3943,77.45968,110.161415
"49932",683.4076,77.37179,109.99414
"49933",683.4209,77.3254,109.86562
"49934",683.4342,77.31075,109.767395
"49935",683.4475,77.32784,109.70045
"49936",683.4608,77.36446,109.653564
"49937",683.4741,77.40841,109.61515
"49938",683.4874,77.44259,109.568344
"49939",683.50073,77.46456,109.5104
"49940",683.51404,77.47921,109.445816
"49941",683.52734,77.47433,109.36216
"49942",683.54065,77.452354,109.26126
"49943",683.55396,77.418175,109.14747
"49944",683.56726,77.36935,109.01796
"49945",683.58057,77.30099,108.86739
"49946",683.5939,77.21797,108.700035
"49947",683.6072,77.13252,108.52765
"49948",683.6205,77.04463,108.35015
"49949",683.6338,76.9543,108.167465
"49950",683.6471,76.87129,107.98928
"49951",683.6604,76.79805,107.81827
"49952",683.6737,76.732124,107.65228
"49953",683.687,76.67109,107.48913
"49954",683.7003,76.610054,107.324066
"49955",683.7136,76.54902,107.1571
"49956",683.7269,76.48554,106.98578
"49957",683.74023,76.422066,106.81248
"49958",683.75354,76.3708,106.6494
"49959",683.76685,76.37324,106.53843
"49960",683.78015,76.52705,106.5789
"49961",683.79346,77.00069,106.944016
"49962",683.80676,77.94064,107.790245
"49963",683.82007,79.38598,109.17123
"49964",683.8334,81.231705,110.997765
"49965",683.8467,83.23857,113.04312
"49966",683.86,85.09407,114.999825
"49967",683.8733,86.52964,116.59458
"49968",683.8866,87.396355,117.665344
"49969",683.8999,87.70397,118.2041
"49970",683.9132,87.552605,118.29349
"49971",683.9265,87.078964,118.05586
"49972",683.9398,86.41001,117.60812
"49973",683.9531,85.65316,117.05158
"49974",683.96643,84.88655,116.46163
"49975",683.97974,84.16876,115.896545
"49976",683.99304,83.53155,115.3896
"49977",684.00635,82.99687,114.96529
"49978",684.01965,82.55985,114.62192
"49979",684.03296,82.196075,114.338135
"49980",684.04626,81.87625,114.08694
"49981",684.0596,81.57839,113.84771
"49982",684.0729,81.307396,113.62604
"49983",684.0862,81.0901,113.4496
"49984",684.0995,80.972916,113.36648
"49985",684.1128,80.98268,113.40665
"49986",684.1261,81.12184,113.576515
"49987",684.1394,81.34646,113.83619
"49988",684.1527,81.60525,114.137054
"49989",684.166,81.829865,114.411835
"49990",684.1793,81.96658,114.605736
"49991",684.1926,81.991,114.691605
"49992",684.20593,81.89334,114.656166
"49993",684.21924,81.671165,114.49316
"49994",684.23254,81.35134,114.225555
"49995",684.24585,80.96071,113.87715
"49996",684.25916,80.52613,113.472595
"49997",684.27246,80.08667,113.049576
"49998",684.28577,79.65942,112.62503
"49999",684.2991,79.259026,112.214
"50000",684.3124,78.89281,111.82462
"50001",684.3257,78.56809,111.46531
"50002",684.339,78.277565,111.130035
"50003",684.3523,78.02365,110.822296
"50004",684.3656,77.80881,110.54569
"50005",684.3789,77.64034,110.308754
"50006",684.3922,77.51339,110.10806
"50007",684.4055,77.42794,109.94491
"50008",684.4188,77.38644,109.82303
"50009",684.4321,77.38644,109.741356
"50010",684.44543,77.41085,109.6841
"50011",684.45874,77.45724,109.649574
"50012",684.47205,77.51339,109.62627
"50013",684.48535,77.5671,109.60227
"50014",684.49866,77.611046,109.57019
"50015",684.51196,77.645226,109.52972
"50016",684.52527,77.66476,109.47566
"50017",684.5386,77.6672,109.40513
"50018",684.5519,77.65499,109.32002
"50019",684.5652,77.625694,109.217445
"50020",684.5785,77.58175,109.099304
"50021",684.5918,77.523155,108.96514
"50022",684.6051,77.45724,108.82182
"50023",684.6184,77.39376,108.67889
"50024",684.6317,77.330284,108.533966
"50025",684.645,77.26681,108.38706
"50026",684.6583,77.205765,108.24061
"50027",684.67163,77.14473,108.092255
"50028",684.68494,77.07393,107.93223
"50029",684.69824,76.98848,107.75534
"50030",684.71155,76.90059,107.57334
"50031",684.72485,76.82002,107.39592
"50032",684.73816,76.78096,107.257484
"50033",684.75146,76.86885,107.24478
"50034",684.7648,77.242386,107.52047
"50035",684.7781,78.05783,108.24974
"50036",684.7914,79.381096,109.512314
"50037",684.8047,81.15602,111.2679
"50038",684.818,83.17998,113.32798
"50039",684.8313,85.15999,115.407364
"50040",684.8446,86.79576,117.204384
"50041",684.8579,87.89929,118.52028
"50042",684.8712,88.42664,119.29448
"50043",684.8845,88.446175,119.57735
"50044",684.8978,88.0824,119.47751
"50045",684.91113,87.47204,119.11972
"50046",684.92444,86.73228,118.613464
"50047",684.93774,85.95834,118.04991
"50048",684.95105,85.22591,117.50367
"50049",684.96436,84.57404,117.015114
"50050",684.97766,84.02716,116.61117
"50051",684.99097,83.59258,116.30244
"50052",685.0043,83.24834,116.07046
"50053",685.0176,82.96269,115.88632
"50054",685.0309,82.703896,115.72011
"50055",685.0442,82.46708,115.56779
"50056",685.0575,82.266884,115.44469
"50057",685.0708,82.13992,115.388565
"50058",685.0841,82.11795,115.433464
"50059",685.0974,82.20828,115.58998
"50060",685.1107,82.38407,115.83478
"50061",685.124,82.59159,116.1168
"50062",685.1373,82.774704,116.3809
"50063",685.15063,82.8748,116.5677
"50064",685.16394,82.862595,116.64533
"50065",685.17725,82.720985,116.59318
"50066",685.19055,82.4622,116.41942
"50067",685.20386,82.108185,116.14235
"50068",685.21716,81.685814,115.78586
"50069",685.23047,81.22682,115.37955
"50070",685.2438,80.75807,114.949135
"50071",685.2571,80.29908,114.51383
"50072",685.2704,79.85962,114.08372
"50073",685.2837,79.45678,113.67649
"50074",685.297,79.097885,113.30062
"50075",685.3103,78.78294,112.95749
"50076",685.3236,78.51438,112.650894
"50077",685.3369,78.28733,112.37742
"50078",685.3502,78.10422,112.140785
"50079",685.3635,77.962616,111.93994
"50080",685.37683,77.86496,111.77862
"50081",685.39014,77.806366,111.653305
"50082",685.40344,77.78439,111.56278
"50083",685.41675,77.786835,111.49599
"50084",685.43005,77.7966,111.43659
"50085",685.44336,77.80881,111.379944
"50086",685.45667,77.82834,111.331
"50087",685.47,77.85275,111.28755
"50088",685.4833,77.874725,111.242424
"50089",685.4966,77.87961,111.18089
"50090",685.5099,77.86984,111.104866
