"","Time..s.","PPG.trace","Preprocessed.PPG"
"599",5.486725,88.46815,191.73013
"600",5.500061,87.50866,191.03528
"601",5.513397,86.346535,190.1078
"602",5.5267334,85.02327,188.98286
"603",5.5400696,83.631645,187.74821
"604",5.553406,82.29618,186.52625
"605",5.566742,81.146255,185.44807
"606",5.580078,80.26002,184.59766
"607",5.5934143,79.65942,184.00519
"608",5.6067505,79.30297,183.63809
"609",5.6200867,79.11253,183.42587
"610",5.633423,78.98558,183.27118
"611",5.646759,78.84154,183.09543
"612",5.660095,78.61204,182.82973
"613",5.6734314,78.26536,182.43967
"614",5.6867676,77.79416,181.91426
"615",5.7001038,77.222855,181.27402
"616",5.71344,76.578316,180.5427
"617",5.726776,75.89227,179.74973
"618",5.7401123,75.19646,178.92554
"619",5.7534485,74.529945,178.10892
"620",5.7667847,73.91226,177.3203
"621",5.780121,73.3605,176.5783
"622",5.793457,72.8893,175.89961
"623",5.806793,72.498665,175.28677
"624",5.8201294,72.19104,174.74474
"625",5.8334656,71.96155,174.27121
"626",5.8468018,71.8053,173.86375
"627",5.860138,71.70275,173.50513
"628",5.873474,71.65148,173.19456
"629",5.8868103,71.63195,172.91414
"630",5.9001465,71.639275,172.65996
"631",5.9134827,71.65148,172.41089
"632",5.926819,71.67101,172.16953
"633",5.940155,71.70031,171.93854
"634",5.953491,71.724724,171.70358
"635",5.9668274,71.73937,171.45963
"636",5.9801636,71.73937,171.20148
"637",5.9934998,71.710075,170.91403
"638",6.006836,71.64416,170.58905
"639",6.020172,71.553825,170.2376
"640",6.0335083,71.46105,169.88087
"641",6.0468445,71.42443,169.57741
"642",6.0601807,71.57824,169.46323
"643",6.073517,72.14221,169.76402
"644",6.086853,73.35317,170.72943
"645",6.100189,75.36492,172.53346
"646",6.1135254,78.14816,175.17186
"647",6.1268616,81.45144,178.41727
"648",6.1401978,84.8719,181.88309
"649",6.153534,87.94812,185.11156
"650",6.16687,90.338295,187.7501
"651",6.1802063,91.87396,189.60884
"652",6.1935425,92.59174,190.69768
"653",6.2068787,92.647896,191.14732
"654",6.220215,92.25971,191.15439
"655",6.233551,91.63714,190.91493
"656",6.246887,90.94133,190.58278
"657",6.2602234,90.26505,190.24841
"658",6.2735596,89.62783,189.93198
"659",6.2868958,88.973526,189.57854
"660",6.300232,88.216675,189.10211
"661",6.313568,87.293816,188.43602
"662",6.3269043,86.187836,187.55797
"663",6.3402405,84.95003,186.51353
"664",6.3535767,83.68047,185.39867
"665",6.366913,82.50858,184.3418
"666",6.380249,81.54421,183.45583
"667",6.393585,80.848404,182.80827
"668",6.4069214,80.42115,182.40753
"669",6.4202576,80.21118,182.21072
"670",6.4335938,80.12085,182.12698
"671",6.44693,80.05249,182.06241
"672",6.460266,79.92554,181.9371
"673",6.4736023,79.68627,181.69551
"674",6.4869385,79.31518,181.3146
"675",6.5002747,78.819565,180.79759
"676",6.513611,78.23117,180.1723
"677",6.526947,77.57931,179.46516
"678",6.540283,76.895706,178.70592
"679",6.5536194,76.21454,177.92773
"680",6.5669556,75.56512,177.16002
"681",6.5802917,74.966965,176.42328
"682",6.593628,74.43229,175.73132
"683",6.606964,73.968414,175.09346
"684",6.6203003,73.568016,174.50458
"685",6.6336365,73.22621,173.96178
"686",6.6469727,72.94545,173.46933
"687",6.660309,72.71839,173.02182
"688",6.673645,72.54261,172.61848
"689",6.686981,72.41566,172.25848
"690",6.7003174,72.32777,171.93358
"691",6.7136536,72.27894,171.64499
"692",6.7269897,72.271614,171.39638
"693",6.740326,72.30335,171.1866
"694",6.753662,72.36683,171.00955
"695",6.7669983,72.45716,170.86134
"696",6.7803345,72.552376,170.72084
"697",6.7936707,72.637825,170.57355
"698",6.807007,72.7013,170.40695
"699",6.820343,72.740364,170.21793
"700",6.833679,72.74769,169.99838
"701",6.8470154,72.723274,169.74733
"702",6.8603516,72.6598,169.45645
"703",6.8736877,72.549934,169.1172
"704",6.887024,72.41566,168.7501
"705",6.90036,72.27894,168.37637
"706",6.9136963,72.200806,168.05696
"707",6.9270325,72.32288,167.93532
"708",6.9403687,72.87221,168.24474
"709",6.953705,74.10025,169.25003
"710",6.967041,76.15839,171.1238
"711",6.980377,79.01488,173.86023
"712",6.9937134,82.423134,177.2377
"713",7.0070496,85.9559,180.84619
"714",7.0203857,89.12245,184.19887
"715",7.033722,91.54925,186.91074
"716",7.047058,93.07027,188.79266
"717",7.0603943,93.70748,189.83832
"718",7.0737305,93.6318,190.191
"719",7.0870667,93.065384,190.05057
"720",7.100403,92.23773,189.63121
"721",7.113739,91.317314,189.09322
"722",7.127075,90.4213,188.55087
"723",7.1404114,89.58144,188.03668
"724",7.1537476,88.76845,187.5231
"725",7.1670837,87.91882,186.9475
"726",7.18042,86.9691,186.24524
"727",7.193756,85.89731,185.39124
"728",7.2070923,84.735176,184.41339
"729",7.2204285,83.57549,183.40169
"730",7.2337646,82.51835,182.45628
"731",7.247101,81.66384,181.68048
"732",7.260437,81.058365,181.127
"733",7.273773,80.69947,180.80118
"734",7.2871094,80.53101,180.65459
"735",7.3004456,80.465096,180.60527
"736",7.3137817,80.40406,180.55878
"737",7.327118,80.26978,180.43713
"738",7.340454,80.01831,180.19409
"739",7.3537903,79.64477,179.82112
"740",7.3671265,79.168686,179.33394
"741",7.3804626,78.626686,178.76596
"742",7.393799,78.05295,178.1493
"743",7.407135,77.46212,177.49763
"744",7.420471,76.87373,176.82994
"745",7.4338074,76.30732,176.16583
"746",7.4471436,75.77753,175.52065
"747",7.4604797,75.29656,174.90773
"748",7.473816,74.8864,174.35059
"749",7.487152,74.547035,173.85143
"750",7.5004883,74.2736,173.40758
"751",7.5138245,74.05875,173.01378
"752",7.5271606,73.89517,172.66454
"753",7.540497,73.77554,172.35413
"754",7.553833,73.68276,172.06683
"755",7.567169,73.62173,171.80838
"756",7.5805054,73.585106,171.57243
"757",7.5938416,73.57046,171.35732
"758",7.6071777,73.5729,171.15883
"759",7.620514,73.58999,170.97507
"760",7.63385,73.616844,170.8016
"761",7.6471863,73.64858,170.63387
"762",7.6605225,73.67788,170.46468
"763",7.6738586,73.70962,170.29884
"764",7.687195,73.7438,170.13644
"765",7.700531,73.763336,169.96048
"766",7.713867,73.75845,169.7607
"767",7.7272034,73.7145,169.5217
"768",7.7405396,73.62173,169.2325
"769",7.7538757,73.47524,168.88669
"770",7.767212,73.28481,168.49236
"771",7.780548,73.074844,168.07254
"772",7.7938843,72.89418,167.67546
"773",7.8072205,72.8307,167.38992
"774",7.8205566,73.07973,167.4149
"775",7.833893,73.900055,168.01897
"776",7.847229,75.53338,169.46167
"777",7.860565,78.05539,171.8441
"778",7.8739014,81.322044,175.04999
"779",7.8872375,84.962234,178.73149
"780",7.9005737,88.48524,182.40956
"781",7.91391,91.41253,185.60202
"782",7.927246,93.44381,187.98994
"783",7.9405823,94.50828,189.47453
"784",7.9539185,94.71824,190.13788
"785",7.9672546,94.28123,190.16081
"786",7.980591,93.42184,189.74771
"787",7.993927,92.35737,189.10268
"788",8.007263,91.251396,188.38287
"789",8.020599,90.194244,187.67732
"790",8.033936,89.21034,187.012
"791",8.047272,88.26551,186.35498
"792",8.060608,87.31579,185.66356
"793",8.073944,86.32212,184.89851
"794",8.08728,85.28939,184.06335
"795",8.100616,84.26154,183.2008
"796",8.113953,83.3167,182.38914
"797",8.127289,82.533,181.70909
"798",8.140625,81.95682,181.21207
"799",8.153961,81.59548,180.91188
"800",8.167297,81.41726,180.78352
"801",8.180634,81.35378,180.76434
"802",8.19397,81.3196,180.77248
"803",8.207306,81.23903,180.73314
"804",8.220642,81.058365,180.5912
"805",8.233978,80.743416,180.30933
"806",8.247314,80.29664,179.88579
"807",8.260651,79.742424,179.34085
"808",8.273987,79.10277,178.69315
"809",8.287323,78.416725,177.97906
"810",8.300659,77.71847,177.23132
"811",8.313995,77.03731,176.47887
"812",8.327332,76.40009,175.74907
"813",8.340668,75.83124,175.06772
"814",8.354004,75.335625,174.44183
"815",8.36734,74.92302,173.88347
"816",8.380676,74.581215,173.38301
"817",8.394012,74.305336,172.93779
"818",8.407349,74.08316,172.53766
"819",8.420685,73.91226,172.18185
"820",8.434021,73.78287,171.86221
"821",8.447357,73.69009,171.57515
"822",8.460693,73.633934,171.32181
"823",8.47403,73.61196,171.10089
"824",8.487366,73.60952,170.89882
"825",8.500702,73.62661,170.7162
"826",8.514038,73.65835,170.54877
"827",8.527374,73.69741,170.38965
"828",8.54071,73.738914,170.23419
"829",8.554047,73.777985,170.0776
"830",8.567383,73.80728,169.91246
"831",8.580719,73.82193,169.73358
"832",8.594055,73.8024,169.52098
"833",8.607391,73.741356,169.26627
"834",8.620728,73.62905,168.95837
"835",8.634064,73.463036,168.59326
"836",8.6474,73.25063,168.17657
"837",8.660736,73.03578,167.75081
"838",8.674072,72.89418,167.39157
"839",8.687408,73.00404,167.27937
"840",8.700745,73.62905,167.68576
"841",8.714081,75.04265,168.90027
"842",8.727417,77.37667,171.07938
"843",8.740753,80.54078,174.1615
"844",8.754089,84.19562,177.83324
"845",8.767426,87.84314,181.61188
"846",8.780762,90.97307,184.98691
"847",8.794098,93.221634,187.57838
"848",8.807434,94.469215,189.23914
"849",8.82077,94.79149,190.01357
"850",8.834106,94.383766,190.06808
"851",8.847443,93.47555,189.60936
"852",8.860779,92.27924,188.83417
"853",8.874115,90.97551,187.91415
"854",8.887451,89.68154,186.96317
"855",8.900787,88.45838,186.04256
"856",8.914124,87.2987,185.1472
"857",8.92746,86.19516,184.27174
"858",8.940796,85.12337,183.39355
"859",8.954132,84.09064,182.52094
"860",8.967468,83.13603,181.69417
"861",8.980804,82.31327,180.9694
"862",8.994141,81.68093,180.40936
"863",9.007477,81.26589,180.04686
"864",9.020813,81.05592,179.87645
"865",9.034149,80.99977,179.8533
"866",9.047485,81.02663,179.9114
"867",9.060822,81.058365,179.97523
"868",9.074158,81.0193,179.96925
"869",9.087494,80.86549,179.8473
"870",9.10083,80.5774,179.58626
"871",9.114166,80.15747,179.18437
"872",9.127502,79.62035,178.65218
"873",9.140839,78.992905,178.01286
"874",9.154175,78.314186,177.30267
"875",9.167511,77.61593,176.55173
"876",9.180847,76.929886,175.79118
"877",9.194183,76.29267,175.05803
"878",9.20752,75.716484,174.36598
"879",9.220856,75.211105,173.72675
"880",9.234192,74.77898,173.14496
"881",9.247528,74.41276,172.61559
"882",9.260864,74.110016,172.13824
"883",9.2742,73.863434,171.7076
"884",9.287537,73.67544,171.32784
"885",9.300873,73.54116,170.99591
"886",9.314209,73.45815,170.71106
"887",9.327545,73.42397,170.47244
"888",9.340881,73.4313,170.27426
"889",9.354218,73.47524,170.11293
"890",9.367554,73.5436,169.97739
"891",9.38089,73.62661,169.85863
"892",9.394226,73.71938,169.75223
"893",9.407562,73.80728,169.64386
"894",9.420898,73.882965,169.52602
"895",9.434235,73.92203,169.37392
"896",9.447571,73.89517,169.15712
"897",9.460907,73.777985,168.84915
"898",9.474243,73.57046,168.44719
"899",9.487579,73.29946,167.97527
"900",9.500916,73.023575,167.48999
"901",9.514252,72.87709,167.12549
"902",9.527588,73.09926,167.12506
"903",9.540924,73.99039,167.80054
"904",9.55426,75.78729,169.40964
"905",9.567596,78.53391,172.02461
"906",9.580933,82.020294,175.46518
"907",9.594269,85.80942,179.31744
"908",9.607605,89.35195,183.04152
"909",9.620941,92.171814,186.15363
"910",9.634277,94.00534,188.36752
"911",9.647614,94.835434,189.63528
"912",9.66095,94.79881,190.06227
"913",9.674286,94.117645,189.84357
"914",9.687622,93.016556,189.18365
"915",9.700958,91.69573,188.26959
"916",9.714294,90.309,187.24835
"917",9.727631,88.94911,186.21062
"918",9.740967,87.657585,185.19875
"919",9.754303,86.434425,184.21489
"920",9.767639,85.26742,183.24896
"921",9.780975,84.159,182.30515
"922",9.794312,83.14824,181.42436
"923",9.807648,82.28397,180.65848
"924",9.820984,81.62478,180.07066
"925",9.83432,81.20241,179.69907
"926",9.847656,81.01198,179.54622
"927",9.860992,81.00954,179.57541
"928",9.874329,81.12184,179.71927
"929",9.887665,81.25857,179.89105
"930",9.901001,81.33669,180.00851
"931",9.914337,81.29519,180.00879
"932",9.927673,81.09743,179.8515
"933",9.9410095,80.740974,179.52934
"934",9.954346,80.24048,179.052
"935",9.967682,79.62768,178.44672
"936",9.981018,78.93919,177.7466
"937",9.994354,78.221405,176.99565
"938",10.00769,77.506065,176.22473
"939",10.021027,76.824905,175.46564
"940",10.034363,76.19745,174.73895
"941",10.047699,75.6408,174.06348
"942",10.061035,75.157394,173.44385
"943",10.074371,74.74723,172.88235
"944",10.0877075,74.407875,172.37885
"945",10.101044,74.13199,171.9282
"946",10.11438,73.90982,171.52266
"947",10.127716,73.738914,171.16144
"948",10.141052,73.619286,170.84615
"949",10.154388,73.55337,170.58083
"950",10.167725,73.54116,170.36716
"951",10.181061,73.58755,170.2117
"952",10.194397,73.67788,170.10164
"953",10.207733,73.797516,170.02371
"954",10.221069,73.93179,169.96416
"955",10.2344055,74.06607,169.9088
"956",10.247742,74.17349,169.83078
"957",10.261078,74.24185,169.71706
"958",10.274414,74.25651,169.55177
"959",10.28775,74.195465,169.31125
"960",10.301086,74.05875,168.99313
"961",10.314423,73.87076,168.61948
"962",10.327759,73.68032,168.2375
"963",10.341095,73.6144,167.97409
"964",10.354431,73.90982,168.06996
"965",10.367767,74.87419,168.84401
"966",10.3811035,76.76143,170.57106
"967",10.39444,79.622795,173.33122
"968",10.407776,83.245895,176.94254
"969",10.421112,87.17662,180.9747
"970",10.434448,90.85588,184.87823
"971",10.447784,93.788055,188.14966
"972",10.461121,95.69482,190.48729
"973",10.474457,96.54688,191.82982
"974",10.487793,96.500496,192.30052
"975",10.501129,95.77783,192.0935
"976",10.514465,94.60349,191.41223
"977",10.5278015,93.18257,190.44766
"978",10.541138,91.6762,189.35324
"979",10.554474,90.18692,188.22884
"980",10.56781,88.75624,187.1165
"981",10.581146,87.396355,186.03024
"982",10.594482,86.117035,184.98206
"983",10.607819,84.92317,183.97935
"984",10.621155,83.85138,183.06142
"985",10.634491,82.95537,182.28577
"986",10.647827,82.28397,181.70673
"987",10.661163,81.8616,181.35573
"988",10.6744995,81.67605,181.22835
"989",10.687836,81.671165,181.27585
"990",10.701172,81.76395,181.42085
"991",10.714508,81.866486,181.57852
"992",10.727844,81.8909,181.66127
"993",10.74118,81.778595,181.60806
"994",10.754517,81.50271,181.38776
"995",10.767853,81.06325,180.99525
"996",10.781189,80.482185,180.44742
"997",10.794525,79.798584,179.77888
"998",10.807861,79.0515,179.02551
"999",10.8211975,78.27268,178.21706
"1000",10.834534,77.49874,177.38913
"1001",10.84787,76.75899,176.57121
"1002",10.861206,76.07538,175.78632
"1003",10.874542,75.46502,175.05331
"1004",10.887878,74.93523,174.3818
"1005",10.901215,74.493324,173.78163
"1006",10.914551,74.14664,173.26286
"1007",10.927887,73.89029,172.8236
"1008",10.941223,73.70962,172.452
"1009",10.954559,73.602196,172.148
"1010",10.9678955,73.548485,171.89435
"1011",10.981232,73.5436,171.68785
"1012",10.994568,73.57778,171.52026
"1013",11.007904,73.64614,171.38792
"1014",11.02124,73.73403,171.27725
"1015",11.034576,73.81705,171.16446
"1016",11.047913,73.87564,171.02983
"1017",11.061249,73.882965,170.84576
"1018",11.074585,73.829254,170.60089
"1019",11.087921,73.73159,170.3104
"1020",11.101257,73.6437,170.02661
"1021",11.1145935,73.68032,169.8646
"1022",11.12793,74.06119,170.04797
"1023",11.141266,75.071945,170.87314
"1024",11.154602,76.93965,172.58684
"1025",11.167938,79.69604,175.24759
"1026",11.181274,83.13359,178.67564
"1027",11.194611,86.82994,182.46992
"1028",11.207947,90.26505,186.11847
"1029",11.221283,92.98726,189.16145
"1030",11.234619,94.747536,191.32758
"1031",11.247955,95.52636,192.56726
"1032",11.2612915,95.46044,192.98654
"1033",11.274628,94.74998,192.75922
"1034",11.287964,93.60494,192.07512
"1035",11.3013,92.21576,191.11108
"1036",11.314636,90.736244,190.0133
"1037",11.327972,89.25918,188.87175
"1038",11.341309,87.833374,187.73529
"1039",11.354645,86.47105,186.61775
"1040",11.367981,85.1844,185.53333
"1041",11.381317,84.000305,184.51125
"1042",11.394653,82.96269,183.59865
"1043",11.4079895,82.13504,182.86359
"1044",11.421326,81.57107,182.36633
"1045",11.434662,81.28054,182.12491
"1046",11.447998,81.234146,182.11853
"1047",11.461334,81.35134,182.27429
"1048",11.47467,81.54421,182.5094
"1049",11.488007,81.71755,182.731
"1050",11.501343,81.7908,182.85793
"1051",11.514679,81.705345,182.82843
"1052",11.528015,81.449,182.62538
"1053",11.541351,81.02663,182.24829
"1054",11.5546875,80.462654,181.7164
"1055",11.568024,79.781494,181.0497
"1056",11.58136,79.029526,180.2909
"1057",11.594696,78.24338,179.47441
"1058",11.608032,77.45724,178.63338
"1059",11.621368,76.71259,177.80927
"1060",11.634705,76.03876,177.0327
"1061",11.648041,75.44549,176.31564
"1062",11.661377,74.94499,175.67282
"1063",11.674713,74.53483,175.10469
"1064",11.688049,74.22232,174.6214
"1065",11.7013855,74.00015,174.21867
"1066",11.714722,73.85855,173.88957
"1067",11.728058,73.777985,173.61708
"1068",11.741394,73.72915,173.37381
"1069",11.75473,73.68032,173.12901
"1070",11.768066,73.599754,172.85095
"1071",11.781403,73.49233,172.54352
"1072",11.794739,73.36782,172.21564
"1073",11.808075,73.255516,171.89607
"1074",11.821411,73.2433,171.6731
"1075",11.834747,73.49233,171.71098
"1076",11.8480835,74.232086,172.24738
"1077",11.86142,75.684746,173.51979
"1078",11.874756,77.96506,175.66525
"1079",11.888092,80.96559,178.60219
"1080",11.901428,84.37873,182.0455
"1081",11.914764,87.75769,185.5613
"1082",11.928101,90.64103,188.68706
"1083",11.941437,92.696724,191.07529
"1084",11.954773,93.80759,192.58292
"1085",11.968109,94.03708,193.2439
"1086",11.981445,93.539024,193.1845
"1087",11.9947815,92.5185,192.58707
"1088",12.008118,91.17082,191.63058
"1089",12.021454,89.652245,190.46109
"1090",12.03479,88.06775,189.17822
"1091",12.048126,86.47837,187.84096
"1092",12.061462,84.92561,186.49065
"1093",12.074799,83.44366,185.16261
"1094",12.088135,82.08621,183.91278
"1095",12.101471,80.92409,182.81586
"1096",12.114807,80.042725,181.96338
"1097",12.128143,79.500725,181.42271
"1098",12.1414795,79.31762,181.224
"1099",12.154816,79.449455,181.3345
"1100",12.168152,79.79614,181.66399
"1101",12.181488,80.233154,182.09464
"1102",12.194824,80.635994,182.50476
"1103",12.20816,80.89723,182.78587
"1104",12.221497,80.953384,182.87007
"1105",12.234833,80.782486,182.72897
"1106",12.248169,80.39918,182.37012
"1107",12.261505,79.84009,181.8235
"1108",12.274841,79.15892,181.13733
"1109",12.2881775,78.40452,180.35664
"1110",12.301514,77.62081,179.52307
"1111",12.31485,76.85176,178.67967
"1112",12.328186,76.12421,177.85373
"1113",12.341522,75.46746,177.07587
"1114",12.354858,74.898605,176.36537
"1115",12.368195,74.42985,175.7372
"1116",12.381531,74.06363,175.19691
"1117",12.394867,73.78287,174.73064
"1118",12.408203,73.56069,174.31418
"1119",12.421539,73.36294,173.91519
"1120",12.4348755,73.17006,173.51491
"1121",12.448212,72.972305,173.10371
"1122",12.461548,72.77699,172.68878
"1123",12.474884,72.6305,172.31657
"1124",12.48822,72.64271,172.09848
"1125",12.501556,73.00404,172.2299
"1126",12.514893,73.94156,172.94879
"1127",12.528229,75.648125,174.46603
"1128",12.541565,78.14572,176.82764
"1129",12.554901,81.26345,179.88742
"1130",12.568237,84.6424,183.30586
"1131",12.5815735,87.833374,186.6419
"1132",12.59491,90.43107,189.48439
"1133",12.608246,92.19623,191.57552
"1134",12.621582,93.06294,192.82336
"1135",12.634918,93.11665,193.2853
"1136",12.648254,92.53315,193.11168
"1137",12.661591,91.493095,192.46329
"1138",12.674927,90.18204,191.51138
"1139",12.688263,88.74891,190.39644
"1140",12.701599,87.28161,189.20255
"1141",12.714935,85.82651,187.97499
"1142",12.7282715,84.403145,186.7337
"1143",12.741608,83.038376,185.50653
"1144",12.754944,81.78592,184.34903
"1145",12.76828,80.72144,183.34036
"1146",12.781616,79.923096,182.56456
"1147",12.794952,79.447014,182.08607
"1148",12.808289,79.30541,181.92719
"1149",12.821625,79.43481,182.03487
"1150",12.834961,79.7351,182.31749
"1151",12.848297,80.08179,182.6559
"1152",12.861633,80.360115,182.93678
"1153",12.8749695,80.48463,183.07256
"1154",12.888306,80.40406,183.00714
"1155",12.901642,80.12085,182.73656
"1156",12.914978,79.66674,182.28622
"1157",12.928314,79.08324,181.6923
"1158",12.94165,78.41428,180.9947
"1159",12.954987,77.7087,180.23956
"1160",12.968323,77.00313,179.46239
"1161",12.981659,76.32685,178.69246
"1162",12.994995,75.69207,177.94289
"1163",13.008331,75.11833,177.23453
"1164",13.0216675,74.60563,176.56927
"1165",13.035004,74.15152,175.9466
"1166",13.04834,73.74868,175.361
"1167",13.061676,73.392235,174.80919
"1168",13.075012,73.0724,174.28287
"1169",13.088348,72.78676,173.78073
"1170",13.101685,72.57191,173.34047
"1171",13.115021,72.49378,173.03021
"1172",13.128357,72.72083,173.02269
"1173",13.141693,73.48745,173.56183
"1174",13.155029,75.003586,174.87445
"1175",13.1683655,77.33761,177.05234
"1176",13.181702,80.35279,179.98431
"1177",13.195038,83.72442,183.36697
"1178",13.208374,87.00572,186.76466
"1179",13.22171,89.77432,189.7522
"1180",13.235046,91.74212,192.02544
"1181",13.248383,92.83101,193.48126
"1182",13.261719,93.09712,194.14835
"1183",13.275055,92.696724,194.15723
"1184",13.288391,91.8349,193.69217
"1185",13.301727,90.702065,192.92917
"1186",13.315063,89.47402,192.03557
"1187",13.3284,88.26307,191.12068
"1188",13.341736,87.10582,190.22165
"1189",13.355072,85.98764,189.32553
"1190",13.368408,84.88411,188.40912
"1191",13.381744,83.775696,187.45334
"1192",13.395081,82.684364,186.48
"1193",13.408417,81.671165,185.55069
"1194",13.421753,80.81911,184.75085
"1195",13.435089,80.19165,184.149
"1196",13.448425,79.80347,183.76682
"1197",13.461761,79.63256,183.58977
"1198",13.475098,79.603264,183.54898
"1199",13.488434,79.635,183.56831
"1200",13.50177,79.635,183.5569
"1201",13.515106,79.537346,183.44783
"1202",13.528442,79.30541,183.20143
"1203",13.541779,78.93187,182.80618
"1204",13.555115,78.42649,182.26743
"1205",13.568451,77.821014,181.61278
"1206",13.581787,77.14961,180.87328
"1207",13.595123,76.44892,180.08351
"1208",13.608459,75.75067,179.27429
"1209",13.621796,75.089035,178.47986
"1210",13.635132,74.47379,177.71115
"1211",13.648468,73.92447,176.98914
"1212",13.661804,73.44106,176.31587
"1213",13.67514,73.01625,175.6861
"1214",13.688477,72.64271,175.09431
"1215",13.701813,72.318,174.53969
"1216",13.715149,72.042114,174.02374
"1217",13.728485,71.82483,173.55777
"1218",13.741821,71.724724,173.2022
"1219",13.755157,71.88098,173.09985
"1220",13.768494,72.50355,173.4687
"1221",13.78183,73.79996,174.53085
"1222",13.795166,75.87518,176.41232
"1223",13.808502,78.65598,179.06422
"1224",13.821838,81.87381,182.24005
"1225",13.835175,85.138016,185.56282
"1226",13.848511,88.03845,188.62383
"1227",13.861847,90.25773,191.0943
"1228",13.875183,91.66155,192.81868
"1229",13.888519,92.28657,193.80812
"1230",13.901855,92.26215,194.16766
"1231",13.915192,91.773865,194.06256
"1232",13.928528,91.0219,193.67853
"1233",13.941864,90.17227,193.17334
"1234",13.9552,89.325096,192.64404
"1235",13.968536,88.50477,192.11513
"1236",13.981873,87.67956,191.5557
"1237",13.995209,86.785995,190.90211
"1238",14.008545,85.785,190.11319
"1239",14.021881,84.661934,189.1709
"1240",14.035217,83.46807,188.12273
"1241",14.048553,82.2913,187.05434
"1242",14.06189,81.24391,186.07855
"1243",14.075226,80.40894,185.28246
"1244",14.088562,79.82544,184.71173
"1245",14.101898,79.47387,184.3547
"1246",14.115234,79.29565,184.16003
"1247",14.128571,79.21263,184.05501
"1248",14.141907,79.13939,183.95715
"1249",14.155243,79.00755,183.79842
"1250",14.168579,78.77074,183.53058
"1251",14.181915,78.40452,183.12595
"1252",14.195251,77.91379,182.58536
"1253",14.208588,77.31075,181.91713
"1254",14.221924,76.627144,181.14948
"1255",14.23526,75.911804,180.32874
"1256",14.248596,75.21843,179.5076
"1257",14.261932,74.5861,178.72585
"1258",14.275269,74.03433,178.0049
"1259",14.288605,73.57046,177.3546
"1260",14.301941,73.19203,176.77525
"1261",14.315277,72.88197,176.25244
"1262",14.328613,72.62562,175.77365
"1263",14.341949,72.410774,175.32835
"1264",14.355286,72.22766,174.90808
"1265",14.368622,72.06653,174.50406
"1266",14.381958,71.90051,174.09012
"1267",14.395294,71.73449,173.67099
"1268",14.40863,71.58556,173.26376
"1269",14.421967,71.51232,172.92757
"1270",14.435303,71.61974,172.76974
"1271",14.448639,72.10559,172.99371
"1272",14.461975,73.19447,173.83589
"1273",14.475311,75.037766,175.4665
"1274",14.488647,77.63546,177.90913
"1275",14.501984,80.8069,181.00668
"1276",14.51532,84.19806,184.42307
"1277",14.528656,87.37194,187.72813
"1278",14.541992,89.95499,190.54155
"1279",14.555328,91.73235,192.63
"1280",14.568665,92.67231,193.9366
"1281",14.582001,92.88716,194.54745
"1282",14.595337,92.56245,194.62546
"1283",14.608673,91.90082,194.3564
"1284",14.622009,91.087814,193.9153
"1285",14.635345,90.24063,193.41461
"1286",14.648682,89.41787,192.91187
"1287",14.662018,88.602425,192.39073
"1288",14.675354,87.743034,191.80017
"1289",14.68869,86.768906,191.06801
"1290",14.702026,85.645836,190.15646
"1291",14.715363,84.3885,189.07556
"1292",14.728699,83.08232,187.90652
"1293",14.742035,81.83963,186.76016
"1294",14.755371,80.77516,185.75319
"1295",14.768707,79.96948,184.97174
"1296",14.782043,79.43969,184.441
"1297",14.79538,79.13939,184.12318
"1298",14.808716,78.98558,183.94247
"1299",14.822052,78.87816,183.80334
"1300",14.835388,78.729225,183.61935
"1301",14.848724,78.47288,183.32329
"1302",14.862061,78.08469,182.88737
"1303",14.875397,77.5671,182.30994
"1304",14.888733,76.964066,181.63087
"1305",14.902069,76.30488,180.87682
"1306",14.915405,75.63348,180.08994
"1307",14.928741,74.97185,179.29185
"1308",14.942078,74.34684,178.50972
"1309",14.955414,73.76578,177.752
"1310",14.96875,73.24086,177.03226
"1311",14.982086,72.78676,176.36693
"1312",14.995422,72.40833,175.76309
"1313",15.008759,72.10315,175.22067
"1314",15.022095,71.86389,174.73463
"1315",15.035431,71.68078,174.29727
"1316",15.048767,71.54406,173.90057
"1317",15.062103,71.44152,173.53378
"1318",15.075439,71.37072,173.19553
"1319",15.088776,71.326775,172.88191
"1320",15.102112,71.30236,172.58646
"1321",15.115448,71.29015,172.30244
"1322",15.128784,71.28771,172.02782
"1323",15.14212,71.28771,171.75555
"1324",15.155457,71.29015,171.48573
"1325",15.168793,71.292595,171.21599
"1326",15.182129,71.29992,170.9512
"1327",15.195465,71.3048,170.6842
"1328",15.208801,71.3048,170.41248
"1329",15.222137,71.29015,170.1261
"1330",15.235474,71.24376,169.80753
"1331",15.24881,71.16319,169.45332
"1332",15.262146,71.05089,169.06487
"1333",15.275482,70.906845,168.64116
"1334",15.288818,70.748146,168.1983
"1335",15.302155,70.623634,167.78467
"1336",15.315491,70.63584,167.50386
"1337",15.328827,71.0045,167.5799
"1338",15.342163,72.044556,168.33884
"1339",15.355499,74.0441,170.08977
"1340",15.368835,77.09834,172.95789
"1341",15.382172,81.02907,176.79793
"1342",15.395508,85.399254,181.20027
"1343",15.408844,89.637596,185.60735
"1344",15.42218,93.206985,189.4779
"1345",15.435516,95.77295,192.45659
"1346",15.448853,97.25979,194.43634
"1347",15.462189,97.78958,195.5055
"1348",15.475525,97.584496,195.85632
"1349",15.488861,96.87648,195.69781
"1350",15.502197,95.90234,195.25107
"1351",15.515533,94.84032,194.68599
"1352",15.52887,93.802704,194.11214
"1353",15.542206,92.81148,193.55225
"1354",15.555542,91.83002,192.97115
"1355",15.568878,90.78508,192.2959
"1356",15.582214,89.62051,191.46835
"1357",15.595551,88.31678,190.46527
"1358",15.608887,86.91783,189.32622
"1359",15.622223,85.53597,188.16054
"1360",15.635559,84.2884,187.08597
"1361",15.648895,83.267876,186.19946
"1362",15.662231,82.52079,185.5545
"1363",15.675568,82.0325,185.14499
"1364",15.688904,81.7322,184.9082
"1365",15.70224,81.52468,184.75482
"1366",15.715576,81.31716,184.59496
"1367",15.728912,81.03639,184.35535
"1368",15.742249,80.638435,183.98978
"1369",15.755585,80.10132,183.47261
"1370",15.768921,79.43725,182.8117
"1371",15.782257,78.675514,182.03238
"1372",15.795593,77.86008,181.17555
"1373",15.808929,77.0251,180.2737
"1374",15.822266,76.2121,179.36772
"1375",15.835602,75.45037,178.48763
"1376",15.848938,74.75456,177.64964
"1377",15.862274,74.13687,176.86803
"1378",15.87561,73.60708,176.15501
"1379",15.888947,73.16518,175.51334
"1380",15.902283,72.798965,174.93353
"1381",15.915619,72.50355,174.41309
"1382",15.928955,72.26185,173.93712
"1383",15.942291,72.06653,173.49998
"1384",15.955627,71.905396,173.09093
"1385",15.968964,71.78088,172.71346
"1386",15.9823,71.690544,172.36627
"1387",15.995636,71.63439,172.05045
"1388",16.008972,71.60754,171.76216
"1389",16.022308,71.60021,171.49257
"1390",16.035645,71.59777,171.22763
"1391",16.04898,71.59289,170.96017
"1392",16.062317,71.57824,170.6828
"1393",16.075653,71.5465,170.38788
"1394",16.08899,71.50988,170.08708
"1395",16.102325,71.465935,169.77782
"1396",16.115662,71.42443,169.46962
"1397",16.128998,71.38781,169.16501
"1398",16.142334,71.35119,168.85925
"1399",16.15567,71.30724,168.54503
"1400",16.169006,71.23888,168.20502
"1401",16.182343,71.13878,167.83113
"1402",16.195679,70.99718,167.41261
"1403",16.209015,70.81651,166.9506
"1404",16.222351,70.62852,166.47563
"1405",16.235687,70.48936,166.04361
"1406",16.249023,70.53574,165.79279
"1407",16.26236,71.02403,165.98532
"1408",16.275696,72.28138,166.96217
"1409",16.289032,74.56901,169.00859
"1410",16.302368,77.93332,172.20319
"1411",16.315704,82.12039,176.32567
"1412",16.32904,86.6395,180.91104
"1413",16.342377,90.87785,185.35687
"1414",16.355713,94.3032,189.12215
"1415",16.36905,96.620125,191.88605
"1416",16.382385,97.80423,193.58954
"1417",16.395721,98.021515,194.3632
"1418",16.409058,97.513695,194.41855
"1419",16.422394,96.53712,193.98927
"1420",16.43573,95.31884,193.28778
"1421",16.449066,94.03708,192.48474
"1422",16.462402,92.806595,191.69292
"1423",16.475739,91.65423,190.94075
"1424",16.489075,90.545815,190.19653
"1425",16.50241,89.42031,189.40059
"1426",16.515747,88.23132,188.50598
"1427",16.529083,86.98619,187.51808
"1428",16.54242,85.731285,186.48149
"1429",16.555756,84.56184,185.49115
"1430",16.569092,83.57061,184.64249
"1431",16.582428,82.80888,183.99234
"1432",16.595764,82.286415,183.55765
"1433",16.6091,81.96658,183.30927
"1434",16.622437,81.77371,183.17786
"1435",16.635773,81.61257,183.07214
"1436",16.649109,81.40505,182.91502
"1437",16.662445,81.08522,182.6391
"1438",16.675781,80.618904,182.2067
"1439",16.689117,80.0061,181.61324
"1440",16.702454,79.273674,180.881
"1441",16.71579,78.46067,180.04529
"1442",16.729126,77.60616,179.14267
"1443",16.742462,76.754105,178.2158
"1444",16.755798,75.93378,177.29404
"1445",16.769135,75.174484,176.40767
"1446",16.78247,74.48844,175.57083
"1447",16.795807,73.88052,174.79068
"1448",16.809143,73.35073,174.06966
"1449",16.82248,72.90639,173.41753
"1450",16.835815,72.54017,172.82964
"1451",16.849152,72.24231,172.29866
"1452",16.862488,72.01526,171.82918
"1453",16.875824,71.8468,171.4112
"1454",16.88916,71.72228,171.03189
"1455",16.902496,71.63439,170.68532
"1456",16.915833,71.57336,170.36285
"1457",16.929169,71.54162,170.06778
"1458",16.942505,71.54406,169.8059
"1459",16.955841,71.588005,169.58559
"1460",16.969177,71.658806,169.39351
"1461",16.982513,71.75159,169.22563
"1462",16.99585,71.84192,169.0582
"1463",17.009186,71.91028,168.87161
"1464",17.022522,71.94934,168.65787
"1465",17.035858,71.95911,168.41605
"1466",17.049194,71.94202,168.14767
"1467",17.06253,71.90051,167.85435
"1468",17.075867,71.82971,167.53044
"1469",17.089203,71.727165,167.17258
"1470",17.10254,71.58556,166.77245
"1471",17.115875,71.4049,166.32883
"1472",17.129211,71.19249,165.84782
"1473",17.142548,70.97276,165.35286
"1474",17.155884,70.83116,164.92915
"1475",17.16922,70.92149,164.73296
"1476",17.182556,71.52697,165.05473
"1477",17.195892,72.99184,166.25482
"1478",17.209229,75.58221,168.62619
"1479",17.222565,79.32006,172.22598
"1480",17.2359,83.90997,176.79465
"1481",17.249237,88.76845,181.77531
"1482",17.262573,93.22896,186.50984
"1483",17.27591,96.725105,190.41939
"1484",17.289246,98.95903,193.17596
"1485",17.302582,99.93317,194.74257
"1486",17.315918,99.87213,195.30444
"1487",17.329254,99.06645,195.11977
"1488",17.34259,97.794464,194.4436
"1489",17.355927,96.29298,193.4982
"1490",17.369263,94.74021,192.45459
"1491",17.382599,93.23384,191.40884
"1492",17.395935,91.808044,190.3966
"1493",17.409271,90.443275,189.40083
"1494",17.422607,89.11513,188.39903
"1495",17.435944,87.799194,187.36795
"1496",17.44928,86.51743,186.32991
"1497",17.462616,85.32601,185.34216
"1498",17.475952,84.300606,184.4832
"1499",17.489288,83.49981,183.8168
"1500",17.502625,82.9456,183.37196
"1501",17.51596,82.62089,183.1393
"1502",17.529297,82.46708,183.0674
"1503",17.542633,82.38407,183.0615
"1504",17.55597,82.27665,183.02858
"1505",17.569305,82.07156,182.89464
"1506",17.582642,81.71267,182.60048
"1507",17.595978,81.18532,182.12665
"1508",17.609314,80.49683,181.4752
"1509",17.62265,79.674065,180.66797
"1510",17.635986,78.75853,179.74225
"1511",17.649323,77.79416,178.73907
"1512",17.662659,76.822464,177.69844
"1513",17.675995,75.877625,176.6543
"1514",17.689331,75.001144,175.64899
"1515",17.702667,74.21744,174.70906
"1516",17.716003,73.531395,173.84232
"1517",17.72934,72.94301,173.05179
"1518",17.742676,72.444954,172.3332
"1519",17.756012,72.027466,171.67963
"1520",17.769348,71.675896,171.07892
"1521",17.782684,71.39025,170.53314
"1522",17.79602,71.1754,170.04924
"1523",17.809357,71.028915,169.62698
"1524",17.822693,70.95079,169.26851
"1525",17.83603,70.94347,168.9784
"1526",17.849365,70.98741,168.73932
"1527",17.862701,71.07042,168.54068
"1528",17.876038,71.168076,168.35928
"1529",17.889374,71.27306,168.18828
"1530",17.90271,71.36584,168.00833
"1531",17.916046,71.431755,167.80443
"1532",17.929382,71.45617,167.56108
"1533",17.942719,71.42199,167.2599
"1534",17.956055,71.31701,166.88686
"1535",17.96939,71.14366,166.44217
"1536",17.982727,70.92882,165.95056
"1537",17.996063,70.748146,165.48642
"1538",18.0094,70.74326,165.19241
"1539",18.022736,71.17052,165.3304
"1540",18.036072,72.35218,166.23615
"1541",18.049408,74.57633,168.2213
"1542",18.062744,77.962616,171.4381
"1543",18.07608,82.33036,175.74217
"1544",18.089417,87.19127,180.6759
"1545",18.102753,91.88373,185.5931
"1546",18.116089,95.782715,189.86345
"1547",18.129425,98.475624,193.04956
"1548",18.142761,99.83795,194.98926
"1549",18.156097,100.018616,195.78986
"1550",18.169434,99.31304,195.70987
"1551",18.18277,98.03128,195.03165
"1552",18.196106,96.43214,193.99597
"1553",18.209442,94.72312,192.80046
"1554",18.222778,93.02144,191.55887
"1555",18.236115,91.37347,190.31781
"1556",18.24945,89.78165,189.0814
"1557",18.262787,88.24353,187.84897
"1558",18.276123,86.766464,186.62952
"1559",18.28946,85.401695,185.4762
"1560",18.302795,84.23224,184.47554
"1561",18.316132,83.32647,183.70203
"1562",18.329468,82.72831,183.20782
"1563",18.342804,82.41825,182.98303
"1564",18.35614,82.337685,182.97804
"1565",18.369476,82.38407,183.09749
"1566",18.382812,82.45731,183.24524
"1567",18.396149,82.4622,183.32692
"1568",18.409485,82.3328,183.27448
"1569",18.422821,82.022736,183.03731
"1570",18.436157,81.52468,182.60246
"1571",18.449493,80.848404,181.97383
"1572",18.46283,80.028076,181.18002
"1573",18.476166,79.10521,180.25803
"1574",18.489502,78.13107,179.25592
"1575",18.502838,77.14961,178.21605
"1576",18.516174,76.209656,177.18701
"1577",18.52951,75.335625,176.19453
"1578",18.542847,74.55436,175.2675
"1579",18.556183,73.8732,174.41617
"1580",18.569519,73.29214,173.64365
"1581",18.582855,72.813614,172.9555
"1582",18.596191,72.43275,172.35007
"1583",18.609528,72.14221,171.82306
"1584",18.622864,71.92737,171.36266
"1585",18.6362,71.77356,170.95657
"1586",18.649536,71.66369,170.58963
"1587",18.662872,71.57824,170.24367
"1588",18.676208,71.49279,169.89503
"1589",18.689545,71.40002,169.5364
"1590",18.70288,71.29748,169.16512
"1591",18.716217,71.19005,168.78574
"1592",18.729553,71.11192,168.4323
"1593",18.74289,71.15343,168.19604
"1594",18.756226,71.48791,168.25407
"1595",18.769562,72.36439,168.86455
"1596",18.782898,74.04654,170.30809
"1597",18.796234,76.71015,172.78566
"1598",18.80957,80.32838,176.30107
"1599",18.822906,84.58869,180.57166
"1600",18.836243,88.96132,185.08768
"1601",18.849579,92.85542,189.26183
"1602",18.862915,95.799805,192.60794
"1603",18.876251,97.54543,194.84732
"1604",18.889587,98.11429,195.96448
"1605",18.902924,97.71389,196.13016
"1606",18.91626,96.63233,195.60216
"1607",18.929596,95.130844,194.62042
"1608",18.942932,93.40475,193.36716
"1609",18.956268,91.58587,191.96718
"1610",18.969604,89.74502,190.48839
"1611",18.98294,87.92859,188.97649
"1612",18.996277,86.18051,187.47618
"1613",19.009613,84.54963,186.03844
"1614",19.02295,83.11406,184.74504
"1615",19.036285,81.95926,183.68756
"1616",19.049622,81.15114,182.94067
"1617",19.062958,80.719,182.54451
"1618",19.076294,80.63111,182.4791
"1619",19.08963,80.81178,182.67949
"1620",19.102966,81.13405,183.02713
"1621",19.116302,81.463646,183.39217
"1622",19.129639,81.68093,183.6552
"1623",19.142975,81.69314,183.71994
"1624",19.156311,81.45144,183.53116
"1625",19.169647,80.955826,183.0809
"1626",19.182983,80.23804,182.39299
"1627",19.19632,79.35668,181.51907
"1628",19.209656,78.3679,180.51018
"1629",19.222992,77.330284,179.42155
"1630",19.236328,76.299995,178.30783
"1631",19.249664,75.32098,177.21318
"1632",19.263,74.424965,176.17094
"1633",19.276337,73.63149,175.20325
"1634",19.289673,72.955215,174.32796
"1635",19.303009,72.38148,173.53407
"1636",19.316345,71.89807,172.81259
"1637",19.329681,71.47326,172.1346
"1638",19.343018,71.08995,171.48483
"1639",19.356354,70.73106,170.8475
"1640",19.36969,70.38926,170.21605
"1641",19.383026,70.07919,169.60565
"1642",19.396362,69.83017,169.0466
"1643",19.409698,69.71053,168.60916
"1644",19.423035,69.857025,168.43411
"1645",19.43637,70.47959,168.73972
"1646",19.449707,71.837036,169.79965
"1647",19.463043,74.144196,171.85172
"1648",19.47638,77.44991,174.97444
"1649",19.489716,81.53689,178.98172
"1650",19.503052,85.93637,183.42923
"1651",19.516388,90.05997,187.73834
"1652",19.529724,93.37057,191.36331
"1653",19.54306,95.536125,193.9467
"1654",19.556396,96.49317,195.38925
"1655",19.569733,96.40284,195.81433
"1656",19.583069,95.54101,195.46509
"1657",19.596405,94.19089,194.60062
"1658",19.609741,92.577095,193.43028
"1659",19.623077,90.84123,192.08745
"1660",19.636414,89.07118,190.65619
"1661",19.64975,87.308464,189.17694
"1662",19.663086,85.57992,187.67679
"1663",19.676422,83.929504,186.20074
"1664",19.689758,82.42802,184.82205
"1665",19.703094,81.15846,183.62837
"1666",19.71643,80.21362,182.71974
"1667",19.729767,79.63744,182.15024
"1668",19.743103,79.432365,181.93382
"1669",19.75644,79.52758,182.01129
"1670",19.769775,79.818115,182.28706
"1671",19.783112,80.164795,182.62805
"1672",19.796448,80.43336,182.90176
"1673",19.809784,80.52125,183.0032
"1674",19.82312,80.37476,182.87302
"1675",19.836456,79.98657,182.49654
"1676",19.849792,79.38598,181.89552
"1677",19.863129,78.624245,181.1146
"1678",19.876465,77.76242,180.20978
"1679",19.889801,76.85176,179.22919
"1680",19.903137,75.93866,178.2177
"1681",19.916473,75.04997,177.20209
"1682",19.92981,74.21744,176.21486
"1683",19.943146,73.45571,175.27243
"1684",19.956482,72.76967,174.38188
"1685",19.969818,72.15442,173.54068
"1686",19.983154,71.60754,172.74863
"1687",19.99649,71.10704,171.98587
"1688",20.009827,70.64561,171.24654
"1689",20.023163,70.23056,170.53917
"1690",20.036499,69.89365,169.89696
"1691",20.049835,69.72274,169.41023
"1692",20.063171,69.891205,169.25754
"1693",20.076508,70.64805,169.69849
"1694",20.089844,72.26185,171.02003
"1695",20.10318,74.8864,173.40277
"1696",20.116516,78.44358,176.80016
"1697",20.129852,82.59159,180.89952
"1698",20.143188,86.800644,185.18956
"1699",20.156525,90.50431,189.10574
"1700",20.16986,93.280235,192.20993
"1701",20.183197,94.9453,194.29
"1702",20.196533,95.55566,195.3674
"1703",20.20987,95.328606,195.62646
"1704",20.223206,94.51804,195.29492
"1705",20.236542,93.3608,194.59137
"1706",20.249878,92.04486,193.69295
"1707",20.263214,90.68986,192.71434
"1708",20.27655,89.34463,191.70317
"1709",20.289886,88.0116,190.66216
"1710",20.303223,86.67368,189.5746
"1711",20.316559,85.316246,188.42572
"1712",20.329895,83.9881,187.2637
"1713",20.343231,82.7625,186.16273
"1714",20.356567,81.7322,185.21877
"1715",20.369904,80.96559,184.50629
"1716",20.38324,80.49439,184.06526
"1717",20.396576,80.289314,183.87564
"1718",20.409912,80.26978,183.86516
"1719",20.423248,80.3357,183.93951
"1720",20.436584,80.37965,183.99396
"1721",20.44992,80.308846,183.93503
"1722",20.463257,80.06714,183.70297
"1723",20.476593,79.62768,183.26561
"1724",20.48993,79.00511,182.63141
"1725",20.503265,78.24094,181.83614
"1726",20.516602,77.39132,180.93155
"1727",20.529938,76.50507,179.96378
"1728",20.543274,75.631035,178.98051
"1729",20.55661,74.80095,178.0139
"1730",20.569946,74.03677,177.08725
"1731",20.583282,73.34585,176.20998
"1732",20.596619,72.73304,175.38922
"1733",20.609955,72.19592,174.62502
"1734",20.623291,71.72228,173.9075
"1735",20.636627,71.29748,173.22401
"1736",20.649963,70.91173,172.56631
"1737",20.6633,70.572365,171.94295
"1738",20.676636,70.30869,171.38466
"1739",20.689972,70.21103,170.98415
"1740",20.703308,70.46006,170.92728
"1741",20.716644,71.31701,171.4861
"1742",20.72998,73.03334,172.93109
"1743",20.743317,75.70672,175.38676
"1744",20.756653,79.20775,178.75363
"1745",20.769989,83.16533,182.68645
"1746",20.783325,87.07164,186.69168
"1747",20.796661,90.41886,190.25989
"1748",20.809998,92.87251,193.03912
"1749",20.823334,94.32029,194.88916
"1750",20.83667,94.85741,195.87378
"1751",20.850006,94.66941,196.15009
"1752",20.863342,93.978485,195.91757
"1753",20.876678,93.00191,195.37782
"1754",20.890015,91.913025,194.69525
"1755",20.90335,90.826584,193.9811
"1756",20.916687,89.779205,193.27205
"1757",20.930023,88.74891,192.54735
"1758",20.94336,87.674675,191.74652
"1759",20.956696,86.50767,190.81935
"1760",20.970032,85.23323,189.74828
"1761",20.983368,83.90021,188.5788
"1762",20.996704,82.60868,187.40915
"1763",21.01004,81.478294,186.36029
"1764",21.023376,80.6067,185.5349
"1765",21.036713,80.028076,184.97523
"1766",21.050049,79.708244,184.65628
"1767",21.063385,79.57397,184.51288
"1768",21.076721,79.51049,184.43608
"1769",21.090057,79.415276,184.32556
"1770",21.103394,79.20531,184.09732
"1771",21.11673,78.84886,183.71603
"1772",21.130066,78.34348,183.17468
"1773",21.143402,77.70626,182.48569
"1774",21.156738,76.964066,181.67181
"1775",21.170074,76.155945,180.76881
"1776",21.18341,75.32098,179.81372
"1777",21.196747,74.512856,178.85938
"1778",21.210083,73.780426,177.95547
"1779",21.22342,73.15785,177.13853
"1780",21.236755,72.65736,176.42422
"1781",21.250092,72.26673,175.80414
"1782",21.263428,71.96887,175.26462
"1783",21.276764,71.73693,174.78171
"1784",21.2901,71.55627,174.34282
"1785",21.303436,71.4049,173.92758
"1786",21.316772,71.27062,173.5247
"1787",21.330109,71.12901,173.1103
"1788",21.343445,70.97276,172.67683
"1789",21.356781,70.801865,172.22383
"1790",21.370117,70.6627,171.79723
"1791",21.383453,70.677345,171.52008
"1792",21.39679,71.05333,171.60474
"1793",21.410126,72.059204,172.33102
"1794",21.423462,73.90982,173.93349
"1795",21.436798,76.66132,176.49467
"1796",21.450134,80.13306,179.86208
"1797",21.46347,83.94171,183.6749
"1798",21.476807,87.606316,187.46268
"1799",21.490143,90.68009,190.77415
"1800",21.503479,92.89937,193.32718
"1801",21.516815,94.20065,195.03157
"1802",21.530151,94.676735,195.95142
"1803",21.543488,94.51072,196.24405
"1804",21.556824,93.91989,196.10667
"1805",21.57016,93.10689,195.72867
"1806",21.583496,92.22064,195.25201
"1807",21.596832,91.34173,194.75499
"1808",21.610168,90.47257,194.24026
"1809",21.623505,89.55459,193.64955
"1810",21.63684,88.50721,192.90076
"1811",21.650177,87.28405,191.94345
"1812",21.663513,85.89975,190.78677
"1813",21.67685,84.439766,189.51115
"1814",21.690186,83.021286,188.23141
"1815",21.703522,81.77371,187.07826
"1816",21.716858,80.782486,186.14247
"1817",21.730194,80.079346,185.46379
"1818",21.74353,79.63012,185.01704
"1819",21.756866,79.364006,184.73936
"1820",21.770203,79.183334,184.53882
"1821",21.783539,79.00267,184.33263
"1822",21.796875,78.74387,184.04266
"1823",21.810211,78.3679,183.62743
"1824",21.823547,77.85031,183.05884
"1825",21.836884,77.21309,182.35443
"1826",21.85022,76.49287,181.54712
"1827",21.863556,75.73846,180.6831
"1828",21.876892,74.99138,179.80286
"1829",21.890228,74.27604,178.931
"1830",21.903564,73.599754,178.07584
"1831",21.9169,72.96498,177.24106
"1832",21.930237,72.37415,176.43039
"1833",21.943573,71.837036,175.65497
"1834",21.95691,71.37072,174.93356
"1835",21.970245,70.994736,174.28792
"1836",21.983582,70.711525,173.7233
"1837",21.996918,70.51133,173.23283
"1838",22.010254,70.381935,172.80692
"1839",22.02359,70.30869,172.4331
"1840",22.036926,70.28672,172.10828
"1841",22.050262,70.30381,171.82182
"1842",22.063599,70.35508,171.57008
"1843",22.076935,70.42832,171.34192
"1844",22.090271,70.50889,171.12337
"1845",22.103607,70.58457,170.90245
"1846",22.116943,70.6334,170.65704
"1847",22.13028,70.64561,170.37654
"1848",22.143616,70.608986,170.04759
"1849",22.156952,70.51621,169.66135
"1850",22.170288,70.37705,169.22581
"1851",22.183624,70.22812,168.77617
"1852",22.19696,70.15732,168.4
"1853",22.210297,70.34287,168.27797
"1854",22.223633,71.07042,168.70374
"1855",22.236969,72.65736,170.01163
"1856",22.250305,75.27947,172.40428
"1857",22.263641,78.86107,175.83836
"1858",22.276978,83.05791,179.9996
"1859",22.290314,87.345085,184.38234
"1860",22.30365,91.15129,188.41808
"1861",22.316986,94.05905,191.67432
"1862",22.330322,95.91455,193.96916
"1863",22.343658,96.77638,195.32832
"1864",22.356995,96.849625,195.92583
"1865",22.37033,96.378426,195.98117
"1866",22.383667,95.59716,195.71173
"1867",22.397003,94.68894,195.29092
"1868",22.41034,93.78073,194.84174
"1869",22.423676,92.90669,194.39835
"1870",22.437012,92.02777,193.92276
"1871",22.450348,91.073166,193.34402
"1872",22.463684,89.96719,192.58409
"1873",22.47702,88.67567,191.60403
"1874",22.490356,87.22789,190.42737
"1875",22.503693,85.71664,189.14198
"1876",22.517029,84.26887,187.87286
"1877",22.530365,83.00664,186.74403
"1878",22.543701,82.01053,185.84189
"1879",22.557037,81.307396,185.20158
"1880",22.570374,80.85573,184.79077
"1881",22.58371,80.57496,184.53674
"1882",22.597046,80.365,184.34476
"1883",22.610382,80.128174,184.11934
"1884",22.623718,79.79614,183.79132
"1885",22.637054,79.33471,183.32352
"1886",22.65039,78.73655,182.70456
"1887",22.663727,78.02609,181.95462
"1888",22.677063,77.23506,181.1019
"1889",22.6904,76.40986,180.19029
"1890",22.703735,75.58953,179.25777
"1891",22.717072,74.80827,178.33868
"1892",22.730408,74.08316,177.45132
"1893",22.743744,73.428856,176.61212
"1894",22.75708,72.84535,175.82327
"1895",22.770416,72.33509,175.08943
"1896",22.783752,71.89319,174.408
"1897",22.797089,71.52209,173.78357
"1898",22.810425,71.22667,173.22322
"1899",22.823761,70.99718,172.71956
"1900",22.837097,70.82628,172.26732
"1901",22.850433,70.7042,171.85857
"1902",22.86377,70.626076,171.48994
"1903",22.877106,70.59434,171.16527
"1904",22.890442,70.608986,170.88599
"1905",22.903778,70.66758,170.65111
"1906",22.917114,70.750595,170.44249
"1907",22.93045,70.84093,170.24377
"1908",22.943787,70.92638,170.043
"1909",22.957123,70.99718,169.83025
"1910",22.970459,71.043564,169.59529
"1911",22.983795,71.07286,169.3447
"1912",22.997131,71.07774,169.0706
"1913",23.010468,71.0338,168.74783
"1914",23.023804,70.9337,168.36754
"1915",23.03714,70.77257,167.92308
"1916",23.050476,70.5626,167.42476
"1917",23.063812,70.347755,166.915
"1918",23.077148,70.23056,166.49617
"1919",23.090485,70.41123,166.37155
"1920",23.10382,71.18761,166.84828
"1921",23.117157,72.87709,168.26237
"1922",23.130493,75.66033,170.82303
"1923",23.14383,79.449455,174.47653
"1924",23.157166,83.87335,178.88322
"1925",23.170502,88.37049,183.5014
"1926",23.183838,92.3476,187.7401
"1927",23.197174,95.360344,191.1387
"1928",23.21051,97.23781,193.49619
"1929",23.223846,98.05325,194.85031
"1930",23.237183,98.01419,195.37541
"1931",23.250519,97.38186,195.30603
"1932",23.263855,96.395515,194.86287
"1933",23.277191,95.26269,194.2424
"1934",23.290527,94.11276,193.56943
"1935",23.303864,93.01167,192.90936
"1936",23.3172,91.935,192.2393
"1937",23.330536,90.83147,191.50874
"1938",23.343872,89.64248,190.65823
"1939",23.357208,88.33875,189.65584
"1940",23.370544,86.95201,188.52968
"1941",23.38388,85.57015,187.36507
"1942",23.397217,84.30549,186.27448
"1943",23.410553,83.250786,185.35432
"1944",23.42389,82.45243,184.65756
"1945",23.437225,81.90799,184.18976
"1946",23.450562,81.56374,183.90514
"1947",23.463898,81.33669,183.72696
"1948",23.477234,81.126724,183.55876
"1949",23.49057,80.86061,183.32787
"1950",23.503906,80.482185,182.97633
"1951",23.517242,79.96948,182.4787
"1952",23.530579,79.31762,181.82588
"1953",23.543915,78.55833,181.04526
"1954",23.557251,77.72335,180.16522
"1955",23.570587,76.8542,179.22493
"1956",23.583923,75.98016,178.25258
"1957",23.59726,75.13786,177.28465
"1958",23.610596,74.354164,176.34901
"1959",23.623932,73.64126,175.45967
"1960",23.637268,73.01381,174.63351
"1961",23.650604,72.481575,173.88297
"1962",23.66394,72.03723,173.20367
"1963",23.677277,71.67834,172.59595
"1964",23.690613,71.397575,172.05513
"1965",23.703949,71.18761,171.57634
"1966",23.717285,71.0338,171.14714
"1967",23.730621,70.92638,170.75952
"1968",23.743958,70.855576,170.40517
"1969",23.757294,70.81651,170.08034
"1970",23.77063,70.80675,169.78358
"1971",23.783966,70.821396,169.51094
"1972",23.797302,70.85802,169.26073
"1973",23.810638,70.9044,169.02142
"1974",23.823975,70.95323,168.78601
"1975",23.83731,70.99962,168.54968
"1976",23.850647,71.0338,168.3026
"1977",23.863983,71.05821,168.04681
"1978",23.87732,71.06065,167.76982
"1979",23.890656,71.026474,167.45628
"1980",23.903992,70.94347,167.09285
"1981",23.917328,70.80919,166.67555
"1982",23.930664,70.6334,166.21255
"1983",23.944,70.43809,165.72453
"1984",23.957336,70.25742,165.24506
"1985",23.970673,70.1622,164.84538
"1986",23.984009,70.32334,164.6991
"1987",23.997345,71.02403,165.0974
"1988",24.010681,72.61829,166.41116
"1989",24.024017,75.37469,168.93687
"1990",24.037354,79.30541,172.72305
"1991",24.05069,84.07355,177.46948
"1992",24.064026,89.09071,182.61395
"1993",24.077362,93.66598,187.4733
"1994",24.090698,97.24025,191.47462
"1995",24.104034,99.53765,194.31079
"1996",24.11737,100.58503,195.96872
"1997",24.130707,100.60212,196.62909
"1998",24.144043,99.879456,196.55025
"1999",24.15738,98.69291,195.98494
"2000",24.170715,97.271996,195.14818
"2001",24.184052,95.79248,194.2084
"2002",24.197388,94.35935,193.2688
"2003",24.210724,92.997025,192.3552
"2004",24.22406,91.68597,191.45029
"2005",24.237396,90.372475,190.50198
"2006",24.250732,89.041885,189.49553
"2007",24.264069,87.691765,188.42796
"2008",24.277405,86.37827,187.35484
"2009",24.290741,85.189285,186.36517
"2010",24.304077,84.19806,185.53612
"2011",24.317413,83.44854,184.91779
"2012",24.33075,82.92851,184.50552
"2013",24.344086,82.598915,184.26744
"2014",24.357422,82.374306,184.12405
"2015",24.370758,82.159454,183.9834
"2016",24.384094,81.87625,183.76768
"2017",24.39743,81.46853,183.4186
"2018",24.410767,80.921646,182.9176
"2019",24.424103,80.24048,182.26524
"2020",24.437439,79.447014,181.4793
"2021",24.450775,78.56809,180.58308
"2022",24.464111,77.6379,179.60814
"2023",24.477448,76.68574,178.58215
"2024",24.490784,75.736015,177.52885
"2025",24.50412,74.827805,176.4874
"2026",24.517456,73.99283,175.49078
"2027",24.530792,73.253075,174.56331
"2028",24.544128,72.61585,173.71524
"2029",24.557465,72.08118,172.94981
"2030",24.5708,71.641716,172.2629
"2031",24.584137,71.28771,171.64769
"2032",24.597473,71.00694,171.09467
"2033",24.61081,70.7921,170.59879
"2034",24.624146,70.63096,170.1499
"2035",24.637482,70.52354,169.7497
"2036",24.650818,70.4625,169.39252
"2037",24.664154,70.43809,169.07005
"2038",24.67749,70.45762,168.79077
"2039",24.690826,70.51377,168.54872
"2040",24.704163,70.591896,168.3304
"2041",24.717499,70.67246,168.11696
"2042",24.730835,70.73594,167.88895
"2043",24.744171,70.75548,167.61899
"2044",24.757507,70.7042,167.27882
"2045",24.770844,70.572365,166.85649
"2046",24.78418,70.35752,166.34703
"2047",24.797516,70.07675,165.76494
"2048",24.810852,69.77646,165.15454
"2049",24.824188,69.55428,164.61288
"2050",24.837524,69.60311,164.33528
"2051",24.85086,70.21835,164.62563
"2052",24.864197,71.7467,165.8483
"2053",24.877533,74.461586,168.30527
"2054",24.89087,78.41184,172.08244
"2055",24.904205,83.3167,176.93767
"2056",24.917542,88.587776,182.3124
"2057",24.930878,93.487755,187.48074
"2058",24.944214,97.38674,191.80122
"2059",24.95755,99.92584,194.88367
"2060",24.970886,101.05379,196.6343
"2061",24.984222,100.98299,197.22142
"2062",24.997559,100.05768,196.95183
"2063",25.010895,98.61234,196.1333
"2064",25.024231,96.88869,194.99129
"2065",25.037567,95.05272,193.68309
"2066",25.050903,93.187454,192.28822
"2067",25.06424,91.32708,190.83995
"2068",25.077576,89.48623,189.35307
"2069",25.090912,87.68932,187.85262
"2070",25.104248,86.00961,186.4132
"2071",25.117584,84.542305,185.13368
"2072",25.13092,83.38506,184.1184
"2073",25.144257,82.6038,183.44292
"2074",25.157593,82.20584,183.12633
"2075",25.170929,82.1326,183.12202
"2076",25.184265,82.27421,183.33028
"2077",25.197601,82.5037,183.63084
"2078",25.210938,82.686806,183.8922
"2079",25.224274,82.72343,184.01279
"2080",25.23761,82.55253,183.927
"2081",25.250946,82.15213,183.60637
"2082",25.264282,81.5198,183.04129
"2083",25.277618,80.69459,182.26358
"2084",25.290955,79.710686,181.30139
"2085",25.30429,78.624245,180.2059
"2086",25.317627,77.49386,179.03252
"2087",25.330963,76.3708,177.83113
"2088",25.3443,75.31121,176.65813
"2089",25.357635,74.34928,175.54967
"2090",25.370972,73.50942,174.53322
"2091",25.384308,72.80873,173.6297
"2092",25.397644,72.24475,172.84099
"2093",25.41098,71.8053,172.15918
"2094",25.424316,71.4757,171.5735
"2095",25.437653,71.22911,171.06053
"2096",25.450989,71.03868,170.59601
"2097",25.464325,70.8629,170.14018
"2098",25.477661,70.68711,169.67886
"2099",25.490997,70.49668,169.1974
"2100",25.504333,70.2916,168.69534
"2101",25.51767,70.07919,168.17955
"2102",25.531006,69.90585,167.69618
"2103",25.544342,69.84482,167.3197
"2104",25.557678,70.047455,167.20499
"2105",25.571014,70.76036,167.60687
"2106",25.58435,72.26185,168.81963
"2107",25.597687,74.76677,171.08273
"2108",25.611023,78.30442,174.45685
"2109",25.62436,82.650185,178.74962
"2110",25.637695,87.308464,183.49072
"2111",25.651031,91.65423,188.06488
"2112",25.664368,95.13573,191.91057
"2113",25.677704,97.42336,194.6712
"2114",25.69104,98.45121,196.24353
"2115",25.704376,98.37553,196.74445
"2116",25.717712,97.4844,196.42755
"2117",25.731049,96.061035,195.55057
"2118",25.744385,94.32029,194.31174
"2119",25.75772,92.38911,192.82806
"2120",25.771057,90.36027,191.18639
"2121",25.784393,88.27772,189.4276
"2122",25.79773,86.19516,187.60371
"2123",25.811066,84.18829,185.79045
"2124",25.824402,82.35966,184.0927
"2125",25.837738,80.831314,182.63809
"2126",25.851074,79.708244,181.541
"2127",25.86441,79.061264,180.8849
"2128",25.877747,78.87816,180.67245
"2129",25.891083,79.078354,180.83759
"2130",25.904419,79.52758,181.25801
"2131",25.917755,80.059814,181.77548
"2132",25.931091,80.51881,182.23634
"2133",25.944427,80.77516,182.50891
"2134",25.957764,80.76051,182.5185
"2135",25.9711,80.45045,182.2322
"2136",25.984436,79.869385,181.6652
"2137",25.997772,79.07347,180.8652
"2138",26.011108,78.12375,179.88652
"2139",26.024445,77.086136,178.79027
"2140",26.03778,76.01434,177.62741
"2141",26.051117,74.95232,176.44083
"2142",26.064453,73.93912,175.26988
"2143",26.07779,73.00404,174.1454
"2144",26.091125,72.166626,173.08936
"2145",26.104462,71.42687,172.10481
"2146",26.117798,70.77989,171.18993
"2147",26.131134,70.21103,170.33293
"2148",26.14447,69.712975,169.52898
"2149",26.157806,69.28573,168.78026
"2150",26.171143,68.93416,168.09387
"2151",26.184479,68.697334,167.51125
"2152",26.197815,68.665596,167.1263
"2153",26.211151,69.034256,167.14076
"2154",26.224487,70.07431,167.83813
"2155",26.237823,72.05432,169.50797
"2156",26.25116,75.11833,172.32367
"2157",26.264496,79.166245,176.21902
"2158",26.277832,83.807434,180.83415
"2159",26.291168,88.43641,185.5821
"2160",26.304504,92.42817,189.83751
"2161",26.31784,95.34081,193.13853
"2162",26.331177,96.988785,195.2659
"2163",26.344513,97.442894,196.25092
"2164",26.35785,96.95705,196.31015
"2165",26.371185,95.83887,195.72188
"2166",26.384521,94.33494,194.71292
"2167",26.397858,92.62348,193.44943
"2168",26.411194,90.79729,192.01772
"2169",26.42453,88.91249,190.47034
"2170",26.437866,86.99107,188.82744
"2171",26.451202,85.06966,187.1245
"2172",26.464539,83.211716,185.42499
"2173",26.477875,81.5198,183.83344
"2174",26.49121,80.111084,182.47221
"2175",26.504547,79.08812,181.45273
"2176",26.517883,78.5095,180.84561
"2177",26.53122,78.363014,180.65254
"2178",26.544556,78.56809,180.80646
"2179",26.557892,78.992905,181.18652
"2180",26.571228,79.47143,181.63358
"2181",26.584564,79.85718,182.0028
"2182",26.5979,80.04028,182.18146
"2183",26.611237,79.9646,182.10703
"2184",26.624573,79.62524,181.76656
"2185",26.637909,79.05394,181.18355
"2186",26.651245,78.29954,180.39958
"2187",26.664581,77.41085,179.45775
"2188",26.677917,76.44404,178.41002
"2189",26.691254,75.440605,177.29546
"2190",26.70459,74.442055,176.15442
"2191",26.717926,73.477684,175.01636
"2192",26.731262,72.55726,173.8921
"2193",26.744598,71.692986,172.79524
"2194",26.757935,70.8922,171.73486
"2195",26.77127,70.15976,170.7178
"2196",26.784607,69.5201,169.77065
"2197",26.797943,69.00984,168.93289
"2198",26.81128,68.71931,168.29892
"2199",26.824615,68.81209,168.03918
"2200",26.837952,69.5494,168.42688
"2201",26.851288,71.19005,169.74095
"2202",26.864624,73.89273,172.16832
"2203",26.87796,77.56222,175.64696
"2204",26.891296,81.82742,179.83598
"2205",26.904633,86.134125,184.1998
"2206",26.917969,89.9086,188.16597
"2207",26.931305,92.733345,191.30035
"2208",26.944641,94.449684,193.41461
"2209",26.957977,95.13573,194.5522
"2210",26.971313,95.00145,194.89091
"2211",26.98465,94.28855,194.64682
"2212",26.997986,93.19722,194.002
"2213",27.011322,91.878845,193.09604
"2214",27.024658,90.42863,192.01703
"2215",27.037994,88.8954,190.8097
"2216",27.05133,87.293816,189.48608
"2217",27.064667,85.643394,188.0636
"2218",27.078003,83.98566,186.58221
"2219",27.09134,82.40116,185.12227
"2220",27.104675,81.00221,183.79836
"2221",27.118011,79.90845,182.73592
"2222",27.131348,79.19066,182.01526
"2223",27.144684,78.86351,181.66281
"2224",27.15802,78.86839,181.63217
"2225",27.171356,79.08568,181.81409
"2226",27.184692,79.38354,182.08337
"2227",27.198029,79.62768,182.30824
"2228",27.211365,79.725334,182.39426
"2229",27.2247,79.62768,182.28801
"2230",27.238037,79.33959,181.98828
"2231",27.251373,78.8806,181.50865
"2232",27.26471,78.2971,180.89017
"2233",27.278046,77.62081,180.16066
"2234",27.291382,76.89815,179.36365
"2235",27.304718,76.14374,178.5123
"2236",27.318054,75.369804,177.61786
"2237",27.33139,74.598305,176.70166
"2238",27.344727,73.848785,175.78334
"2239",27.358063,73.13832,174.88065
"2240",27.371399,72.48646,174.01436
"2241",27.384735,71.93469,173.2278
"2242",27.398071,71.52941,172.57048
"2243",27.411407,71.36584,172.1422
"2244",27.424744,71.60265,172.10919
"2245",27.43808,72.47425,172.71837
"2246",27.451416,74.16617,174.17511
"2247",27.464752,76.732124,176.55876
"2248",27.478088,80.0061,179.73062
"2249",27.491425,83.63409,183.3588
"2250",27.50476,87.166855,187.00513
"2251",27.518097,90.15518,190.21742
"2252",27.531433,92.31098,192.69057
"2253",27.54477,93.55367,194.31798
"2254",27.558105,93.95407,195.14192
"2255",27.571442,93.68551,195.30942
"2256",27.584778,92.945755,194.99733
"2257",27.598114,91.932556,194.38869
"2258",27.61145,90.777756,193.60678
"2259",27.624786,89.56191,192.72774
"2260",27.638123,88.289925,191.75456
"2261",27.651459,86.93492,190.65862
"2262",27.664795,85.49935,189.43976
"2263",27.678131,84.01495,188.12721
"2264",27.691467,82.564735,186.80246
"2265",27.704803,81.25857,185.57645
"2266",27.71814,80.21118,184.56839
"2267",27.731476,79.4934,183.85721
"2268",27.744812,79.114975,183.46295
"2269",27.758148,79.01976,183.34007
"2270",27.771484,79.11742,183.40709
"2271",27.78482,79.281,183.54309
"2272",27.798157,79.395744,183.63536
"2273",27.811493,79.37377,183.5945
"2274",27.82483,79.17113,183.37228
"2275",27.838165,78.7805,182.95575
"2276",27.851501,78.24094,182.37807
"2277",27.864838,77.5964,181.67856
"2278",27.878174,76.895706,180.90276
"2279",27.89151,76.18524,180.09528
"2280",27.904846,75.494316,179.28514
"2281",27.918182,74.84001,178.49004
"2282",27.931519,74.229645,177.71841
"2283",27.944855,73.66567,176.97412
"2284",27.95819,73.145645,176.25615
"2285",27.971527,72.66468,175.56099
"2286",27.984863,72.217896,174.88498
"2287",27.9982,71.79553,174.21942
"2288",28.011536,71.39269,173.5602
"2289",28.024872,71.0338,172.93233
"2290",28.038208,70.78722,172.40555
"2291",28.051544,70.79942,172.12985
"2292",28.06488,71.30236,172.34528
"2293",28.078217,72.55726,173.32837
"2294",28.091553,74.703285,175.2418
"2295",28.104889,77.67696,178.04996
"2296",28.118225,81.197525,181.49792
"2297",28.131561,84.825516,185.16335
"2298",28.144897,88.09216,188.5808
"2299",28.158234,90.62638,191.36789
"2300",28.17157,92.27436,193.34795
"2301",28.184906,93.050735,194.50789
"2302",28.198242,93.09224,194.95723
"2303",28.211578,92.59174,194.86586
"2304",28.224915,91.75922,194.42682
"2305",28.23825,90.775314,193.8104
"2306",28.251587,89.76944,193.14125
"2307",28.264923,88.79286,192.46997
"2308",28.27826,87.83093,191.78282
"2309",28.291595,86.82506,191.02167
"2310",28.304932,85.70931,190.1192
"2311",28.318268,84.473946,189.06226
"2312",28.331604,83.16289,187.891
"2313",28.34494,81.87625,186.70322
"2314",28.358276,80.73365,185.61925
"2315",28.371613,79.83765,184.74617
"2316",28.384949,79.23216,184.13562
"2317",28.398285,78.905014,183.78447
"2318",28.411621,78.77806,183.62329
"2319",28.424957,78.746315,183.55336
"2320",28.438293,78.70237,183.47023
"2321",28.45163,78.56809,183.2954
"2322",28.464966,78.2971,182.97964
"2323",28.478302,77.8674,182.49673
"2324",28.491638,77.29122,181.85391
"2325",28.504974,76.60029,181.07832
"2326",28.51831,75.83368,180.20547
"2327",28.531647,75.02556,179.26715
"2328",28.544983,74.22232,178.30846
"2329",28.55832,73.460594,177.36618
"2330",28.571655,72.76723,176.46846
"2331",28.584991,72.15686,175.63206
"2332",28.598328,71.6466,174.87671
"2333",28.611664,71.236435,174.2055
"2334",28.625,70.92149,173.6167
"2335",28.638336,70.69199,173.1035
"2336",28.651672,70.5333,172.65393
"2337",28.665009,70.43076,172.25555
"2338",28.678345,70.37705,171.9028
"2339",28.69168,70.35752,171.58255
"2340",28.705017,70.37217,171.29587
"2341",28.718353,70.42344,171.04626
"2342",28.73169,70.50645,170.83
"2343",28.745026,70.61875,170.64563
"2344",28.758362,70.750595,170.48431
"2345",28.771698,70.88487,170.32954
"2346",28.785034,71.0045,170.16432
"2347",28.79837,71.08507,169.96378
"2348",28.811707,71.10948,169.7096
"2349",28.825043,71.06065,169.38293
"2350",28.838379,70.94591,168.98883
"2351",28.851715,70.82628,168.58626
"2352",28.865051,70.84093,168.31422
"2353",28.878387,71.258415,168.4455
"2354",28.891724,72.430305,169.34421
"2355",28.90506,74.62516,171.3025
"2356",28.918396,77.86984,174.37923
"2357",28.931732,81.92264,178.36545
"2358",28.945068,86.2855,182.78839
"2359",28.958405,90.37003,187.06935
"2360",28.97174,93.661095,190.68448
"2361",28.985077,95.90234,193.35263
"2362",28.998413,97.08644,195.03368
"2363",29.01175,97.376976,195.85815
"2364",29.025085,97.008316,196.03253
"2365",29.038422,96.23682,195.79254
"2366",29.051758,95.26757,195.33069
"2367",29.065094,94.25193,194.79216
"2368",29.07843,93.27535,194.26096
"2369",29.091766,92.34028,193.74074
"2370",29.105103,91.39788,193.18398
"2371",29.118439,90.37736,192.51964
"2372",29.131775,89.22743,191.694
"2373",29.145111,87.940796,190.69572
"2374",29.158447,86.556496,189.55957
"2375",29.171783,85.15755,188.36551
"2376",29.18512,83.86359,187.23273
"2377",29.198456,82.777145,186.26703
"2378",29.211792,81.9617,185.53838
"2379",29.225128,81.41238,185.05035
"2380",29.238464,81.075455,184.75757
"2381",29.2518,80.86061,184.57634
"2382",29.265137,80.65797,184.40059
"2383",29.278473,80.38209,184.14528
"2384",29.29181,79.991455,183.76659
"2385",29.305145,79.47143,183.24629
"2386",29.318481,78.839096,182.59744
"2387",29.331818,78.118866,181.84093
"2388",29.345154,77.34493,181.00821
"2389",29.35849,76.54658,180.12688
"2390",29.371826,75.757996,179.23038
"2391",29.385162,75.01091,178.35072
"2392",29.398499,74.32731,177.51122
"2393",29.411835,73.72915,176.73578
"2394",29.42517,73.22133,176.032
"2395",29.438507,72.80629,175.40512
"2396",29.451843,72.46937,174.8434
"2397",29.46518,72.200806,174.33951
"2398",29.478516,71.98596,173.88094
"2399",29.491852,71.82239,173.46692
"2400",29.505188,71.69787,173.08685
"2401",29.518524,71.60998,172.73952
"2402",29.53186,71.551384,172.41873
"2403",29.545197,71.50744,172.11076
"2404",29.558533,71.47082,171.80875
"2405",29.571869,71.431755,171.50314
"2406",29.585205,71.395134,171.19876
"2407",29.598541,71.35363,170.88835
"2408",29.611877,71.312126,170.57664
"2409",29.625214,71.28039,170.2734
"2410",29.63855,71.27062,169.99115
"2411",29.651886,71.27306,169.7208
"2412",29.665222,71.28771,169.46272
"2413",29.678558,71.312126,169.21487
"2414",29.691895,71.326775,168.95802
"2415",29.70523,71.31945,168.67966
"2416",29.718567,71.27795,168.36688
"2417",29.731903,71.19737,168.01375
"2418",29.74524,71.07042,167.61171
"2419",29.758575,70.92149,167.18373
"2420",29.771912,70.82628,166.80481
"2421",29.785248,70.95079,166.64264
"2422",29.81192,73.094376,168.24103
"2423",29.825256,75.60662,170.53748
"2424",29.838593,79.05638,173.84995
"2425",29.851929,83.09697,177.86104
"2426",29.865265,87.17906,182.03992
"2427",29.878601,90.7509,185.8361
"2428",29.891937,93.41207,188.83324
"2429",29.905273,95.02342,190.86371
"2430",29.91861,95.672844,191.9826
"2431",29.931946,95.56786,192.3674
"2432",29.945282,94.94774,192.23376
"2433",29.958618,94.029755,191.7829
"2434",29.971954,92.997025,191.1886
"2435",29.98529,91.983826,190.58156
"2436",29.998627,91.04875,190.02098
"2437",30.011963,90.18936,189.50687
"2438",30.0253,89.34463,188.98055
"2439",30.038635,88.431526,188.35947
"2440",30.051971,87.396355,187.58778
"2441",30.065308,86.22446,186.64702
"2442",30.078644,84.964676,185.58176
"2443",30.09198,83.702446,184.47467
"2444",30.105316,82.545204,183.43314
"2445",30.118652,81.57839,182.54587
"2446",30.131989,80.848404,181.8652
"2447",30.145325,80.35523,181.39854
"2448",30.15866,80.05737,181.11179
"2449",30.171997,79.886475,180.94269
"2450",30.185333,79.75464,180.80731
"2451",30.19867,79.588615,180.63362
"2452",30.212006,79.32983,180.36197
"2453",30.225342,78.95384,179.96504
"2454",30.238678,78.46555,179.44406
"2455",30.252014,77.88693,178.81749
"2456",30.26535,77.25704,178.12157
"2457",30.278687,76.610054,177.38885
"2458",30.292023,75.9704,176.64326
"2459",30.305359,75.355156,175.9021
"2460",30.318695,74.78142,175.18321
"2461",30.332031,74.251625,174.49034
"2462",30.345367,73.76822,173.8273
"2463",30.358704,73.34585,173.21019
"2464",30.37204,72.989395,172.6458
"2465",30.385376,72.70374,172.14107
"2466",30.398712,72.48402,171.69333
"2467",30.412048,72.33021,171.30464
"2468",30.425385,72.22766,170.96242
"2469",30.43872,72.15198,170.64384
"2470",30.452057,72.095825,170.34244
"2471",30.465393,72.047,170.0466
"2472",30.47873,72.00549,169.75656
"2473",30.492065,71.97131,169.47255
"2474",30.505402,71.9469,169.19724
"2475",30.518738,71.92981,168.92848
"2476",30.532074,71.922485,168.66896
"2477",30.54541,71.9176,168.41165
"2478",30.558746,71.91272,168.15419
"2479",30.572083,71.90784,167.89658
"2480",30.585419,71.91272,167.64857
"2481",30.598755,71.9176,167.40073
"2482",30.612091,71.922485,167.15303
"2483",30.625427,71.91516,166.89328
"2484",30.638763,71.89319,166.61865
"2485",30.6521,71.84436,166.31648
"2486",30.665436,71.77112,165.98837
"2487",30.678772,71.692986,165.65309
"2488",30.692108,71.66857,165.36908
"2489",30.705444,71.83215,165.27231
"2490",30.71878,72.43519,165.6201
"2491",30.732117,73.7731,166.72162
"2492",30.745453,76.036316,168.79024
"2493",30.75879,79.18822,171.81827
"2494",30.772125,82.916306,175.52098
"2495",30.785461,86.72251,179.41832
"2496",30.798798,90.057526,182.96341
"2497",30.812134,92.51606,185.73624
"2498",30.82547,93.94919,187.56049
"2499",30.838806,94.435036,188.48224
"2500",30.852142,94.18356,188.68185
"2501",30.865479,93.436485,188.378
"2502",30.878815,92.41596,187.77737
"2503",30.89215,91.29534,187.04475
"2504",30.905487,90.20157,186.30396
"2505",30.918823,89.19325,185.61444
"2506",30.93216,88.28016,184.98863
"2507",30.945496,87.42321,184.39044
"2508",30.958832,86.56626,183.76547
"2509",30.972168,85.662926,183.06734
"2510",30.985504,84.69611,182.2775
"2511",30.99884,83.685356,181.4135
"2512",31.012177,82.701454,180.54477
"2513",31.025513,81.82498,179.75272
"2514",31.038849,81.126724,179.1115
"2515",31.052185,80.638435,178.65842
"2516",31.065521,80.360115,178.40005
"2517",31.078857,80.24536,178.29655
"2518",31.092194,80.22583,178.2847
"2519",31.10553,80.22095,178.28687
"2520",31.118866,80.164795,178.23761
"2521",31.132202,80.00366,178.08163
"2522",31.145538,79.71801,177.7961
"2523",31.158875,79.310295,177.37956
"2524",31.17221,78.802475,176.85019
"2525",31.185547,78.22629,176.23657
"2526",31.198883,77.62081,175.57567
"2527",31.21222,77.00801,174.88852
"2528",31.225555,76.41474,174.20175
"2529",31.238892,75.84833,173.5233
"2530",31.252228,75.33318,172.87842
"2531",31.265564,74.86931,172.2687
"2532",31.2789,74.47135,171.71042
"2533",31.292236,74.13687,171.20317
"2534",31.305573,73.86832,170.75139
"2535",31.318909,73.66811,170.35957
"2536",31.332245,73.53872,170.0323
"2537",31.345581,73.47036,169.76202
"2538",31.358917,73.44839,169.536
"2539",31.372253,73.45571,169.33858
"2540",31.38559,73.477684,169.15604
"2541",31.398926,73.5021,168.97662
"2542",31.412262,73.531395,168.80286
"2543",31.425598,73.57046,168.63977
"2544",31.438934,73.616844,168.48523
"2545",31.45227,73.670555,168.33946
"2546",31.465607,73.721825,168.19293
"2547",31.478943,73.760895,168.03581
"2548",31.49228,73.79263,167.87257
"2549",31.505615,73.80972,167.69568
"2550",31.518951,73.80972,167.50223
"2551",31.532288,73.777985,167.27704
"2552",31.545624,73.71206,167.01668
"2553",31.55896,73.61196,166.72008
"2554",31.572296,73.5021,166.41058
"2555",31.585632,73.41909,166.12451
"2556",31.598969,73.46548,165.96524
"2557",31.612305,73.846344,166.1419
"2558",31.62564,74.82536,166.92862
"2559",31.638977,76.60517,168.54672
"2560",31.652313,79.21263,171.0481
"2561",31.66565,82.43046,174.24132
"2562",31.678986,85.84848,177.73529
"2563",31.692322,88.96376,181.03334
"2564",31.705658,91.353935,183.70363
"2565",31.718994,92.80415,185.50865
"2566",31.73233,93.34371,186.44833
"2567",31.745667,93.138626,186.66023
"2568",31.759003,92.40131,186.3335
"2569",31.772339,91.35882,185.67854
"2570",31.785675,90.18692,184.8616
"2571",31.799011,89.02724,184.02026
"2572",31.812347,87.95056,183.2257
"2573",31.825684,86.98131,182.5049
"2574",31.83902,86.099945,181.8417
"2575",31.852356,85.2723,181.20468
"2576",31.865692,84.46418,180.56133
"2577",31.879028,83.6585,179.89516
"2578",31.892365,82.87236,179.22334
"2579",31.9057,82.13992,178.58067
"2580",31.919037,81.514915,178.02254
"2581",31.932373,81.03883,177.5938
"2582",31.94571,80.740974,177.3284
"2583",31.959045,80.604256,177.21484
"2584",31.972382,80.59449,177.22397
"2585",31.985718,80.638435,177.2865
"2586",31.999054,80.672615,177.34064
"2587",32.01239,80.63111,177.32016
"2588",32.025726,80.482185,177.19096
"2589",32.039062,80.20386,176.9277
"2590",32.0524,79.815674,176.5459
"2591",32.065735,79.34692,176.07138
"2592",32.07907,78.82933,175.53339
"2593",32.092407,78.29221,174.95969
"2594",32.105743,77.76242,174.37653
"2595",32.11908,77.25216,173.79634
"2596",32.132416,76.77608,173.23439
"2597",32.145752,76.33906,172.69662
"2598",32.15909,75.95331,172.19647
"2599",32.172424,75.62615,171.74286
"2600",32.18576,75.36004,171.34006
"2601",32.199097,75.15007,170.98509
"2602",32.212433,74.99138,170.67484
"2603",32.22577,74.87175,170.39868
"2604",32.239105,74.78386,170.15053
"2605",32.25244,74.72282,169.92648
"2606",32.265778,74.683754,169.7225
"2607",32.279114,74.666664,169.53928
"2608",32.29245,74.669106,169.37505
"2609",32.305786,74.69596,169.2353
"2610",32.319122,74.737465,169.11105
"2611",32.33246,74.7863,168.99544
"2612",32.345795,74.84001,168.88622
"2613",32.35913,74.8864,168.77135
"2614",32.372467,74.91081,168.63596
"2615",32.385803,74.90593,168.47203
"2616",32.39914,74.85954,168.26645
"2617",32.412476,74.75456,168.00082
"2618",32.42581,74.600746,167.68309
"2619",32.439148,74.42008,167.3337
"2620",32.452484,74.26627,167.00551
"2621",32.46582,74.27116,166.8312
"2622",32.479156,74.66178,167.0428
"2623",32.492493,75.67742,167.89162
"2624",32.50583,77.47921,169.55832
"2625",32.519165,80.02319,172.02353
"2626",32.5325,83.04082,175.04187
"2627",32.545837,86.12192,178.218
"2628",32.559174,88.81239,181.0998
"2629",32.57251,90.75578,183.31857
"2630",32.585846,91.81781,184.71672
"2631",32.599182,92.05463,185.32285
"2632",32.61252,91.63714,185.28206
"2633",32.625854,90.76799,184.77657
"2634",32.63919,89.6498,183.99487
"2635",32.652527,88.448616,183.09525
"2636",32.665863,87.274284,182.18494
"2637",32.6792,86.187836,181.3258
"2638",32.692535,85.20882,180.54016
"2639",32.70587,84.32014,179.81425
"2640",32.719208,83.49493,179.12405
"2641",32.732544,82.73075,178.4691
"2642",32.74588,82.02518,177.84886
"2643",32.759216,81.41238,177.29935
"2644",32.772552,80.92897,176.86008
"2645",32.78589,80.601814,176.56195
"2646",32.799225,80.43824,176.41719
"2647",32.81256,80.41871,176.41136
"2648",32.825897,80.49683,176.50258
"2649",32.839233,80.61402,176.6353
"2650",32.85257,80.70435,176.74483
"2651",32.865906,80.71168,176.77417
"2652",32.879242,80.60914,176.69388
"2653",32.89258,80.38697,176.49075
"2654",32.905914,80.059814,176.17569
"2655",32.91925,79.64965,175.7674
"2656",32.932587,79.19066,175.29745
"2657",32.945923,78.69993,174.78143
"2658",32.95926,78.21164,174.25252
"2659",32.972595,77.738,173.72299
"2660",32.98593,77.30099,173.21529
"2661",32.999268,76.90791,172.73787
"2662",33.012604,76.56367,172.297
"2663",33.02594,76.25849,171.88443
"2664",33.039276,75.999695,171.50871
"2665",33.052612,75.78241,171.16641
"2666",33.06595,75.60662,170.85883
"2667",33.079285,75.46746,170.58237
"2668",33.09262,75.36736,170.34062
"2669",33.105957,75.299,170.12749
"2670",33.119293,75.264824,169.9464
"2671",33.13263,75.267265,169.80086
"2672",33.145966,75.31121,169.6969
"2673",33.1593,75.38445,169.62361
"2674",33.172638,75.47234,169.56726
"2675",33.185974,75.55535,169.50877
"2676",33.19931,75.60906,169.42358
"2677",33.212646,75.613945,169.29124
"2678",33.225983,75.57244,169.11267
"2679",33.23932,75.49676,168.89862
"2680",33.252655,75.40154,168.66267
"2681",33.26599,75.33318,168.4506
"2682",33.279327,75.386894,168.35847
"2683",33.292664,75.733574,168.56099
"2684",33.306,76.5832,169.27728
"2685",33.319336,78.07248,170.65979
"2686",33.332672,80.20386,172.73093
"2687",33.34601,82.78691,175.32034
"2688",33.359344,85.487144,178.10767
"2689",33.37268,87.90173,180.69373
"2690",33.386017,89.71328,182.7522
"2691",33.399353,90.760666,184.10312
"2692",33.41269,91.06096,184.73969
"2693",33.426025,90.74845,184.77283
"2694",33.43936,89.99405,184.35431
"2695",33.452698,88.98085,183.65343
"2696",33.466034,87.86023,182.81346
"2697",33.47937,86.74204,181.9409
"2698",33.492706,85.677574,181.08713
"2699",33.506042,84.69611,180.2831
"2700",33.51938,83.7879,179.52164
"2701",33.532715,82.967575,178.81969
"2702",33.54605,82.23514,178.18
"2703",33.559387,81.60525,177.61995
"2704",33.572723,81.10475,177.16962
"2705",33.58606,80.762955,176.86235
"2706",33.599396,80.587166,176.7104
"2707",33.612732,80.56519,176.70679
"2708",33.62607,80.66529,176.82455
"2709",33.639404,80.82887,177.00893
"2710",33.65274,80.990005,177.19597
"2711",33.666077,81.092545,177.32945
"2712",33.679413,81.09987,177.37093
"2713",33.69275,80.990005,177.29544
"2714",33.706085,80.76784,177.10422
"2715",33.71942,80.44312,176.8035
"2716",33.732758,80.04028,176.4145
"2717",33.746094,79.58373,175.95921
"2718",33.75943,79.10277,175.46524
"2719",33.772766,78.61936,174.9538
"2720",33.786102,78.15793,174.44922
"2721",33.79944,77.73556,173.96928
"2722",33.812775,77.366905,173.52986
"2723",33.82611,77.051956,173.13263
"2724",33.839447,76.80049,172.78903
"2725",33.852783,76.60517,172.49373
"2726",33.86612,76.453804,172.23627
"2727",33.879456,76.3415,172.01314
"2728",33.89279,76.25605,171.81335
"2729",33.906128,76.19745,171.63776
"2730",33.919464,76.15839,171.47986
"2731",33.9328,76.13397,171.33539
"2732",33.946136,76.10956,171.19016
"2733",33.959473,76.070496,171.02951
"2734",33.97281,76.00702,170.84323
"2735",33.986145,75.92157,170.633
"2736",33.99948,75.8288,170.41277
"2737",34.012817,75.7702,170.22382
"2738",34.026154,75.8288,170.15022
"2739",34.03949,76.15106,170.34213
"2740",34.052826,76.910355,170.98114
"2741",34.066162,78.22873,172.20296
"2742",34.0795,80.093994,174.01286
"2743",34.092834,82.34257,176.26437
"2744",34.10617,84.69367,178.68869
"2745",34.119507,86.81773,180.95943
"2746",34.132843,88.431526,182.78627
"2747",34.14618,89.39834,184.01657
"2748",34.159515,89.73037,184.6423
"2749",34.17285,89.530174,184.74619
"2750",34.186188,88.94179,184.45561
"2751",34.199524,88.114136,183.9074
"2752",34.21286,87.16197,183.2088
"2753",34.226196,86.17563,182.44627
"2754",34.239532,85.20393,181.66757
"2755",34.25287,84.27375,180.90001
"2756",34.266205,83.40215,180.16197
"2757",34.27954,82.61356,179.4797
"2758",34.292877,81.92752,178.87534
"2759",34.306213,81.36843,178.37648
"2760",34.31955,80.96803,178.01884
"2761",34.332886,80.740974,177.82204
"2762",34.346222,80.69215,177.79637
"2763",34.35956,80.78493,177.91078
"2764",34.372894,80.972916,178.1233
"2765",34.38623,81.19264,178.37344
"2766",34.399567,81.3782,178.59627
"2767",34.412903,81.47585,178.737
"2768",34.42624,81.45876,178.76604
"2769",34.439575,81.31472,178.66759
"2770",34.45291,81.05592,178.44987
"2771",34.466248,80.69947,178.12642
"2772",34.479584,80.274666,177.72348
"2773",34.49292,79.80835,177.26575
"2774",34.506256,79.32983,176.78123
"2775",34.519592,78.8513,176.28177
"2776",34.53293,78.399635,175.7942
"2777",34.546265,77.98947,175.33403
"2778",34.5596,77.63546,174.91719
"2779",34.572937,77.34005,174.54788
"2780",34.586273,77.10567,174.23038
"2781",34.59961,76.92012,173.95438
"2782",34.612946,76.74677,173.68478
"2783",34.62628,76.54902,173.38536
"2784",34.639618,76.317085,173.04558
"2785",34.652954,76.070496,172.6839
"2786",34.66629,75.826355,172.31696
"2787",34.679626,75.60662,171.9668
"2788",34.692963,75.42596,171.64883
"2789",34.7063,75.2868,171.36673
"2790",34.719635,75.18181,171.11446
"2791",34.73297,75.1281,170.91017
"2792",34.746307,75.22331,170.85313
"2793",34.759644,75.61639,171.09694
"2794",34.77298,76.47822,171.82178
"2795",34.786316,77.90402,173.13753
"2796",34.799652,79.85474,175.02274
"2797",34.81299,82.14725,177.3107
"2798",34.826324,84.48371,179.71426
"2799",34.83966,86.54185,181.91252
"2800",34.852997,88.06775,183.64285
"2801",34.866333,88.94911,184.77634
"2802",34.87967,89.20058,185.30746
"2803",34.893005,88.92714,185.32155
"2804",34.90634,88.26551,184.93889
"2805",34.919678,87.36462,184.2963
"2806",34.933014,86.348976,183.5108
"2807",34.94635,85.3016,182.66183
"2808",34.959686,84.27131,181.79723
"2809",34.973022,83.28741,180.94681
"2810",34.98636,82.374306,180.13644
"2811",34.999695,81.55398,179.39032
"2812",35.01303,80.86549,178.7504
"2813",35.026367,80.35523,178.26718
"2814",35.039703,80.05737,177.98042
"2815",35.05304,79.991455,177.91629
"2816",35.066376,80.1355,178.06006
"2817",35.079712,80.430916,178.35971
"2818",35.09305,80.799576,178.74184
"2819",35.106384,81.15602,179.12328
"2820",35.11972,81.427025,179.4304
"2821",35.133057,81.5613,179.60928
"2822",35.146393,81.53689,179.63367
"2823",35.15973,81.358665,179.50348
"2824",35.173065,81.05348,179.24075
"2825",35.1864,80.65064,178.87083
"2826",35.199738,80.184326,178.42485
"2827",35.213074,79.69848,177.94476
"2828",35.22641,79.219955,177.45682
"2829",35.239746,78.768295,176.98077
"2830",35.253082,78.35081,176.5248
"2831",35.26642,77.98215,176.1046
"2832",35.279755,77.659874,175.71927
"2833",35.29309,77.383995,175.37025
"2834",35.306427,77.14717,175.05168
"2835",35.319763,76.93965,174.755
"2836",35.3331,76.749214,174.46893
"2837",35.346436,76.56611,174.18423
"2838",35.35977,76.39277,173.90358
"2839",35.373108,76.23895,173.63704
"2840",35.386444,76.13397,173.41452
"2841",35.39978,76.15839,173.31812
"2842",35.413116,76.43183,173.47151
"2843",35.426453,77.10811,174.03629
"2844",35.43979,78.29221,175.13002
"2845",35.453125,79.99634,176.78078
"2846",35.46646,82.09354,178.87787
"2847",35.479797,84.33723,181.18698
"2848",35.493134,86.42954,183.41484
"2849",35.50647,88.111694,185.29791
"2850",35.519806,89.21767,186.65738
"2851",35.533142,89.7084,187.43616
"2852",35.54648,89.64736,187.67851
"2853",35.559814,89.14931,187.48193
"2854",35.57315,88.35096,186.9695
"2855",35.586487,87.379265,186.25877
"2856",35.599823,86.327,185.43712
"2857",35.61316,85.25765,184.56549
"2858",35.626495,84.210266,183.6824
"2859",35.63983,83.21416,182.81787
"2860",35.653168,82.29862,182.00278
"2861",35.666504,81.50027,181.27626
"2862",35.67984,80.87282,180.6957
"2863",35.693176,80.45777,180.30792
"2864",35.706512,80.27711,180.14157
"2865",35.71985,80.31373,180.18686
"2866",35.733185,80.53101,180.41396
"2867",35.74652,80.850845,180.75038
"2868",35.759857,81.18532,181.11145
"2869",35.773193,81.45876,181.42194
"2870",35.78653,81.61257,181.62134
"2871",35.799866,81.61501,181.67418
"2872",35.8132,81.47097,181.58061
"2873",35.826538,81.19264,181.34825
"2874",35.839874,80.81178,181.00467
"2875",35.85321,80.36744,180.5857
"2876",35.866547,79.8938,180.12354
"2877",35.879883,79.415276,179.6417
"2878",35.89322,78.9514,179.15955
"2879",35.906555,78.52659,178.70197
"2880",35.91989,78.14084,178.27017
"2881",35.933228,77.79416,177.86539
"2882",35.946564,77.486534,177.48883
"2883",35.9599,77.20332,177.12708
"2884",35.973236,76.93233,176.76868
"2885",35.986572,76.67109,176.41158
"2886",35.99991,76.42939,176.06584
"2887",36.013245,76.243835,175.7687
"2888",36.02658,76.16815,175.57564
"2889",36.039917,76.317085,175.60483
"2890",36.053253,76.839554,176.0122
"2891",36.06659,77.872284,176.94617
"2892",36.079926,79.45678,178.46417
"2893",36.09326,81.512474,180.50288
"2894",36.106598,83.826965,182.86464
"2895",36.119934,86.10727,185.26454
"2896",36.13327,88.0531,187.40123
"2897",36.146606,89.45693,189.05672
"2898",36.159943,90.230865,190.12617
"2899",36.17328,90.40177,190.61679
"2900",36.186615,90.06973,190.6098
"2901",36.19995,89.37148,190.22623
"2902",36.213287,88.448616,189.59622
"2903",36.226624,87.415886,188.82751
"2904",36.23996,86.346535,187.98991
"2905",36.253296,85.28207,187.12378
"2906",36.266632,84.244446,186.25122
"2907",36.27997,83.25567,185.39508
"2908",36.293304,82.340126,184.58128
"2909",36.30664,81.549095,183.86339
"2910",36.319977,80.93385,183.29655
"2911",36.333313,80.53101,182.9229
"2912",36.34665,80.34791,182.7564
"2913",36.359985,80.360115,182.77948
"2914",36.37332,80.51148,182.94211
"2915",36.386658,80.72144,183.16806
"2916",36.399994,80.91188,183.38104
"2917",36.41333,81.01686,183.51453
"2918",36.426666,80.99245,183.5219
"2919",36.440002,80.82643,183.3869
"2920",36.45334,80.52613,183.11243
"2921",36.466675,80.11841,182.72115
"2922",36.48001,79.639885,182.24632
"2923",36.493347,79.11986,181.71504
"2924",36.506683,78.590065,181.15775
"2925",36.52002,78.06271,180.58633
"2926",36.533356,77.55489,180.01797
"2927",36.54669,77.07881,179.46548
"2928",36.560028,76.63203,178.92741
"2929",36.573364,76.21454,178.40468
"2930",36.5867,75.826355,177.8982
"2931",36.600037,75.46502,177.40643
"2932",36.613373,75.14519,176.94489
"2933",36.62671,74.90105,176.54903
"2934",36.640045,74.80827,176.2969
"2935",36.65338,74.97673,176.30312
"2936",36.666718,75.56756,176.73697
"2937",36.680054,76.71259,177.74348
"2938",36.69339,78.44846,179.37662
"2939",36.706726,80.67994,181.5596
"2940",36.720062,83.175095,184.076
"2941",36.7334,85.62142,186.62155
"2942",36.746735,87.70641,188.88222
"2943",36.76007,89.21278,190.62941
"2944",36.773407,90.057526,191.76205
"2945",36.786743,90.27482,192.29364
"2946",36.80008,89.986725,192.32663
"2947",36.813416,89.342186,191.99417
"2948",36.82675,88.499886,191.44382
"2949",36.840088,87.57946,190.78902
"2950",36.853424,86.65171,190.09813
"2951",36.86676,85.73373,189.38802
"2952",36.880096,84.81819,188.65166
"2953",36.893433,83.88556,187.8696
"2954",36.90677,82.96269,187.06816
"2955",36.920105,82.08621,186.28427
"2956",36.93344,81.322044,185.5853
"2957",36.946777,80.73365,185.03822
"2958",36.960114,80.35523,184.68274
"2959",36.97345,80.16235,184.50096
"2960",36.986786,80.113525,184.45721
"2961",37.000122,80.13794,184.48517
"2962",37.01346,80.16724,184.51877
"2963",37.026794,80.14038,184.49713
"2964",37.04013,80.01587,184.37701
"2965",37.053467,79.77173,184.13336
"2966",37.066803,79.412834,183.76733
"2967",37.08014,78.958725,183.29488
"2968",37.093475,78.450905,182.75452
"2969",37.10681,77.91867,182.17387
"2970",37.120148,77.3962,181.58636
"2971",37.133484,76.895706,181.0045
"2972",37.14682,76.42695,180.43874
"2973",37.160156,75.982605,179.88274
"2974",37.173492,75.55535,179.32994
"2975",37.18683,75.15007,178.78577
"2976",37.200165,74.76921,178.25334
"2977",37.2135,74.41276,177.73343
"2978",37.226837,74.08804,177.23412
"2979",37.240173,73.81949,176.7808
"2980",37.25351,73.66811,176.4363
"2981",37.266846,73.738914,176.30922
"2982",37.28018,74.18326,176.5579
"2983",37.293518,75.157394,177.35027
"2984",37.306854,76.754105,178.79564
"2985",37.32019,78.93431,180.8744
"2986",37.333527,81.495384,183.40218
"2987",37.346863,84.139465,186.09299
"2988",37.3602,86.5272,188.61008
"2989",37.373535,88.3827,190.66956
"2990",37.38687,89.549706,192.09853
"2991",37.400208,90.03067,192.87791
"2992",37.413544,89.92813,193.08884
"2993",37.42688,89.393456,192.86441
"2994",37.440216,88.59266,192.35716
"2995",37.453552,87.66979,191.70282
"2996",37.46689,86.72007,190.99278
"2997",37.480225,85.78012,190.26283
"2998",37.49356,84.840164,189.50351
"2999",37.506897,83.878235,188.69284
"3000",37.520233,82.88945,187.82526
"3001",37.53357,81.8909,186.917
"3002",37.546906,80.92653,186.01173
"3003",37.56024,80.08423,185.1984
"3004",37.573578,79.43481,184.5516
"3005",37.586914,79.012436,184.11157
"3006",37.60025,78.79271,183.86098
"3007",37.613586,78.73655,183.76709
"3008",37.626923,78.76097,183.75203
"3009",37.64026,78.785385,183.73772
"3010",37.653595,78.74143,183.6558
"3011",37.66693,78.59495,183.46999
"3012",37.680267,78.328835,183.15996
"3013",37.693604,77.95285,182.73175
"3014",37.70694,77.48165,182.19658
"3015",37.720276,76.94942,181.58565
"3016",37.733612,76.383,180.9239
"3017",37.74695,75.81415,180.24202
"3018",37.760284,75.2575,179.55457
"3019",37.77362,74.74479,178.89365
"3020",37.786957,74.27848,178.2631
"3021",37.800293,73.863434,177.66927
"3022",37.81363,73.497215,177.11128
"3023",37.826965,73.16518,176.57603
"3024",37.8403,72.86,176.05727
"3025",37.853638,72.57191,175.54605
"3026",37.866974,72.30579,175.0478
"3027",37.88031,72.08118,174.58275
"3028",37.893646,71.95422,174.20833
"3029",37.906982,72.03967,174.04234
"3030",37.92032,72.50599,174.2599
"3031",37.933655,73.53628,175.056
"3032",37.94699,75.245285,176.56302
"3033",37.960327,77.608604,178.77776
"3034",37.973663,80.430916,181.52533
"3035",37.987,83.387505,184.49539
"3036",38.000336,86.12436,187.3381
"3037",38.01367,88.33143,189.73656
"3038",38.027008,89.830475,191.49596
"3039",38.040344,90.58976,192.56244
"3040",38.05368,90.702065,193.00568
"3041",38.067017,90.321205,192.95926
"3042",38.080353,89.62783,192.58842
"3043",38.09369,88.78554,192.047
"3044",38.107025,87.90906,191.44507
"3045",38.12036,87.027695,190.81087
"3046",38.133698,86.11948,190.12227
"3047",38.147034,85.14778,189.34181
"3048",38.16037,84.09796,188.45287
"3049",38.173706,83.001755,187.48473
"3050",38.187042,81.9324,186.50919
"3051",38.20038,80.98024,185.61742
"3052",38.213715,80.22339,184.8912
"3053",38.22705,79.69848,184.37328
"3054",38.240387,79.395744,184.06111
"3055",38.253723,79.26635,183.91283
"3056",38.26706,79.23949,183.86304
"3057",38.280396,79.23949,183.83926
"3058",38.29373,79.19798,183.77399
"3059",38.307068,79.063705,183.61464
"3060",38.320404,78.81712,183.33879
"3061",38.33374,78.450905,182.93561
"3062",38.347076,77.98459,182.42088
"3063",38.360413,77.44259,181.8159
"3064",38.37375,76.85664,181.15004
"3065",38.387085,76.24628,180.44144
"3066",38.40042,75.64324,179.7211
"3067",38.413757,75.071945,179.01366
"3068",38.427094,74.54948,178.33719
"3069",38.44043,74.08804,177.70543
"3070",38.453766,73.704735,177.13737
"3071",38.467102,73.39468,176.63058
"3072",38.48044,73.15297,176.18246
"3073",38.493774,72.972305,175.78783
"3074",38.50711,72.83559,175.43149
"3075",38.520447,72.7306,175.10262
"3076",38.533783,72.65003,174.79488
"3077",38.54712,72.57923,174.49438
"3078",38.560455,72.50599,174.18924
"3079",38.57379,72.42542,173.87448
"3080",38.587128,72.35706,173.56941
"3081",38.600464,72.35218,173.32568
"3082",38.6138,72.54749,173.282
"3083",38.627136,73.14076,173.64238
"3084",38.640472,74.3444,174.63167
"3085",38.65381,76.29267,176.4032
"3086",38.667145,78.94652,178.9412
"3087",38.68048,82.08133,182.04308
"3088",38.693817,85.330894,185.35768
"3089",38.707153,88.2826,188.47598
"3090",38.72049,90.60685,191.05907
"3091",38.733826,92.12787,192.91154
"3092",38.74716,92.843216,194.00589
"3093",38.760498,92.86763,194.43166
"3094",38.773834,92.39155,194.35768
"3095",38.78717,91.6054,193.95877
"3096",38.800507,90.687416,193.40346
"3097",38.813843,89.75479,192.80481
"3098",38.82718,88.8539,192.20876
"3099",38.840515,87.97009,191.60164
"3100",38.85385,87.044785,190.9254
"3101",38.867188,86.031586,190.13235
"3102",38.880524,84.92317,189.21243
"3103",38.89386,83.76105,188.20416
"3104",38.907196,82.62577,187.18642
"3105",38.920532,81.617455,186.26016
"3106",38.93387,80.816666,185.50992
"3107",38.947205,80.24536,184.96414
"3108",38.96054,79.888916,184.61536
"3109",38.973877,79.693596,184.41656
"3110",38.987213,79.571526,184.28491
"3111",39.00055,79.447014,184.147
"3112",39.013885,79.25414,183.93684
"3113",39.02722,78.95384,183.61324
"3114",39.040558,78.53147,183.15817
"3115",39.053894,77.99924,182.58005
"3116",39.06723,77.37423,181.89252
"3117",39.080566,76.68574,181.12196
"3118",39.093903,75.96796,180.30061
"3119",39.10724,75.25506,179.46172
"3120",39.120575,74.56657,178.62494
"3121",39.13391,73.92203,177.81061
"3122",39.147247,73.34585,177.0445
"3123",39.160583,72.84047,176.33118
"3124",39.17392,72.40589,175.67287
"3125",39.187256,72.03967,175.06934
"3126",39.200592,71.744255,174.52516
"3127",39.21393,71.51232,174.03523
"3128",39.227264,71.3341,173.59177
"3129",39.2406,71.20714,173.194
"3130",39.253937,71.131454,172.84354
"3131",39.267273,71.097275,172.53221
"3132",39.28061,71.1046,172.26132
"3133",39.293945,71.1461,172.02484
"3134",39.30728,71.2169,171.81895
"3135",39.320618,71.309685,171.63727
"3136",39.333954,71.40734,171.46335
"3137",39.34729,71.49279,171.28027
"3138",39.360626,71.54894,171.07057
"3139",39.373962,71.56603,170.82356
"3140",39.3873,71.53918,170.53314
"3141",39.400635,71.46349,170.19305
"3142",39.41397,71.37316,169.83595
"3143",39.427307,71.34875,169.54195
"3144",39.440643,71.551384,169.47423
"3145",39.45398,72.217896,169.87672
"3146",39.467316,73.619286,171.03493
"3147",39.48065,75.931335,173.14758
"3148",39.493988,79.10521,176.1943
"3149",39.507324,82.865036,179.92616
"3150",39.52066,86.744484,183.89514
"3151",39.533997,90.250404,187.61183
"3152",39.547333,92.979935,190.66168
"3153",39.56067,94.74265,192.83002
"3154",39.574005,95.56298,194.11105
"3155",39.58734,95.606926,194.64134
"3156",39.600677,95.09422,194.61636
"3157",39.614014,94.23239,194.22623
"3158",39.62735,93.221634,193.66023
"3159",39.640686,92.191345,193.04312
"3160",39.654022,91.20012,192.43288
"3161",39.66736,90.247955,191.83072
"3162",39.680695,89.28359,191.1866
"3163",39.69403,88.25819,190.45131
"3164",39.707367,87.12291,189.5741
"3165",39.720703,85.89731,188.57109
"3166",39.73404,84.647285,187.50536
"3167",39.747375,83.48028,186.48358
"3168",39.76071,82.47929,185.59135
"3169",39.774048,81.70779,184.89734
"3170",39.787384,81.17799,184.42091
"3171",39.80072,80.84352,184.12326
"3172",39.814056,80.62623,183.93233
"3173",39.827393,80.44312,183.7688
"3174",39.84073,80.22095,183.56047
"3175",39.854065,79.91089,183.25732
"3176",39.8674,79.49584,182.8395
"3177",39.880737,78.98558,182.31348
"3178",39.894073,78.39231,181.6885
"3179",39.90741,77.73556,180.9815
"3180",39.920746,77.04463,180.21982
"3181",39.934082,76.3415,179.42433
"3182",39.94742,75.648125,178.61662
"3183",39.960754,74.986496,177.819
"3184",39.97409,74.371254,177.04709
"3185",39.987427,73.814606,176.31454
"3186",40.000763,73.31899,175.62564
"3187",40.0141,72.886856,174.98473
"3188",40.027435,72.515755,174.39134
"3189",40.04077,72.21301,173.85472
"3190",40.054108,71.98352,173.38188
"3191",40.067444,71.817505,172.96535
"3192",40.08078,71.69543,172.58757
"3193",40.094116,71.61242,172.24504
"3194",40.107452,71.54894,171.91945
"3195",40.12079,71.505,171.6114
"3196",40.134125,71.47814,171.31908
"3197",40.14746,71.468376,171.043
"3198",40.160797,71.48058,170.78859
"3199",40.174133,71.51232,170.5541
"3200",40.18747,71.55627,170.3328
"3201",40.200806,71.60021,170.11287
"3202",40.21414,71.639275,169.88943
"3203",40.227478,71.64904,169.63792
"3204",40.240814,71.61486,169.34277
"3205",40.25415,71.52941,168.99529
"3206",40.267487,71.39025,168.59142
"3207",40.280823,71.2169,168.14902
"3208",40.29416,71.06798,167.72562
"3209",40.307495,71.06065,167.43916
"3210",40.32083,71.414665,167.51382
"3211",40.334167,72.410774,168.24164
"3212",40.347504,74.3151,169.9088
"3213",40.36084,77.22774,172.64378
"3214",40.374176,81.004654,176.33406
"3215",40.387512,85.243,180.6038
"3216",40.40085,89.393456,184.9181
"3217",40.414185,92.93599,188.75418
"3218",40.42752,95.50927,191.7317
"3219",40.440857,97.005875,193.71298
"3220",40.454193,97.516136,194.75467
"3221",40.46753,97.26223,195.04814
"3222",40.480865,96.49317,194.81853
"3223",40.4942,95.44579,194.28656
"3224",40.507538,94.30564,193.62909
"3225",40.520874,93.189896,192.96039
"3226",40.53421,92.14496,192.32764
"3227",40.547546,91.14641,191.70862
"3228",40.560883,90.12833,191.03886
"3229",40.57422,89.02968,190.25673
"3230",40.587555,87.835815,189.34505
"3231",40.60089,86.56138,188.31548
"3232",40.614227,85.27718,187.23633
"3233",40.627563,84.071106,186.19516
"3234",40.6409,83.02617,185.27745
"3235",40.654236,82.193634,184.53949
"3236",40.667572,81.58083,183.99524
"3237",40.68091,81.160904,183.62471
"3238",40.694244,80.87282,183.37291
"3239",40.70758,80.638435,183.1658
"3240",40.720917,80.377205,182.92453
"3241",40.734253,80.04761,182.60672
"3242",40.74759,79.61303,182.17363
"3243",40.760925,79.06859,181.6171
"3244",40.77426,78.42893,180.94833
"3245",40.787598,77.71603,180.18633
"3246",40.800934,76.95918,179.35811
"3247",40.81427,76.1828,178.4867
"3248",40.827606,75.41619,177.6008
"3249",40.840942,74.67643,176.71779
"3250",40.85428,73.97574,175.85074
"3251",40.867615,73.32876,175.0155
"3252",40.88095,72.74525,174.22351
"3253",40.894287,72.232544,173.4841
"3254",40.907623,71.79309,172.80191
"3255",40.92096,71.42931,172.18167
"3256",40.934296,71.133896,171.61842
"3257",40.94763,70.90196,171.10942
"3258",40.960968,70.71397,170.63712
"3259",40.974304,70.572365,170.20532
"3260",40.98764,70.47227,169.81061
"3261",41.000977,70.41123,169.45183
"3262",41.014313,70.38926,169.1302
"3263",41.02765,70.40635,168.84695
"3264",41.040985,70.45762,168.59842
"3265",41.05432,70.54307,168.38567
"3266",41.067657,70.65293,168.2
"3267",41.080994,70.78233,168.03731
"3268",41.09433,70.91417,167.88109
"3269",41.107666,71.028915,167.7119
"3270",41.121002,71.10704,167.50967
"3271",41.13434,71.133896,167.25862
"3272",41.147675,71.1046,166.95226
"3273",41.16101,71.03868,166.60835
"3274",41.174347,71.01427,166.3039
"3275",41.187683,71.18761,166.19643
"3276",41.20102,71.82239,166.55582
"3277",41.214355,73.22377,167.70164
"3278",41.22769,75.61883,169.88495
"3279",41.241028,79.03685,173.16606
"3280",41.254364,83.226364,177.32547
"3281",41.2677,87.68688,181.88681
"3282",41.281036,91.8349,186.27504
"3283",41.294373,95.167465,189.97745
"3284",41.30771,97.4136,192.69757
"3285",41.321045,98.54398,194.37213
"3286",41.33438,98.719765,195.12741
"3287",41.347717,98.18997,195.18262
"3288",41.361053,97.20607,194.76715
"3289",41.37439,95.9707,194.06947
"3290",41.387726,94.65476,193.25262
"3291",41.401062,93.35836,192.41418
"3292",41.4144,92.120544,191.59381
"3293",41.427734,90.92424,190.77628
"3294",41.44107,89.720604,189.91402
"3295",41.454407,88.47059,188.96777
"3296",41.467743,87.15709,187.91898
"3297",41.48108,85.80942,186.79497
"3298",41.494415,84.49836,185.66545
"3299",41.50775,83.30694,184.61461
"3300",41.521088,82.30595,183.71696
"3301",41.534424,81.532005,183.01509
"3302",41.54776,80.99245,182.5234
"3303",41.561096,80.6482,182.21017
"3304",41.574432,80.4358,182.01804
"3305",41.58777,80.26734,181.8632
"3306",41.601105,80.07202,181.67624
"3307",41.61444,79.78882,181.3953
"3308",41.627777,79.395744,180.99562
"3309",41.641113,78.89769,180.47868
"3310",41.65445,78.30442,179.85097
"3311",41.667786,77.6379,179.13145
"3312",41.68112,76.92256,178.3423
"3313",41.694458,76.175476,177.49904
"3314",41.707794,75.403984,176.60803
"3315",41.72113,74.63981,175.70023
"3316",41.734467,73.9025,174.79541
"3317",41.747803,73.20668,173.90904
"3318",41.76114,72.569466,173.05954
"3319",41.774475,72.00305,172.26093
"3320",41.78781,71.51232,171.5203
"3321",41.801147,71.1046,170.84734
"3322",41.814484,70.77745,170.2422
"3323",41.82782,70.52842,169.70497
"3324",41.841156,70.35508,169.23564
"3325",41.854492,70.25254,168.8317
"3326",41.86783,70.203705,168.47826
"3327",41.881165,70.19882,168.16724
"3328",41.8945,70.223236,167.88536
"3329",41.907837,70.26963,167.62624
"3330",41.921173,70.33311,167.38564
"3331",41.93451,70.399025,167.14946
"3332",41.947845,70.46006,166.91046
"3333",41.96118,70.50889,166.66116
"3334",41.974518,70.5333,166.38898
"3335",41.987854,70.52598,166.08582
"3336",42.00119,70.49912,165.7629
"3337",42.014526,70.47715,165.44402
"3338",42.027863,70.54795,165.21722
"3339",42.0412,70.90196,165.27586
"3340",42.054535,71.82971,165.9193
"3341",42.06787,73.633934,167.4682
"3342",42.081207,76.50263,170.13795
"3343",42.094543,80.39185,173.91788
"3344",42.10788,84.97444,178.51271
"3345",42.121216,89.68398,183.3777
"3346",42.134552,93.893036,187.88937
"3347",42.14789,97.1255,191.556
"3348",42.161224,99.14946,194.11513
"3349",42.17456,99.984436,195.54852
"3350",42.187897,99.83795,196.02655
"3351",42.201233,99.002975,195.81151
"3352",42.21457,97.7554,195.15778
"3353",42.227905,96.31007,194.2673
"3354",42.24124,94.83299,193.29993
"3355",42.254578,93.399864,192.33032
"3356",42.267914,92.03021,191.37941
"3357",42.28125,90.69962,190.42476
"3358",42.294586,89.36904,189.42854
"3359",42.307922,88.01404,188.36632
"3360",42.32126,86.65659,187.25931
"3361",42.334595,85.34554,186.15628
"3362",42.34793,84.14435,185.12213
"3363",42.361267,83.12627,184.23357
"3364",42.374603,82.32792,183.53291
"3365",42.38794,81.75418,183.03192
"3366",42.401276,81.375755,182.70831
"3367",42.41461,81.126724,182.50227
"3368",42.427948,80.93141,182.34218
"3369",42.441284,80.71168,182.15155
"3370",42.45462,80.4065,181.86862
"3371",42.467957,79.97681,181.45163
"3372",42.481293,79.41772,180.89182
"3373",42.49463,78.74876,180.20465
"3374",42.507965,78.00412,179.42091
"3375",42.5213,77.22041,178.57483
"3376",42.534637,76.42451,177.69206
"3377",42.547974,75.63836,176.79417
"3378",42.56131,74.87175,175.89127
"3379",42.574646,74.13199,174.99124
"3380",42.587982,73.42153,174.09741
"3381",42.60132,72.75258,173.22289
"3382",42.614655,72.14221,172.38603
"3383",42.62799,71.59777,171.59604
"3384",42.641327,71.14122,170.87692
"3385",42.654663,70.77501,170.23387
"3386",42.668,70.50645,169.67703
"3387",42.681335,70.32578,169.19969
"3388",42.69467,70.223236,168.79483
"3389",42.708008,70.17441,168.44048
"3390",42.721344,70.169525,168.12854
"3391",42.73468,70.18906,167.84087
"3392",42.748016,70.233,167.57822
"3393",42.761353,70.279396,167.3194
"3394",42.77469,70.31846,167.05469
"3395",42.788025,70.33555,166.76923
"3396",42.80136,70.330666,166.46233
"3397",42.814697,70.30137,166.13086
"3398",42.828033,70.25254,165.77895
"3399",42.84137,70.220795,165.4426
"3400",42.854706,70.31846,165.23466
"3401",42.868042,70.76524,165.3789
"3402",42.88138,71.871216,166.19629
"3403",42.894714,73.92447,167.99551
"3404",42.90805,77.06416,170.94534
"3405",42.921387,81.17555,174.96498
"3406",42.934723,85.858246,179.68442
"3407",42.94806,90.49699,184.50623
"3408",42.961395,94.483864,188.82114
"3409",42.97473,97.38918,192.17908
"3410",42.988068,99.0396,194.3729
"3411",43.001404,99.510796,195.43909
"3412",43.01474,99.04936,195.58737
"3413",43.028076,97.9556,195.0889
"3414",43.041412,96.500496,194.19492
"3415",43.05475,94.8867,193.09677
"3416",43.068085,93.24361,191.91888
"3417",43.08142,91.63958,190.72871
"3418",43.094757,90.091705,189.54457
"3419",43.108093,88.59266,188.36089
"3420",43.12143,87.14732,187.18407
"3421",43.134766,85.770355,186.03046
"3422",43.1481,84.508125,184.94855
"3423",43.161438,83.41436,183.99567
"3424",43.174774,82.54276,183.23077
"3425",43.18811,81.90799,182.67546
"3426",43.201447,81.50271,182.3298
"3427",43.214783,81.28298,182.15704
"3428",43.22812,81.19264,182.1068
"3429",43.241455,81.16579,182.11722
"3430",43.25479,81.11696,182.10483
"3431",43.268127,80.98268,182.00546
"3432",43.281464,80.71412,181.76761
"3433",43.2948,80.291756,181.36757
"3434",43.308136,79.710686,180.79562
"3435",43.321472,78.99779,180.07368
"3436",43.33481,78.19455,179.23912
"3437",43.348145,77.33517,178.32332
"3438",43.36148,76.44892,177.35379
"3439",43.374817,75.56512,176.35901
"3440",43.388153,74.71549,175.37079
"3441",43.40149,73.917145,174.4073
"3442",43.414825,73.18471,173.48477
"3443",43.42816,72.535286,172.62238
"3444",43.441498,71.98108,171.8349
"3445",43.454834,71.52697,171.1302
"3446",43.46817,71.16075,170.4992
"3447",43.481506,70.87999,169.94221
"3448",43.494843,70.66758,169.44481
"3449",43.50818,70.521095,169.00668
"3450",43.521515,70.42832,168.61769
"3451",43.53485,70.381935,168.27219
"3452",43.548187,70.364845,167.95453
"3453",43.561523,70.362404,167.65099
"3454",43.57486,70.3502,167.3376
"3455",43.588196,70.311134,166.99698
"3456",43.601532,70.24765,166.63072
"3457",43.61487,70.20615,166.28445
"3458",43.628204,70.294044,166.0663
"3459",43.64154,70.73594,166.20488
"3460",43.654877,71.83215,167.0116
"3461",43.668213,73.84146,168.76566
"3462",43.68155,76.8835,171.61523
"3463",43.694885,80.84352,175.47786
"3464",43.70822,85.33822,179.99892
"3465",43.721558,89.79385,184.62137
"3466",43.734894,93.62203,188.7556
"3467",43.74823,96.40284,191.9621
"3468",43.761566,97.967804,194.03964
"3469",43.774902,98.3682,195.00153
"3470",43.78824,97.8262,195.03354
"3471",43.801575,96.637215,194.40161
"3472",43.81491,95.06737,193.35168
"3473",43.828247,93.30709,192.06226
"3474",43.841583,91.48577,190.65678
"3475",43.85492,89.67666,189.2066
"3476",43.868256,87.91638,187.74872
"3477",43.88159,86.23178,186.31151
"3478",43.894928,84.65217,184.92664
"3479",43.908264,83.23369,183.65353
"3480",43.9216,82.04227,182.56317
"3481",43.934937,81.13649,181.72122
"3482",43.948273,80.5481,181.16835
"3483",43.96161,80.274666,180.91205
"3484",43.974945,80.26246,180.90843
"3485",43.98828,80.41871,181.07289
"3486",44.001617,80.64088,181.30815
"3487",44.014954,80.82155,181.50885
"3488",44.02829,80.87526,181.58824
"3489",44.041626,80.75319,181.49353
"3490",44.054962,80.430916,181.1948
"3491",44.0683,79.920654,180.698
"3492",44.081635,79.2517,180.02657
"3493",44.09497,78.46555,179.21703
"3494",44.108307,77.60372,178.30724
"3495",44.121643,76.717476,177.3461
"3496",44.13498,75.843445,176.36949
"3497",44.148315,75.00603,175.40218
"3498",44.16165,74.232086,174.47217
"3499",44.174988,73.53628,173.59612
"3500",44.188324,72.92348,172.78133
"3501",44.20166,72.39124,172.02795
"3502",44.214996,71.9469,171.34584
"3503",44.228333,71.58068,170.72797
"3504",44.24167,71.28527,170.16945
"3505",44.255005,71.05821,169.67006
"3506",44.26834,70.87511,169.20752
"3507",44.281677,70.711525,168.75879
"3508",44.295013,70.54307,168.30006
"3509",44.30835,70.36729,167.82875
"3510",44.321686,70.19638,167.35683
"3511",44.335022,70.084076,166.93816
"3512",44.34836,70.15488,166.69908
"3513",44.361694,70.6334,166.86995
"3514",44.37503,71.79553,167.73938
"3515",44.388367,73.863434,169.55089
"3516",44.401703,76.92256,172.41824
"3517",44.41504,80.8362,176.2357
"3518",44.428375,85.21126,180.6369
"3519",44.44171,89.481346,185.06984
"3520",44.455048,93.09468,188.97946
"3521",44.468384,95.66308,191.95706
"3522",44.48172,97.042496,193.82596
"3523",44.495056,97.29397,194.61002
"3524",44.508392,96.639656,194.49614
"3525",44.52173,95.36523,193.7417
"3526",44.535065,93.71725,192.57388
"3527",44.5484,91.87152,191.15681
"3528",44.561737,89.9501,189.60638
"3529",44.575073,88.03113,187.99835
"3530",44.58841,86.170746,186.38895
"3531",44.601746,84.42512,184.83615
"3532",44.61508,82.85283,183.40215
"3533",44.628418,81.532005,182.17047
"3534",44.641754,80.52613,181.21248
"3535",44.65509,79.88159,180.58438
"3536",44.668427,79.60082,180.29991
"3537",44.681763,79.63256,180.31917
"3538",44.6951,79.888916,180.56404
"3539",44.708435,80.257576,180.92923
"3540",44.72177,80.621346,181.30106
"3541",44.735107,80.87282,181.57195
"3542",44.748444,80.938736,181.66515
"3543",44.76178,80.780045,181.5358
"3544",44.775116,80.39185,181.17198
"3545",44.788452,79.798584,180.59096
"3546",44.80179,79.04906,179.83514
"3547",44.815125,78.20187,178.95824
"3548",44.82846,77.313194,178.01337
"3549",44.841797,76.42939,177.0456
"3550",44.855133,75.58709,176.0917
"3551",44.86847,74.80583,175.17255
"3552",44.881805,74.107574,174.31197
"3553",44.89514,73.48745,173.5077
"3554",44.908478,72.94301,172.75975
"3555",44.921814,72.47425,172.07047
"3556",44.93515,72.07141,171.43245
"3557",44.948486,71.72228,170.83556
"3558",44.961823,71.41711,170.2717
"3559",44.97516,71.13878,169.72516
"3560",44.988495,70.88487,169.19434
"3561",45.00183,70.66514,168.68976
"3562",45.015167,70.52354,168.25644
"3563",45.028503,70.54307,167.97983
"3564",45.04184,70.9044,168.04564
"3565",45.055176,71.854126,168.71112
"3566",45.068512,73.62417,170.22661
"3567",45.08185,76.34638,172.74957
"3568",45.095184,79.96704,176.25606
"3569",45.10852,84.18829,180.47629
"3570",45.121857,88.497444,184.91632
"3571",45.135193,92.33051,189.01494
"3572",45.14853,95.238266,192.30801
"3573",45.161865,96.988785,194.53473
"3574",45.1752,97.57717,195.65402
"3575",45.188538,97.17677,195.80292
"3576",45.201874,96.05371,195.21663
"3577",45.21521,94.47898,194.14359
"3578",45.228546,92.647896,192.76497
"3579",45.241882,90.704506,191.21683
"3580",45.25522,88.73426,189.5811
"3581",45.268555,86.80797,187.92775
"3582",45.28189,84.979324,186.31186
"3583",45.295227,83.32891,184.81705
"3584",45.308563,81.92996,183.52213
"3585",45.3219,80.86305,182.51553
"3586",45.335236,80.17456,181.85402
"3587",45.34857,79.8645,181.54941
"3588",45.361908,79.888916,181.56958
"3589",45.375244,80.15015,181.82733
"3590",45.38858,80.52613,182.20801
"3591",45.401917,80.89967,182.59799
"3592",45.415253,81.15846,182.8849
"3593",45.42859,81.22438,182.98703
"3594",45.441925,81.05592,182.85684
"3595",45.45526,80.66285,182.49677
"3596",45.468597,80.07202,181.92665
"3597",45.481934,79.33959,181.19647
"3598",45.49527,78.51438,180.35062
"3599",45.508606,77.65499,179.4448
"3600",45.521942,76.80293,178.51945
"3601",45.53528,75.98993,177.60654
"3602",45.548615,75.23308,176.72437
"3603",45.56195,74.54215,175.88448
"3604",45.575287,73.917145,175.08891
"3605",45.588623,73.35317,174.33485
"3606",45.60196,72.83559,173.60956
"3607",45.615295,72.35218,172.90227
"3608",45.62863,71.89319,172.20428
"3609",45.641968,71.45373,171.51149
"3610",45.655304,71.06065,170.85135
"3611",45.66864,70.76036,170.2717
"3612",45.681976,70.67979,169.90239
"3613",45.695312,71.03136,169.9627
"3614",45.70865,72.07141,170.72249
"3615",45.721985,74.01236,172.41566
"3616",45.73532,76.925,175.14119
"3617",45.748657,80.638435,178.75853
"3618",45.761993,84.754715,182.89476
"3619",45.77533,88.73182,187.02045
"3620",45.788666,92.052185,190.61368
"3621",45.802002,94.36668,193.3048
"3622",45.81534,95.553215,194.94029
"3623",45.828674,95.69726,195.57037
"3624",45.84201,95.01854,195.3822
"3625",45.855347,93.77341,194.6064
"3626",45.868683,92.18158,193.44499
"3627",45.88202,90.40421,192.0483
"3628",45.895355,88.551155,190.52037
"3629",45.90869,86.695656,188.9321
"3630",45.922028,84.88899,187.33467
"3631",45.935364,83.20195,185.80042
"3632",45.9487,81.71023,184.40875
"3633",45.962036,80.49439,183.24637
"3634",45.975372,79.622795,182.39023
"3635",45.98871,79.12474,181.88039
"3636",46.002045,78.98314,181.71143
"3637",46.01538,79.11742,181.81392
"3638",46.028717,79.42748,182.0964
"3639",46.042053,79.798584,182.44962
"3640",46.05539,80.11597,182.76071
"3641",46.068726,80.289314,182.93768
"3642",46.08206,80.26978,182.9272
"3643",46.095398,80.03784,182.70369
"3644",46.108734,79.61059,182.27762
"3645",46.12207,79.02464,181.6795
"3646",46.135406,78.32639,180.95078
"3647",46.148743,77.58175,180.15382
"3648",46.16208,76.822464,179.31897
"3649",46.175415,76.07782,178.47502
"3650",46.18875,75.36736,177.642
"3651",46.202087,74.71305,176.84291
"3652",46.215424,74.1149,176.07954
"3653",46.22876,73.57778,175.35852
"3654",46.242096,73.08949,174.66954
"3655",46.255432,72.637825,174.00192
"3656",46.26877,72.20813,173.34216
"3657",46.282104,71.78088,172.67142
"3658",46.29544,71.3756,172.0093
"3659",46.308777,71.03624,171.40042
"3660",46.322113,70.87999,170.96405
"3661",46.33545,71.1046,170.90366
"3662",46.348785,71.9762,171.49727
"3663",46.36212,73.72915,172.99948
"3664",46.375458,76.44892,175.52328
"3665",46.388794,79.991455,178.95485
"3666",46.40213,83.96124,182.92438
"3667",46.415466,87.82605,186.91298
"3668",46.428802,91.07805,190.40955
"3669",46.44214,93.36324,193.04092
"3670",46.455475,94.55955,194.65483
"3671",46.46881,94.74998,195.30025
"3672",46.482147,94.13962,195.15082
"3673",46.495483,92.96529,194.41835
"3674",46.50882,91.441826,193.30005
"3675",46.522156,89.73769,191.95348
"3676",46.535492,87.974976,190.49506
"3677",46.54883,86.22446,188.99376
"3678",46.562164,84.53986,187.50368
"3679",46.5755,82.97246,186.07814
"3680",46.588837,81.58572,184.78429
"3681",46.602173,80.445564,183.6937
"3682",46.61551,79.61059,182.87265
"3683",46.628845,79.11253,182.36243
"3684",46.64218,78.93919,182.16135
"3685",46.655518,79.027084,182.21608
"3686",46.668854,79.27856,182.43715
"3687",46.68219,79.58373,182.71977
"3688",46.695526,79.83276,182.9558
"3689",46.708862,79.937744,183.05554
"3690",46.7222,79.85474,182.97058
"3691",46.735535,79.5642,182.6755
"3692",46.74887,79.080795,182.17848
"3693",46.762207,78.44114,181.5101
"3694",46.775543,77.696495,180.71674
"3695",46.78888,76.895706,179.84396
"3696",46.802216,76.09003,178.94127
"3697",46.81555,75.31365,178.04271
"3698",46.828888,74.59098,177.17358
"3699",46.842224,73.934235,176.34781
"3700",46.85556,73.34585,175.56987
"3701",46.868896,72.82094,174.83702
"3702",46.882233,72.3473,174.13904
"3703",46.89557,71.92493,173.47752
"3704",46.908905,71.553825,172.85408
"3705",46.92224,71.236435,172.27275
"3706",46.935577,70.975204,171.73766
"3707",46.948914,70.801865,171.28229
"3708",46.96225,70.818954,171.01193
"3709",46.975586,71.2047,171.11076
"3710",46.988922,72.21057,171.84178
"3711",47.00226,74.06363,173.45142
"3712",47.015594,76.84444,176.0467
"3713",47.02893,80.38209,179.48575
"3714",47.042267,84.27375,183.38936
"3715",47.055603,88.00183,187.25099
"3716",47.06894,91.087814,190.58704
"3717",47.082275,93.21187,193.05759
"3718",47.09561,94.28611,194.5447
"3719",47.108948,94.415504,195.12053
"3720",47.122284,93.81003,194.96553
"3721",47.13562,92.68696,194.27402
"3722",47.148956,91.24895,193.23247
"3723",47.162292,89.6498,191.98485
"3724",47.17563,87.989624,190.62622
"3725",47.188965,86.327,189.21327
"3726",47.2023,84.715645,187.79964
"3727",47.215637,83.20683,186.43819
"3728",47.228973,81.866486,185.19806
"3729",47.24231,80.765396,184.1553
"3730",47.255646,79.96704,183.38087
"3731",47.268982,79.49584,182.90865
"3732",47.28232,79.32983,182.72687
"3733",47.295654,79.40795,182.78404
"3734",47.30899,79.63012,182.9877
"3735",47.322327,79.886475,183.2325
"3736",47.335663,80.08179,183.42426
"3737",47.349,80.13794,183.48297
"3738",47.362335,80.008545,183.35788
"3739",47.37567,79.68871,183.03831
"3740",47.389008,79.19798,182.53786
"3741",47.402344,78.56565,181.88046
"3742",47.41568,77.83566,181.10565
"3743",47.429016,77.06172,180.26407
"3744",47.442352,76.28779,179.39832
"3745",47.45569,75.5407,178.53522
"3746",47.469025,74.85222,177.70738
"3747",47.48236,74.23697,176.93126
"3748",47.495697,73.70229,176.21649
"3749",47.509033,73.2433,175.5607
"3750",47.52237,72.84535,174.9516
"3751",47.535706,72.49134,174.37401
"3752",47.54904,72.15686,173.80489
"3753",47.562378,71.82727,173.2302
"3754",47.575714,71.50988,172.65741
"3755",47.58905,71.22423,172.10645
"3756",47.602386,71.03868,171.64665
"3757",47.615723,71.08507,171.413
"3758",47.62906,71.59777,171.64711
"3759",47.642395,72.8185,172.60527
"3760",47.65573,74.93523,174.49757
"3761",47.669067,77.93088,177.33495
"3762",47.682404,81.549095,180.8885
"3763",47.69574,85.347984,184.73581
"3764",47.709076,88.81239,188.36734
"3765",47.722412,91.51995,191.35028
"3766",47.73575,93.24361,193.43393
"3767",47.749084,93.97116,194.57535
"3768",47.76242,93.84665,194.88744
"3769",47.775757,93.08003,194.55353
"3770",47.789093,91.88373,193.76598
"3771",47.80243,90.44816,192.70177
"3772",47.815765,88.91005,191.49016
"3773",47.8291,87.35485,190.2134
"3774",47.842438,85.82651,188.91489
"3775",47.855774,84.35432,187.62477
"3776",47.86911,82.97734,186.38387
"3777",47.882446,81.75418,185.25375
"3778",47.895782,80.75319,184.30759
"3779",47.90912,80.028076,183.60602
"3780",47.922455,79.605705,183.18452
"3781",47.93579,79.4641,183.0306
"3782",47.949127,79.54955,183.09929
"3783",47.962463,79.77173,183.30739
"3784",47.9758,80.02319,183.55173
"3785",47.989136,80.22339,183.75266
"3786",48.002472,80.29908,183.83533
"3787",48.01581,80.2063,183.75189
"3788",48.029144,79.9353,183.48734
"3789",48.04248,79.49828,183.0483
"3790",48.055817,78.924545,182.45888
"3791",48.069153,78.25315,181.75388
"3792",48.08249,77.52804,180.97417
"3793",48.095825,76.79561,180.16449
"3794",48.10916,76.09979,179.36853
"3795",48.122498,75.46258,178.60944
"3796",48.135834,74.896164,177.90123
"3797",48.14917,74.39811,177.24368
"3798",48.162506,73.96353,176.63405
"3799",48.175842,73.5729,176.05478
"3800",48.18918,73.216446,175.49748
"3801",48.202515,72.8893,174.95834
"3802",48.21585,72.584114,174.43095
"3803",48.229187,72.29847,173.91356
"3804",48.242523,72.03967,173.4141
"3805",48.25586,71.834595,172.96025
"3806",48.269196,71.76868,172.63916
"3807",48.28253,72.010376,172.62363
"3808",48.295868,72.81117,173.17474
"3809",48.309204,74.40543,174.54436
"3810",48.32254,76.910355,176.87445
"3811",48.335876,80.20874,180.07628
"3812",48.349213,83.949036,183.82309
"3813",48.36255,87.63561,187.63307
"3814",48.375885,90.77287,191.00894
"3815",48.38922,93.01167,193.5844
"3816",48.402557,94.23239,195.21173
"3817",48.415894,94.50095,195.92505
"3818",48.42923,94.01511,195.89235
"3819",48.442566,92.98726,195.30247
"3820",48.455902,91.629814,194.35088
"3821",48.46924,90.10635,193.19084
"3822",48.482574,88.52674,191.92705
"3823",48.49591,86.94713,190.61389
"3824",48.509247,85.399254,189.28311
"3825",48.522583,83.9173,187.96988
"3826",48.53592,82.55253,186.72752
"3827",48.549255,81.38064,185.6354
"3828",48.56259,80.479744,184.77766
"3829",48.575928,79.90112,184.21404
"3830",48.589264,79.64477,183.95459
"3831",48.6026,79.656975,183.95569
"3832",48.615936,79.84009,184.12808
"3833",48.629272,80.08911,184.3721
"3834",48.64261,80.29908,184.58485
"3835",48.655945,80.38209,184.67722
"3836",48.66928,80.28687,184.59395
"3837",48.682617,79.99634,184.31238
"3838",48.695953,79.517815,183.83374
"3839",48.70929,78.8806,183.18146
"3840",48.722626,78.12863,182.3945
"3841",48.735962,77.31075,181.51814
"3842",48.7493,76.473335,180.59668
"3843",48.762634,75.650566,179.6637
"3844",48.77597,74.87663,178.75385
"3845",48.789307,74.18082,177.89792
"3846",48.802643,73.5729,177.10815
"3847",48.81598,73.04799,176.3824
"3848",48.829315,72.601204,175.71837
"3849",48.84265,72.217896,175.10385
"3850",48.855988,71.8761,174.51886
"3851",48.869324,71.551384,173.94028
"3852",48.88266,71.23399,173.35887
"3853",48.895996,70.91905,172.76999
"3854",48.909332,70.63584,172.203
"3855",48.92267,70.4625,171.73703
"3856",48.936005,70.58213,171.55861
"3857",48.94934,71.22911,171.91129
"3858",48.962677,72.66224,173.07033
"3859",48.976013,75.02312,175.2019
"3860",48.98935,78.23605,178.25931
"3861",49.002686,81.97635,181.94447
"3862",49.01602,85.75571,185.7856
"3863",49.029358,89.07118,189.28094
"3864",49.042694,91.52483,192.01807
"3865",49.05603,92.95796,193.81134
"3866",49.069366,93.402306,194.66061
"3867",49.082703,93.03609,194.71321
"3868",49.09604,92.06683,194.15134
"3869",49.109375,90.702065,193.16365
"3870",49.12271,89.11513,191.91115
"3871",49.136047,87.42565,190.50652
"3872",49.149384,85.70443,189.01735
"3873",49.16272,84.00519,187.49637
"3874",49.176056,82.38407,186.00041
"3875",49.189392,80.90456,184.5954
"3876",49.20273,79.64965,183.36876
"3877",49.216064,78.70725,182.4154
"3878",49.2294,78.13107,181.79883
"3879",49.242737,77.92844,181.53778
"3880",49.256073,78.048065,181.59267
"3881",49.26941,78.382545,181.86615
