"","Time..s.","PPG.trace","Preprocessed.PPG"
"38543",537.1549,79.940186,88.50871
"38544",537.1682,79.83765,88.404305
"38545",537.1815,79.73998,88.30157
"38546",537.1948,79.64721,88.20067
"38547",537.2081,79.55932,88.10175
"38548",537.22144,79.47631,88.004974
"38549",537.23474,79.398186,87.910484
"38550",537.24805,79.32983,87.82332
"38551",537.26135,79.276115,87.748665
"38552",537.27466,79.23216,87.68209
"38553",537.28796,79.20531,87.63124
"38554",537.3013,79.19066,87.59176
"38555",537.3146,79.18089,87.5567
"38556",537.3279,79.18089,87.531105
"38557",537.3412,79.185776,87.51039
"38558",537.3545,79.200424,87.499596
"38559",537.3678,79.21507,87.48926
"38560",537.3811,79.22728,87.47694
"38561",537.3944,79.22728,87.45279
"38562",537.4077,79.21263,87.413994
"38563",537.421,79.18089,87.35765
"38564",537.4343,79.13939,87.29055
"38565",537.44763,79.09544,87.21971
"38566",537.46094,79.05638,87.15238
"38567",537.47424,79.01976,87.08627
"38568",537.48755,78.99046,87.026344
"38569",537.50085,78.96605,86.97038
"38570",537.51416,78.94896,86.92098
"38571",537.52747,78.93431,86.87349
"38572",537.5408,78.922104,86.82798
"38573",537.5541,78.9099,86.78209
"38574",537.5674,78.89525,86.733376
"38575",537.5807,78.88304,86.686646
"38576",537.594,78.870834,86.639534
"38577",537.6073,78.86595,86.599365
"38578",537.6206,78.86107,86.559044
"38579",537.6339,78.86351,86.525894
"38580",537.6472,78.86351,86.49038
"38581",537.6605,78.86595,86.457306
"38582",537.6738,78.86351,86.419426
"38583",537.68713,78.86351,86.38391
"38584",537.70044,78.86107,86.345955
"38585",537.71375,78.86107,86.31036
"38586",537.72705,78.86595,86.279655
"38587",537.74036,78.87816,86.256424
"38588",537.75366,78.9099,86.253105
"38589",537.76697,79.00511,86.314255
"38590",537.7803,79.24193,86.51998
"38591",537.7936,79.68383,86.938194
"38592",537.8069,80.3357,87.580185
"38593",537.8202,81.129166,88.38414
"38594",537.8335,81.934845,89.225105
"38595",537.8468,82.59647,89.9472
"38596",537.8601,82.99931,90.431175
"38597",537.8734,83.09941,90.625
"38598",537.8867,82.948044,90.57049
"38599",537.9,82.64286,90.35743
"38600",537.9133,82.28397,90.08113
"38601",537.92664,81.94949,89.81802
"38602",537.93994,81.688255,89.61771
"38603",537.95325,81.52224,89.50445
"38604",537.96655,81.43435,89.46413
"38605",537.97986,81.40749,89.48209
"38606",537.99316,81.39529,89.51387
"38607",538.0065,81.36599,89.528175
"38608",538.0198,81.28542,89.490295
"38609",538.0331,81.1487,89.39374
"38610",538.0464,80.95827,89.239204
"38611",538.0597,80.75075,89.06163
"38612",538.073,80.55787,88.89221
"38613",538.0863,80.41627,88.76804
"38614",538.0996,80.33814,88.70293
"38615",538.1129,80.323494,88.698845
"38616",538.1262,80.34547,88.73093
"38617",538.1395,80.38697,88.783226
"38618",538.15283,80.42603,88.83438
"38619",538.16614,80.45289,88.87455
"38620",538.17944,80.45045,88.88626
"38621",538.19275,80.42115,88.87104
"38622",538.20605,80.36256,88.82561
"38623",538.21936,80.274666,88.74905
"38624",538.23267,80.164795,88.64776
"38625",538.246,80.045166,88.53328
"38626",538.2593,79.920654,88.41018
"38627",538.2726,79.798584,88.28563
"38628",538.2859,79.68139,88.16214
"38629",538.2992,79.569084,88.03988
"38630",538.3125,79.4641,87.92143
"38631",538.3258,79.36889,87.80947
"38632",538.3391,79.281,87.70186
"38633",538.3524,79.20531,87.6037
"38634",538.3657,79.14427,87.51783
"38635",538.379,79.09544,87.44226
"38636",538.39233,79.061264,87.379814
"38637",538.40564,79.03929,87.32851
"38638",538.41895,79.02464,87.28384
"38639",538.43225,79.01488,87.24359
"38640",538.44556,79.00755,87.20548
"38641",538.45886,79.00755,87.17447
"38642",538.47217,79.009995,87.1459
"38643",538.4855,79.00023,87.105194
"38644",538.4988,78.98314,87.05686
"38645",538.5121,78.95384,86.99579
"38646",538.5254,78.907455,86.91671
"38647",538.5387,78.8513,86.826416
"38648",538.552,78.80003,86.73925
"38649",538.5653,78.75853,86.66025
"38650",538.5786,78.73411,86.59703
"38651",538.5919,78.72678,86.55015
"38652",538.6052,78.73167,86.51524
"38653",538.6185,78.746315,86.49026
"38654",538.63184,78.77074,86.4755
"38655",538.64514,78.79515,86.4615
"38656",538.65845,78.81468,86.44338
"38657",538.67175,78.82933,86.42099
"38658",538.68506,78.84154,86.396614
"38659",538.69836,78.84642,86.365295
"38660",538.7117,78.8513,86.33413
"38661",538.725,78.86107,86.308
"38662",538.7383,78.873276,86.284615
"38663",538.7516,78.887924,86.26405
"38664",538.7649,78.89769,86.23907
"38665",538.7782,78.90257,86.2095
"38666",538.7915,78.90013,86.17277
"38667",538.8048,78.89281,86.13107
"38668",538.8181,78.88304,86.08671
"38669",538.8314,78.890366,86.05913
"38670",538.8447,78.941635,86.07572
"38671",538.85803,79.10277,86.20378
"38672",538.87134,79.4519,86.52487
"38673",538.88464,80.01831,87.07416
"38674",538.89795,80.762955,87.819374
"38675",538.91125,81.57839,88.65865
"38676",538.92456,82.31815,89.44774
"38677",538.93787,82.83086,90.03288
"38678",538.9512,83.0457,90.33619
"38679",538.9645,82.97734,90.36301
"38680",538.9778,82.70878,90.187485
"38681",538.9911,82.337685,89.90104
"38682",539.0044,81.95926,89.595665
"38683",539.0177,81.636986,89.33462
"38684",539.031,81.40261,89.1514
"38685",539.0443,81.26101,89.05363
"38686",539.0576,81.197525,89.02955
"38687",539.0709,81.180435,89.04988
"38688",539.0842,81.16823,89.07456
"38689",539.09753,81.126724,89.069565
"38690",539.11084,81.03639,89.01444
"38691",539.12415,80.91188,88.92232
"38692",539.13745,80.77028,88.80921
"38693",539.15076,80.64332,88.70632
"38694",539.16406,80.55543,88.638535
"38695",539.17737,80.51881,88.61927
"38696",539.1907,80.52369,88.640366
"38697",539.204,80.55543,88.68847
"38698",539.2173,80.584724,88.73512
"38699",539.2306,80.587166,88.75584
"38700",539.2439,80.55543,88.74245
"38701",539.2572,80.482185,88.68656
"38702",539.2705,80.38209,88.60153
"38703",539.2838,80.26978,88.50117
"38704",539.2971,80.15991,88.39973
"38705",539.3104,80.05249,88.2973
"38706",539.3237,79.94995,88.1964
"38707",539.33704,79.85474,88.099625
"38708",539.35034,79.76196,88.00231
"38709",539.36365,79.676506,87.90942
"38710",539.37695,79.603264,87.826065
"38711",539.39026,79.54223,87.75263
"38712",539.40356,79.4934,87.6895
"38713",539.4169,79.4519,87.632164
"38714",539.4302,79.42504,87.58818
"38715",539.4435,79.41039,87.555565
"38716",539.4568,79.40307,87.529816
"38717",539.4701,79.40795,87.516045
"38718",539.4834,79.41772,87.50731
"38719",539.4967,79.429924,87.50132
"38720",539.51,79.43725,87.49083
"38721",539.5233,79.44213,87.47813
"38722",539.5366,79.44213,87.46069
"38723",539.5499,79.43725,87.43838
"38724",539.56323,79.42504,87.408585
"38725",539.57654,79.40795,87.37353
"38726",539.58984,79.38598,87.33305
"38727",539.60315,79.35912,87.28701
"38728",539.61646,79.33227,87.24013
"38729",539.62976,79.30541,87.192406
"38730",539.64307,79.281,87.146286
"38731",539.6564,79.25414,87.09696
"38732",539.6697,79.22728,87.04679
"38733",539.683,79.19798,86.99335
"38734",539.6963,79.168686,86.93899
"38735",539.7096,79.14671,86.89104
"38736",539.7229,79.13695,86.85461
"38737",539.7362,79.13451,86.825195
"38738",539.7495,79.13695,86.80059
"38739",539.7628,79.13695,86.77362
"38740",539.7761,79.132065,86.74177
"38741",539.7894,79.11986,86.70244
"38742",539.80273,79.10521,86.660286
"38743",539.81604,79.10033,86.62744
"38744",539.82935,79.12962,86.628624
"38745",539.84265,79.26391,86.73571
"38746",539.85596,79.571526,87.020325
"38747",539.86926,80.08667,87.52208
"38748",539.88257,80.78981,88.22793
"38749",539.8959,81.583275,89.046074
"38750",539.9092,82.31327,89.82555
"38751",539.9225,82.83574,90.4203
"38752",539.9358,83.072556,90.745735
"38753",539.9491,83.02617,90.795364
"38754",539.9624,82.76982,90.63358
"38755",539.9757,82.408485,90.3588
"38756",539.989,82.04471,90.07029
"38757",540.0023,81.73708,89.82656
"38758",540.0156,81.52224,89.666
"38759",540.02893,81.40017,89.5915
"38760",540.04224,81.35134,89.586426
"38761",540.05554,81.34402,89.62133
"38762",540.06885,81.339134,89.65845
"38763",540.08215,81.30007,89.66123
"38764",540.09546,81.20241,89.604195
"38765",540.10876,81.05104,89.4904
"38766",540.1221,80.86061,89.33282
"38767",540.1354,80.66041,89.15951
"38768",540.1487,80.48707,89.006805
"38769",540.162,80.36744,88.9024
"38770",540.1753,80.30396,88.8504
"38771",540.1886,80.28443,88.84037
"38772",540.2019,80.2942,88.859024
"38773",540.2152,80.29664,88.87066
"38774",540.2285,80.27955,88.86284
"38775",540.2418,80.22827,88.8203
"38776",540.2551,80.15259,88.75175
"38777",540.26843,80.05493,88.65886
"38778",540.28174,79.94507,88.55071
"38779",540.29504,79.83032,88.43425
"38780",540.30835,79.72289,88.32152
"38781",540.32166,79.62524,88.2152
"38782",540.33496,79.537346,88.1156
"38783",540.34827,79.4641,88.0279
"38784",540.3616,79.40307,87.95012
"38785",540.3749,79.344475,87.87287
"38786",540.3882,79.28344,87.79135
"38787",540.4015,79.22728,87.7128
"38788",540.4148,79.18089,87.642265
"38789",540.4281,79.149155,87.58493
"38790",540.4414,79.13695,87.546135
"38791",540.4547,79.13695,87.519165
"38792",540.468,79.14671,87.50196
"38793",540.4813,79.15892,87.4875
"38794",540.4946,79.166245,87.468544
"38795",540.50793,79.168686,87.44493
"38796",540.52124,79.166245,87.41651
"38797",540.53455,79.1638,87.388016
"38798",540.54785,79.15648,87.35456
"38799",540.56116,79.14671,87.318436
"38800",540.57446,79.12962,87.27468
"38801",540.58777,79.11253,87.23039
"38802",540.6011,79.08812,87.178246
"38803",540.6144,79.061264,87.122894
"38804",540.6277,79.03197,87.06426
"38805",540.641,79.00267,87.004715
"38806",540.6543,78.97337,86.94425
"38807",540.6676,78.94408,86.88287
"38808",540.6809,78.922104,86.8279
"38809",540.6942,78.90013,86.77225
"38810",540.7075,78.88304,86.72079
"38811",540.7208,78.86839,86.671234
"38812",540.73413,78.8513,86.61878
"38813",540.74744,78.836655,86.56824
"38814",540.76074,78.82933,86.52456
"38815",540.77405,78.82689,86.485535
"38816",540.78735,78.836655,86.45864
"38817",540.80066,78.8513,86.436935
"38818",540.81396,78.86595,86.41569
"38819",540.8273,78.87816,86.392456
"38820",540.8406,78.88548,86.36472
"38821",540.8539,78.88304,86.32745
"38822",540.8672,78.87816,86.28767
"38823",540.8805,78.86839,86.24284
"38824",540.8938,78.88304,86.22213
"38825",540.9071,78.97093,86.275116
"38826",540.9204,79.2224,86.49442
"38827",540.9337,79.69848,86.946205
"38828",540.947,80.38941,87.627716
"38829",540.9603,81.21217,88.46265
"38830",540.97363,82.03006,89.31841
"38831",540.98694,82.68192,90.033714
"38832",541.00024,83.04814,90.48374
"38833",541.01355,83.106735,90.63759
"38834",541.02686,82.91142,90.53936
"38835",541.04016,82.564735,90.28365
"38836",541.05347,82.16434,89.9634
"38837",541.0668,81.79324,89.65994
"38838",541.0801,81.50515,89.42789
"38839",541.0934,81.32693,89.2967
"38840",541.1067,81.24635,89.25759
"38841",541.12,81.234146,89.28433
"38842",541.1333,81.24635,89.335106
"38843",541.1466,81.23903,89.36673
"38844",541.1599,81.18288,89.3493
"38845",541.1732,81.06081,89.26419
"38846",541.1865,80.89723,89.133766
"38847",541.1998,80.71412,88.97869
"38848",541.21313,80.5481,88.83499
"38849",541.22644,80.42115,88.72517
"38850",541.23975,80.35035,88.66753
"38851",541.25305,80.325935,88.65406
"38852",541.26636,80.33326,88.67157
"38853",541.27966,80.34791,88.69663
"38854",541.29297,80.35035,88.709946
"38855",541.3063,80.33082,88.70136
"38856",541.3196,80.28199,88.66287
"38857",541.3329,80.20874,88.598434
"38858",541.3462,80.12329,88.51951
"38859",541.3595,80.03296,88.43303
"38860",541.3728,79.937744,88.338844
"38861",541.3861,79.84985,88.24901
"38862",541.3994,79.77173,88.16619
"38863",541.4127,79.70336,88.09069
"38864",541.426,79.64965,88.02771
"38865",541.43933,79.605705,87.97282
"38866",541.45264,79.571526,87.926315
"38867",541.46594,79.54955,87.89095
"38868",541.47925,79.534904,87.86223
"38869",541.49255,79.52514,87.83793
"38870",541.50586,79.52514,87.82309
"38871",541.51917,79.534904,87.818016
"38872",541.5325,79.551994,87.82057
"38873",541.5458,79.571526,87.8261
"38874",541.5591,79.59594,87.83713
"38875",541.5724,79.61303,87.84159
"38876",541.5857,79.622795,87.839264
"38877",541.599,79.622795,87.82748
"38878",541.6123,79.61303,87.80592
"38879",541.6256,79.5935,87.7743
"38880",541.6389,79.56664,87.73474
"38881",541.6522,79.537346,87.6919
"38882",541.6655,79.50561,87.645706
"38883",541.67883,79.47631,87.60096
"38884",541.69214,79.44457,87.55286
"38885",541.70544,79.412834,87.50376
"38886",541.71875,79.381096,87.453674
"38887",541.73206,79.344475,87.39771
"38888",541.74536,79.30297,87.335724
"38889",541.75867,79.26147,87.27244
"38890",541.772,79.22728,87.21517
"38891",541.7853,79.200424,87.16417
"38892",541.7986,79.18089,87.11965
"38893",541.8119,79.168686,87.08185
"38894",541.8252,79.15648,87.04366
"38895",541.8385,79.13451,86.99533
"38896",541.8518,79.09056,86.92434
"38897",541.8651,79.029526,86.834885
"38898",541.8784,78.96117,86.7362
"38899",541.8917,78.90013,86.6427
"38900",541.905,78.86595,86.57415
"38901",541.91833,78.905014,86.577774
"38902",541.93164,79.080795,86.71934
"38903",541.94495,79.4519,87.061714
"38904",541.95825,80.03296,87.62565
"38905",541.97156,80.77028,88.364
"38906",541.98486,81.54665,89.164444
"38907",541.99817,82.21805,89.88417
"38908",542.0115,82.65507,90.3905
"38909",542.0248,82.79668,90.61508
"38910",542.0381,82.67948,90.58528
"38911",542.0514,82.39872,90.38825
"38912",542.0647,82.05203,90.11652
"38913",542.078,81.72732,89.855934
"38914",542.0913,81.47341,89.656006
"38915",542.1046,81.307396,89.53603
"38916",542.1179,81.22194,89.49143
"38917",542.1312,81.19508,89.50276
"38918",542.14453,81.18776,89.53278
"38919",542.15784,81.17311,89.55525
"38920",542.17114,81.11452,89.53332
"38921",542.18445,80.99489,89.44852
"38922",542.19775,80.82399,89.30871
"38923",542.21106,80.635994,89.14646
"38924",542.22437,80.46754,88.99788
"38925",542.2377,80.343025,88.88798
"38926",542.251,80.274666,88.83034
"38927",542.2643,80.25269,88.81695
"38928",542.2776,80.257576,88.82973
"38929",542.2909,80.2649,88.8451
"38930",542.3042,80.255135,88.84361
"38931",542.3175,80.22583,88.82228
"38932",542.3308,80.164795,88.7683
"38933",542.3441,80.079346,88.688
"38934",542.3574,79.974365,88.5855
"38935",542.3707,79.86206,88.4724
"38936",542.38403,79.74731,88.35333
"38937",542.39734,79.64233,88.240456
"38938",542.41064,79.54955,88.136505
"38939",542.42395,79.46899,88.04186
"38940",542.43726,79.398186,87.95447
"38941",542.45056,79.33227,87.86974
"38942",542.46387,79.27123,87.78784
"38943",542.4772,79.21507,87.70891
"38944",542.4905,79.166245,87.63555
"38945",542.5038,79.12718,87.570435
"38946",542.5171,79.10033,87.516304
"38947",542.5304,79.080795,87.46866
"38948",542.5437,79.04906,87.408195
"38949",542.557,79.00755,87.336975
"38950",542.5703,78.958725,87.25713
"38951",542.5836,78.91478,87.18065
"38952",542.5969,78.87816,87.110115
"38953",542.6102,78.86351,87.06041
"38954",542.62354,78.86351,87.024895
"38955",542.63684,78.87572,87.00159
"38956",542.65015,78.87816,86.968895
"38957",542.66345,78.87572,86.9314
"38958",542.67676,78.86351,86.884056
"38959",542.69006,78.84642,86.83145
"38960",542.70337,78.82201,86.77099
"38961",542.7167,78.80736,86.71953
"38962",542.73,78.80003,86.674934
"38963",542.7433,78.79759,86.634995
"38964",542.7566,78.80003,86.59986
"38965",542.7699,78.81468,86.57701
"38966",542.7832,78.82933,86.55462
"38967",542.7965,78.84398,86.532684
"38968",542.8098,78.853745,86.506325
"38969",542.8231,78.86351,86.48027
"38970",542.8364,78.873276,86.45452
"38971",542.84973,78.87816,86.424194
"38972",542.86304,78.88548,86.39646
"38973",542.87634,78.89525,86.3714
"38974",542.88965,78.907455,86.34908
"38975",542.90295,78.924545,86.33203
"38976",542.91626,78.94652,86.3204
"38977",542.92957,78.97337,86.31433
"38978",542.9429,79.00267,86.31155
"38979",542.9562,79.03441,86.31212
"38980",542.9695,79.063705,86.31124
"38981",542.9828,79.08324,86.30151
"38982",542.9961,79.093,86.28263
"38983",543.0094,79.10033,86.26161
"38984",543.0227,79.11253,86.245705
"38985",543.036,79.183334,86.28877
"38986",543.0493,79.38842,86.46834
"38987",543.0626,79.801025,86.86183
"38988",543.0759,80.44312,87.49771
"38989",543.08923,81.25124,88.31968
"38990",543.10254,82.09354,89.20107
"38991",543.11584,82.80644,89.9794
"38992",543.12915,83.25323,90.513885
"38993",543.14246,83.38262,90.74494
"38994",543.15576,83.226364,90.69439
"38995",543.16907,82.89189,90.46074
"38996",543.1824,82.48173,90.140945
"38997",543.1957,82.08621,89.82298
"38998",543.209,81.76639,89.56835
"38999",543.2223,81.55398,89.41114
"39000",543.2356,81.43923,89.344955
"39001",543.2489,81.40261,89.35331
"39002",543.2622,81.40505,89.39958
"39003",543.2755,81.40505,89.44349
"39004",543.2888,81.36843,89.450775
"39005",543.3021,81.27322,89.39832
"39006",543.3154,81.12428,89.28918
"39007",543.32874,80.94118,89.141205
"39008",543.34204,80.75563,88.98507
"39009",543.35535,80.59449,88.84754
"39010",543.36865,80.479744,88.75137
"39011",543.38196,80.41871,88.70533
"39012",543.39526,80.396736,88.69644
"39013",543.40857,80.39185,88.70396
"39014",543.4219,80.38453,88.70888
"39015",543.4352,80.35767,88.69404
"39016",543.4485,80.30396,88.651505
"39017",543.4618,80.23071,88.58775
"39018",543.4751,80.14282,88.50707
"39019",543.4884,80.045166,88.41388
"39020",543.5017,79.94263,88.31275
"39021",543.515,79.835205,88.20354
"39022",543.5283,79.73266,88.09584
"39023",543.5416,79.62768,87.982506
"39024",543.55493,79.53246,87.875656
"39025",543.56824,79.447014,87.7756
"39026",543.58154,79.37621,87.687515
"39027",543.59485,79.31518,87.60699
"39028",543.60815,79.26879,87.5392
"39029",543.62146,79.234604,87.48216
"39030",543.63477,79.21263,87.43627
"39031",543.6481,79.19554,87.39458
"39032",543.6614,79.183334,87.35723
"39033",543.6747,79.17845,87.32683
"39034",543.688,79.17357,87.29627
"39035",543.7013,79.17601,87.27289
"39036",543.7146,79.17601,87.24714
"39037",543.7279,79.18089,87.22627
"39038",543.7412,79.18089,87.200676
"39039",543.7545,79.17845,87.17264
"39040",543.7678,79.168686,87.1372
"39041",543.7811,79.15892,87.101456
"39042",543.79443,79.14427,87.060524
"39043",543.80774,79.12474,87.01425
"39044",543.82104,79.10277,86.96493
"39045",543.83435,79.078354,86.912476
"39046",543.84766,79.05638,86.8617
"39047",543.86096,79.03441,86.81024
"39048",543.87427,79.01976,86.76542
"39049",543.8876,79.00755,86.72258
"39050",543.9009,78.99779,86.6818
"39051",543.9142,78.992905,86.6456
"39052",543.9275,78.995346,86.61657
"39053",543.9408,79.00267,86.5925
"39054",543.9541,79.012436,86.5711
"39055",543.9674,79.027084,86.554886
"39056",543.9807,79.03685,86.53425
"39057",543.994,79.04906,86.51636
"39058",544.0073,79.05882,86.49641
"39059",544.0206,79.07347,86.48164
"39060",544.03394,79.09056,86.46978
"39061",544.04724,79.10521,86.45601
"39062",544.06055,79.11742,86.440254
"39063",544.07385,79.1223,86.41756
"39064",544.08716,79.1223,86.39013
"39065",544.10046,79.11986,86.36026
"39066",544.1138,79.11253,86.32543
"39067",544.1271,79.10765,86.292816
"39068",544.1404,79.12962,86.2869
"39069",544.1537,79.24193,86.37201
"39070",544.167,79.52514,86.63153
"39071",544.1803,80.03784,87.129395
"39072",544.1936,80.76051,87.85325
"39073",544.2069,81.59792,88.714424
"39074",544.2202,82.39872,89.565155
"39075",544.2335,83.004196,90.24559
"39076",544.2468,83.31182,90.647095
"39077",544.26013,83.30694,90.745705
"39078",544.27344,83.06035,90.602455
"39079",544.28674,82.669716,90.30746
"39080",544.30005,82.23758,89.95875
"39081",544.31335,81.84451,89.635605
"39082",544.32666,81.53445,89.38318
"39083",544.33997,81.32693,89.22361
"39084",544.3533,81.21217,89.15032
"39085",544.3666,81.16579,89.141815
"39086",544.3799,81.1487,89.161156
"39087",544.3932,81.12428,89.17264
"39088",544.4065,81.06081,89.144295
"39089",544.4198,80.95827,89.074905
"39090",544.4331,80.81911,88.96569
"39091",544.4464,80.67994,88.85212
"39092",544.4597,80.56519,88.75862
"39093",544.473,80.48951,88.7006
"39094",544.4863,80.45533,88.68172
"39095",544.49963,80.45289,88.693504
"39096",544.51294,80.465096,88.719864
"39097",544.52625,80.47242,88.74172
"39098",544.53955,80.465096,88.74916
"39099",544.55286,80.4358,88.7344
"39100",544.56616,80.38209,88.694305
"39101",544.57947,80.30396,88.62812
"39102",544.5928,80.2063,88.539955
"39103",544.6061,80.10132,88.44142
"39104",544.6194,79.99634,88.33961
"39105",544.6327,79.89136,88.23451
"39106",544.646,79.79614,88.1359
"39107",544.6593,79.710686,88.044075
"39108",544.6726,79.639885,87.96423
"39109",544.6859,79.57641,87.8895
"39110",544.6992,79.52758,87.82744
"39111",544.7125,79.483635,87.76873
"39112",544.7258,79.4519,87.720856
"39113",544.73914,79.42748,87.67931
"39114",544.75244,79.412834,87.646774
"39115",544.76575,79.40307,87.61866
"39116",544.77905,79.40551,87.60245
"39117",544.79236,79.40551,87.58387
"39118",544.80566,79.40551,87.56529
"39119",544.819,79.40551,87.546715
"39120",544.8323,79.398186,87.52081
"39121",544.8456,79.38598,87.4898
"39122",544.8589,79.36645,87.45108
"39123",544.8722,79.344475,87.40931
"39124",544.8855,79.32006,87.36441
"39125",544.8988,79.293205,87.31631
"39126",544.9121,79.26391,87.26492
"39127",544.9254,79.23949,87.2175
"39128",544.9387,79.219955,87.1742
"39129",544.952,79.19554,87.12541
"39130",544.96533,79.17357,87.0783
"39131",544.97864,79.15648,87.035385
"39132",544.99194,79.14183,86.99438
"39133",545.00525,79.12962,86.95535
"39134",545.01855,79.1223,86.92083
"39135",545.03186,79.11986,86.89096
"39136",545.04517,79.1223,86.8659
"39137",545.0585,79.12474,86.84091
"39138",545.0718,79.1223,86.81112
"39139",545.0851,79.11986,86.78125
"39140",545.0984,79.114975,86.74886
"39141",545.1117,79.11009,86.716324
"39142",545.125,79.10765,86.68607
"39143",545.1383,79.11009,86.66063
"39144",545.1516,79.1223,86.64503
"39145",545.1649,79.13695,86.63225
"39146",545.1782,79.15404,86.62237
"39147",545.1915,79.168686,86.61058
"39148",545.20483,79.17845,86.59437
"39149",545.21814,79.17845,86.568695
"39150",545.23145,79.183334,86.547905
"39151",545.24475,79.234604,86.573654
"39152",545.25806,79.42016,86.73529
"39153",545.27136,79.81323,87.110245
"39154",545.28467,80.44312,87.7343
"39155",545.298,81.25124,88.55627
"39156",545.3113,82.11063,89.45475
"39157",545.3246,82.85283,90.26291
"39158",545.3379,83.32891,90.82814
"39159",545.3512,83.48028,91.083534
"39160",545.3645,83.33379,91.04581
"39161",545.3778,82.98955,90.80574
"39162",545.3911,82.55009,90.4597
"39163",545.4044,82.12283,90.11214
"39164",545.4177,81.76639,89.82203
"39165",545.431,81.51003,89.62087
"39166",545.44434,81.36111,89.519135
"39167",545.45764,81.29275,89.49331
"39168",545.47095,81.28054,89.5215
"39169",545.48425,81.27566,89.55663
"39170",545.49756,81.25124,89.57208
"39171",545.51086,81.17799,89.53793
"39172",545.5242,81.05592,89.452675
"39173",545.5375,80.89235,89.3221
"39174",545.5508,80.719,89.176636
"39175",545.5641,80.56519,89.045296
"39176",545.5774,80.45289,88.95065
"39177",545.5907,80.394295,88.90621
"39178",545.604,80.37232,88.89656
"39179",545.6173,80.37232,88.908195
"39180",545.6306,80.37232,88.91983
"39181",545.6439,80.35279,88.911934
"39182",545.6572,80.306404,88.87657
"39183",545.67053,80.23071,88.810455
"39184",545.68384,80.13306,88.72001
"39185",545.69714,80.02319,88.6143
"39186",545.71045,79.91089,88.50272
"39187",545.72375,79.801025,88.390076
"39188",545.73706,79.69848,88.28131
"39189",545.75037,79.60082,88.17423
"39190",545.7637,79.51537,88.07631
"39191",545.777,79.43481,87.9806
"39192",545.7903,79.35912,87.88725
"39193",545.8036,79.29565,87.80375
"39194",545.8169,79.24681,87.7329
"39195",545.8302,79.20775,87.6703
"39196",545.8435,79.17845,87.61625
"39197",545.8568,79.15892,87.571045
"39198",545.8701,79.14427,87.53011
"39199",545.8834,79.132065,87.491165
"39200",545.8967,79.12474,87.45672
"39201",545.91003,79.1223,87.426926
"39202",545.92334,79.11986,87.39706
"39203",545.93665,79.114975,87.36467
"39204",545.94995,79.11009,87.33213
"39205",545.96326,79.10521,87.29944
"39206",545.97656,79.09056,87.25683
"39207",545.98987,79.07347,87.21132
"39208",546.0032,79.05394,87.162834
"39209",546.0165,79.029526,87.10886
"39210",546.0298,79.00267,87.051674
"39211",546.0431,78.975815,86.99365
"39212",546.0564,78.94408,86.92991
"39213",546.0697,78.907455,86.86029
"39214",546.083,78.86595,86.784645
"39215",546.0963,78.82201,86.70526
"39216",546.1096,78.78294,86.62939
"39217",546.1229,78.75609,86.5645
"39218",546.1362,78.74387,86.51341
"39219",546.14954,78.746315,86.4766
"39220",546.16284,78.75853,86.44964
"39221",546.17615,78.77562,86.42793
"39222",546.18945,78.78783,86.40188
"39223",546.20276,78.79271,86.36888
"39224",546.21606,78.79027,86.32871
"39225",546.2294,78.78783,86.28847
"39226",546.2427,78.79271,86.25547
"39227",546.256,78.81224,86.237274
"39228",546.2693,78.84398,86.231895
"39229",546.2826,78.8806,86.23239
"39230",546.2959,78.91478,86.23159
"39231",546.3092,78.93675,86.21965
"39232",546.3225,78.94408,86.19375
"39233",546.3358,78.93675,86.15343
"39234",546.3491,78.92943,86.11288
"39235",546.3624,78.922104,86.0721
"39236",546.37573,78.924545,86.040855
"39237",546.38904,78.96117,86.04387
"39238",546.40234,79.09056,86.1408
"39239",546.41565,79.40307,86.42489
"39240",546.42896,79.95239,86.95556
"39241",546.44226,80.723885,87.72556
"39242",546.45557,81.62478,88.64908
"39243",546.4689,82.50126,89.57633
"39244",546.4822,83.18486,90.3381
"39245",546.4955,83.55596,90.80872
"39246",546.5088,83.597466,90.96135
"39247",546.5221,83.36797,90.84428
"39248",546.5354,82.967575,90.549126
"39249",546.5487,82.493935,90.16822
"39250",546.562,82.03494,89.78716
"39251",546.5753,81.64431,89.46012
"39252",546.5886,81.356224,89.22342
"39253",546.6019,81.17799,89.08757
"39254",546.61523,81.09987,89.04626
"39255",546.62854,81.08522,89.06598
"39256",546.64185,81.094986,89.10966
"39257",546.65515,81.094986,89.143875
"39258",546.66846,81.05592,89.13903
"39259",546.68176,80.970474,89.08658
"39260",546.69507,80.848404,88.994835
"39261",546.7084,80.72877,88.90171
"39262",546.7217,80.63355,88.82927
"39263",546.735,80.5774,88.792915
"39264",546.7483,80.56031,88.79387
"39265",546.7616,80.56519,88.81626
"39266",546.7749,80.57252,88.84125
"39267",546.7882,80.56519,88.851814
"39268",546.8015,80.52613,88.830414
"39269",546.8148,80.45045,88.77117
"39270",546.8281,80.35279,88.68759
"39271",546.84143,80.24048,88.5863
"39272",546.85474,80.11597,88.46931
"39273",546.86804,79.99634,88.3533
"39274",546.88135,79.886475,88.243324
"39275",546.89465,79.77905,88.132355
"39276",546.90796,79.68383,88.03023
"39277",546.92126,79.59594,87.93246
"39278",546.9346,79.51537,87.839264
"39279",546.9479,79.43481,87.74355
"39280",546.9612,79.361565,87.65265
"39281",546.9745,79.30297,87.574104
"39282",546.9878,79.26147,87.51082
"39283",547.0011,79.24681,87.47308
"39284",547.0144,79.26147,87.4642
"39285",547.0277,79.30297,87.48263
"39286",547.041,79.3518,87.509674
"39287",547.0543,79.40063,87.538246
"39288",547.0676,79.43969,87.55858
"39289",547.08093,79.46899,87.570366
"39290",547.09424,79.47631,87.5611
"39291",547.10754,79.46899,87.53741
"39292",547.12085,79.447014,87.49884
"39293",547.13416,79.41039,87.44494
"39294",547.14746,79.37377,87.38989
"39295",547.16077,79.34203,87.338585
"39296",547.1741,79.32006,87.29605
"39297",547.1874,79.30785,87.262596
"39298",547.2007,79.29809,87.2312
"39299",547.214,79.28344,87.19462
"39300",547.2273,79.256584,87.14537
"39301",547.2406,79.219955,87.08551
"39302",547.2539,79.18089,87.02207
"39303",547.2672,79.14671,86.962296
"39304",547.2805,79.11986,86.908775
"39305",547.2938,79.10765,86.869064
"39306",547.3071,79.11253,86.84606
"39307",547.32043,79.14183,86.847626
"39308",547.33374,79.183334,86.86231
"39309",547.34705,79.22728,86.88074
"39310",547.36035,79.259026,86.888336
"39311",547.37366,79.27123,86.87739
"39312",547.38696,79.256584,86.839966
"39313",547.40027,79.22972,86.78987
"39314",547.4136,79.202866,86.738945
"39315",547.4269,79.21263,86.7238
"39316",547.4402,79.32006,86.806625
"39317",547.4535,79.605705,87.07102
"39318",547.4668,80.111084,87.56408
"39319",547.4801,80.82643,88.2829
"39320",547.4934,81.66384,89.14613
"39321",547.5067,82.48905,90.02334
"39322",547.52,83.13847,90.75054
"39323",547.5333,83.50469,91.214836
"39324",547.54663,83.5584,91.37807
"39325",547.55994,83.353325,91.28419
"39326",547.57324,82.98711,91.02276
"39327",547.58655,82.55741,90.68641
"39328",547.59985,82.15457,90.36349
"39329",547.61316,81.829865,90.10611
"39330",547.62646,81.61013,89.94356
"39331",547.6398,81.48562,89.86936
"39332",547.6531,81.43191,89.862076
"39333",547.6664,81.4197,89.894615
"39334",547.6797,81.40505,89.92433
"39335",547.693,81.358665,89.92185
"39336",547.7063,81.26345,89.869095
"39337",547.7196,81.12428,89.76941
"39338",547.7329,80.96071,89.64097
"39339",547.7462,80.81178,89.522064
"39340",547.7595,80.69947,89.43512
"39341",547.7728,80.62867,89.38618
"39342",547.78613,80.59449,89.37164
"39343",547.79944,80.5774,89.37313
"39344",547.81274,80.56031,89.374084
"39345",547.82605,80.52857,89.359856
"39346",547.83936,80.47242,89.32022
"39347",547.85266,80.38941,89.251976
"39348",547.86597,80.27955,89.15428
"39349",547.8793,80.147705,89.03117
"39350",547.8926,80.0061,88.89419
"39351",547.9059,79.86694,88.75522
"39352",547.9192,79.73998,88.6241
"39353",547.9325,79.622795,88.49879
"39354",547.9458,79.517815,88.38202
"39355",547.9591,79.4226,88.271736
"39356",547.9724,79.344475,88.17557
"39357",547.9857,79.27856,88.089165
"39358",547.999,79.22728,88.01534
"39359",548.0123,79.19066,87.954575
"39360",548.02563,79.166245,87.90487
"39361",548.03894,79.14427,87.85684
"39362",548.05225,79.12718,87.81301
"39363",548.06555,79.11742,87.77597
"39364",548.07886,79.11742,87.74839
"39365",548.09216,79.11986,87.72325
"39366",548.10547,79.12718,87.70307
"39367",548.1188,79.13939,87.688
"39368",548.1321,79.151596,87.67332
"39369",548.1454,79.15892,87.65413
"39370",548.1587,79.15892,87.627846
"39371",548.172,79.15404,87.59668
"39372",548.1853,79.149155,87.56536
"39373",548.1986,79.14671,87.53633
"39374",548.2119,79.14671,87.50967
"39375",548.2252,79.151596,87.487885
"39376",548.2385,79.15648,87.466255
"39377",548.25183,79.15648,87.439896
"39378",548.26514,79.149155,87.40621
"39379",548.27844,79.13939,87.36986
"39380",548.29175,79.12474,87.328316
"39381",548.30505,79.11009,87.286316
"39382",548.31836,79.09544,87.24386
"39383",548.33167,79.08568,87.205826
"39384",548.345,79.08324,87.17481
"39385",548.3583,79.08324,87.146164
"39386",548.3716,79.09056,87.12484
"39387",548.3849,79.097885,87.103745
"39388",548.3982,79.10277,87.08044
"39389",548.4115,79.10521,87.05484
"39390",548.4248,79.10521,87.02688
"39391",548.4381,79.10521,86.99892
"39392",548.4514,79.10521,86.970955
"39393",548.4647,79.10277,86.94055
"39394",548.478,79.097885,86.90763
"39395",548.49133,79.08324,86.86479
"39396",548.50464,79.063705,86.81661
"39397",548.51794,79.03685,86.7605
"39398",548.53125,79.009995,86.703545
"39399",548.54456,79.00511,86.667725
"39400",548.55786,79.08568,86.7172
"39401",548.57117,79.33471,86.93766
"39402",548.5845,79.815674,87.397835
"39403",548.5978,80.52613,88.10253
"39404",548.6111,81.38308,88.97592
"39405",548.6244,82.23514,89.8712
"39406",548.6377,82.913864,90.619774
"39407",548.651,83.29717,91.09414
"39408",548.6643,83.35577,91.25577
"39409",548.6776,83.15312,91.15799
"39410",548.6909,82.78935,90.89275
"39411",548.7042,82.36454,90.55511
"39412",548.7175,81.969025,90.23348
"39413",548.73083,81.651634,89.97762
"39414",548.74414,81.43679,89.81439
"39415",548.75745,81.324486,89.74699
"39416",548.77075,81.29763,89.76152
"39417",548.78406,81.31472,89.81916
"39418",548.79736,81.32937,89.87489
"39419",548.81067,81.304955,89.89202
"39420",548.824,81.21706,89.8449
"39421",548.8373,81.06325,89.729126
"39422",548.8506,80.8777,89.576805
"39423",548.8639,80.69703,89.42356
"39424",548.8772,80.56031,89.308624
"39425",548.8905,80.48707,89.25289
"39426",548.9038,80.46998,89.25102
"39427",548.9171,80.48463,89.28036
"39428",548.9304,80.50416,89.31503
"39429",548.9437,80.499275,89.325905
"39430",548.95703,80.465096,89.30733
"39431",548.97034,80.394295,89.25106
"39432",548.98364,80.29664,89.165726
"39433",548.99695,80.17944,89.0578
"39434",549.01025,80.05493,88.938896
"39435",549.02356,79.92554,88.81122
"39436",549.03687,79.80591,88.68926
"39437",549.0502,79.69604,88.573326
"39438",549.0635,79.59594,88.46373
"39439",549.0768,79.51049,88.365654
"39440",549.0901,79.43481,88.27467
"39441",549.1034,79.36889,88.19109
"39442",549.1167,79.310295,88.11278
"39443",549.13,79.259026,88.039955
"39444",549.1433,79.217514,87.97529
"39445",549.1566,79.19066,87.92398
"39446",549.1699,79.17601,87.88404
"39447",549.1832,79.17113,87.85341
"39448",549.19653,79.17845,87.83483
"39449",549.20984,79.18822,87.818924
"39450",549.22314,79.19798,87.80332
"39451",549.23645,79.200424,87.7807
"39452",549.24976,79.19798,87.75327
"39453",549.26306,79.18822,87.718445
"39454",549.27637,79.17357,87.67843
"39455",549.2897,79.16136,87.640396
"39456",549.303,79.149155,87.60198
"39457",549.3163,79.13695,87.56319
"39458",549.3296,79.12962,87.52889
"39459",549.3429,79.12474,87.49681
"39460",549.3562,79.11986,87.46458
"39461",549.3695,79.11009,87.42731
"39462",549.3828,79.10277,87.39217
"39463",549.3961,79.097885,87.35925
"39464",549.4094,79.08812,87.3213
"39465",549.4227,79.08324,87.28792
"39466",549.43604,79.08324,87.25927
"39467",549.44934,79.080795,87.22818
"39468",549.46265,79.08324,87.2019
"39469",549.47595,79.08812,87.17813
"39470",549.48926,79.093,87.15452
"39471",549.50256,79.09056,87.12373
"39472",549.51587,79.08812,87.09287
"39473",549.5292,79.078354,87.05461
"39474",549.5425,79.063705,87.01116
"39475",549.5558,79.0515,86.969696
"39476",549.5691,79.061264,86.94982
"39477",549.5824,79.14671,87.005936
"39478",549.5957,79.38354,87.216095
"39479",549.609,79.83276,87.64606
"39480",549.6223,80.49683,88.3049
"39481",549.6356,81.31228,89.13587
"39482",549.6489,82.144806,90.00941
"39483",549.66223,82.83574,90.767365
"39484",549.67554,83.26055,91.28079
"39485",549.68884,83.38018,91.50231
"39486",549.70215,83.23125,91.45901
"39487",549.71545,82.90654,91.235275
"39488",549.72876,82.50614,90.925705
"39489",549.74207,82.11551,90.61339
"39490",549.7554,81.79324,90.35723
"39491",549.7687,81.5613,90.18133
"39492",549.782,81.427025,90.09584
"39493",549.7953,81.36599,90.0794
"39494",549.8086,81.34402,90.10011
"39495",549.8219,81.31472,90.112816
"39496",549.8352,81.24635,90.08553
"39497",549.8485,81.126724,90.00485
"39498",549.8618,80.972916,89.88625
"39499",549.8751,80.816666,89.76041
"39500",549.8884,80.69215,89.66141
"39501",549.90173,80.61402,89.60491
"39502",549.91504,80.584724,89.5948
"39503",549.92834,80.587166,89.61552
"39504",549.94165,80.59693,89.64363
"39505",549.95496,80.58961,89.65496
"39506",549.96826,80.55787,89.64165
"39507",549.98157,80.48951,89.59072
"39508",549.9949,80.38697,89.50348
"39509",550.0082,80.26002,89.38862
"39510",550.0215,80.11597,89.25269
"39511",550.0348,79.96948,89.10983
"39512",550.0481,79.83276,88.97216
"39513",550.0614,79.708244,88.842415
"39514",550.0747,79.60082,88.725876
"39515",550.088,79.50561,88.61819
"39516",550.1013,79.42016,88.51729
"39517",550.1146,79.344475,88.423485
"39518",550.1279,79.276115,88.33464
"39519",550.14124,79.217514,88.25342
"39520",550.15454,79.17113,88.18258
"39521",550.16785,79.13695,88.1225
"39522",550.18115,79.11253,88.07111
"39523",550.19446,79.097885,88.02873
"39524",550.20776,79.09056,87.99322
"39525",550.22107,79.08812,87.96236
"39526",550.2344,79.08324,87.92898
"39527",550.2477,79.078354,87.89545
"39528",550.261,79.07103,87.85932
"39529",550.2743,79.063705,87.82297
"39530",550.2876,79.05638,87.786385
"39531",550.3009,79.046616,87.74713
"39532",550.3142,79.029526,87.70025
"39533",550.3275,79.009995,87.65039
"39534",550.3408,78.98802,87.59748
"39535",550.3541,78.958725,87.53656
"39536",550.36743,78.924545,87.46984
"39537",550.38074,78.890366,87.402054
"39538",550.39404,78.8513,87.328316
"39539",550.40735,78.81468,87.2558
"39540",550.42065,78.78294,87.18702
"39541",550.43396,78.75853,87.12457
"39542",550.44727,78.74143,87.06868
"39543",550.4606,78.729225,87.01714
"39544",550.4739,78.7219,86.97011
"39545",550.4872,78.71702,86.925285
"39546",550.5005,78.71702,86.88519
"39547",550.5138,78.71946,86.84754
"39548",550.5271,78.729225,86.81729
"39549",550.5404,78.73655,86.784904
"39550",550.5537,78.74143,86.750305
"39551",550.567,78.74387,86.71342
"39552",550.5803,78.74876,86.67905
"39553",550.5936,78.79515,86.68634
"39554",550.60693,78.96117,86.814705
"39555",550.62024,79.327385,87.14846
"39556",550.63354,79.93042,87.73048
"39557",550.64685,80.71656,88.51444
"39558",550.66016,81.57107,89.39134
"39559",550.67346,82.32792,90.19729
"39560",550.68677,82.83818,90.7803
"39561",550.7001,83.03105,91.06186
"39562",550.7134,82.92851,91.05404
"39563",550.7267,82.62577,90.84281
"39564",550.74,82.22781,90.52691
"39565",550.7533,81.83475,90.20346
"39566",550.7666,81.50759,89.93364
"39567",550.7799,81.28054,89.7537
"39568",550.7932,81.1487,89.66187
"39569",550.8065,81.094986,89.64406
"39570",550.8198,81.06325,89.64654
"39571",550.8331,80.99489,89.611404
"39572",550.84644,80.85817,89.505775
"39573",550.85974,80.64332,89.31774
"39574",550.87305,80.36988,89.06441
"39575",550.88635,80.06958,88.775665
"39576",550.89966,79.798584,88.50684
"39577",550.91296,79.59838,88.30035
"39578",550.9263,79.47875,88.16817
"39579",550.9396,79.432365,88.10549
"39580",550.9529,79.44457,88.09996
"39581",550.9662,79.48852,88.12655
"39582",550.9795,79.537346,88.15939
"39583",550.9928,79.56664,88.17423
"39584",551.0061,79.5642,88.15825
"39585",551.0194,79.53002,88.11045
"39586",551.0327,79.4641,88.02985
"39587",551.046,79.378654,87.92765
"39588",551.0593,79.281,87.81058
"39589",551.07263,79.17845,87.68556
"39590",551.08594,79.078354,87.55979
"39591",551.09924,78.99046,87.4431
"39592",551.11255,78.91478,87.33587
"39593",551.12585,78.856186,87.24336
"39594",551.13916,78.81468,87.166115
"39595",551.15247,78.785385,87.09978
"39596",551.1658,78.765854,87.04229
"39597",551.1791,78.75365,86.991516
"39598",551.1924,78.74143,86.94035
"39599",551.2057,78.72678,86.886375
"39600",551.219,78.712135,86.83194
"39601",551.2323,78.69749,86.77705
"39602",551.2456,78.677956,86.71681
"39603",551.2589,78.65354,86.651085
"39604",551.2722,78.6218,86.57727
"39605",551.2855,78.58274,86.49514
"39606",551.2988,78.54124,86.40935
"39607",551.31213,78.485085,86.30761
"39608",551.32544,78.42161,86.19679
"39609",551.33875,78.35569,86.08155
"39610",551.35205,78.29954,85.974014
"39611",551.36536,78.25559,85.87693
"39612",551.37866,78.22629,85.79311
"39613",551.39197,78.21652,85.72792
"39614",551.4053,78.21896,85.67463
"39615",551.4186,78.221405,85.621414
"39616",551.4319,78.23117,85.5756
"39617",551.4452,78.24582,85.53497
"39618",551.4585,78.260475,85.49481
"39619",551.4718,78.27268,85.45266
"39620",551.4851,78.28489,85.41089
"39621",551.4984,78.28977,85.362175
"39622",551.5117,78.29954,85.3185
"39623",551.525,78.31907,85.28489
"39624",551.5383,78.35325,85.26654
"39625",551.55164,78.399635,85.26147
"39626",551.56494,78.45823,85.27005
"39627",551.57825,78.53147,85.29511
"39628",551.59155,78.61448,85.33223
"39629",551.60486,78.70237,85.37682
"39630",551.61816,78.78783,85.42173
"39631",551.6315,78.86107,85.45709
"39632",551.6448,78.91478,85.47521
"39633",551.6581,78.95384,85.48036
"39634",551.6714,78.992905,85.48673
"39635",551.6847,79.10277,85.565125
"39636",551.698,79.381096,85.815414
"39637",551.7113,79.90112,86.3161
"39638",551.7246,80.672615,87.0845
"39639",551.7379,81.62478,88.057686
"39640",551.7512,82.61845,89.10213
"39641",551.7645,83.46075,90.02625
"39642",551.77783,84.00763,90.68128
"39643",551.79114,84.20538,91.00427
"39644",551.80444,84.102844,91.03315
"39645",551.81775,83.7879,90.84642
"39646",551.83105,83.38018,90.55707
"39647",551.84436,82.9749,90.257416
"39648",551.85767,82.6453,90.02078
"39649",551.871,82.42069,89.87884
"39650",551.8843,82.30595,89.83974
"39651",551.8976,82.27665,89.8825
"39652",551.9109,82.2913,89.96829
"39653",551.9242,82.29618,90.04478
"39654",551.9375,82.25468,90.07503
"39655",551.9508,82.13748,90.02829
"39656",551.9641,81.96414,89.921745
"39657",551.9774,81.76395,89.78293
"39658",551.9907,81.58083,89.65494
"39659",552.004,81.446556,89.57006
"39660",552.01733,81.37087,89.53958
"39661",552.03064,81.34402,89.555565
"39662",552.04395,81.339134,89.59268
"39663",552.05725,81.324486,89.61988
"39664",552.07056,81.28542,89.62221
"39665",552.08386,81.21706,89.59401
"39666",552.09717,81.11452,89.5295
"39667",552.1105,80.990005,89.43982
"39668",552.1238,80.84352,89.32427
"39669",552.1371,80.689705,89.196815
"39670",552.1504,80.53101,89.05968
"39671",552.1637,80.37476,88.92002
"39672",552.177,80.22095,88.777916
"39673",552.1903,80.07446,88.638336
"39674",552.2036,79.94507,88.51127
"39675",552.2169,79.83032,88.394806
"39676",552.2302,79.73022,88.2894
"39677",552.2435,79.65209,88.20284
"39678",552.25684,79.59838,88.13826
"39679",552.27014,79.56664,88.09397
"39680",552.28345,79.54955,88.06334
"39681",552.29675,79.537346,88.037056
"39682",552.31006,79.5227,88.00795
"39683",552.32336,79.50561,87.975945
"39684",552.3367,79.47875,87.93364
"39685",552.35,79.447014,87.88561
"39686",552.3633,79.40795,87.82927
"39687",552.3766,79.35912,87.76194
"39688",552.3899,79.30297,87.68576
"39689",552.4032,79.23949,87.600494
"39690",552.4165,79.17845,87.51569
"39691",552.4298,79.11742,87.428986
"39692",552.4431,79.05638,87.34037
"39693",552.4564,78.99046,87.244965
"39694",552.4697,78.91478,87.13773
"39695",552.48303,78.82689,87.01593
"39696",552.49634,78.7219,86.87428
"39697",552.50964,78.59739,86.70983
"39698",552.52295,78.46067,86.52928
"39699",552.53625,78.32639,86.3469
"39700",552.54956,78.204315,86.17252
"39701",552.56287,78.1091,86.021194
"39702",552.5762,78.04562,85.89863
"39703",552.5895,78.009,85.800934
"39704",552.6028,77.99191,85.72163
"39705",552.6161,77.98703,85.65399
"39706",552.6294,77.994354,85.59841
"39707",552.6427,78.04318,85.584564
"39708",552.656,78.18967,85.6699
"39709",552.6693,78.5095,85.93316
"39710",552.6826,79.05638,86.433464
"39711",552.6959,79.823,87.17059
"39712",552.7092,80.726326,88.06839
"39713",552.72253,81.617455,88.982216
"39714",552.73584,82.34257,89.75787
"39715",552.74915,82.78691,90.27542
"39716",552.76245,82.92851,90.50411
"39717",552.77576,82.828415,90.49553
"39718",552.78906,82.581825,90.337326
"39719",552.80237,82.29374,90.12992
"39720",552.8157,82.039825,89.947685
"39721",552.829,81.85916,89.830765
"39722",552.8423,81.76395,89.79365
"39723",552.8556,81.73708,89.82191
"39724",552.8689,81.74685,89.885956
"39725",552.8822,81.74929,89.942986
"39726",552.8955,81.71023,89.95859
"39727",552.9088,81.60769,89.90949
"39728",552.9221,81.43679,89.78883
"39729",552.9354,81.231705,89.62865
"39730",552.9487,81.02174,89.45718
"39731",552.96204,80.83864,89.306
"39732",552.97534,80.706795,89.20036
"39733",552.98865,80.63355,89.14921
"39734",553.00195,80.6067,89.14215
"39735",553.01526,80.601814,89.15623
"39736",553.02856,80.59693,89.17015
"39737",553.0419,80.5774,89.16927
"39738",553.0552,80.52857,89.13849
"39739",553.0685,80.45045,89.07688
"39740",553.0818,80.34058,88.981094
"39741",553.0951,80.21362,88.86478
"39742",553.1084,80.08667,88.7445
"39743",553.1217,79.95972,88.620255
"39744",553.135,79.83765,88.496925
"39745",553.1483,79.727776,88.38198
"39746",553.1616,79.63012,88.27582
"39747",553.1749,79.534904,88.169044
"39748",553.18823,79.44457,88.06418
"39749",553.20154,79.35424,87.95649
"39750",553.21484,79.26635,87.84842
"39751",553.22815,79.17357,87.73271
"39752",553.24146,79.08324,87.616554
"39753",553.25476,78.99046,87.49513
"39754",553.26807,78.890366,87.36349
"39755",553.2814,78.77562,87.214066
"39756",553.2947,78.6511,87.051285
"39757",553.308,78.53147,86.8895
"39758",553.3213,78.42649,86.73863
"39759",553.3346,78.35081,86.61378
"39760",553.3479,78.314186,86.52562
"39761",553.3612,78.314186,86.47294
"39762",553.3745,78.33616,86.44223
"39763",553.3878,78.365456,86.41953
"39764",553.4011,78.397194,86.40019
"39765",553.4144,78.42405,86.37696
"39766",553.42773,78.44114,86.3448
"39767",553.44104,78.44114,86.29609
"39768",553.45435,78.43137,86.23761
"39769",553.46765,78.41917,86.176384
"39770",553.48096,78.4094,86.11722
"39771",553.49426,78.40452,86.06263
"39772",553.50757,78.4094,86.017654
"39773",553.5209,78.43137,85.98992
"39774",553.5342,78.45823,85.96776
"39775",553.5475,78.487526,85.948875
"39776",553.5608,78.5095,85.923584
"39777",553.5741,78.52903,85.89654
"39778",553.5874,78.54856,85.8701
"39779",553.6007,78.56809,85.84428
"39780",553.614,78.59495,85.826385
"39781",553.6273,78.6218,85.80933
"39782",553.6406,78.641335,85.7858
"39783",553.65393,78.6511,85.753105
"39784",553.66724,78.63889,85.698746
"39785",553.68054,78.61448,85.6318
"39786",553.69385,78.59251,85.56653
"39787",553.70715,78.6096,85.539635
"39788",553.72046,78.73655,85.62314
"39789",553.73376,79.061264,85.90837
"39790",553.7471,79.635,86.452774
"39791",553.7604,80.4358,87.242165
"39792",553.7737,81.358665,88.17865
"39793",553.787,82.252235,89.11468
"39794",553.8003,82.9456,89.878426
"39795",553.8136,83.336235,90.36111
"39796",553.8269,83.424126,90.55325
"39797",553.8402,83.27276,90.50889
"39798",553.8535,82.99687,90.33527
"39799",553.8668,82.701454,90.13351
"39800",553.8801,82.44999,89.96646
"39801",553.89343,82.28397,89.87701
"39802",553.90674,82.20584,89.87025
"39803",553.92004,82.196075,89.92941
"39804",553.93335,82.21561,90.01757
"39805",553.94666,82.22537,90.09657
"39806",553.95996,82.178986,90.11973
"39807",553.97327,82.05936,90.06819
"39808",553.9866,81.864044,89.93723
"39809",553.9999,81.61501,89.74645
"39810",554.0132,81.3489,89.53081
"39811",554.0265,81.112076,89.336136
"39812",554.0398,80.93141,89.19022
"39813",554.0531,80.81178,89.0997
"39814",554.0664,80.7483,89.061584
"39815",554.0797,80.719,89.05567
"39816",554.093,80.70191,89.06105
"39817",554.1063,80.66773,89.048805
"39818",554.1196,80.61158,89.01352
"39819",554.13293,80.52857,88.94962
"39820",554.14624,80.42603,88.8636
"39821",554.15955,80.30152,88.7524
"39822",554.17285,80.164795,88.6251
"39823",554.18616,80.01831,88.483765
"39824",554.19946,79.869385,88.33541
"39825",554.21277,79.72289,88.18484
"39826",554.2261,79.58373,88.03702
"39827",554.2394,79.4641,87.90438
"39828",554.2527,79.361565,87.785095
"39829",554.266,79.28588,87.68946
"39830",554.2793,79.219955,87.60122
"39831",554.2926,79.15404,87.510925
"39832",554.3059,79.08568,87.41613
"39833",554.3192,79.01488,87.31676
"39834",554.3325,78.94896,87.220055
"39835",554.3458,78.890366,87.12862
"39836",554.35913,78.84886,87.05244
"39837",554.37244,78.82689,86.99449
"39838",554.38574,78.81468,86.945625
"39839",554.39905,78.802475,86.89638
"39840",554.41235,78.78783,86.84431
"39841",554.42566,78.765854,86.784454
"39842",554.43896,78.74387,86.72391
"39843",554.4523,78.72434,86.66512
"39844",554.4656,78.70481,86.60573
"39845",554.4789,78.68772,86.548164
"39846",554.4922,78.67063,86.49007
"39847",554.5055,78.6511,86.42899
"39848",554.5188,78.62913,86.36487
"39849",554.5321,78.61692,86.30982
"39850",554.5454,78.61448,86.26416
"39851",554.5587,78.63157,86.23795
"39852",554.572,78.658424,86.222046
"39853",554.5853,78.692604,86.2143
"39854",554.59863,78.73167,86.21251
"39855",554.61194,78.77318,86.214386
"39856",554.62524,78.802475,86.205345
"39857",554.63855,78.83177,86.19722
"39858",554.65186,78.84886,86.1778
"39859",554.66516,78.853745,86.14671
"39860",554.67847,78.8513,86.10845
"39861",554.6918,78.84398,86.06523
"39862",554.7051,78.83177,86.0169
"39863",554.7184,78.82933,85.97795
"39864",554.7317,78.86107,85.97311
"39865",554.745,78.992905,86.06935
"39866",554.7583,79.30053,86.345505
"39867",554.7716,79.835205,86.85832
"39868",554.7849,80.57984,87.59781
"39869",554.7982,81.444115,88.4802
"39870",554.8115,82.27421,89.35542
"39871",554.8248,82.916306,90.06859
"39872",554.83813,83.267876,90.51129
"39873",554.85144,83.31426,90.6598
"39874",554.86475,83.12138,90.57049
"39875",554.87805,82.80156,90.348206
"39876",554.89136,82.45731,90.09151
"39877",554.90466,82.159454,89.87044
"39878",554.91797,81.94705,89.72552
"39879",554.9313,81.82498,89.66429
"39880",554.9446,81.77127,89.66761
"39881",554.9579,81.74441,89.6961
"39882",554.9712,81.69558,89.70178
"39883",554.9845,81.602806,89.661995
"39884",554.9978,81.444115,89.55339
"39885",555.0111,81.234146,89.38855
"39886",555.0244,81.004654,89.197624
"39887",555.0377,80.80446,89.028824
"39888",555.051,80.66773,88.91724
"39889",555.06433,80.604256,88.874626
"39890",555.07764,80.59937,88.888626
"39891",555.09094,80.62379,88.93177
"39892",555.10425,80.64332,88.970795
"39893",555.11755,80.63355,88.98113
"39894",555.13086,80.58961,88.956985
"39895",555.14417,80.51392,88.89973
"39896",555.1575,80.413826,88.81569
"39897",555.1708,80.29664,88.71143
"39898",555.1841,80.164795,88.58886
"39899",555.1974,80.02319,88.45241
"39900",555.2107,79.88159,88.31153
"39901",555.224,79.744865,88.171104
"39902",555.2373,79.62524,88.0435
"39903",555.2506,79.5227,87.92925
"39904",555.2639,79.43481,87.82645
"39905",555.2772,79.36645,87.740425
"39906",555.2905,79.310295,87.664474
"39907",555.30383,79.26147,87.59409
"39908",555.31714,79.217514,87.52706
"39909",555.33044,79.185776,87.47087
"39910",555.34375,79.15892,87.41857
"39911",555.35706,79.13695,87.370316
"39912",555.37036,79.11742,87.323814
"39913",555.38367,79.10277,87.281586
"39914",555.397,79.08324,87.23402
"39915",555.4103,79.063705,87.18584
"39916",555.4236,79.04173,87.134605
"39917",555.4369,79.012436,87.07536
"39918",555.4502,78.9807,87.012764
"39919",555.4635,78.94408,86.94429
"39920",555.4768,78.90013,86.86735
"39921",555.4901,78.853745,86.78659
"39922",555.5034,78.8098,86.706825
"39923",555.5167,78.768295,86.62813
"39924",555.53,78.73411,86.55545
"39925",555.54333,78.712135,86.49392
"39926",555.55664,78.709694,86.45123
"39927",555.56995,78.71702,86.418236
"39928",555.58325,78.73167,86.39279
"39929",555.59656,78.74387,86.365364
"39930",555.60986,78.75853,86.34077
"39931",555.62317,78.77318,86.31662
"39932",555.6365,78.78783,86.29293
"39933",555.6498,78.80736,86.27458
"39934",555.6631,78.82933,86.259285
"39935",555.6764,78.84886,86.24223
"39936",555.6897,78.85863,86.21603
"39937",555.703,78.86595,86.18768
"39938",555.7163,78.890366,86.17666
"39939",555.7296,78.98802,86.23964
"39940",555.7429,79.234604,86.4546
"39941",555.7562,79.70336,86.89944
"39942",555.76953,80.40162,87.588425
"39943",555.78284,81.26101,88.460365
"39944",555.79614,82.144806,89.38357
"39945",555.80945,82.88457,90.19035
"39946",555.82275,83.346,90.74193
"39947",555.83606,83.49004,90.99053
"39948",555.84937,83.370415,90.979965
"39949",555.8627,83.08476,90.79964
"39950",555.876,82.74296,90.55423
"39951",555.8893,82.44022,90.33721
"39952",555.9026,82.22049,90.19373
"39953",555.9159,82.09354,90.13617
"39954",555.9292,82.04715,90.155205
"39955",555.9425,82.05203,90.22406
"39956",555.9558,82.06424,90.30039
"39957",555.9691,82.039825,90.340485
"39958",555.9824,81.94705,90.311455
"39959",555.9957,81.78348,90.208725
"39960",556.00903,81.55886,90.03984
"39961",556.02234,81.30984,89.83953
"39962",556.03564,81.08278,89.653404
"39963",556.04895,80.90456,89.50902
"39964",556.06226,80.78981,89.42254
"39965",556.07556,80.723885,89.381294
"39966",556.08887,80.69703,89.37706
"39967",556.1022,80.6775,89.37931
"39968",556.1155,80.6482,89.371185
"39969",556.1288,80.59205,89.33529
"39970",556.1421,80.516365,89.27811
"39971",556.1554,80.42115,89.19903
"39972",556.1687,80.31129,89.102325
"39973",556.182,80.18677,88.98753
"39974",556.1953,80.05493,88.861534
"39975",556.2086,79.923096,88.731415
"39976",556.2219,79.78638,88.59229
"39977",556.2352,79.65209,88.45133
"39978",556.24854,79.534904,88.32327
"39979",556.26184,79.43481,88.20864
"39980",556.27515,79.3518,88.10797
"39981",556.28845,79.28344,88.019356
"39982",556.30176,79.22972,87.943245
"39983",556.31506,79.183334,87.87279
"39984",556.32837,79.14183,87.80576
"39985",556.3417,79.10765,87.74477
"39986",556.355,79.080795,87.690025
"39987",556.3683,79.05638,87.63689
"39988",556.3816,79.029526,87.58054
"39989",556.3949,79.00023,87.52092
"39990",556.4082,78.96849,87.45794
"39991",556.4215,78.93431,87.391525
"39992",556.4348,78.905014,87.328926
"39993",556.4481,78.88548,87.27518
"39994",556.4614,78.870834,87.2257
"39995",556.47473,78.85863,87.17821
"39996",556.48804,78.839096,87.12301
"39997",556.50134,78.81712,87.06476
"39998",556.51465,78.79027,87.00094
"39999",556.52795,78.76341,86.93628
"40000",556.54126,78.73899,86.873215
"40001",556.55457,78.71702,86.81184
"40002",556.5679,78.69993,86.754654
"40003",556.5812,78.68528,86.69938
"40004",556.5945,78.66819,86.641205
"40005",556.6078,78.64866,86.580055
"40006",556.6211,78.626686,86.515854
"40007",556.6344,78.60471,86.450966
"40008",556.6477,78.5803,86.38295
"40009",556.661,78.56809,86.32638
"40010",556.6743,78.55833,86.271866
"40011",556.6876,78.555885,86.22437
"40012",556.7009,78.56321,86.18657
"40013",556.71423,78.57786,86.15632
"40014",556.72754,78.59983,86.13385
"40015",556.74084,78.626686,86.11695
"40016",556.75415,78.65598,86.10333
"40017",556.76746,78.68284,86.08819
"40018",556.78076,78.71458,86.078766
"40019",556.79407,78.77562,86.09964
"40020",556.8074,78.93919,86.22495
"40021",556.8207,79.293205,86.545815
"40022",556.834,79.886475,87.117
"40023",556.8473,80.69703,87.924
"40024",556.8606,81.62722,88.87598
"40025",556.8739,82.511024,89.81063
"40026",556.8872,83.18242,90.56049
"40027",556.9005,83.53643,91.013954
"40028",556.9138,83.56817,91.156204
"40029",556.9271,83.36065,91.06019
"40030",556.9404,83.02861,90.83317
"40031",556.95374,82.67704,90.57624
"40032",556.96704,82.38651,90.36937
"40033",556.98035,82.18631,90.243744
"40034",556.99365,82.08865,90.21441
"40035",557.00696,82.07156,90.26259
"40036",557.02026,82.09598,90.35174
"40037",557.03357,82.108185,90.42944
"40038",557.0469,82.07156,90.4587
"40039",557.0602,81.95438,90.40625
"40040",557.0735,81.75418,90.26713
"40041",557.0868,81.495384,90.06315
"40042",557.1001,81.2195,89.83399
"40043",557.1134,80.96559,89.618195
"40044",557.1267,80.76784,89.450615
"40045",557.14,80.63355,89.340324
"40046",557.1533,80.56031,89.28688
"40047",557.1666,80.52125,89.26533
"40048",557.17993,80.48707,89.24744
"40049",557.19324,80.44312,89.21871
"40050",557.20654,80.37476,89.1642
"40051",557.21985,80.28199,89.08314
"40052",557.23315,80.177,88.98696
"40053",557.24646,80.059814,88.875305
"40054",557.25977,79.940186,88.757545
"40055",557.2731,79.81323,88.62872
"40056",557.2864,79.68627,88.495926
"40057",557.2997,79.55688,88.35673
"40058",557.313,79.43725,88.22325
"40059",557.3263,79.32983,88.09824
"40060",557.3396,79.23949,87.98696
"40061",557.3529,79.168686,87.892395
"40062",557.3662,79.114975,87.812706
"40063",557.3795,79.07103,87.741104
"40064",557.3928,79.03685,87.677895
"40065",557.4061,79.009995,87.62094
"40066",557.41943,78.992905,87.572914
"40067",557.43274,78.9807,87.529236
"40068",557.44604,78.97093,87.48762
"40069",557.45935,78.958725,87.44325
"40070",557.47266,78.93675,87.38874
"40071",557.48596,78.907455,87.32622
"40072",557.49927,78.86839,87.25301
"40073",557.5126,78.819565,87.16882
"40074",557.5259,78.77074,87.08311
"40075",557.5392,78.7219,86.99586
"40076",557.5525,78.68528,86.9193
"40077",557.5658,78.65354,86.84647
"40078",557.5791,78.63401,86.78487
"40079",557.5924,78.61448,86.72265
"40080",557.6057,78.59983,86.6647
"40081",557.619,78.5803,86.60142
"40082",557.6323,78.555885,86.53264
"40083",557.6456,78.52659,86.45821
"40084",557.65894,78.49241,86.37799
"40085",557.67224,78.44358,86.28205
"40086",557.68555,78.38499,86.17482
"40087",557.69885,78.32395,86.06332
"40088",557.71216,78.27024,85.95723
"40089",557.72546,78.22629,85.85922
"40090",557.7388,78.204315,85.78182
"40091",557.7521,78.20187,85.72327
"40092",557.7654,78.21164,85.67684
"40093",557.7787,78.22873,85.63805
"40094",557.792,78.25315,85.60712
"40095",557.8053,78.277565,85.57694
"40096",557.8186,78.29954,85.54509
"40097",557.8319,78.32151,85.51392
"40098",557.8452,78.345924,85.485886
"40099",557.8585,78.37034,85.45861
"40100",557.8718,78.40208,85.43942
"40101",557.88513,78.46555,85.452965
"40102",557.89844,78.626686,85.56615
"40103",557.91174,78.96605,85.862595
"40104",557.92505,79.5227,86.38693
"40105",557.93835,80.25269,87.10201
"40106",557.95166,81.06569,87.922905
"40107",557.96497,81.82742,88.71794
"40108",557.9783,82.39872,89.346344
"40109",557.9916,82.69169,89.71427
"40110",558.0049,82.71122,89.81792
"40111",558.0182,82.52323,89.71465
"40112",558.0315,82.20096,89.47123
"40113",558.0448,81.829865,89.168915
"40114",558.0581,81.49294,88.889175
"40115",558.0714,81.24391,88.6868
"40116",558.0847,81.10231,88.58407
"40117",558.098,81.06081,88.57701
"40118",558.1113,81.0901,88.63946
"40119",558.12463,81.146255,88.729675
"40120",558.13794,81.17555,88.79479
"40121",558.15125,81.143814,88.79979
"40122",558.16455,81.04372,88.735435
"40123",558.17786,80.88258,88.60692
"40124",558.19116,80.69947,88.451385
"40125",558.20447,80.53101,88.30479
"40126",558.2178,80.411385,88.20175
"40127",558.2311,80.35035,88.15357
"40128",558.2444,80.343025,88.157196
"40129",558.2577,80.36256,88.18745
"40130",558.271,80.38941,88.22563
"40131",558.2843,80.396736,88.245125
"40132",558.2976,80.36988,88.23067
"40133",558.3109,80.31373,88.18607
"40134",558.3242,80.23071,88.11286
"40135",558.3375,80.13306,88.022415
"40136",558.3508,80.028076,87.92159
"40137",558.36414,79.92798,87.82237
"40138",558.37744,79.82788,87.720024
"40139",558.39075,79.727776,87.61454
"40140",558.40405,79.63256,87.51082
"40141",558.41736,79.551994,87.41877
"40142",558.43066,79.48608,87.33885
"40143",558.444,79.43725,87.273964
"40144",558.4573,79.40795,87.22708
"40145",558.4706,79.38842,87.18905
"40146",558.4839,79.381096,87.16261
"40147",558.4972,79.38354,87.14571
"40148",558.5105,79.39086,87.13377
"40149",558.5238,79.398186,87.12206
"40150",558.5371,79.40307,87.10814
"40151",558.5504,79.41039,87.09681
"40152",558.5637,79.415276,87.08327
"40153",558.577,79.41772,87.06744
"40154",558.59033,79.41039,87.041916
"40155",558.60364,79.398186,87.011284
"40156",558.61694,79.37621,86.970505
"40157",558.63025,79.33959,86.91439
"40158",558.64355,79.293205,86.84737
"40159",558.65686,79.24925,86.78133
"40160",558.67017,79.20775,86.71636
"40161",558.6835,79.168686,86.65254
"40162",558.6968,79.13695,86.594826
"40163",558.7101,79.11253,86.54344
"40164",558.7234,79.093,86.49618
"40165",558.7367,79.078354,86.453186
"40166",558.75,79.063705,86.40974
"40167",558.7633,79.05638,86.37315
"40168",558.7766,79.0515,86.33878
"40169",558.7899,79.046616,86.30426
"40170",558.8032,79.03685,86.2647
"40171",558.8165,79.027084,86.22484
"40172",558.82983,79.01732,86.18467
"40173",558.84314,79.00511,86.141754
"40174",558.85645,78.99779,86.10334
"40175",558.86975,79.009995,86.08423
"40176",558.88306,79.080795,86.12409
"40177",558.89636,79.293205,86.30778
"40178",558.90967,79.71313,86.70561
"40179",558.923,80.360115,87.343636
"40180",558.9363,81.17311,88.167885
"40181",558.9496,82.022736,89.05417
"40182",558.9629,82.7454,89.84004
"40183",558.9762,83.20439,90.38483
"40184",558.9895,83.353325,90.633896
"40185",559.0028,83.226364,90.611725
"40186",559.0161,82.92607,90.412254
"40187",559.0294,82.55253,90.13015
"40188",559.0427,82.20584,89.86323
"40189",559.056,81.934845,89.66116
"40190",559.06934,81.76639,89.55317
"40191",559.08264,81.69314,89.53512
"40192",559.09595,81.685814,89.5807
"40193",559.10925,81.7029,89.650475
"40194",559.12256,81.69802,89.69881
"40195",559.13586,81.63943,89.693275
"40196",559.1492,81.51003,89.61511
"40197",559.1625,81.324486,89.47675
"40198",559.1758,81.112076,89.30573
"40199",559.1891,80.91432,89.14273
"40200",559.2024,80.75807,89.01505
"40201",559.2157,80.65797,88.93864
"40202",559.229,80.60914,88.91037
"40203",559.2423,80.587166,88.90743
"40204",559.2556,80.567635,88.90625
"40205",559.2689,80.52857,88.884926
"40206",559.2822,80.47242,88.84529
"40207",559.29553,80.38941,88.77705
"40208",559.30884,80.27955,88.67935
"40209",559.32214,80.14526,88.5538
"40210",559.33545,79.99634,88.40942
"40211",559.34875,79.83765,88.25061
"40212",559.36206,79.68139,88.08928
"40213",559.37537,79.53979,87.93772
"40214",559.3887,79.42016,87.80371
"40215",559.402,79.31762,87.68305
"40216",559.4153,79.22728,87.57139
"40217",559.4286,79.151596,87.47156
"40218",559.4419,79.08568,87.37913
"40219",559.4552,79.01732,87.282196
"40220",559.4685,78.941635,87.175804
"40221",559.4818,78.86595,87.06705
"40222",559.4951,78.79271,86.95837
"40223",559.5084,78.73411,86.86204
"40224",559.5217,78.692604,86.780975
"40225",559.53503,78.675514,86.72303
"40226",559.54834,78.675514,86.68164
"40227",559.56165,78.68284,86.647575
"40228",559.57495,78.68772,86.6113
"40229",559.58826,78.68528,86.56785
"40230",559.60156,78.677956,86.51944
"40231",559.61487,78.66331,86.46348
"40232",559.6282,78.643776,86.402176
"40233",559.6415,78.624245,86.34026
"40234",559.6548,78.60471,86.27774
"40235",559.6681,78.59739,86.226814
"40236",559.6814,78.59739,86.18298
"40237",559.6947,78.59983,86.141594
"40238",559.708,78.59983,86.09784
"40239",559.7213,78.59739,86.05164
"40240",559.7346,78.58762,85.99805
"40241",559.7479,78.56809,85.93438
"40242",559.7612,78.54368,85.86522
"40243",559.77454,78.52659,85.80262
"40244",559.78784,78.521706,85.75169
"40245",559.80115,78.53391,85.717705
"40246",559.81445,78.56321,85.70119
"40247",559.82776,78.6096,85.702675
"40248",559.84106,78.66331,85.71294
"40249",559.8544,78.71458,85.722435
"40250",559.8677,78.75609,85.72378
"40251",559.881,78.785385,85.7142
"40252",559.8943,78.80492,85.69578
"40253",559.9076,78.81224,85.66576
"40254",559.9209,78.82933,85.64573
"40255",559.9342,78.922104,85.70192
"40256",559.9475,79.18822,85.93435
"40257",559.9608,79.69604,86.4168
"40258",559.9741,80.43336,87.14462
"40259",559.9874,81.30251,88.02732
"40260",560.00073,82.14725,88.91276
"40261",560.01404,82.80888,89.641495
"40262",560.02734,83.17265,90.09304
"40263",560.04065,83.22148,90.24101
"40264",560.05396,83.03105,90.15125
"40265",560.06726,82.70634,89.92126
"40266",560.08057,82.340126,89.63962
"40267",560.0939,82.005646,89.378265
"40268",560.1072,81.75174,89.187035
"40269",560.1205,81.5906,89.080635
"40270",560.1338,81.5198,89.05954
"40271",560.1471,81.512474,89.09971
"40272",560.1604,81.53689,89.17139
"40273",560.1737,81.549095,89.23162
"40274",560.187,81.51736,89.24829
"40275",560.2003,81.4197,89.19805
"40276",560.2136,81.253685,89.0764
"40277",560.2269,81.041275,88.90317
"40278",560.24023,80.82399,88.71842
"40279",560.25354,80.64576,88.56594
"40280",560.26685,80.52857,88.46893
"40281",560.28015,80.47242,88.4293
"40282",560.29346,80.46021,88.431854
"40283",560.30676,80.46021,88.446236
"40284",560.32007,80.445564,88.44597
"40285",560.3334,80.40162,88.41595
"40286",560.3467,80.32838,88.355255
"40287",560.36,80.23071,88.26785
"40288",560.3733,80.11597,88.16032
"40289",560.3866,79.98901,88.03699
"40290",560.3999,79.852295,87.899925
"40291",560.4132,79.71557,87.75858
"40292",560.4265,79.58373,87.61786
"40293",560.4398,79.466545,87.48766
"40294",560.4531,79.36645,87.370895
"40295",560.46643,79.293205,87.277855
"40296",560.47974,79.234604,87.19717
"40297",560.49304,79.183334,87.12198
"40298",560.50635,79.13939,87.05251
"40299",560.51965,79.09544,86.981674
"40300",560.53296,79.046616,86.90458
"40301",560.54626,79.00511,86.83328
"40302",560.5596,78.96849,86.76557
"40303",560.5729,78.9514,86.71625
"40304",560.5862,78.94408,86.676155
"40305",560.5995,78.94896,86.64804
"40306",560.6128,78.96117,86.6274
"40307",560.6261,78.97093,86.604706
"40308",560.6394,78.97826,86.57987
"40309",560.6527,78.9807,86.550385
"40310",560.666,78.98314,86.52097
"40311",560.6793,78.9807,86.486755
"40312",560.6926,78.975815,86.45002
"40313",560.70593,78.96117,86.403366
"40314",560.71924,78.94408,86.35381
"40315",560.73254,78.922104,86.29884
"40316",560.74585,78.90257,86.24563
"40317",560.75916,78.88548,86.194244
"40318",560.77246,78.87572,86.14965
"40319",560.78577,78.86595,86.10475
"40320",560.7991,78.85863,86.06199
"40321",560.8124,78.8513,86.019
"40322",560.8257,78.84398,85.97578
"40323",560.839,78.839096,85.93477
"40324",560.8523,78.836655,85.89605
"40325",560.8656,78.84154,85.86458
"40326",560.8789,78.856186,85.843025
"40327",560.8922,78.87572,85.82681
"40328",560.9055,78.890366,85.80633
"40329",560.9188,78.90013,85.78142
"40330",560.9321,78.907455,85.75437
"40331",560.94543,78.9099,85.72267
"40332",560.95874,78.91234,85.69105
"40333",560.97205,78.92699,85.67171
"40334",560.98535,79.00023,85.71142
"40335",560.99866,79.21019,85.89014
"40336",561.01196,79.639885,86.29515
"40337",561.02527,80.323494,86.96751
"40338",561.0386,81.21217,87.866295
"40339",561.0519,82.17166,88.86366
"40340",561.0652,83.018845,89.77871
"40341",561.0785,83.595024,90.44923
"40342",561.0918,83.82208,90.78863
"40343",561.1051,83.72442,90.8104
"40344",561.1184,83.39727,90.59964
"40345",561.1317,82.95537,90.2639
"40346",561.145,82.50858,89.90947
"40347",561.1583,82.125275,89.60455
"40348",561.17163,81.84207,89.387764
"40349",561.18494,81.668724,89.27198
"40350",561.19824,81.59548,89.250885
"40351",561.21155,81.58572,89.29098
"40352",561.22485,81.58816,89.34297
"40353",561.23816,81.566185,89.37063
"40354",561.25146,81.48806,89.341446
"40355",561.2648,81.35134,89.25123
"40356",561.2781,81.180435,89.12255
"40357",561.2914,81.0193,88.99831
"40358",561.3047,80.902115,88.91297
"40359",561.318,80.84108,88.88013
"40360",561.3313,80.82643,88.89176
"40361",561.3446,80.8362,88.92735
"40362",561.3579,80.8362,88.95348
"40363",561.3712,80.8069,88.95032
"40364",561.3845,80.740974,88.90961
"40365",561.3978,80.64088,88.832664
"40366",561.41113,80.516365,88.72818
"40367",561.42444,80.37476,88.602715
"40368",561.43774,80.22095,88.46061
"40369",561.45105,80.06714,88.313705
"40370",561.46436,79.920654,88.16932
"40371",561.47766,79.78638,88.03256
"40372",561.49097,79.66918,87.90869
"40373",561.5043,79.569084,87.798256
"40374",561.5176,79.48852,87.70422
"40375",561.5309,79.42016,87.61988
"40376",561.5442,79.36645,87.54805
"40377",561.5575,79.32006,87.481865
"40378",561.5708,79.281,87.421555
"40379",561.5841,79.2517,87.36979
"40380",561.5974,79.22484,87.31954
"40381",561.6107,79.20531,87.27579
"40382",561.624,79.1931,87.23875
"40383",561.6373,79.19066,87.21109
"40384",561.65063,79.1931,87.18824
"40385",561.66394,79.19798,87.16791
"40386",561.67725,79.20775,87.15261
"40387",561.69055,79.21019,87.130295
"40388",561.70386,79.20531,87.10073
"40389",561.71716,79.19066,87.06125
"40390",561.73047,79.17113,87.016426
"40391",561.7438,79.14427,86.96367
"40392",561.7571,79.114975,86.90763
"40393",561.7704,79.08324,86.848236
"40394",561.7837,79.05394,86.79029
"40395",561.797,79.0222,86.72899
"40396",561.8103,78.995346,86.67158
"40397",561.8236,78.96361,86.608444
"40398",561.8369,78.93919,86.55164
"40399",561.8502,78.91722,86.49652
"40400",561.8635,78.90257,86.44804
"40401",561.87683,78.89281,86.40398
"40402",561.89014,78.887924,86.364494
"40403",561.90344,78.89281,86.334625
"40404",561.91675,78.90257,86.30979
"40405",561.93005,78.91478,86.287704
"40406",561.94336,78.92699,86.266
"40407",561.95667,78.93675,86.24223
"40408",561.97,78.94408,86.21633
"40409",561.9833,78.9514,86.19066
"40410",561.9966,78.995346,86.201836
"40411",562.0099,79.15892,86.334015
"40412",562.0232,79.53002,86.67883
"40413",562.0365,80.15503,87.289154
"40414",562.0498,81.00221,88.14118
"40415",562.0631,81.95682,89.127106
"40416",562.0764,82.84306,90.0745
"40417",562.0897,83.48516,90.80544
"40418",562.103,83.790344,91.219536
"40419",562.11633,83.76105,91.308685
"40420",562.12964,83.48272,91.14789
"40421",562.14294,83.075,90.849
"40422",562.15625,82.64286,90.512955
"40423",562.16956,82.266884,90.21957
"40424",562.18286,81.98367,90.007195
"40425",562.19617,81.81033,89.89584
"40426",562.2095,81.72976,89.87184
"40427",562.2228,81.70779,89.90392
"40428",562.2361,81.69802,89.947525
"40429",562.2494,81.66384,89.96641
"40430",562.2627,81.57595,89.93051
"40431",562.276,81.42458,89.82839
"40432",562.2893,81.22438,89.67271
"40433",562.3026,81.01442,89.50101
"40434",562.3159,80.82155,89.339836
"40435",562.3292,80.672615,89.216576
"40436",562.3425,80.57984,89.14482
"40437",562.35583,80.53101,89.11411
"40438",562.36914,80.50904,89.108734
"40439",562.38245,80.49439,89.10999
"40440",562.39575,80.465096,89.096146
"40441",562.40906,80.41627,89.06185
"40442",562.42236,80.33326,88.99185
"40443",562.43567,80.22583,88.89484
"40444",562.449,80.096436,88.7725
"40445",562.4623,79.957275,88.63635
"40446",562.4756,79.818115,88.49586
"40447",562.4889,79.693596,88.365654
"40448",562.5022,79.58129,88.243774
"40449",562.5155,79.48119,88.13059
"40450",562.5288,79.39086,88.02405
"40451",562.5421,79.30541,87.91956
"40452",562.5554,79.22972,87.82217
"40453",562.5687,79.166245,87.73462
"40454",562.58203,79.114975,87.657295
"40455",562.59534,79.07103,87.58569
"40456",562.60864,79.03197,87.5176
"40457",562.62195,78.992905,87.44829
"40458",562.63525,78.96117,87.38508
"40459",562.64856,78.941635,87.333084
"40460",562.66187,78.93187,87.290245
"40461",562.6752,78.93187,87.25687
"40462",562.6885,78.93431,87.22593
"40463",562.7018,78.93431,87.19263
"40464",562.7151,78.924545,87.14956
"40465",562.7284,78.905014,87.09642
"40466",562.7417,78.8806,87.03779
"40467",562.755,78.853745,86.97595
"40468",562.7683,78.83177,86.91816
"40469",562.7816,78.8098,86.85968
"40470",562.7949,78.785385,86.79807
"40471",562.8082,78.76097,86.7357
"40472",562.82153,78.73655,86.67256
"40473",562.83484,78.712135,86.608665
"40474",562.84814,78.695045,86.55133
"40475",562.86145,78.68284,86.498344
"40476",562.87476,78.677956,86.4523
"40477",562.88806,78.6804,86.41343
"40478",562.90137,78.68528,86.377075
"40479",562.9147,78.69016,86.34087
"40480",562.928,78.692604,86.30238
"40481",562.9413,78.692604,86.26153
"40482",562.9546,78.69749,86.225555
"40483",562.9679,78.70725,86.19462
"40484",562.9812,78.71946,86.16643
"40485",562.9945,78.74143,86.148384
"40486",563.0078,78.76341,86.131035
"40487",563.0211,78.785385,86.114365
"40488",563.0344,78.802475,86.0935
"40489",563.0477,78.819565,86.073166
"40490",563.06104,78.83177,86.048485
"40491",563.07434,78.84154,86.02174
"40492",563.08765,78.8513,85.99531
"40493",563.10095,78.91722,86.02533
"40494",563.11426,79.12474,86.19901
"40495",563.12756,79.5642,86.61112
"40496",563.14087,80.26978,87.303085
"40497",563.1542,81.18776,88.22949
"40498",563.1675,82.18143,89.26028
"40499",563.1808,83.06035,90.20737
"40500",563.1941,83.65118,90.89383
"40501",563.2074,83.878235,91.234985
"40502",563.2207,83.775696,91.25364
"40503",563.234,83.43389,91.02982
"40504",563.2473,82.98222,90.68546
"40505",563.2606,82.533,90.32943
"40506",563.2739,82.159454,90.03504
"40507",563.28723,81.88846,89.83153
"40508",563.30054,81.72732,89.7294
"40509",563.31384,81.65652,89.71258
"40510",563.32715,81.63943,89.74725
"40511",563.34045,81.636986,89.79604
"40512",563.35376,81.61013,89.82034
"40513",563.36707,81.52712,89.78765
"40514",563.3804,81.38308,89.69133
"40515",563.3937,81.19508,89.546555
"40516",563.407,80.99245,89.38126
"40517",563.4203,80.80934,89.22917
"40518",563.4336,80.67506,89.12018
"40519",563.4469,80.59449,89.06071
"40520",563.4602,80.552986,89.03778
"40521",563.4735,80.52857,89.03065
"40522",563.4868,80.49683,89.01543
"40523",563.5001,80.45045,88.984566
"40524",563.5134,80.37232,88.92052
"40525",563.52673,80.26978,88.82961
"40526",563.54004,80.15015,88.71841
"40527",563.55334,80.02319,88.596146
"40528",563.56665,79.8938,88.467476
"40529",563.57996,79.76929,88.339645
"40530",563.59326,79.64965,88.2128
"40531",563.60657,79.53979,88.09199
"40532",563.6199,79.43481,87.972626
"40533",563.6332,79.34692,87.86707
"40534",563.6465,79.27123,87.77098
"40535",563.6598,79.20775,87.68472
"40536",563.6731,79.15648,87.608696
"40537",563.6864,79.10765,87.53351
"40538",563.6997,79.06859,87.46656
"40539",563.713,79.03197,87.40083
"40540",563.7263,79.00267,87.341286
"40541",563.7396,78.98314,87.29059
"40542",563.7529,78.97337,87.24905
"40543",563.76624,78.96849,87.21208
"40544",563.77954,78.958725,87.17008
"40545",563.79285,78.94408,87.122894
"40546",563.80615,78.91966,87.06548
"40547",563.81946,78.887924,86.999985
"40548",563.83276,78.8513,86.92861
"40549",563.84607,78.81712,86.858536
"40550",563.8594,78.78294,86.78739
"40551",563.8727,78.751205,86.71762
"40552",563.886,78.71946,86.64685
"40553",563.8993,78.68528,86.572655
"40554",563.9126,78.64866,86.49495
"40555",563.9259,78.61204,86.4161
"40556",563.9392,78.58274,86.34343
"40557",563.9525,78.56321,86.27961
"40558",563.9658,78.551,86.2225
"40559",563.9791,78.54856,86.17478
"40560",563.99243,78.54856,86.129425
"40561",564.00574,78.553444,86.08895
"40562",564.01904,78.555885,86.04619
"40563",564.03235,78.553444,85.99862
"40564",564.04565,78.555885,85.95586
"40565",564.05896,78.55833,85.91317
"40566",564.07227,78.56321,85.873
"40567",564.0856,78.572975,85.83787
"40568",564.0989,78.590065,85.81036
"40569",564.1122,78.6218,85.79804
"40570",564.1255,78.658424,85.791595
"40571",564.1388,78.692604,85.78385
"40572",564.1521,78.73411,85.7845
"40573",564.1654,78.82201,85.83284
"40574",564.1787,79.03929,86.01331
"40575",564.192,79.47631,86.42031
"40576",564.2053,80.16968,87.09731
"40577",564.2186,81.06813,88.00107
"40578",564.23193,82.037384,89.0037
"40579",564.24524,82.90166,89.93164
"40580",564.25854,83.49737,90.61803
"40581",564.27185,83.74395,90.9739
"40582",564.28516,83.66827,91.01521
"40583",564.29846,83.36309,90.82467
"40584",564.31177,82.94072,90.50739
"40585",564.3251,82.50614,90.16471
"40586",564.3384,82.12283,89.85972
"40587",564.3517,81.83719,89.64041
"40588",564.365,81.65652,89.51715
"40589",564.3783,81.56374,89.47614
"40590",564.3916,81.529564,89.49083
"40591",564.4049,81.51003,89.5191
"40592",564.4182,81.461205,89.517456
"40593",564.4315,81.358665,89.46058
"40594",564.4448,81.20973,89.3541
"40595",564.4581,81.03395,89.216125
"40596",564.47144,80.8777,89.092186
"40597",564.48474,80.77516,89.017075
"40598",564.49805,80.73121,88.997345
"40599",564.51135,80.73121,89.020195
"40600",564.52466,80.75075,89.062584
"40601",564.53796,80.76051,89.09581
"40602",564.5513,80.74586,89.10492
"40603",564.5646,80.69215,89.07452
"40604",564.5779,80.6067,89.0107
"40605",564.5912,80.49195,88.91491
"40606",564.6045,80.35767,88.796005
"40607",564.6178,80.21118,88.66069
"40608",564.6311,80.0647,88.520805
"40609",564.6444,79.923096,88.381226
"40610",564.6577,79.798584,88.25431
"40611",564.671,79.691154,88.14059
"40612",564.6843,79.59838,88.03816
"40613",564.69763,79.517815,87.945045
"40614",564.71094,79.44457,87.856735
"40615",564.72424,79.37621,87.77102
"40616",564.73755,79.31762,87.69293
"40617",564.75085,79.27123,87.62522
"40618",564.76416,79.237045,87.56826
"40619",564.77747,79.219955,87.52733
"40620",564.7908,79.21507,87.49807
"40621",564.8041,79.21019,87.46866
"40622",564.8174,79.200424,87.43421
"40623",564.8307,79.183334,87.392136
"40624",564.844,79.168686,87.35197
"40625",564.8573,79.15404,87.31134
"40626",564.8706,79.14671,87.27758
"40627",564.8839,79.14183,87.24603
"40628",564.8972,79.13695,87.21433
"40629",564.9105,79.132065,87.18248
"40630",564.9238,79.12718,87.150475
"40631",564.93713,79.1223,87.11832
"40632",564.95044,79.1223,87.09089
"40633",564.96375,79.114975,87.05614
"40634",564.97705,79.09544,87.00895
"40635",564.99036,79.06615,86.951385
"40636",565.00366,79.029526,86.88558
"40637",565.01697,78.992905,86.818634
"40638",565.0303,78.96117,86.755424
"40639",565.0436,78.93187,86.693665
"40640",565.0569,78.907455,86.63587
"40641",565.0702,78.88548,86.57976
"40642",565.0835,78.86351,86.52296
"40643",565.0968,78.84886,86.47279
"40644",565.1101,78.84398,86.43194
"40645",565.1234,78.8513,86.40314
"40646",565.1367,78.8806,86.39654
"40647",565.15,78.98558,86.46654
"40648",565.1633,79.25414,86.7034
"40649",565.17664,79.74975,87.1757
"40650",565.18994,80.482185,87.900314
"40651",565.20325,81.38064,88.813835
"40652",565.21655,82.29374,89.77008
"40653",565.22986,83.0457,90.59372
"40654",565.24316,83.50469,91.14789
"40655",565.2565,83.62432,91.37704
"40656",565.2698,83.458305,91.32428
"40657",565.2831,83.104294,91.07834
"40658",565.2964,82.684364,90.75542
"40659",565.3097,82.27665,90.43159
"40660",565.323,81.94217,90.16825
"40661",565.3363,81.70779,89.99456
"40662",565.3496,81.56863,89.90877
"40663",565.3629,81.50027,89.88943
"40664",565.3762,81.46853,89.90457
"40665",565.3895,81.43191,89.91384
"40666",565.40283,81.358665,89.885345
"40667",565.41614,81.231705,89.80084
"40668",565.42944,81.058365,89.66599
"40669",565.44275,80.867935,89.50864
"40670",565.45605,80.70191,89.369736
"40671",565.46936,80.5774,89.26716
"40672",565.48267,80.51392,89.221725
"40673",565.496,80.49683,89.220695
"40674",565.5093,80.5066,89.24599
"40675",565.5226,80.50904,89.26426
"40676",565.5359,80.49195,89.26308
"40677",565.5492,80.43336,89.21986
"40678",565.5625,80.34058,89.140625
"40679",565.5758,80.22095,89.03163
"40680",565.5891,80.08423,88.90182
"40681",565.6024,79.940186,88.76041
"40682",565.6157,79.79614,88.614494
"40683",565.629,79.66186,88.47384
"40684",565.64233,79.53002,88.331436
"40685",565.65564,79.40795,88.19468
"40686",565.66895,79.30053,88.068756
"40687",565.68225,79.20775,87.95412
"40688",565.69556,79.132065,87.853676
"40689",565.70886,79.07347,87.76796
"40690",565.72217,79.0222,87.68774
"40691",565.7355,78.97826,87.613235
"40692",565.7488,78.94408,87.54713
"40693",565.7621,78.91478,87.48483
"40694",565.7754,78.89281,87.42895
"40695",565.7887,78.8806,87.38214
"40696",565.802,78.87816,87.34472
"40697",565.8153,78.887924,87.31943
"40698",565.8286,78.89525,87.292
"40699",565.8419,78.89769,87.25992
"40700",565.8552,78.890366,87.21815
"40701",565.8685,78.86839,87.1615
"40702",565.88184,78.83177,87.089516
"40703",565.89514,78.78783,87.00906
"40704",565.90845,78.74143,86.92479
"40705",565.92175,78.70481,86.84884
"40706",565.93506,78.67063,86.774185
"40707",565.94836,78.641335,86.70335
"40708",565.9617,78.61204,86.63159
"40709",565.975,78.58518,86.56136
"40710",565.9883,78.56321,86.49518
"40711",566.0016,78.54856,86.43563
"40712",566.0149,78.54124,86.38295
"40713",566.0282,78.54368,86.339806
"40714",566.0415,78.553444,86.30406
"40715",566.0548,78.56077,86.26618
"40716",566.0681,78.56809,86.22853
"40717",566.0814,78.572975,86.18867
"40718",566.0947,78.5803,86.1514
"40719",566.10803,78.590065,86.1168
"40720",566.12134,78.60227,86.084946
"40721",566.13464,78.643776,86.08277
"40722",566.14795,78.78294,86.17956
"40723",566.16125,79.10277,86.46135
"40724",566.17456,79.674065,87.00461
"40725",566.18787,80.482185,87.80254
"40726",566.2012,81.43923,88.77466
"40727",566.2145,82.37675,89.75715
"40728",566.2278,83.12138,90.57606
"40729",566.2411,83.543755,91.09597
"40730",566.2544,83.62432,91.28728
"40731",566.2677,83.421684,91.1979
"40732",566.281,83.05058,90.93372
"40733",566.2943,82.62577,90.60424
"40734",566.3076,82.23514,90.29566
"40735",566.3209,81.92752,90.05789
"40736",566.3342,81.72976,89.920364
"40737",566.34753,81.62966,89.87432
"40738",566.36084,81.59548,89.89107
"40739",566.37415,81.58816,89.9336
"40740",566.38745,81.56863,89.9637
"40741",566.40076,81.497826,89.94192
"40742",566.41406,81.36355,89.85445
"40743",566.42737,81.17799,89.7115
"40744",566.4407,80.970474,89.540794
"40745",566.454,80.77028,89.370926
"40746",566.4673,80.61646,89.24118
"40747",566.4806,80.52125,89.16523
"40748",566.4939,80.482185,89.142456
"40749",566.5072,80.47486,89.1502
"40750",566.5205,80.47242,89.1626
"40751",566.5338,80.45045,89.15539
"40752",566.5471,80.394295,89.11331
"40753",566.5604,80.30152,89.03286
"40754",566.5737,80.181885,88.922646
"40755",566.58704,80.04761,88.79405
"40756",566.60034,79.906006,88.65394
"40757",566.61365,79.76196,88.50696
"40758",566.62695,79.622795,88.36035
"40759",566.64026,79.48852,88.21429
"40760",566.65356,79.364006,88.07379
"40761",566.6669,79.24925,87.93916
"40762",566.6802,79.14671,87.81316
"40763",566.6935,79.05394,87.693726
"40764",566.7068,78.96849,87.57871
"40765",566.7201,78.89281,87.470795
"40766",566.7334,78.82933,87.37272
"40767",566.7467,78.78294,87.28975
"40768",566.76,78.75365,87.22242
"40769",566.7733,78.74143,87.17126
"40770",566.7866,78.74143,87.13193
"40771",566.7999,78.746315,87.09748
"40772",566.81323,78.74876,87.060745
"40773",566.82654,78.751205,87.02409
"40774",566.83984,78.75365,86.98751
"40775",566.85315,78.74876,86.94367
"40776",566.86646,78.73899,86.894806
"40777",566.87976,78.72434,86.84075
"40778",566.89307,78.70481,86.78136
"40779",566.9064,78.6804,86.71647
"40780",566.9197,78.65598,86.65082
"40781",566.933,78.63157,86.584404
"40782",566.9463,78.6096,86.51967
"40783",566.9596,78.58762,86.45425
"40784",566.9729,78.56321,86.3857
"40785",566.9862,78.54368,86.321266
"40786",566.9995,78.52659,86.25867
"40787",567.0128,78.51194,86.197975
"40788",567.0261,78.49973,86.13927
"40789",567.0394,78.49729,86.08994
"40790",567.05273,78.502174,86.04787
"40791",567.06604,78.502174,86.00106
"40792",567.07935,78.502174,85.954254
"40793",567.09265,78.502174,85.90745
"40794",567.10596,78.502174,85.86064
"40795",567.11926,78.504616,85.81628
"40796",567.13257,78.51682,85.78175
"40797",567.1459,78.53391,85.752495
"40798",567.1592,78.56321,85.73598
"40799",567.1725,78.59495,85.72282
"40800",567.1858,78.61936,85.70332
"40801",567.1991,78.63157,85.672386
"40802",567.2124,78.64866,85.64671
"40803",567.2257,78.72434,85.68017
"40804",567.239,78.958725,85.87469
"40805",567.2523,79.44457,86.327995
"40806",567.2656,80.20386,87.06992
"40807",567.27893,81.16579,88.03822
"40808",567.29224,82.18387,89.092735
"40809",567.30554,83.06279,90.0399
"40810",567.31885,83.63897,90.71179
"40811",567.33215,83.8465,91.033035
"40812",567.34546,83.72686,91.0336
"40813",567.35876,83.39239,90.81559
"40814",567.3721,82.95781,90.48702
"40815",567.3854,82.533,90.15464
"40816",567.3987,82.18143,89.882225
"40817",567.412,81.9324,89.70137
"40818",567.4253,81.7908,89.620155
"40819",567.4386,81.739525,89.62484
"40820",567.4519,81.74197,89.68164
"40821",567.4652,81.75906,89.753174
"40822",567.4785,81.74441,89.79349
"40823",567.4918,81.66628,89.769875
"40824",567.5051,81.514915,89.67058
"40825",567.51843,81.31228,89.51528
"40826",567.53174,81.09743,89.34144
"40827",567.54504,80.90944,89.187744
"40828",567.55835,80.77272,89.079445
"40829",567.57166,80.69215,89.02302
"40830",567.58496,80.65797,89.01047
"40831",567.59827,80.64576,89.01882
"40832",567.6116,80.62623,89.01947
"40833",567.6249,80.59205,89.00486
"40834",567.6382,80.53834,88.96965
"40835",567.6515,80.45289,88.901024
"40836",567.6648,80.33814,88.80043
"40837",567.6781,80.20386,88.67671
"40838",567.6914,80.05737,88.5366
"40839",567.7047,79.90845,88.389465
"40840",567.718,79.76196,88.24012
"40841",567.7313,79.62524,88.095955
"40842",567.7446,79.50805,87.96706
"40843",567.75793,79.41039,87.85403
"40844",567.77124,79.32006,87.74527
"40845",567.78455,79.24193,87.64589
"40846",567.79785,79.17845,87.55872
"40847",567.81116,79.11986,87.47446
"40848",567.82446,79.06615,87.39324
"40849",567.83777,79.0222,87.320114
"40850",567.8511,78.992905,87.26026
"40851",567.8644,78.97337,87.20926
"40852",567.8777,78.958725,87.16253
"40853",567.891,78.94652,87.11778
"40854",567.9043,78.93431,87.072655
"40855",567.9176,78.91722,87.02226
"40856",567.9309,78.89769,86.968895
"40857",567.9442,78.87572,86.912476
"40858",567.9575,78.84886,86.85049
"40859",567.9708,78.80492,86.77057
"40860",567.98413,78.746315,86.67462
"40861",567.99744,78.675514,86.564644
"40862",568.01074,78.60471,86.45245
"40863",568.02405,78.54368,86.34782
"40864",568.03735,78.49729,86.25592
"40865",568.05066,78.470436,86.182106
"40866",568.06396,78.45335,86.11722
"40867",568.0773,78.4387,86.05424
"40868",568.0906,78.42649,85.99324
"40869",568.1039,78.416725,85.9343
"40870",568.1172,78.41184,85.879944
"40871",568.1305,78.41428,85.832756
"40872",568.1438,78.42161,85.79053
"40873",568.1571,78.42893,85.74853
"40874",568.1704,78.44358,85.71408
"40875",568.1837,78.46067,85.68253
"40876",568.197,78.4802,85.65396
"40877",568.2103,78.502174,85.62844
"40878",568.22363,78.52415,85.60361
"40879",568.23694,78.54612,85.57946
"40880",568.25024,78.57053,85.55844
"40881",568.26355,78.59495,85.538185
"40882",568.27686,78.61936,85.51869
"40883",568.29016,78.64622,85.5024
"40884",568.30347,78.66331,85.47719
"40885",568.3168,78.675514,85.447624
"40886",568.3301,78.68528,85.416
"40887",568.3434,78.72678,85.41642
"40888",568.3567,78.88304,85.53289
"40889",568.37,79.26879,85.883736
"40890",568.3833,79.93286,86.524956
"40891",568.3966,80.850845,87.44084
"40892",568.4099,81.90555,88.52213
"40893",568.4232,82.90898,89.58511
"40894",568.4365,83.665825,90.43286
"40895",568.4498,84.0589,90.94049
"40896",568.46313,84.088196,91.09663
"40897",568.47644,83.83673,90.972916
"40898",568.48975,83.41924,90.67532
"40899",568.50305,82.95537,90.3183
"40900",568.51636,82.530556,89.98584
"40901",568.52966,82.193634,89.728
"40902",568.54297,81.9617,89.56461
"40903",568.5563,81.832306,89.49652
"40904",568.5696,81.778595,89.50007
"40905",568.5829,81.76395,89.541
"40906",568.5962,81.74929,89.58147
"40907",568.6095,81.69314,89.57998
"40908",568.6228,81.583275,89.523026
"40909",568.6361,81.41726,89.40649
"40910",568.6494,81.2195,89.25301
"40911",568.6627,81.03151,89.103134
"40912",568.676,80.88258,88.98644
"40913",568.68933,80.782486,88.913925
"40914",568.70264,80.73365,88.88954
"40915",568.71594,80.71656,88.89538
"40916",568.72925,80.70191,88.90312
"40917",568.74255,80.66773,88.89088
"40918",568.75586,80.6067,88.85071
"40919",568.76917,80.516365,88.779335
"40920",568.7825,80.396736,88.67584
"40921",568.7958,80.26002,88.55152
"40922",568.8091,80.113525,88.413155
"40923",568.8224,79.96948,88.27266
"40924",568.8357,79.823,88.12522
"40925",568.849,79.691154,87.98785
"40926",568.8623,79.569084,87.856125
"40927",568.8756,79.45678,87.730354
"40928",568.8889,79.35668,87.61328
"40929",568.9022,79.26879,87.50529
"40930",568.9155,79.19554,87.40919
"40931",568.92883,79.132065,87.32057
"40932",568.94214,79.08324,87.24462
"40933",568.95544,79.046616,87.17935
"40934",568.96875,79.0222,87.125145
"40935",568.98206,79.00511,87.0775
"40936",568.99536,78.995346,87.036644
"40937",569.00867,78.98802,86.997925
"40938",569.022,78.98558,86.96386
"40939",569.0353,78.98314,86.92972
"40940",569.0486,78.97826,86.89306
"40941",569.0619,78.97093,86.853806
"40942",569.0752,78.958725,86.80944
"40943",569.0885,78.93919,86.75737
"40944",569.1018,78.9099,86.69492
"40945",569.1151,78.87816,86.62912
"40946",569.1284,78.84398,86.55988
"40947",569.1417,78.81468,86.49446
"40948",569.155,78.79027,86.43301
"40949",569.16833,78.77074,86.37567
"40950",569.18164,78.751205,86.317726
"40951",569.19495,78.73167,86.25916
"40952",569.20825,78.71458,86.20244
"40953",569.22156,78.69993,86.14762
"40954",569.23486,78.695045,86.10211
"40955",569.24817,78.70237,86.06866
"40956",569.2615,78.71702,86.042755
"40957",569.2748,78.73411,86.01975
"40958",569.2881,78.74876,85.99484
"40959",569.3014,78.76341,85.9704
"40960",569.3147,78.77562,85.94396
"40961",569.328,78.78294,85.913025
"40962",569.3413,78.79027,85.88232
"40963",569.3546,78.79515,85.849396
"40964",569.3679,78.80003,85.81663
"40965",569.3812,78.80003,85.77913
"40966",569.39453,78.80492,85.74651
"40967",569.40784,78.81224,85.71649
"40968",569.42114,78.82201,85.68914
"40969",569.43445,78.86107,85.69139
"40970",569.44775,79.00267,85.7974
"40971",569.46106,79.34203,86.1056
"40972",569.47437,79.95239,86.6954
"40973",569.4877,80.82399,87.565506
"40974",569.501,81.85184,88.6191
"40975",569.5143,82.87236,89.697495
"40976",569.5276,83.6878,90.60269
"40977",569.5409,84.16632,91.19646
"40978",569.5542,84.27619,91.43652
"40979",569.5675,84.08087,91.37483
"40980",569.5808,83.682915,91.1044
"40981",569.5941,83.19707,90.73364
"40982",569.6074,82.7161,90.352585
"40983",569.6207,82.30595,90.027306
"40984",569.63403,82.003204,89.79662
"40985",569.64734,81.815216,89.671234
"40986",569.66064,81.72732,89.64006
"40987",569.67395,81.70046,89.66718
"40988",569.68726,81.685814,89.70567
"40989",569.70056,81.63943,89.71197
"40990",569.71387,81.53933,89.6631
"40991",569.7272,81.3904,89.56228
"40992",569.7405,81.22194,89.43726
"40993",569.7538,81.07057,89.32408
"40994",569.7671,80.96803,89.255
"40995",569.7804,80.92409,89.2413
"40996",569.7937,80.92409,89.27018
"40997",569.807,80.936295,89.311264
"40998",569.8203,80.93385,89.33808
"40999",569.8336,80.89723,89.33064
"41000",569.8469,80.82155,89.283
"41001",569.8602,80.70191,89.18903
"41002",569.87354,80.55787,89.066925
"41003",569.88684,80.40162,88.92811
"41004",569.90015,80.24292,88.78196
"41005",569.91345,80.08423,88.63086
"41006",569.92676,79.9353,88.484566
"41007",569.94006,79.79614,88.34338
"41008",569.95337,79.6643,88.20517
"41009",569.9667,79.54711,88.07749
"41010",569.98,79.44457,87.9608
"41011",569.9933,79.35912,87.857994
"41012",570.0066,79.28588,87.764725
"41013",570.0199,79.22728,87.68381
"41014",570.0332,79.185776,87.61816
"41015",570.0465,79.15404,87.560974
"41016",570.0598,79.132065,87.512566
"41017",570.0731,79.11009,87.46347
"41018",570.0864,79.09544,87.42101
"41019",570.09973,79.07591,87.373215
"41020",570.11304,79.061264,87.32969
"41021",570.12634,79.04906,87.28815
"41022",570.13965,79.04173,87.25111
"41023",570.15295,79.03197,87.211395
"41024",570.16626,79.01976,87.16894
"41025",570.17957,78.99779,87.11633
"41026",570.1929,78.97093,87.05816
"41027",570.2062,78.93675,86.99182
"41028",570.2195,78.90257,86.924416
"41029",570.2328,78.870834,86.85838
"41030",570.2461,78.84398,86.79624
"41031",570.2594,78.82445,86.740585
"41032",570.2727,78.80736,86.68676
"41033",570.286,78.78783,86.62996
"41034",570.2993,78.768295,86.57255
"41035",570.3126,78.74387,86.509636
"41036",570.3259,78.71702,86.44353
"41037",570.33923,78.695045,86.38146
"41038",570.35254,78.68528,86.33092
"41039",570.36584,78.68284,86.28739
"41040",570.37915,78.68772,86.251114
"41041",570.39246,78.70237,86.224754
"41042",570.40576,78.72678,86.20862
"41043",570.41907,78.74876,86.1908
"41044",570.4324,78.768295,86.17124
"41045",570.4457,78.785385,86.14984
"41046",570.459,78.79515,86.12165
"41047",570.4723,78.802475,86.091324
"41048",570.4856,78.86107,86.112495
"41049",570.4989,79.06615,86.28198
"41050",570.5122,79.51049,86.69714
"41051",570.5255,80.233154,87.40451
"41052",570.5388,81.19264,88.371284
"41053",570.5521,82.252235,89.46815
"41054",570.5654,83.21904,90.50533
"41055",570.57874,83.912415,91.2993
"41056",570.59204,84.23468,91.74383
"41057",570.60535,84.20538,91.84686
"41058",570.61865,83.914856,91.68775
"41059",570.63196,83.48516,91.380394
"41060",570.64526,83.021286,91.02543
"41061",570.65857,82.61356,90.71212
"41062",570.6719,82.30106,90.48129
"41063",570.6852,82.09598,90.348114
"41064",570.6985,81.99344,90.31107
"41065",570.7118,81.95926,90.33919
"41066",570.7251,81.94949,90.39065
"41067",570.7384,81.9202,90.42227
"41068",570.7517,81.83719,90.39927
"41069",570.765,81.69314,90.31263
"41070",570.7783,81.495384,90.167786
"41071",570.7916,81.28298,90.00211
"41072",570.80493,81.092545,89.85177
"41073",570.81824,80.95094,89.74431
"41074",570.83154,80.867935,89.69102
"41075",570.84485,80.833755,89.68396
"41076",570.85815,80.82643,89.70269
"41077",570.87146,80.814224,89.71631
"41078",570.88477,80.780045,89.70757
"41079",570.8981,80.709236,89.66114
"41080",570.9114,80.59693,89.571
"41081",570.9247,80.45533,89.44805
"41082",570.938,80.29908,89.30603
"41083",570.9513,80.13794,89.154236
"41084",570.9646,79.97925,88.999855
"41085",570.9779,79.82544,88.8454
"41086",570.9912,79.68383,88.69833
"41087",571.0045,79.551994,88.55662
"41088",571.0178,79.432365,88.42299
"41089",571.0311,79.32494,88.29783
"41090",571.04443,79.237045,88.188835
"41091",571.05774,79.16136,88.08931
"41092",571.07104,79.09544,87.997185
"41093",571.08435,79.044174,87.91765
"41094",571.09766,79.00511,87.84872
"41095",571.11096,78.975815,87.78833
"41096",571.12427,78.9514,87.73191
"41097",571.1376,78.93187,87.67961
"41098",571.1509,78.91966,87.634026
"41099",571.1642,78.905014,87.58562
"41100",571.1775,78.887924,87.53431
"41101",571.1908,78.86595,87.477585
"41102",571.2041,78.84154,87.41773
"41103",571.2174,78.80736,87.34735
"41104",571.2307,78.77318,87.2759
"41105",571.244,78.73655,87.200935
"41106",571.2573,78.70725,87.13216
"41107",571.2706,78.675514,87.06002
"41108",571.28394,78.64866,86.991776
"41109",571.29724,78.62913,86.930016
"41110",571.31055,78.61204,86.87009
"41111",571.32385,78.59251,86.80718
"41112",571.33716,78.57053,86.74123
"41113",571.35046,78.54612,86.67214
"41114",571.3638,78.52415,86.60474
"41115",571.3771,78.502174,86.536644
"41116",571.3904,78.487526,86.47519
"41117",571.4037,78.48264,86.42304
"41118",571.417,78.487526,86.38051
"41119",571.4303,78.49729,86.34301
"41120",571.4436,78.5095,86.30826
"41121",571.4569,78.521706,86.27389
"41122",571.4702,78.53391,86.2399
"41123",571.4835,78.54612,86.20629
"41124",571.4968,78.55833,86.173065
"41125",571.51013,78.57786,86.147545
"41126",571.52344,78.59251,86.11775
"41127",571.53674,78.59983,86.08109
"41128",571.55005,78.59983,86.03734
"41129",571.56335,78.59251,85.98626
"41130",571.57666,78.5803,85.93007
"41131",571.58997,78.56565,85.871056
"41132",571.6033,78.55833,85.81891
"41133",571.6166,78.59251,85.80804
"41134",571.6299,78.75609,85.927635
"41135",571.6432,79.151596,86.28427
"41136",571.6565,79.84741,86.953575
"41137",571.6698,80.816666,87.91806
"41138",571.6831,81.93973,89.06664
"41139",571.6964,83.021286,90.20882
"41140",571.7097,83.85626,91.13821
"41141",571.723,84.30793,91.71038
"41142",571.7363,84.37141,91.90848
"41143",571.74963,84.1297,91.803375
"41144",571.76294,83.70733,91.510056
"41145",571.77625,83.23857,91.15715
"41146",571.78955,82.81377,90.83355
"41147",571.80286,82.49149,90.599205
"41148",571.81616,82.28886,90.47443
"41149",571.82947,82.193634,90.45073
"41150",571.8428,82.178986,90.50463
"41151",571.8561,82.20096,90.594696
"41152",571.8694,82.21805,90.680565
"41153",571.8827,82.18875,90.72058
"41154",571.896,82.08621,90.68644
"41155",571.9093,81.91287,90.57829
"41156",571.9226,81.69558,90.42078
"41157",571.9359,81.47341,90.251595
"41158",571.9492,81.27566,90.099884
"41159",571.9625,81.129166,89.993256
"41160",571.9758,81.03395,89.93333
"41161",571.98914,80.9778,89.909485
"41162",572.00244,80.93385,89.896095
"41163",572.01575,80.88747,89.87889
"41164",572.02905,80.81911,89.838264
"41165",572.04236,80.72144,89.7662
"41166",572.05566,80.59693,89.66423
"41167",572.069,80.45533,89.54128
"41168",572.0823,80.29908,89.39926
"41169",572.0956,80.14038,89.24991
"41170",572.1089,79.98169,89.095604
"41171",572.1222,79.823,88.93634
"41172",572.1355,79.674065,88.781876
"41173",572.1488,79.53246,88.63009
"41174",572.1621,79.40551,88.488525
"41175",572.1754,79.290764,88.3552
"41176",572.1887,79.19798,88.24026
"41177",572.202,79.11986,88.13707
"41178",572.21533,79.05882,88.04853
"41179",572.22864,79.00755,87.96785
"41180",572.24194,78.96361,87.89289
"41181",572.25525,78.91966,87.81656
"41182",572.26855,78.87816,87.741295
"41183",572.28186,78.836655,87.664734
"41184",572.29517,78.79759,87.58932
"41185",572.3085,78.76097,87.51512
"41186",572.3218,78.72434,87.43977
"41187",572.3351,78.692604,87.36817
"41188",572.3484,78.65598,87.290695
"41189",572.3617,78.61936,87.212074
"41190",572.375,78.5803,87.12987
"41191",572.3883,78.54368,87.04888
"41192",572.4016,78.51194,86.971634
"41193",572.4149,78.48264,86.895836
"41194",572.4282,78.46311,86.82889
"41195",572.4415,78.4387,86.75645
"41196",572.45483,78.4094,86.67836
"41197",572.46814,78.37278,86.59203
"41198",572.48145,78.32639,86.4948
"41199",572.49475,78.28001,86.39611
"41200",572.50806,78.238495,86.30085
"41201",572.52136,78.20676,86.214066
"41202",572.53467,78.19211,86.14338
"41203",572.548,78.19211,86.08688
"41204",572.5613,78.2092,86.04748
"41205",572.5746,78.23117,86.01349
"41206",572.5879,78.25803,85.98508
"41207",572.6012,78.28489,85.9575
"41208",572.6145,78.3093,85.928314
"41209",572.6278,78.328835,85.89501
"41210",572.6411,78.345924,85.85988
"41211",572.6544,78.363014,85.82528
"41212",572.6677,78.37766,85.78877
"41213",572.681,78.39231,85.75272
"41214",572.69434,78.416725,85.7269
"41215",572.70764,78.44602,85.70672
"41216",572.72095,78.47776,85.689896
"41217",572.73425,78.5095,85.674065
"41218",572.74756,78.536354,85.65434
"41219",572.76086,78.551,85.62325
"41220",572.7742,78.55833,85.5853
"41221",572.7875,78.5803,85.56222
"41222",572.8008,78.69993,85.63748
"41223",572.8141,79.03197,85.928894
"41224",572.8274,79.656975,86.52365
"41225",572.8407,80.57252,87.428474
"41226",572.854,81.688255,88.5621
"41227",572.8673,82.81621,89.74281
"41228",572.8806,83.74883,90.76344
"41229",572.8939,84.3299,91.46166
"41230",572.9072,84.51545,91.78252
"41231",572.92053,84.35432,91.76249
"41232",572.93384,83.966125,91.51037
"41233",572.94714,83.46807,91.13625
"41234",572.96045,82.967575,90.74413
"41235",572.97375,82.533,90.40229
"41236",572.98706,82.20828,90.15673
"41237",573.00037,82.003204,90.02066
"41238",573.0137,81.900665,89.98072
"41239",573.027,81.8616,90.00105
"41240",573.0403,81.849396,90.04702
"41241",573.0536,81.8201,90.075516
"41242",573.0669,81.7322,90.044495
"41243",573.0802,81.58816,89.95458
"41244",573.0935,81.40505,89.821106
"41245",573.1068,81.21706,89.67702
"41246",573.1201,81.058365,89.55636
"41247",573.1334,80.955826,89.48689
"41248",573.1467,80.902115,89.46305
"41249",573.16003,80.8777,89.46683
"41250",573.17334,80.85817,89.474724
"41251",573.18665,80.82155,89.46492
"41252",573.19995,80.75807,89.42712
"41253",573.21326,80.67017,89.36291
"41254",573.22656,80.552986,89.26666
"41255",573.23987,80.41627,89.147224
"41256",573.2532,80.2649,89.008865
"41257",573.2665,80.10132,88.85356
"41258",573.2798,79.937744,88.69315
"41259",573.2931,79.77905,88.53252
"41260",573.3064,79.63012,88.37668
"41261",573.3197,79.4934,88.2284
"41262",573.333,79.378654,88.097824
"41263",573.3463,79.276115,87.97587
"41264",573.3596,79.18822,87.86535
"41265",573.3729,79.114975,87.76674
"41266",573.3862,79.061264,87.68537
"41267",573.39954,79.01488,87.60965
"41268",573.41284,78.975815,87.5398
"41269",573.42615,78.941635,87.47362
"41270",573.43945,78.91234,87.41125
"41271",573.45276,78.87816,87.34308
"41272",573.46606,78.84398,87.27384
"41273",573.4794,78.81468,87.20842
"41274",573.4927,78.79027,87.146965
"41275",573.506,78.765854,87.08475
"41276",573.5193,78.73899,87.01932
"41277",573.5326,78.712135,86.95306
"41278",573.5459,78.68528,86.885956
"41279",573.5592,78.66331,86.8229
"41280",573.5725,78.643776,86.7616
"41281",573.5858,78.6218,86.69724
"41282",573.5991,78.59983,86.6322
"41283",573.6124,78.57053,86.55915
"41284",573.62573,78.53391,86.47786
"41285",573.63904,78.49973,86.397865
"41286",573.65234,78.47288,86.32413
"41287",573.66565,78.45823,86.26176
"41288",573.67896,78.44846,86.20381
"41289",573.69226,78.44846,86.15533
"41290",573.70557,78.45335,86.111725
"41291",573.7189,78.45823,86.068275
"41292",573.7322,78.46555,86.02742
"41293",573.7455,78.47288,85.98679
"41294",573.7588,78.485085,85.95128
"41295",573.7721,78.49485,85.913704
"41296",573.7854,78.50706,85.878876
"41297",573.7987,78.519264,85.84443
"41298",573.812,78.538795,85.81769
"41299",573.8253,78.55833,85.79156
"41300",573.8386,78.5803,85.76848
"41301",573.8519,78.60227,85.746086
"41302",573.86523,78.63157,85.731705
"41303",573.87854,78.71458,85.77195
"41304",573.89185,78.94896,85.96616
"41305",573.90515,79.432365,86.416725
"41306",573.91846,80.20386,87.17048
"41307",573.93176,81.214615,88.18761
"41308",573.94507,82.31083,89.32178
"41309",573.9584,83.3045,90.38766
"41310",573.9717,84.00519,91.19161
"41311",573.985,84.32258,91.63416
"41312",573.9983,84.27131,91.71797
"41313",574.0116,83.94415,91.52429
"41314",574.0249,83.46319,91.16658
"41315",574.0382,82.93828,90.74989
"41316",574.0515,82.46464,90.36807
"41317",574.0648,82.08621,90.066666
"41318",574.0781,81.82498,89.87063
"41319",574.09143,81.67605,89.778725
"41320",574.10474,81.60769,89.76274
"41321",574.11804,81.57107,89.77636
"41322",574.13135,81.51736,89.77174
"41323",574.14465,81.41726,89.71906
"41324",574.15796,81.25857,89.60466
"41325",574.17126,81.07057,89.45599
"41326",574.1846,80.88747,89.30634
"41327",574.1979,80.74586,89.19247
"41328",574.2112,80.66529,89.13521
"41329",574.2245,80.638435,89.12914
"41330",574.2378,80.64332,89.15398
"41331",574.2511,80.655525,89.18629
"41332",574.2644,80.64332,89.194565
"41333",574.2777,80.59693,89.16828
"41334",574.291,80.50172,89.09172
"41335",574.3043,80.36256,88.96824
"41336",574.3176,80.181885,88.7989
"41337",574.33093,79.98657,88.60927
"41338",574.34424,79.79614,88.41842
"41339",574.35754,79.63256,88.24847
"41340",574.37085,79.50317,88.10759
"41341",574.38416,79.40551,87.99441
"41342",574.39746,79.33715,87.90747
"41343",574.41077,79.281,87.830605
"41344",574.4241,79.22484,87.751976
"41345",574.4374,79.1638,87.66672
"41346",574.4507,79.097885,87.57467
"41347",574.464,79.029526,87.47812
"41348",574.4773,78.97093,87.3892
"41349",574.4906,78.92699,87.313095
"41350",574.5039,78.90013,87.25271
"41351",574.5172,78.887924,87.20613
"41352",574.5305,78.88304,87.1665
"41353",574.5438,78.8806,87.12915
"41354",574.5571,78.87816,87.09173
"41355",574.57043,78.870834,87.04935
"41356",574.58374,78.85863,87.001854
"41357",574.59705,78.84398,86.95154
"41358",574.61035,78.819565,86.891
"41359",574.62366,78.78783,86.82237
"41360",574.63696,78.74876,86.74542
"41361",574.65027,78.70481,86.66238
"41362",574.6636,78.65598,86.573074
"41363",574.6769,78.607155,86.48225
"41364",574.6902,78.56077,86.392334
"41365",574.7035,78.51682,86.30341
"41366",574.7168,78.485085,86.22533
"41367",574.7301,78.47288,86.16578
"41368",574.7434,78.47532,86.1205
"41369",574.7567,78.49729,86.094826
"41370",574.77,78.53147,86.08205
"41371",574.7833,78.572975,86.07766
"41372",574.79663,78.61204,86.07213
"41373",574.80994,78.643776,86.06049
"41374",574.82324,78.66331,86.03764
"41375",574.83655,78.675514,86.00808
"41376",574.84985,78.68284,85.974014
"41377",574.86316,78.68528,85.935295
"41378",574.87646,78.68772,85.89665
"41379",574.8898,78.692604,85.86053
"41380",574.9031,78.69749,85.824554
"41381",574.9164,78.70725,85.79362
"41382",574.9297,78.72678,85.77275
"41383",574.943,78.75365,85.75983
"41384",574.9563,78.819565,85.7868
"41385",574.9696,78.99779,85.92813
"41386",574.9829,79.37621,86.27524
"41387",574.9962,80.01587,86.8954
"41388",575.0095,80.89967,87.7797
"41389",575.0228,81.9202,88.82834
"41390",575.03613,82.90898,89.87713
"41391",575.04944,83.68047,90.739525
"41392",575.06274,84.11261,91.286674
"41393",575.07605,84.190735,91.49332
"41394",575.08936,83.980774,91.414314
"41395",575.10266,83.59991,91.157845
"41396",575.11597,83.16289,90.83332
"41397",575.1293,82.7625,90.53177
"41398",575.1426,82.45487,90.31047
"41399",575.1559,82.262,90.19431
"41400",575.1692,82.17166,90.17466
"41401",575.1825,82.15457,90.22543
"41402",575.1958,82.16678,90.30497
"41403",575.2091,82.16922,90.37512
"41404",575.2224,82.12039,90.39408
"41405",575.2357,82.005646,90.3456
"41406",575.249,81.82498,90.22761
"41407",575.2623,81.61013,90.069786
"41408",575.27563,81.39529,89.90526
"41409",575.28894,81.21217,89.76575
"41410",575.30225,81.08522,89.676674
"41411",575.31555,81.01442,89.639786
"41412",575.32886,80.987564,89.64463
"41413",575.34216,80.97536,89.663284
"41414",575.35547,80.96071,89.679115
"41415",575.3688,80.919205,89.66763
"41416",575.3821,80.84352,89.620674
"41417",575.3954,80.723885,89.5274
"41418",575.4087,80.57252,89.39865
"41419",575.422,80.394295,89.23832
"41420",575.4353,80.20874,89.06509
"41421",575.4486,80.028076,88.890945
"41422",575.4619,79.86206,88.72581
"41423",575.4752,79.72045,88.57989
"41424",575.4885,79.605705,88.456406
"41425",575.50183,79.51293,88.35131
"41426",575.51514,79.449455,88.27261
"41427",575.52844,79.41772,88.22367
"41428",575.54175,79.42504,88.2128
"41429",575.55505,79.46899,88.23878
"41430",575.56836,79.534904,88.2881
"41431",575.58167,79.60082,88.339485
"41432",575.595,79.635,88.36119
"41433",575.6083,79.61059,88.32537
"41434",575.6216,79.53246,88.23508
"41435",575.6349,79.40795,88.095955
"41436",575.6482,79.26147,87.93097
"41437",575.6615,79.1223,87.76872
"41438",575.6748,79.012436,87.63143
"41439",575.6881,78.94652,87.53465
"41440",575.7014,78.91966,87.47488
"41441",575.7147,78.91478,87.43623
"41442",575.728,78.91234,87.39988
"41443",575.74133,78.890366,87.34392
"41444",575.75464,78.839096,87.25797
"41445",575.76794,78.76097,87.14357
"41446",575.78125,78.66331,87.00719
"41447",575.79456,78.551,86.85311
"41448",575.80786,78.4387,86.695526
"41449",575.82117,78.32639,86.53443
"41450",575.8345,78.221405,86.377144
"41451",575.8478,78.133514,86.23367
"41452",575.8611,78.07248,86.11431
"41453",575.8744,78.03342,86.015015
"41454",575.8877,78.01877,85.93891
"41455",575.901,78.011444,85.869675
"41456",575.9143,78.009,85.80509
"41457",575.9276,78.011444,85.745316
"41458",575.9409,78.01877,85.6905
"41459",575.9542,78.04074,85.65056
"41460",575.9675,78.07248,85.62107
"41461",575.98083,78.11154,85.5999
"41462",575.99414,78.15549,85.58483
"41463",576.00745,78.187225,85.55893
"41464",576.02075,78.21164,85.526695
"41465",576.03406,78.23605,85.495224
"41466",576.04736,78.2678,85.47185
"41467",576.06067,78.314186,85.4641
"41468",576.074,78.39231,85.48955
"41469",576.0873,78.53391,85.58091
"41470",576.1006,78.82201,85.82319
"41471",576.1139,79.32983,86.2942
"41472",576.1272,80.093994,87.03742
"41473",576.1405,81.07057,88.01694
"41474",576.1538,82.14725,89.12707
"41475",576.1671,83.140915,90.187836
"41476",576.1804,83.89044,91.035515
"41477",576.1937,84.29084,91.55749
"41478",576.20703,84.349434,91.75017
"41479",576.22034,84.14435,91.681
"41480",576.23364,83.78546,91.45162
"41481",576.24695,83.38018,91.164635
"41482",576.26025,83.018845,90.90893
"41483",576.27356,82.74296,90.72738
"41484",576.28687,82.57206,90.6422
"41485",576.3002,82.48661,90.63712
"41486",576.3135,82.45487,90.68309
"41487",576.3268,82.44022,90.745155
"41488",576.3401,82.39384,90.775024
"41489",576.3534,82.28886,90.74485
"41490",576.3667,82.12039,90.64791
"41491",576.38,81.90555,90.49933
"41492",576.3933,81.67605,90.32938
"41493",576.4066,81.478294,90.184
"41494",576.4199,81.32937,90.08127
"41495",576.4332,81.24147,90.03491
"41496",576.44653,81.20241,90.034645
"41497",576.45984,81.18776,90.05757
"41498",576.47314,81.17555,90.08248
"41499",576.48645,81.15846,90.10213
"41500",576.49976,81.12428,90.10415
"41501",576.51306,81.06325,90.07825
"41502",576.52637,80.972916,90.02114
"41503",576.5397,80.86061,89.93924
"41504",576.553,80.723885,89.82941
"41505",576.5663,80.570076,89.69822
"41506",576.5796,80.40894,89.5549
"41507",576.5929,80.25269,89.41143
"41508",576.6062,80.093994,89.26063
"41509",576.6195,79.93042,89.09999
"41510",576.6328,79.764404,88.9318
"41511",576.6461,79.60082,88.76086
"41512",576.6594,79.449455,88.597015
"41513",576.6727,79.32494,88.4553
"41514",576.68604,79.24437,88.35363
"41515",576.69934,79.21019,88.29584
"41516",576.71265,79.20775,88.268715
"41517",576.72595,79.2224,88.258606
"41518",576.73926,79.237045,88.248955
"41519",576.75256,79.23949,88.227554
"41520",576.76587,79.22728,88.19158
"41521",576.7792,79.20531,88.14546
"41522",576.7925,79.17601,88.09133
"41523",576.8058,79.14183,88.0314
"41524",576.8191,79.10033,87.96308
"41525",576.8324,79.046616,87.881256
"41526",576.8457,78.97337,87.77822
"41527",576.859,78.88548,87.65825
"41528",576.8723,78.79271,87.53065
"41529",576.8856,78.709694,87.409904
"41530",576.8989,78.643776,87.303665
"41531",576.91223,78.61204,87.229546
"41532",576.92554,78.6218,87.19594
"41533",576.93884,78.6804,87.211464
"41534",576.95215,78.785385,87.275215
"41535",576.96545,78.91234,87.36421
"41536",576.97876,79.03685,87.454735
"41537",576.99207,79.14183,87.52962
"41538",577.0054,79.21019,87.57116
"41539",577.0187,79.234604,87.57089
"41540",577.032,79.22728,87.53965
"41541",577.0453,79.200424,87.48865
"41542",577.0586,79.15892,87.42216
"41543",577.0719,79.114975,87.35193
"41544",577.0852,79.07591,87.28521
"41545",577.0985,79.09056,87.27098
"41546",577.1118,79.23949,87.39149
"41547",577.1251,79.61791,87.74615
"41548",577.1384,80.26978,88.38608
"41549",577.15173,81.17067,89.295395
"41550",577.16504,82.19852,90.359825
"41551",577.17834,83.17265,91.402664
"41552",577.19165,83.912415,92.24157
"41553",577.20496,84.315254,92.76667
"41554",577.21826,84.37629,92.962555
"41555",577.23157,84.16876,92.891785
"41556",577.2449,83.80255,92.655846
"41557",577.2582,83.39483,92.36695
"41558",577.2715,83.02373,92.10194
"41559",577.2848,82.7454,91.9181
"41560",577.2981,82.579384,91.837875
"41561",577.3114,82.51835,91.857445
"41562",577.3247,82.52567,91.94347
"41563",577.338,82.547646,92.044365
"41564",577.3513,82.52323,92.09956
"41565",577.3646,82.42069,92.075874
"41566",577.3779,82.22781,91.95864
"41567",577.39124,81.96414,91.76459
"41568",577.40454,81.671165,91.53299
"41569",577.41785,81.392845,91.30689
"41570",577.43115,81.160904,91.11848
"41571",577.44446,80.990005,90.98386
"41572",577.45776,80.87526,90.90005
"41573",577.47107,80.799576,90.851715
"41574",577.4844,80.740974,90.8181
"41575",577.4977,80.67506,90.77534
"41576",577.511,80.59449,90.715866
"41577",577.5243,80.479744,90.6197
"41578",577.5376,80.33082,90.48576
"41579",577.5509,80.147705,90.31299
"41580",577.5642,79.94507,90.11497
"41581",577.5775,79.73266,89.90084
"41582",577.5908,79.517815,89.67764
"41583",577.6041,79.31274,89.4575
"41584",577.61743,79.12718,89.250465
"41585",577.63074,78.96117,89.057175
"41586",577.64404,78.81712,88.88067
"41587",577.65735,78.70237,88.72895
"41588",577.67065,78.61448,88.60051
"41589",577.68396,78.553444,88.49618
"41590",577.69727,78.5095,88.40703
"41591",577.7106,78.48264,88.333595
"41592",577.7239,78.46311,88.26665
"41593",577.7372,78.450905,88.20641
"41594",577.7505,78.4387,88.1458
"41595",577.7638,78.42649,88.0848
"41596",577.7771,78.41428,88.02342
"41597",577.7904,78.39231,87.9519
"41598",577.8037,78.35813,87.86748
"41599",577.817,78.30686,87.7649
"41600",577.8303,78.238495,87.64362
"41601",577.8436,78.153046,87.50313
"41602",577.85693,78.06027,87.35264
"41603",577.87024,77.97238,87.20413
"41604",577.88354,77.89914,87.06753
"41605",577.89685,77.84299,86.945724
"41606",577.91016,77.806366,86.8417
"41607",577.92346,77.77707,86.74385
"41608",577.93677,77.752655,86.64997
"41609",577.9501,77.72823,86.55532
"41610",577.9634,77.70626,86.46236
"41611",577.9767,77.68673,86.37115
"41612",577.99,77.679405,86.291534
"41613",578.0033,77.68673,86.22634
"41614",578.0166,77.71114,86.17847
"41615",578.0299,77.75754,86.153336
"41616",578.0432,77.81369,86.13941
"41617",578.0565,77.88205,86.13945
"41618",578.0698,77.95041,86.141624
"41619",578.0831,78.01877,86.145935
"41620",578.09644,78.07492,86.140175
"41621",578.10974,78.12863,86.13373
"41622",578.12305,78.17502,86.121635
"41623",578.13635,78.22385,86.113434
"41624",578.14966,78.277565,86.11165
"41625",578.16296,78.3386,86.11886
"41626",578.1763,78.42161,86.14995
"41627",578.1896,78.57786,86.256874
"41628",578.2029,78.89281,86.52738
"41629",578.2162,79.43481,87.03478
"41630",578.2295,80.218506,87.80082
"41631",578.2428,81.17311,88.76225
"41632",578.2561,82.16434,89.79014
"41633",578.2694,83.018845,90.71228
"41634",578.2827,83.59991,91.38768
"41635",578.296,83.85138,91.75165
"41636",578.3093,83.8172,91.83782
"41637",578.32263,83.580376,91.72028
"41638",578.33594,83.245895,91.49769
"41639",578.34924,82.9041,91.257324
"41640",578.36255,82.60624,91.05022
"41641",578.37585,82.38163,90.90705
"41642",578.38916,82.24246,90.84231
"41643",578.40247,82.17166,90.84158
"41644",578.4158,82.13748,90.87527
"41645",578.4291,82.10086,90.90544
"41646",578.4424,82.01785,90.888084
"41647",578.4557,81.87137,90.80466
"41648",578.469,81.6614,90.65317
"41649",578.4823,81.41482,90.4585
"41650",578.4956,81.17555,90.26345
"41651",578.5089,80.98024,90.10487
"41652",578.5222,80.84596,90.00123
"41653",578.5355,80.77028,89.95198
"41654",578.5488,80.73365,89.93942
"41655",578.56213,80.69947,89.92817
"41656",578.57544,80.655525,89.90608
"41657",578.58875,80.584724,89.85577
"41658",578.60205,80.479744,89.76906
"41659",578.61536,80.35523,89.65954
"41660",578.62866,80.216064,89.53147
"41661",578.64197,80.0647,89.386856
"41662",578.6553,79.906006,89.23019
"41663",578.6686,79.74731,89.06855
"41664",578.6819,79.59594,88.90929
"41665",578.6952,79.4519,88.75262
"41666",578.7085,79.31762,88.60121
"41667",578.7218,79.19554,88.45781
"41668",578.7351,79.08812,88.32525
"41669",578.7484,78.9807,88.18933
"41670",578.7617,78.88304,88.05982
"41671",578.775,78.802475,87.94435
"41672",578.7883,78.73899,87.843445
"41673",578.80164,78.70237,87.76742
"41674",578.81494,78.692604,87.7171
"41675",578.82825,78.69993,87.68357
"41676",578.84155,78.712135,87.65515
"41677",578.85486,78.72434,87.62711
"41678",578.86816,78.71946,87.58237
"41679",578.8815,78.69749,87.52038
"41680",578.8948,78.658424,87.44061
"41681",578.9081,78.60471,87.34498
"41682",578.9214,78.54612,87.24278
"41683",578.9347,78.49241,87.14364
"41684",578.948,78.44358,87.0477
"41685",578.9613,78.40452,86.96
"41686",578.9746,78.37034,86.87596
"41687",578.9879,78.3386,86.7933
"41688",579.0012,78.30198,86.70476
"41689",579.0145,78.26292,86.61263
"41690",579.02783,78.22385,86.51928
"41691",579.04114,78.187225,86.427155
"41692",579.05444,78.153046,86.33633
"41693",579.06775,78.12375,86.24931
"41694",579.08105,78.099335,86.16627
"41695",579.09436,78.0798,86.08734
"41696",579.10767,78.06271,86.01025
"41697",579.121,78.048065,85.93506
"41698",579.1343,78.03586,85.861855
"41699",579.1476,78.028534,85.79315
"41700",579.1609,78.02609,85.7291
"41701",579.1742,78.03342,85.67474
"41702",579.1875,78.048065,85.62794
"41703",579.2008,78.07248,85.591354
"41704",579.2141,78.101776,85.56042
"41705",579.2274,78.1384,85.53772
"41706",579.2407,78.18234,85.52349
"41707",579.254,78.24338,85.527725
"41708",579.26733,78.363014,85.59247
"41709",579.28064,78.61936,85.79766
"41710",579.29395,79.09056,86.225716
"41711",579.30725,79.80591,86.91264
"41712",579.32056,80.72144,87.82211
"41713",579.33386,81.705345,88.82856
"41714",579.34717,82.59403,89.77054
"41715",579.3605,83.22148,90.47905
"41716",579.3738,83.51934,90.87758
"41717",579.3871,83.49981,90.968025
"41718",579.4004,83.250786,90.82837
"41719",579.4137,82.87724,90.55641
"41720",579.427,82.47196,90.24104
"41721",579.4403,82.10574,89.95207
"41722",579.4536,81.82742,89.739555
"41723",579.4669,81.64431,89.61355
"41724",579.4802,81.55154,89.57216
"41725",579.4935,81.5198,89.588905
"41726",579.50684,81.51003,89.62663
"41727",579.52014,81.480736,89.64452
"41728",579.53345,81.40261,89.61267
"41729",579.54675,81.270775,89.524666
"41730",579.56006,81.10719,89.400795
"41731",579.57336,80.94606,89.27426
"41732",579.5867,80.816666,89.17443
"41733",579.6,80.73609,89.11938
"41734",579.6133,80.70435,89.11064
"41735",579.6266,80.69703,89.12533
"41736",579.6399,80.69215,89.14223
"41737",579.6532,80.672615,89.144325
"41738",579.6665,80.62867,89.1214
"41739",579.6798,80.55787,89.070244
"41740",579.6931,80.462654,88.99246
"41741",579.7064,80.343025,88.88729
"41742",579.7197,80.20386,88.75884
"41743",579.73303,80.045166,88.60652
"41744",579.74634,79.87915,88.44192
"41745",579.75964,79.71313,88.27212
"41746",579.77295,79.56176,88.111786
"41747",579.78625,79.42748,87.96381
"41748",579.79956,79.327385,87.845825
"41749",579.81287,79.2517,87.74912
"41750",579.8262,79.1931,87.66714
"41751",579.8395,79.13939,87.58821
"41752",579.8528,79.08812,87.51005
"41753",579.8661,79.03441,87.42784
"41754",579.8794,78.97826,87.341515
"41755",579.8927,78.924545,87.255875
"41756",579.906,78.87572,87.17344
"41757",579.9193,78.83421,87.0968
"41758",579.9326,78.79027,87.016426
"41759",579.9459,78.74876,86.93711
"41760",579.9592,78.70481,86.854065
"41761",579.97253,78.658424,86.767204
"41762",579.98584,78.60471,86.67157
"41763",579.99915,78.54612,86.569374
"41764",580.01245,78.4802,86.45802
"41765",580.02576,78.41428,86.34461
"41766",580.03906,78.345924,86.2267
"41767",580.05237,78.28245,86.111534
"41768",580.0657,78.22873,86.00414
"41769",580.079,78.187225,85.90729
"41770",580.0923,78.16037,85.823784
"41771",580.1056,78.150604,85.75653
"41772",580.1189,78.153046,85.70118
"41773",580.1322,78.167694,85.65811
"41774",580.1455,78.18967,85.622826
"41775",580.1588,78.21652,85.59311
"41776",580.1721,78.24582,85.56667
"41777",580.1854,78.27268,85.53872
"41778",580.1987,78.294655,85.506714
"41779",580.21204,78.31907,85.47784
"41780",580.22534,78.34348,85.44972
"41781",580.23865,78.37278,85.42725
"41782",580.25195,78.40696,85.41058
"41783",580.26526,78.44602,85.399864
"41784",580.27856,78.47532,85.3806
"41785",580.2919,78.49973,85.35737
"41786",580.3052,78.53391,85.344666
"41787",580.3185,78.63889,85.40383
"41788",580.3318,78.905014,85.62742
"41789",580.3451,79.415276,86.10346
"41790",580.3584,80.18921,86.85912
"41791",580.3717,81.143814,87.81964
"41792",580.385,82.13992,88.851494
"41793",580.3983,82.99199,89.77043
"41794",580.4116,83.5584,90.43034
"41795",580.4249,83.77814,90.76128
"41796",580.43823,83.69268,90.793884
"41797",580.45154,83.40215,90.61875
"41798",580.46484,83.0164,90.33932
"41799",580.47815,82.63065,90.04783
"41800",580.49146,82.30595,89.80533
"41801",580.50476,82.08133,89.65277
"41802",580.51807,81.9617,89.59818
"41803",580.5314,81.92264,89.62042
"41804",580.5447,81.92752,89.68539
"41805",580.558,81.93729,89.75539
"41806",580.5713,81.898224,89.77686
"41807",580.5846,81.78104,89.718994
"41808",580.5979,81.59548,89.589096
"41809",580.6112,81.36599,89.40946
"41810",580.6245,81.13893,89.22509
"41811",580.6378,80.95094,89.07269
"41812",580.6511,80.82643,88.9779
"41813",580.6644,80.75563,88.93292
"41814",580.67773,80.71412,88.91502
"41815",580.69104,80.67506,88.89828
"41816",580.70435,80.62379,88.8681
"41817",580.71765,80.55543,88.81924
