"","Time..s.","PPG.trace","Preprocessed.PPG"
"4988",89.46434,81.98367,90.804665
"4989",89.47768,81.67849,90.56147
"4990",89.49101,81.375755,90.31119
"4991",89.50435,81.12184,90.100266
"4992",89.517685,80.95094,89.964424
"4993",89.53102,80.86305,89.90625
"4994",89.54436,80.8362,89.906364
"4995",89.55769,80.833755,89.93005
"4996",89.57103,80.82155,89.9439
"4997",89.584366,80.7776,89.92563
"4998",89.5977,80.69215,89.86447
"4999",89.61104,80.570076,89.76403
"5000",89.624374,80.42359,89.63536
"5001",89.63771,80.257576,89.48258
"5002",89.65105,80.08911,89.32217
"5003",89.66438,79.920654,89.156494
"5004",89.67772,79.75708,88.99044
"5005",89.691055,79.605705,88.831474
"5006",89.70439,79.466545,88.67999
"5007",89.71773,79.33959,88.53637
"5008",89.731064,79.219955,88.396095
"5009",89.7444,79.11009,88.261856
"5010",89.75774,79.012436,88.13639
"5011",89.77107,78.92943,88.02252
"5012",89.78441,78.86595,87.92559
"5013",89.797745,78.82201,87.84621
"5014",89.81108,78.79271,87.7801
"5015",89.82442,78.77074,87.7204
"5016",89.83775,78.75365,87.664894
"5017",89.85109,78.73411,87.60641
"5018",89.864426,78.709694,87.542435
"5019",89.87776,78.68284,87.47526
"5020",89.8911,78.64622,87.39748
"5021",89.904434,78.607155,87.31611
"5022",89.91777,78.56321,87.22864
"5023",89.93111,78.51438,87.13491
"5024",89.94444,78.46555,87.03966
"5025",89.95778,78.41917,86.94532
"5026",89.971115,78.37522,86.851974
"5027",89.98445,78.33616,86.76214
"5028",89.99779,78.29954,86.67352
"5029",90.01112,78.27024,86.59109
"5030",90.02446,78.25071,86.5175
"5031",90.037796,78.24338,86.455505
"5032",90.05113,78.24582,86.40305
"5033",90.06447,78.25315,86.35557
"5034",90.077805,78.2678,86.31563
"5035",90.09114,78.28245,86.276146
"5036",90.10448,78.28733,86.227356
"5037",90.11781,78.28489,86.171394
"5038",90.13115,78.277565,86.11047
"5039",90.144485,78.26292,86.042
"5040",90.15782,78.24582,85.97062
"5041",90.17116,78.25559,85.925575
"5042",90.184494,78.35813,85.9736
"5043",90.19783,78.65354,86.217705
"5044",90.21117,79.24681,86.7689
"5045",90.2245,80.16235,87.660904
"5046",90.23784,81.31716,88.820786
"5047",90.251175,82.528114,90.0729
"5048",90.26451,83.57305,91.19684
"5049",90.27785,84.263985,91.99943
"5050",90.29118,84.52277,92.391464
"5051",90.30452,84.40803,92.41805
"5052",90.317856,84.06622,92.214
"5053",90.357864,82.97978,91.47038
"5054",90.3712,82.82109,91.40481
"5055",90.38454,82.7625,91.43437
"5056",90.39787,82.7625,91.5207
"5057",90.41121,82.76494,91.60947
"5058",90.424545,82.72343,91.65436
"5059",90.43788,82.59159,91.60763
"5060",90.45122,82.354774,91.4518
"5061",90.464554,82.02762,91.19823
"5062",90.47789,81.65896,90.89293
"5063",90.49123,81.31472,90.60053
"5064",90.50456,81.04616,90.373055
"5065",90.5179,80.88014,90.23973
"5066",90.531235,80.814224,90.20132
"5067",90.54457,80.80934,90.22188
"5068",90.55791,80.814224,90.25205
"5069",90.57124,80.799576,90.26285
"5070",90.58458,80.740974,90.22923
"5071",90.597916,80.62867,90.14008
"5072",90.61125,80.4773,90.00836
"5073",90.62459,80.29908,89.845055
"5074",90.637924,80.1062,89.66152
"5075",90.65126,79.91089,89.46953
"5076",90.6646,79.72045,89.276306
"5077",90.67793,79.53979,89.08691
"5078",90.69127,79.364006,88.89674
"5079",90.704605,79.20531,88.71817
"5080",90.71794,79.05638,88.54441
"5081",90.73128,78.92699,88.38553
"5082",90.74461,78.819565,88.244576
"5083",90.75795,78.73899,88.12711
"5084",90.771286,78.677956,88.02667
"5085",90.78462,78.63889,87.9463
"5086",90.79796,78.6096,87.874466
"5087",90.811295,78.58762,87.809044
"5088",90.82463,78.56321,87.74049
"5089",90.83797,78.53391,87.6663
"5090",90.8513,78.49973,87.5863
"5091",90.86464,78.46067,87.50036
"5092",90.877975,78.42405,87.415634
"5093",90.89131,78.38987,87.33221
"5094",90.90465,78.363014,87.255035
"5095",90.917984,78.33616,87.177025
"5096",90.93132,78.30686,87.09573
"5097",90.94466,78.277565,87.01353
"5098",90.95799,78.24582,86.927956
"5099",90.97133,78.21164,86.83896
"5100",90.984665,78.1799,86.751335
"5101",90.998,78.150604,86.66516
"5102",91.01134,78.12131,86.57807
"5103",91.02467,78.09201,86.49007
"5104",91.03801,78.07004,86.40847
"5105",91.051346,78.05295,86.33107
"5106",91.06468,78.04318,86.26046
"5107",91.07802,78.04318,86.19931
"5108",91.091354,78.05051,86.145485
"5109",91.10469,78.0676,86.101654
"5110",91.11803,78.09201,86.06568
"5111",91.13136,78.118866,86.03291
"5112",91.1447,78.14572,86.000984
"5113",91.158035,78.17502,85.972336
"5114",91.17137,78.20187,85.94216
"5115",91.18471,78.22629,85.910385
"5116",91.198044,78.24826,85.87693
"5117",91.21138,78.26536,85.83929
"5118",91.22472,78.2678,85.78752
"5119",91.23805,78.25559,85.72118
"5120",91.25139,78.23605,85.64713
"5121",91.264725,78.23361,85.58957
"5122",91.27806,78.30442,85.60518
"5123",91.2914,78.57053,85.818306
"5124",91.30473,79.14671,86.349815
"5125",91.31807,80.079346,87.25578
"5126",91.331406,81.30007,88.47899
"5127",91.34474,82.633095,89.85264
"5128",91.35808,83.82941,91.13123
"5129",91.371414,84.66682,92.08831
"5130",91.38475,85.04768,92.61501
"5131",91.39809,85.015945,92.74101
"5132",91.41142,84.70344,92.58525
"5133",91.42476,84.27863,92.30743
"5134",91.438095,83.87335,92.03585
"5135",91.45143,83.56573,91.849266
"5136",91.46477,83.38262,91.77759
"5137",91.4781,83.3167,91.817375
"5138",91.49144,83.32891,91.93323
"5139",91.504776,83.370415,92.07876
"5140",91.51811,83.38262,92.19629
"5141",91.53145,83.31182,92.23119
"5142",91.544785,83.13359,92.156456
"5143",91.55812,82.84062,91.96141
"5144",91.57146,82.46952,91.67908
"5145",91.58479,82.06912,91.35585
"5146",91.59813,81.705345,91.05673
"5147",91.611465,81.427025,90.8317
"5148",91.6248,81.248795,90.69807
"5149",91.63814,81.15846,90.64676
"5150",91.651474,81.12184,90.64634
"5151",91.66481,81.0901,90.64966
"5152",91.67815,81.03639,90.63001
"5153",91.69148,80.94118,90.567184
"5154",91.70482,80.80446,90.45988
"5155",91.718155,80.635994,90.31655
"5156",91.73149,80.44312,90.143555
"5157",91.74483,80.25025,89.96453
"5158",91.75816,80.05737,89.77947
"5159",91.7715,79.869385,89.59328
"5160",91.784836,79.69604,89.41585
"5161",91.79817,79.534904,89.24522
"5162",91.81151,79.39086,89.08664
"5163",91.824844,79.26147,88.93821
"5164",91.83818,79.151596,88.80526
"5165",91.85152,79.04906,88.67621
"5166",91.86485,78.96117,88.5586
"5167",91.87819,78.8806,88.44557
"5168",91.891525,78.81224,88.34223
"5169",91.90486,78.75365,88.24652
"5170",91.9182,78.70725,88.16118
"5171",91.93153,78.67063,88.08416
"5172",91.94487,78.63401,88.006
"5173",91.958206,78.59739,87.92669
"5174",91.97154,78.56077,87.84624
"5175",91.98488,78.521706,87.7622
"5176",91.998215,78.47776,87.67206
"5177",92.01155,78.43137,87.5781
"5178",92.02489,78.38499,87.4827
"5179",92.03822,78.3386,87.38584
"5180",92.05156,78.29221,87.28754
"5181",92.064896,78.25071,87.192665
"5182",92.07823,78.2092,87.09649
"5183",92.09157,78.167694,86.99902
"5184",92.104904,78.12863,86.9027
"5185",92.11824,78.08957,86.80516
"5186",92.13158,78.048065,86.70396
"5187",92.14491,78.011444,86.60634
"5188",92.15825,77.98215,86.5149
"5189",92.171585,77.95529,86.42499
"5190",92.18492,77.943085,86.348885
"5191",92.19826,77.94064,86.282166
"5192",92.21159,77.95041,86.22758
"5193",92.22493,77.96994,86.18306
"5194",92.238266,77.98947,86.13915
"5195",92.2516,78.00656,86.093414
"5196",92.26494,78.02121,86.04577
"5197",92.278275,78.02121,85.98393
"5198",92.29161,78.01633,85.91721
"5199",92.30495,78.013885,85.85278
"5200",92.31828,78.011444,85.78828
"5201",92.33162,78.01633,85.73102
"5202",92.344955,78.030975,85.68368
"5203",92.35829,78.05539,85.64656
"5204",92.37163,78.08957,85.61997
"5205",92.384964,78.12619,85.59689
"5206",92.3983,78.16281,85.57496
"5207",92.41164,78.20187,85.55661
"5208",92.42497,78.24094,85.53948
"5209",92.43831,78.27268,85.51626
"5210",92.451645,78.29221,85.48181
"5211",92.46498,78.30198,85.43821
"5212",92.47832,78.30198,85.38515
"5213",92.49165,78.331276,85.36138
"5214",92.50499,78.4802,85.45816
"5215",92.518326,78.887924,85.81839
"5216",92.53166,79.65453,86.55025
"5217",92.545,80.780045,87.66496
"5218",92.558334,82.142365,89.05166
"5219",92.57167,83.51446,90.4907
"5220",92.58501,84.6424,91.72847
"5221",92.59834,85.330894,92.562035
"5222",92.61168,85.53353,92.93126
"5223",92.625015,85.34066,92.91131
"5224",92.63835,84.90608,92.64362
"5225",92.65169,84.39338,92.28423
"5226",92.66502,83.92706,91.95521
"5227",92.67836,83.577934,91.7288
"5228",92.691696,83.372856,91.63553
"5229",92.70503,83.299614,91.66769
"5230",92.71837,83.31182,91.783005
"5231",92.731705,83.346,91.92068
"5232",92.74504,83.34356,92.0228
"5233",92.75838,83.24834,92.03206
"5234",92.77171,83.035934,91.921165
"5235",92.78505,82.720985,91.70109
"5236",92.798386,82.34989,91.41502
"5237",92.81172,81.97879,91.117355
"5238",92.82506,81.6614,90.8618
"5239",92.838394,81.42947,90.681786
"5240",92.85173,81.287865,90.584854
"5241",92.86507,81.21706,90.55429
"5242",92.8784,81.17555,90.55082
"5243",92.89174,81.129166,90.54117
"5244",92.905075,81.05348,90.50077
"5245",92.91841,80.93141,90.41162
"5246",92.93175,80.77028,90.279594
"5247",92.94508,80.584724,90.11811
"5248",92.95842,80.38209,89.93375
"5249",92.971756,80.177,89.7406
"5250",92.98509,79.97925,89.54838
"5251",92.99843,79.78882,89.3573
"5252",93.011765,79.61059,89.17247
"5253",93.0251,79.447014,88.99673
"5254",93.03844,79.29809,88.83052
"5255",93.05177,79.16136,88.67186
"5256",93.06511,79.03685,88.52114
"5257",93.078445,78.922104,88.3763
"5258",93.09178,78.819565,88.240074
"5259",93.10512,78.73167,88.11529
"5260",93.118454,78.66331,88.00729
"5261",93.13179,78.61204,87.91425
"5262",93.14513,78.57542,87.83426
"5263",93.15846,78.54368,87.758
"5264",93.1718,78.51438,87.6832
"5265",93.185135,78.47776,87.60015
"5266",93.19847,78.4387,87.51352
"5267",93.21181,78.397194,87.423225
"5268",93.22514,78.35569,87.331635
"5269",93.23848,78.30686,87.23142
"5270",93.251816,78.260475,87.132126
"5271",93.26515,78.2092,87.02649
"5272",93.27849,78.16037,86.9217
"5273",93.291824,78.11154,86.815384
"5274",93.30516,78.07492,86.71975
"5275",93.3185,78.04318,86.62785
"5276",93.33183,78.013885,86.53741
"5277",93.34517,77.98703,86.44849
"5278",93.358505,77.95773,86.356285
"5279",93.37184,77.93088,86.26561
"5280",93.38518,77.908905,86.17898
"5281",93.39851,77.8967,86.101425
"5282",93.41185,77.8967,86.0357
"5283",93.425186,77.90646,85.97974
"5284",93.43852,77.92111,85.92896
"5285",93.45186,77.943085,85.88597
"5286",93.465195,77.962616,85.841225
"5287",93.47853,77.979706,85.79465
"5288",93.49187,78.00412,85.75593
"5289",93.5052,78.03586,85.725296
"5290",93.51854,78.07004,85.6981
"5291",93.531876,78.10666,85.67441
"5292",93.54521,78.14328,85.65186
"5293",93.55855,78.170135,85.6207
"5294",93.571884,78.18234,85.57572
"5295",93.58522,78.184784,85.52136
"5296",93.59856,78.18234,85.4622
"5297",93.61189,78.17258,85.39563
"5298",93.62523,78.1799,85.34585
"5299",93.638565,78.26536,85.37443
"5300",93.6519,78.54368,85.59854
"5301",93.66524,79.12474,86.134094
"5302",93.67857,80.0647,87.0467
"5303",93.69191,81.290306,88.27433
"5304",93.705246,82.62333,89.647675
"5305",93.71858,83.82941,90.93573
"5306",93.73192,84.68391,91.9099
"5307",93.745255,85.07698,92.44934
"5308",93.75859,85.03792,92.56893
"5309",93.77193,84.69611,92.38456
"5310",93.78526,84.20538,92.04058
"5311",93.7986,83.69756,91.66418
"5312",93.811935,83.265434,91.347595
"5313",93.82527,82.95537,91.13957
"5314",93.83861,82.76982,91.04638
"5315",93.851944,82.68925,91.05236
"5316",93.86528,82.66239,91.10954
"5317",93.87862,82.64286,91.17321
"5318",93.89195,82.57206,91.185
"5319",93.90529,82.425575,91.11889
"5320",93.918625,82.196075,90.96519
"5321",93.93196,81.9202,90.757935
"5322",93.9453,81.651634,90.54938
"5323",93.95863,81.43435,90.383705
"5324",93.97197,81.28542,90.2796
"5325",93.985306,81.20973,90.24408
"5326",93.99864,81.17311,90.24526
"5327",94.01198,81.14137,90.25018
"5328",94.025314,81.08522,90.2297
"5329",94.03865,80.99245,90.17084
"5330",94.05199,80.86061,90.070015
"5331",94.06532,80.69947,89.93577
"5332",94.07866,80.52125,89.7794
"5333",94.091995,80.3357,89.610146
"5334",94.10533,80.15503,89.439964
"5335",94.11867,79.98169,89.27147
"5336",94.132,79.82056,89.109764
"5337",94.14534,79.67162,88.95522
"5338",94.158676,79.52514,88.79848
"5339",94.17201,79.378654,88.63715
"5340",94.18535,79.2224,88.46148
"5341",94.198685,79.0515,88.26628
"5342",94.21202,78.86107,88.04621
"5343",94.22536,78.66575,87.8153
"5344",94.23869,78.47532,87.583176
"5345",94.25203,78.314186,87.3744
"5346",94.265366,78.19943,87.20696
"5347",94.2787,78.135956,87.08722
"5348",94.29204,78.116425,87.00944
"5349",94.305374,78.12863,86.96278
"5350",94.31871,78.153046,86.92872
"5351",94.33205,78.17502,86.892975
"5352",94.34538,78.18967,86.85059
"5353",94.35872,78.19455,86.798904
"5354",94.372055,78.187225,86.73516
"5355",94.38539,78.17258,86.663864
"5356",94.39873,78.153046,86.58723
"5357",94.41206,78.13107,86.50754
"5358",94.4254,78.1091,86.42716
"5359",94.438736,78.08957,86.34854
"5360",94.45207,78.07492,86.27419
"5361",94.46541,78.06027,86.19939
"5362",94.478745,78.05051,86.129005
"5363",94.49208,78.048065,86.06564
"5364",94.50542,78.05539,86.01197
"5365",94.51875,78.07492,85.97073
"5366",94.53209,78.10422,85.93987
"5367",94.545425,78.14084,85.91725
"5368",94.55876,78.1799,85.89822
"5369",94.5721,78.21896,85.8804
"5370",94.585434,78.25559,85.861374
"5371",94.59877,78.28733,85.8386
"5372",94.61211,78.311745,85.809494
"5373",94.62544,78.32639,85.771385
"5374",94.63878,78.32395,85.716644
"5375",94.652115,78.31663,85.656944
"5376",94.66545,78.3093,85.597015
"5377",94.67879,78.34348,85.57836
"5378",94.69212,78.49973,85.682846
"5379",94.70546,78.905014,86.041245
"5380",94.718796,79.65209,86.754105
"5381",94.73213,80.73609,87.82723
"5382",94.74547,82.03006,89.1442
"5383",94.758804,83.32891,90.50649
"5384",94.77214,84.39094,91.67255
"5385",94.78548,85.02815,92.446976
"5386",94.79881,85.20882,92.78477
"5387",94.81215,85.015945,92.75467
"5388",94.825485,84.6009,92.49637
"5389",94.83882,84.10773,92.14697
"5390",94.85216,83.6585,91.82611
"5391",94.86549,83.3167,91.59864
"5392",94.87883,83.104294,91.489876
"5393",94.892166,83.01152,91.49411
"5394",94.9055,82.99443,91.57113
"5395",94.91884,83.004196,91.67447
"5396",94.932175,82.97734,91.74149
"5397",94.94551,82.87236,91.72955
"5398",94.95885,82.669716,91.61667
"5399",94.97218,82.38407,91.41445
"5400",94.98552,82.056915,91.1618
"5401",94.998856,81.74441,90.91357
"5402",95.01219,81.50271,90.72638
"5403",95.02553,81.34646,90.61709
"5404",95.038864,81.270775,90.58348
"5405",95.0522,81.24147,90.59389
"5406",95.06554,81.2195,90.61071
"5407",95.07887,81.16823,90.59755
"5408",95.09221,81.07301,90.53884
"5409",95.105545,80.938736,90.438095
"5410",95.11888,80.77028,90.29897
"5411",95.13222,80.57496,90.12772
"5412",95.14555,80.36988,89.94061
"5413",95.15889,80.16724,89.74953
"5414",95.172226,79.96948,89.557
"5415",95.18556,79.781494,89.36806
"5416",95.1989,79.61059,89.19032
"5417",95.212234,79.45922,89.02679
"5418",95.22557,79.31762,88.868286
"5419",95.23891,79.18822,88.71756
"5420",95.25224,79.06859,88.57256
"5421",95.26558,78.96849,88.44336
"5422",95.278915,78.88304,88.325676
"5423",95.29225,78.81712,88.22485
"5424",95.30559,78.765854,88.13662
"5425",95.318924,78.73411,88.06631
"5426",95.33226,78.709694,88.002335
"5427",95.3456,78.6804,87.93272
"5428",95.35893,78.643776,87.85486
"5429",95.37227,78.59495,87.76365
"5430",95.385605,78.53147,87.656265
"5431",95.39894,78.45823,87.53713
"5432",95.41228,78.39231,87.423035
"5433",95.42561,78.331276,87.31176
"5434",95.43895,78.27512,87.20346
"5435",95.452286,78.22629,87.10072
"5436",95.46562,78.18234,87.00135
"5437",95.47896,78.135956,86.89816
"5438",95.492294,78.09201,86.79597
"5439",95.50563,78.048065,86.6924
"5440",95.51897,78.00168,86.585014
"5441",95.5323,77.95529,86.47618
"5442",95.54564,77.91135,86.36834
"5443",95.558975,77.87717,86.26889
"5444",95.57231,77.84787,86.173256
"5445",95.58565,77.83078,86.08891
"5446",95.59898,77.82834,86.018684
"5447",95.61232,77.840546,85.96303
"5448",95.625656,77.86252,85.91752
"5449",95.63899,77.88937,85.87758
"5450",95.65233,77.92111,85.84336
"5451",95.665665,77.95285,85.810135
"5452",95.679,77.97482,85.768135
"5453",95.69234,77.99191,85.72194
"5454",95.70567,78.00656,85.673836
"5455",95.71901,78.01877,85.62375
"5456",95.732346,78.02121,85.56428
"5457",95.74568,78.02121,85.50244
"5458",95.75902,78.01633,85.43572
"5459",95.772354,78.013885,85.37129
"5460",95.78569,78.02121,85.31655
"5461",95.79903,78.03342,85.26692
"5462",95.81236,78.04562,85.217674
"5463",95.8257,78.048065,85.15904
"5464",95.839035,78.0383,85.08828
"5465",95.85237,78.013885,85.00256
"5466",95.86571,77.99924,84.92585
"5467",95.87904,78.07004,84.93413
"5468",95.89238,78.3679,85.17168
"5469",95.905716,79.01732,85.770096
"5470",95.91905,80.062256,86.784325
"5471",95.93239,81.41726,88.14127
"5472",95.945724,82.879684,89.64799
"5473",95.95906,84.1712,91.029495
"5474",95.9724,85.050125,92.038765
"5475",95.98573,85.418785,92.56524
"5476",95.99907,85.32845,92.64424
"5477",96.012405,84.93294,92.41524
"5478",96.02574,84.41047,92.04692
"5479",96.03908,83.90997,91.68425
"5480",96.052414,83.52178,91.41824
"5481",96.06575,83.28008,91.2866
"5482",96.07909,83.18242,91.291435
"5483",96.09242,83.18974,91.39821
"5484",96.10576,83.245895,91.55404
"5485",96.119095,83.29229,91.701866
"5486",96.13243,83.27032,91.782776
"5487",96.14577,83.13603,91.75069
"5488",96.1591,82.88701,91.59966
"5489",96.17244,82.55497,91.35784
"5490",96.185776,82.193634,91.07635
"5491",96.19911,81.8616,90.81287
"5492",96.21245,81.61013,90.61957
"5493",96.225784,81.45144,90.51119
"5494",96.23912,81.36843,90.47354
"5495",96.25246,81.324486,90.47236
"5496",96.26579,81.287865,90.47713
"5497",96.27913,81.22926,90.45877
"5498",96.292465,81.13893,90.40685
"5499",96.3058,81.007095,90.31061
"5500",96.31914,80.848404,90.18339
"5501",96.33247,80.66529,90.02679
"5502",96.34581,80.47242,89.854706
"5503",96.359146,80.27711,89.67416
"5504",96.37248,80.08667,89.49238
"5505",96.38582,79.906006,89.31442
"5506",96.399155,79.7351,89.14058
"5507",96.41249,79.57641,88.97361
"5508",96.42583,79.42748,88.81145
"5509",96.43916,79.293205,88.65928
"5510",96.4525,79.17601,88.52
"5511",96.465836,79.078354,88.39659
"5512",96.47917,78.99779,88.287224
"5513",96.49251,78.92699,88.185104
"5514",96.505844,78.86107,88.085655
"5515",96.51918,78.802475,87.99147
"5516",96.53252,78.746315,87.89789
"5517",96.54585,78.692604,87.805
"5518",96.55919,78.643776,87.71532
"5519",96.572525,78.59739,87.62655
"5520",96.58586,78.555885,87.541214
"5521",96.5992,78.51682,87.45702
"5522",96.61253,78.47776,87.37161
"5523",96.62587,78.43626,87.28254
"5524",96.639206,78.39231,87.18973
"5525",96.65254,78.345924,87.0931
"5526",96.66588,78.29221,86.9877
"5527",96.679214,78.238495,86.880615
"5528",96.69255,78.18967,86.77674
"5529",96.70589,78.150604,86.68111
"5530",96.71922,78.11154,86.58425
"5531",96.73256,78.082245,86.49594
"5532",96.745895,78.05783,86.4116
"5533",96.75923,78.030975,86.32405
"5534",96.77257,78.00656,86.238106
"5535",96.785904,77.98947,86.15872
"5536",96.79924,77.97482,86.081245
"5537",96.81258,77.96506,86.008194
"5538",96.82591,77.960175,85.93972
"5539",96.83925,77.960175,85.87598
"5540",96.852585,77.9675,85.81956
"5541",96.86592,77.98215,85.77069
"5542",96.87926,78.00168,85.727165
"5543",96.89259,78.02609,85.68913
"5544",96.90593,78.048065,85.64942
"5545",96.919266,78.07004,85.6104
"5546",96.9326,78.08713,85.56718
"5547",96.94594,78.10422,85.52449
"5548",96.959274,78.12619,85.48722
"5549",96.97261,78.15793,85.4604
"5550",96.98595,78.19455,85.43946
"5551",96.99928,78.238495,85.42699
"5552",97.01262,78.28977,85.42322
"5553",97.025955,78.34104,85.42104
"5554",97.03929,78.38987,85.41803
"5555",97.05263,78.43626,85.4141
"5556",97.06596,78.47776,85.40674
"5557",97.0793,78.50706,85.388466
"5558",97.092636,78.52415,85.3589
"5559",97.10597,78.55833,85.34696
"5560",97.11931,78.70481,85.448395
"5561",97.132645,79.10765,85.81076
"5562",97.14598,79.88159,86.556816
"5563",97.15932,81.04372,87.71524
"5564",97.17265,82.46952,89.17366
"5565",97.18599,83.93683,90.71814
"5566",97.199326,85.16731,92.07165
"5567",97.21266,85.95346,93.01927
"5568",97.226,86.2269,93.47875
"5569",97.239334,86.06821,93.51465
"5570",97.25267,85.63607,93.27214
"5571",97.26601,85.08919,92.90138
"5572",97.27934,84.56428,92.53551
"5573",97.29268,84.15411,92.267975
"5574",97.306015,83.888,92.131676
"5575",97.31935,83.75372,92.1189
"5576",97.33269,83.72198,92.20445
"5577",97.34602,83.734184,92.33297
"5578",97.35936,83.7293,92.44478
"5579",97.372696,83.64629,92.47831
"5580",97.38603,83.45342,92.39938
"5581",97.39937,83.15556,92.20944
"5582",97.412704,82.78691,91.9394
"5583",97.42604,82.4036,91.64318
"5584",97.43938,82.06424,91.37893
"5585",97.45271,81.81033,91.18953
"5586",97.46605,81.64675,91.08252
"5587",97.479385,81.55154,91.038765
"5588",97.49272,81.495384,91.0311
"5589",97.50606,81.43191,91.01435
"5590",97.519394,81.34646,90.97365
"5591",97.53273,81.2195,90.88876
"5592",97.54607,81.05104,90.758415
"5593",97.5594,80.85573,90.59595
"5594",97.57274,80.6482,90.41516
"5595",97.586075,80.43336,90.22057
"5596",97.59941,80.218506,90.019264
"5597",97.61275,80.01587,89.823456
"5598",97.62608,79.82544,89.63352
"5599",97.63942,79.64721,89.44984
"5600",97.652756,79.49096,89.28256
"5601",97.66609,79.3518,89.127495
"5602",97.67943,79.22972,88.98516
"5603",97.692764,79.11742,88.848785
"5604",97.7061,79.01976,88.72355
"5605",97.71944,78.93187,88.60503
"5606",97.73277,78.85863,88.498405
"5607",97.74611,78.80003,88.404144
"5608",97.759445,78.75365,88.32026
"5609",97.77278,78.71458,88.24224
"5610",97.78612,78.67307,88.16057
"5611",97.79945,78.63401,88.08004
"5612",97.81279,78.59495,87.99829
"5613",97.826126,78.54856,87.908
"5614",97.83946,78.49973,87.81381
"5615",97.8528,78.45335,87.72054
"5616",97.866135,78.399635,87.6185
"5617",97.87947,78.345924,87.51478
"5618",97.89281,78.28977,87.40694
"5619",97.90614,78.23361,87.29733
"5620",97.91948,78.17746,87.18598
"5621",97.932816,78.12619,87.07776
"5622",97.94615,78.07492,86.96793
"5623",97.95949,78.028534,86.86139
"5624",97.972824,77.99191,86.76316
"5625",97.98616,77.960175,86.66867
"5626",97.9995,77.93576,86.58051
"5627",98.01283,77.92111,86.50136
"5628",98.02617,77.908905,86.42419
"5629",98.039505,77.90158,86.35152
"5630",98.05284,77.89914,86.2835
"5631",98.06618,77.90646,86.225174
"5632",98.07951,77.92111,86.1744
"5633",98.09285,77.9382,86.126526
"5634",98.106186,77.960175,86.08407
"5635",98.11952,77.977264,86.037415
"5636",98.13286,77.99191,85.98885
"5637",98.146194,78.00412,85.93831
"5638",98.15953,78.01877,85.89059
"5639",98.17287,78.03342,85.84332
"5640",98.1862,78.05295,85.8014
"5641",98.19954,78.07004,85.757645
"5642",98.212875,78.09445,85.72175
"5643",98.22621,78.12131,85.68906
"5644",98.23955,78.14816,85.6572
"5645",98.252884,78.17258,85.62375
"5646",98.26622,78.19455,85.588615
"5647",98.27956,78.20187,85.53952
"5648",98.29289,78.19943,85.48089
"5649",98.30623,78.19455,85.41974
"5650",98.319565,78.22385,85.39262
"5651",98.3329,78.39231,85.50558
"5652",98.34624,78.84154,85.904564
"5653",98.35957,79.67162,86.69845
"5654",98.37291,80.87038,87.88694
"5655",98.386246,82.30595,89.34971
"5656",98.39958,83.73907,90.85489
"5657",98.41292,84.89876,92.131424
"5658",98.426254,85.59701,92.98276
"5659",98.43959,85.79721,93.357864
"5660",98.45293,85.592125,93.33394
"5661",98.46626,85.138016,93.05458
"5662",98.4796,84.58137,92.65849
"5663",98.492935,84.051575,92.271866
"5664",98.50627,83.61944,91.96634
"5665",98.51961,83.32403,91.784035
"5666",98.53294,83.160446,91.72433
"5667",98.54628,83.11162,91.77426
"5668",98.559616,83.12138,91.88126
"5669",98.57295,83.13603,91.993454
"5670",98.58629,83.09697,92.05239
"5671",98.599625,82.97734,92.02954
"5672",98.61296,82.78447,91.92971
"5673",98.6263,82.55253,91.78478
"5674",98.63963,82.32548,91.6375
"5675",98.65297,82.14725,91.53194
"5676",98.666306,82.0325,91.48429
"5677",98.67964,81.96414,91.47945
"5678",98.69298,81.917755,91.49444
"5679",98.706314,81.85916,91.49577
"5680",98.71965,81.76395,91.45866
"5681",98.73299,81.62478,91.37461
"5682",98.74632,81.44167,91.24228
"5683",98.75966,81.22194,91.0676
"5684",98.772995,80.98512,90.868965
"5685",98.78633,80.73853,90.65316
"5686",98.79967,80.49683,90.43454
"5687",98.813,80.2649,90.21813
"5688",98.82634,80.05493,90.01644
"5689",98.839676,79.86206,89.82529
"5690",98.85301,79.691154,89.65007
"5691",98.86635,79.534904,89.48417
"5692",98.879684,79.39086,89.32559
"5693",98.89302,79.256584,89.17228
"5694",98.90636,79.12962,89.02209
"5695",98.91969,79.01732,88.88258
"5696",98.93303,78.924545,88.7591
"5697",98.946365,78.84886,88.64981
"5698",98.9597,78.78783,88.5528
"5699",98.97304,78.746315,88.47341
"5700",98.986374,78.70725,88.39517
"5701",98.99971,78.66575,88.31327
"5702",99.01305,78.61448,88.22031
"5703",99.02638,78.555885,88.118416
"5704",99.03972,78.49485,88.01225
"5705",99.053055,78.43137,87.90174
"5706",99.06639,78.37278,87.79413
"5707",99.07973,78.31907,87.68957
"5708",99.09306,78.27024,87.58821
"5709",99.1064,78.21652,87.48044
"5710",99.119736,78.16281,87.370995
"5711",99.13307,78.1091,87.25987
"5712",99.14641,78.06271,87.154396
"5713",99.159744,78.02365,87.054794
"5714",99.17308,77.99191,86.961296
"5715",99.18642,77.96994,86.87657
"5716",99.19975,77.95773,86.80093
"5717",99.21309,77.95529,86.734665
"5718",99.226425,77.95773,86.67321
"5719",99.23976,77.96994,86.6216
"5720",99.2531,77.99191,86.58013
"5721",99.26643,78.01877,86.544235
"5722",99.27977,78.04562,86.50918
"5723",99.293106,78.07492,86.4774
"5724",99.30644,78.101776,86.4441
"5725",99.31978,78.12131,86.40431
"5726",99.333115,78.12863,86.35293
"5727",99.34645,78.12619,86.29201
"5728",99.35979,78.11398,86.221245
"5729",99.37312,78.09689,86.14522
"5730",99.38646,78.08957,86.07842
"5731",99.399796,78.135956,86.06511
"5732",99.41313,78.345924,86.21683
"5733",99.42647,78.84642,86.665634
"5734",99.439804,79.710686,87.49385
"5735",99.45314,80.902115,88.67624
"5736",99.46648,82.269325,90.07164
"5737",99.47981,83.57549,91.44872
"5738",99.49315,84.57404,92.559006
"5739",99.506485,85.120926,93.248825
"5740",99.51982,85.21126,93.49918
"5741",99.53316,84.95735,93.40813
"5742",99.54649,84.5008,93.10649
"5743",99.55983,83.99786,92.7442
"5744",99.573166,83.5584,92.42967
"5745",99.5865,83.23857,92.22104
"5746",99.59984,83.05058,92.134254
"5747",99.613174,82.98222,92.161224
"5748",99.62651,82.98711,92.2593
"5749",99.63985,83.001755,92.367294
"5750",99.65318,82.96269,92.422035
"5751",99.66652,82.8333,92.38522
"5752",99.679855,82.60624,92.246704
"5753",99.69319,82.303505,92.02541
"5754",99.70653,81.969025,91.76292
"5755",99.719864,81.671165,91.52659
"5756",99.7332,81.449,91.35664
"5757",99.74654,81.31472,91.26765
"5758",99.75987,81.25124,91.245255
"5759",99.77321,81.22682,91.25993
"5760",99.786545,81.20241,91.27386
"5761",99.79988,81.146255,91.25528
"5762",99.81322,81.0486,91.19344
"5763",99.82655,80.90456,91.08217
"5764",99.83989,80.72877,90.93465
"5765",99.853226,80.52613,90.75478
"5766",99.86656,80.31129,90.55638
"5767",99.8799,80.096436,90.35126
"5768",99.893234,79.89136,90.14919
"5769",99.90657,79.70092,89.95536
"5770",99.91991,79.520256,89.76535
"5771",99.93324,79.35912,89.589226
"5772",99.94658,79.21507,89.42515
"5773",99.959915,79.08812,89.27367
"5774",99.97325,78.9807,89.13775
"5775",99.98659,78.890366,89.015564
"5776",99.99992,78.81468,88.905205
"5777",100.01326,78.74876,88.80224
"5778",100.026596,78.69749,88.71187
"5779",100.03993,78.65354,88.62722
"5780",100.05327,78.61448,88.54608
"5781",100.066605,78.58274,88.47105
"5782",100.07994,78.553444,88.39746
"5783",100.09328,78.51682,88.315636
"5784",100.10661,78.47776,88.230225
"5785",100.11995,78.43626,88.14115
"5786",100.133286,78.38743,88.04346
"5787",100.14662,78.33372,87.939354
"5788",100.15996,78.28489,87.838455
"5789",100.173294,78.238495,87.738464
"5790",100.18663,78.18967,87.63459
"5791",100.19997,78.14572,87.53407
"5792",100.2133,78.1091,87.43951
"5793",100.22664,78.07492,87.34624
"5794",100.239975,78.048065,87.259224
"5795",100.25331,78.02609,87.176254
"5796",100.26665,78.009,87.09748
"5797",100.27998,77.99191,87.01817
"5798",100.29332,77.97238,86.93589
"5799",100.306656,77.95773,86.85788
"5800",100.31999,77.95041,86.786736
"5801",100.33333,77.95285,86.72513
"5802",100.346664,77.960175,86.66848
"5803",100.36,77.97238,86.61694
"5804",100.37334,77.98703,86.56823
"5805",100.38667,78.00412,86.522415
"5806",100.40001,78.02121,86.477135
"5807",100.413345,78.04562,86.43971
"5808",100.42668,78.07736,86.41038
"5809",100.44002,78.1091,86.382034
"5810",100.453354,78.1384,86.35224
"5811",100.46669,78.16037,86.31604
"5812",100.48003,78.17258,86.27076
"5813",100.49336,78.170135,86.21121
"5814",100.5067,78.16281,86.146706
"5815",100.520035,78.15549,86.08197
"5816",100.53337,78.19455,86.06339
"5817",100.54671,78.37766,86.19009
"5818",100.56004,78.84154,86.603264
"5819",100.57338,79.676506,87.40203
"5820",100.586716,80.8777,88.59312
"5821",100.60005,82.30106,90.04391
"5822",100.61339,83.71465,91.5294
"5823",100.626724,84.84993,92.78076
"5824",100.64006,85.53597,93.61836
"5825",100.6534,85.74349,93.99888
"5826",100.66673,85.575035,94.0099
"5827",100.68007,85.19173,93.80081
"5828",100.693405,84.7596,93.53092
"5829",100.70674,84.3885,93.308556
"5830",100.72008,84.14191,93.199104
"5831",100.73341,84.0296,93.21623
"5832",100.74675,84.02472,93.33727
"5833",100.760086,84.08331,93.52164
"5834",100.77342,84.14191,93.70783
"5835",100.78676,84.137024,93.83238
"5836",100.800095,84.01984,93.844475
"5837",100.81343,83.773254,93.72351
"5838",100.82677,83.41924,93.48741
"5839",100.8401,83.001755,93.17677
"5840",100.85344,82.58427,92.85309
"5841",100.866776,82.22781,92.57739
"5842",100.88011,81.971466,92.39066
"5843",100.89345,81.81766,92.29846
"5844",100.906784,81.739525,92.27713
"5845",100.92012,81.69314,92.2851
"5846",100.93346,81.64187,92.28674
"5847",100.94679,81.54665,92.242836
"5848",100.96013,81.40261,92.147125
"5849",100.973465,81.21217,92.00052
"5850",100.9868,80.990005,91.81623
"5851",101.00014,80.75563,91.61279
"5852",101.01347,80.52369,91.404465
"5853",101.02681,80.29908,91.19622
"5854",101.040146,80.08911,90.9956
"5855",101.05348,79.89136,90.80063
"5856",101.06682,79.708244,90.61412
"5857",101.080154,79.52758,90.42434
"5858",101.09349,79.35912,90.24112
"5859",101.10683,79.20531,90.067276
"5860",101.12016,79.06859,89.90572
"5861",101.1335,78.95384,89.76187
"5862",101.146835,78.86107,89.636406
"5863",101.16017,78.79027,89.530014
"5864",101.17351,78.73167,89.43361
"5865",101.186844,78.677956,89.34026
"5866",101.20018,78.624245,89.24524
"5867",101.21352,78.56565,89.143654
"5868",101.22685,78.49973,89.03291
"5869",101.24019,78.43137,88.91767
"5870",101.253525,78.363014,88.80029
"5871",101.26686,78.294655,88.68078
"5872",101.2802,78.22385,88.55668
"5873",101.29353,78.15549,88.432816
"5874",101.30687,78.08713,88.306816
"5875",101.320206,78.01877,88.17868
"5876",101.33354,77.95285,88.05085
"5877",101.34688,77.88693,87.92096
"5878",101.360214,77.8259,87.79389
"5879",101.37355,77.769745,87.6698
"5880",101.38689,77.713585,87.543945
"5881",101.40022,77.6672,87.42611
"5882",101.41356,77.63058,87.31659
"5883",101.426895,77.60372,87.21569
"5884",101.44023,77.57931,87.116394
"5885",101.45357,77.557335,87.018776
"5886",101.4669,77.5378,86.92291
"5887",101.48024,77.523155,86.83132
"5888",101.493576,77.51583,86.7466
"5889",101.50691,77.51583,86.66897
"5890",101.52025,77.51827,86.59378
"5891",101.533585,77.53048,86.528435
"5892",101.54692,77.540245,86.46103
"5893",101.56026,77.54269,86.386604
"5894",101.57359,77.54269,86.309814
"5895",101.58693,77.54269,86.233025
"5896",101.600266,77.54513,86.158676
"5897",101.6136,77.54513,86.08196
"5898",101.62694,77.55245,86.01257
"5899",101.640274,77.57198,85.95562
"5900",101.65361,77.591515,85.89928
"5901",101.66695,77.608604,85.8411
"5902",101.68028,77.625694,85.78346
"5903",101.69362,77.64767,85.73124
"5904",101.706955,77.66964,85.6797
"5905",101.72029,77.70138,85.63862
"5906",101.73363,77.74044,85.60585
"5907",101.74696,77.789276,85.584076
"5908",101.7603,77.838104,85.56382
"5909",101.773636,77.87717,85.535324
"5910",101.78697,77.89914,85.49096
"5911",101.80031,77.90646,85.43263
"5912",101.813644,77.90402,85.36477
"5913",101.82698,77.925995,85.32124
"5914",101.84032,78.0676,85.39803
"5915",101.85365,78.47288,85.74293
"5916",101.86699,79.25414,86.47647
"5917",101.880325,80.42603,87.62505
"5918",101.89366,81.87381,89.08614
"5919",101.907,83.370415,90.641304
"5920",101.920334,84.6424,92.018616
"5921",101.93367,85.47982,93.00111
"5922",101.94701,85.80698,93.499504
"5923",101.96034,85.70199,93.57598
"5924",101.97368,85.32601,93.37819
"5925",101.987015,84.84749,93.0661
"5926",102.00035,84.41047,92.78056
"5927",102.01369,84.09796,92.60588
"5928",102.02702,83.929504,92.56548
"5929",102.04036,83.888,92.646774
"5930",102.053696,83.92706,92.807335
"5931",102.06703,83.99054,92.99353
"5932",102.08037,84.01007,93.137764
"5933",102.093704,83.931946,93.18495
"5934",102.10704,83.72686,93.10274
"5935",102.12038,83.40948,92.90182
"5936",102.13371,83.004196,92.60308
"5937",102.14705,82.581825,92.27459
"5938",102.160385,82.19852,91.97196
"5939",102.17372,81.90799,91.75014
"5940",102.18706,81.71511,91.61688
"5941",102.20039,81.602806,91.558174
"5942",102.21373,81.532005,91.53746
"5943",102.227066,81.47341,91.52674
"5944",102.2404,81.38796,91.487335
"5945",102.25374,81.26345,91.4062
"5946",102.267075,81.10231,91.28454
"5947",102.28041,80.91188,91.128555
"5948",102.29375,80.69947,90.94464
"5949",102.30708,80.479744,90.74677
"5950",102.32042,80.26246,90.54448
"5951",102.333755,80.05005,90.34027
"5952",102.34709,79.84741,90.1392
"5953",102.36043,79.656975,89.94399
"5954",102.373764,79.48119,89.75749
"5955",102.3871,79.32006,89.58015
"5956",102.40044,79.17845,89.41729
"5957",102.41377,79.046616,89.25978
"5958",102.42711,78.92943,89.1128
"5959",102.440445,78.82445,88.974365
"5960",102.45378,78.73655,88.84973
"5961",102.46712,78.658424,88.732124
"5962",102.48045,78.59251,88.62428
"5963",102.49379,78.52903,88.51682
"5964",102.507126,78.467995,88.40982
"5965",102.52046,78.40696,88.30091
"5966",102.5338,78.34348,88.18765
"5967",102.547134,78.28489,88.07729
"5968",102.56047,78.22385,87.962654
"5969",102.57381,78.150604,87.83391
"5970",102.58714,78.07492,87.70043
"5971",102.60048,77.99924,87.56459
"5972",102.613815,77.92844,87.43127
"5973",102.62715,77.86984,87.30794
"5974",102.64049,77.821014,87.19254
"5975",102.653824,77.78195,87.08539
"5976",102.66716,77.74288,86.977005
"5977",102.6805,77.696495,86.860085
"5978",102.69383,77.64767,86.73927
"5979",102.70717,77.60616,86.62426
"5980",102.720505,77.56954,86.51283
"5981",102.73384,77.54513,86.41247
"5982",102.74718,77.53536,86.32599
"5983",102.76051,77.5378,86.25141
"5984",102.77385,77.54269,86.17935
"5985",102.787186,77.54513,86.105
"5986",102.80052,77.55001,86.03317
"5987",102.81386,77.557335,85.963936
"5988",102.827194,77.5671,85.89737
"5989",102.84053,77.58663,85.84087
"5990",102.85387,77.60372,85.78255
"5991",102.8672,77.62325,85.727196
"5992",102.88054,77.6379,85.66757
"5993",102.893875,77.64767,85.60352
"5994",102.90721,77.65743,85.53978
"5995",102.92055,77.67208,85.481224
"5996",102.93388,77.696495,85.43289
"5997",102.94722,77.72823,85.39265
"5998",102.960556,77.76486,85.358284
"5999",102.97389,77.80148,85.32506
"6000",102.98723,77.83566,85.290535
"6001",103.000565,77.86496,85.2522
"6002",103.0139,77.88693,85.20745
"6003",103.02724,77.89914,85.153625
"6004",103.04057,77.908905,85.09774
"6005",103.05391,77.93332,85.05681
"6006",103.067245,78.03342,85.09232
"6007",103.08058,78.331276,85.32873
"6008",103.09392,78.95384,85.89915
"6009",103.107254,79.94263,86.85524
"6010",103.12059,81.22926,88.14008
"6011",103.13393,82.633095,89.58233
"6012",103.14726,83.90265,90.934166
"6013",103.1606,84.81575,91.96922
"6014",103.173935,85.26009,92.56406
"6015",103.18727,85.262535,92.73087
"6016",103.20061,84.95247,92.58526
"6017",103.21394,84.488594,92.276146
"6018",103.22728,84.00275,91.930565
"6019",103.240616,83.595024,91.64793
"6020",103.25395,83.31182,91.477066
"6021",103.26729,83.160446,91.429184
"6022",103.280624,83.106735,91.474236
"6023",103.29396,83.106735,91.57132
"6024",103.3073,83.10918,91.670845
"6025",103.32063,83.053024,91.71185
"6026",103.33397,82.90654,91.660774
"6027",103.347305,82.66239,91.507454
"6028",103.36064,82.34745,91.27571
"6029",103.37398,82.01785,91.01947
"6030",103.387314,81.72488,90.78955
"6031",103.40065,81.50271,90.621284
"6032",103.41399,81.37087,90.53641
"6033",103.42732,81.30984,90.51821
"6034",103.44066,81.27322,90.52252
"6035",103.453995,81.22926,90.51836
"6036",103.46733,81.15114,90.478645
"6037",103.48067,81.03151,90.39499
"6038",103.494,80.87282,90.26853
"6039",103.50734,80.689705,90.11269
"6040",103.520676,80.49439,89.938934
"6041",103.53401,80.29908,89.75907
"6042",103.54735,80.111084,89.58042
"6043",103.560684,79.93286,89.40567
"6044",103.57402,79.76929,89.24
"6045",103.58736,79.622795,89.086296
"6046",103.60069,79.48852,88.94023
"6047",103.61403,79.35912,88.79485
"6048",103.627365,79.234604,88.65031
"6049",103.6407,79.11986,88.51164
"6050",103.65404,79.009995,88.374275
"6051",103.66737,78.91234,88.24568
"6052",103.68071,78.82689,88.12624
"6053",103.694046,78.76097,88.02367
"6054",103.70738,78.70725,87.93123
"6055",103.72072,78.66819,87.85177
"6056",103.734055,78.63645,87.77841
"6057",103.74739,78.6096,87.70895
"6058",103.76073,78.58518,87.64108
"6059",103.77406,78.555885,87.56757
"6060",103.7874,78.519264,87.485825
"6061",103.800735,78.470436,87.390724
"6062",103.81407,78.41184,87.28433
"6063",103.82741,78.345924,87.168785
"6064",103.840744,78.27512,87.046295
"6065",103.85408,78.20676,86.92403
"6066",103.86742,78.14572,86.80695
"6067",103.88075,78.09445,86.69774
"6068",103.89409,78.05295,86.59669
"6069",103.907425,78.02365,86.506546
"6070",103.92076,78.00168,86.42281
"6071",103.9341,77.98703,86.34572
"6072",103.94743,77.97238,86.268166
"6073",103.96077,77.96506,86.19748
"6074",103.974106,77.960175,86.129005
"6075",103.98744,77.960175,86.06526
"6076",104.00078,77.962616,86.00396
"6077",104.014114,77.96994,85.94762
"6078",104.02745,77.98215,85.896385
"6079",104.04079,78.00168,85.85286
"6080",104.05412,78.02609,85.81483
"6081",104.06746,78.05539,85.78244
"6082",104.080795,78.08713,85.75341
"6083",104.09413,78.118866,85.72537
"6084",104.10747,78.14572,85.69344
"6085",104.120804,78.167694,85.65747
"6086",104.13414,78.18234,85.61486
"6087",104.14748,78.19211,85.567825
"6088",104.16081,78.19455,85.51377
"6089",104.17415,78.19211,85.45491
"6090",104.187485,78.19699,85.4033
"6091",104.20082,78.27024,85.420204
"6092",104.21416,78.521706,85.617615
"6093",104.22749,79.07591,86.125626
"6094",104.24083,79.98657,87.00741
"6095",104.254166,81.197525,88.21794
"6096",104.2675,82.53788,89.59572
"6097",104.28084,83.76593,90.903076
"6098",104.294174,84.65705,91.91188
"6099",104.30751,85.09407,92.49443
"6100",104.32085,85.101395,92.66094
"6101",104.33418,84.805984,92.52495
"6102",104.34752,84.36408,92.23323
"6103",104.360855,83.914856,91.92038
"6104",104.37419,83.546196,91.67406
"6105",104.38753,83.29717,91.53585
"6106",104.40086,83.16777,91.50948
"6107",104.4142,83.13115,91.57185
"6108",104.427536,83.15068,91.68923
"6109",104.44087,83.16777,91.80478
"6110",104.45421,83.12627,91.86227
"6111",104.467545,82.99443,91.828125
"6112",104.48088,82.76494,91.69221
"6113",104.49422,82.459755,91.47343
"6114",104.50755,82.1326,91.22314
"6115",104.52089,81.83963,90.99681
"6116",104.534225,81.617455,90.83212
"6117",104.54756,81.48318,90.74839
"6118",104.5609,81.41726,90.72882
"6119",104.574234,81.392845,90.748695
"6120",104.58757,81.36843,90.76781
"6121",104.60091,81.31716,90.7593
"6122",104.61424,81.2195,90.7028
"6123",104.62758,81.08278,90.60419
"6124",104.640915,80.91432,90.46957
"6125",104.65425,80.719,90.30282
"6126",104.66759,80.51392,90.12021
"6127",104.68092,80.306404,89.92875
"6128",104.69426,80.1062,89.73812
"6129",104.707596,79.920654,89.55589
"6130",104.72092,79.75464,89.3874
"6131",104.73428,79.60815,89.23324
"6132",104.74759,79.48119,89.09404
"6133",104.760956,79.36645,88.96308
"6134",104.77426,79.26391,88.840744
"6135",104.78763,79.17601,88.72984
"6136",104.800934,79.10521,88.63329
"6137",104.8143,79.044174,88.5443
"6138",104.82761,78.995346,88.4656
"6139",104.84097,78.95384,88.3927
"6140",104.85428,78.91722,88.32339
"6141",104.867645,78.87572,88.24805
"6142",104.88095,78.836655,88.17385
"6143",104.89432,78.79515,88.09599
"6144",104.90762,78.75365,88.01684
"6145",104.92099,78.70725,87.931496
"6146",104.934296,78.660866,87.84471
"6147",104.94766,78.61204,87.754036
"6148",104.96097,78.56321,87.661835
"6149",104.974335,78.51194,87.56567
"6150",104.98764,78.45823,87.465454
"6151",105.00101,78.40208,87.36112
"6152",105.01431,78.34104,87.25015
"6153",105.02768,78.28245,87.13972
"6154",105.040985,78.22629,87.029884
"6155",105.05435,78.1799,86.92807
"6156",105.06766,78.14084,86.83213
"6157",105.081024,78.1091,86.742294
"6158",105.09433,78.0798,86.65391
"6159",105.1077,78.05783,86.57193
"6160",105.121,78.0383,86.49171
"6161",105.13437,78.02121,86.413315
"6162",105.147675,78.011444,86.34171
"6163",105.16104,78.00656,86.27469
"6164",105.17435,78.00168,86.20751
"6165",105.18771,78.00656,86.14995
"6166",105.20102,78.01633,86.09742
"6167",105.214386,78.030975,86.05008
"6168",105.22769,78.048065,86.00564
"6169",105.24106,78.06271,85.95929
"6170",105.254364,78.07492,85.91096
"6171",105.26773,78.08469,85.860565
"6172",105.28104,78.099335,85.81536
"6173",105.2944,78.11398,85.770615
"6174",105.30771,78.135956,85.73365
"6175",105.321075,78.16037,85.699814
"6176",105.33438,78.184784,85.66674
"6177",105.34775,78.21164,85.63687
"6178",105.36105,78.24094,85.61028
"6179",105.37442,78.26536,85.579735
"6180",105.387726,78.28733,85.5475
"6181",105.40109,78.30198,85.50863
"6182",105.4144,78.331276,85.48486
"6183",105.427765,78.44846,85.549904
"6184",105.44107,78.77806,85.83102
"6185",105.45444,79.45434,86.46911
"6186",105.46774,80.516365,87.514084
"6187",105.48111,81.883575,88.89743
"6188",105.494415,83.35821,90.43092
"6189",105.50778,84.67414,91.8518
"6190",105.52109,85.60189,92.92561
"6191",105.534454,86.03891,93.53769
"6192",105.54776,86.02182,93.70931
"6193",105.56113,85.694664,93.570335
"6194",105.57443,85.21858,93.27221
"6195",105.5878,84.74006,92.956764
"6196",105.601105,84.34699,92.71182
"6197",105.61447,84.085754,92.586426
"6198",105.62778,83.966125,92.594475
"6199",105.64114,83.9588,92.71109
"6200",105.65445,84.017395,92.893394
"6201",105.667816,84.07599,93.07753
"6202",105.68112,84.07843,93.207344
"6203",105.69449,83.97101,93.22737
"6204",105.707794,83.736626,93.11708
"6205",105.72116,83.39727,92.89449
"6206",105.73447,83.01152,92.61491
"6207",105.74783,82.64042,92.33791
"6208",105.76114,82.34257,92.122574
"6209",105.774506,82.144806,91.99802
"6210",105.78781,82.039825,91.96006
"6211",105.80118,81.986115,91.97009
"6212",105.81448,81.93729,91.98333
"6213",105.82785,81.864044,91.97063
"6214",105.841156,81.75174,91.91657
"6215",105.85452,81.5906,91.81017
"6216",105.86783,81.39529,91.664566
"6217",105.881195,81.17311,91.48599
"6218",105.8945,80.93385,91.283394
"6219",105.90787,80.68726,91.06599
"6220",105.92117,80.448006,90.848206
"6221",105.93454,80.22095,90.63515
"6222",105.947845,80.01343,90.43453
"6223",105.96121,79.82056,90.24208
"6224",105.97452,79.64965,90.06557
"6225",105.987885,79.48608,89.891045
"6226",106.00119,79.33227,89.721176
"6227",106.01456,79.19066,89.5587
"6228",106.02786,79.07103,89.41378
"6229",106.04123,78.97093,89.28465
"6230",106.054535,78.88304,89.164604
"6231",106.0679,78.80736,89.054016
"6232",106.08121,78.73655,88.94594
"6233",106.094574,78.675514,88.84542
"6234",106.10788,78.61204,88.740555
"6235",106.12125,78.55833,88.64347
"6236",106.13455,78.504616,88.54471
"6237",106.14792,78.45335,88.44671
"6238",106.161224,78.399635,88.344666
"6239",106.17459,78.34348,88.2385
"6240",106.1879,78.28245,88.1257
"6241",106.20126,78.22385,88.01343
"6242",106.21457,78.16525,87.89933
"6243",106.227936,78.10422,87.78096
"6244",106.24124,78.04318,87.66068
"6245",106.25461,77.98215,87.5385
"6246",106.267914,77.92355,87.41685
"6247",106.28128,77.86252,87.290924
"6248",106.294586,77.80881,87.17042
"6249",106.30795,77.75998,87.053116
"6250",106.32126,77.72091,86.944046
"6251",106.334625,77.696495,86.84841
"6252",106.34793,77.68917,86.769104
"6253",106.3613,77.69161,86.69933
"6254",106.3746,77.696495,86.63208
"6255",106.38797,77.70138,86.56498
"6256",106.401276,77.70138,86.49315
"6257",106.41464,77.70382,86.42376
"6258",106.42795,77.7087,86.35689
"6259",106.441315,77.71114,86.28773
"6260",106.45462,77.71603,86.221085
"6261",106.46799,77.72579,86.15948
"6262",106.48129,77.73556,86.098175
"6263",106.49466,77.75021,86.04207
"6264",106.507965,77.77219,85.99374
"6265",106.52133,77.7966,85.94853
"6266",106.53464,77.8259,85.90897
"6267",106.548004,77.86008,85.87521
"6268",106.56131,77.89426,85.84252
"6269",106.57468,77.92844,85.8109
"6270",106.58798,77.960175,85.7779
"6271",106.60135,77.98215,85.73613
"6272",106.614655,77.99191,85.68284
"6273",106.62802,77.99191,85.62009
"6274",106.64133,77.996796,85.56222
"6275",106.65469,78.07248,85.5753
"6276",106.668,78.33616,85.77875
"6277",106.681366,78.91478,86.305374
"6278",106.69467,79.87915,87.23583
"6279",106.70804,81.17311,88.52602
"6280",106.721344,82.633095,90.02266
"6281",106.73471,84.00763,91.47948
"6282",106.74802,85.04768,92.64477
"6283",106.76138,85.6141,93.36892
"6284",106.77469,85.70687,93.63713
"6285",106.788055,85.4432,93.551796
"6286",106.80136,84.981766,93.26046
"6287",106.81473,84.46662,92.90099
"6288",106.82803,84.00519,92.57914
"6289",106.8414,83.66094,92.360054
"6290",106.854706,83.44854,92.262054
"6291",106.86807,83.353325,92.274605
"6292",106.88138,83.34112,92.36719
"6293",106.894745,83.35821,92.488686
"6294",106.90805,83.346,92.58142
"6295",106.92142,83.250786,92.59077
"6296",106.93472,83.05058,92.49215
"6297",106.94809,82.75273,92.28963
"6298",106.961395,82.4036,92.02652
"6299",106.97476,82.07156,91.76959
"6300",106.98807,81.80301,91.56577
"6301",107.001434,81.62722,91.44633
"6302",107.01474,81.529564,91.39952
"6303",107.02811,81.48318,91.40093
"6304",107.04141,81.44167,91.40578
"6305",107.05478,81.37087,91.38003
"6306",107.068085,81.25613,91.30812
"6307",107.08145,81.09743,91.188675
"6308",107.09476,80.902115,91.02766
"6309",107.10812,80.6775,90.83123
"6310",107.12143,80.445564,90.62047
"6311",107.134796,80.22095,90.409775
"6312",107.1481,80.0061,90.201836
"6313",107.16147,79.80591,90.00183
"6314",107.174774,79.62768,89.817535
"6315",107.18814,79.46899,89.64721
"6316",107.20145,79.32983,89.491455
"6317",107.21481,79.202866,89.34355
"6318",107.22812,79.09056,89.20634
"6319",107.241486,78.9807,89.068054
"6320",107.25479,78.88304,88.938545
"6321",107.26816,78.79271,88.81331
"6322",107.28146,78.709694,88.692566
"6323",107.29483,78.643776,88.58633
"6324",107.308136,78.59251,88.492676
"6325",107.3215,78.551,88.40719
"6326",107.33481,78.51682,88.32773
"6327",107.348175,78.487526,88.25208
"6328",107.36148,78.45579,88.17308
"6329",107.37485,78.41184,88.08088
"6330",107.38815,78.35325,87.97266
"6331",107.40152,78.28489,87.85284
"6332",107.414825,78.21164,87.72599
"6333",107.42819,78.14084,87.599304
"6334",107.4415,78.07004,87.470406
"6335",107.454865,78.00412,87.34418
"6336",107.46817,77.95041,87.228096
"6337",107.48154,77.90402,87.11766
"6338",107.49484,77.86252,87.01066
"6339",107.50821,77.82834,86.90968
"6340",107.521515,77.803925,86.817406
"6341",107.53488,77.78439,86.72925
"6342",107.54819,77.769745,86.64536
"6343",107.561554,77.75998,86.5659
"6344",107.57486,77.75998,86.4959
"6345",107.58823,77.76486,86.430786
"6346",107.60153,77.77707,86.373146
"6347",107.6149,77.79172,86.31833
"6348",107.628204,77.81613,86.273735
"6349",107.64157,77.84299,86.232346
"6350",107.65488,77.872284,86.19424
"6351",107.66824,77.90646,86.16193
"6352",107.68155,77.93576,86.1258
"6353",107.694916,77.95773,86.08327
"6354",107.70822,77.9675,86.02921
"6355",107.72159,77.962616,85.960815
"6356",107.73489,77.94797,85.8825
"6357",107.74826,77.95041,85.820816
"6358",107.761566,78.04074,85.8471
"6359",107.77493,78.34104,86.086174
"6360",107.78824,78.96361,86.6569
"6361",107.801605,79.94751,87.60841
"6362",107.81491,81.2195,88.87876
"6363",107.82828,82.60136,90.29873
"6364",107.84158,83.85138,91.63004
"6365",107.85495,84.74738,92.6464
"6366",107.868256,85.186844,93.234215
"6367",107.88162,85.19905,93.40851
"6368",107.89493,84.90852,93.28045
"6369",107.908295,84.46174,92.98705
"6370",107.9216,84.000305,92.66505
"6371",107.93497,83.617,92.406746
"6372",107.94827,83.35577,92.258545
"6373",107.96164,83.21904,92.226685
"6374",107.974945,83.177536,92.285774
"6375",107.98831,83.17998,92.38751
"6376",108.00162,83.16533,92.47224
"6377",108.014984,83.07988,92.4857
"6378",108.02829,82.896774,92.39884
"6379",108.04166,82.616005,92.208595
"6380",108.05496,82.27665,91.95099
"6381",108.06833,81.934845,91.68033
"6382",108.081635,81.64187,91.447815
"6383",108.095,81.43435,91.2916
"6384",108.10831,81.3196,91.22168
"6385",108.12167,81.26589,91.209206
"6386",108.13498,81.234146,91.21702
"6387",108.148346,81.18776,91.2092
"6388",108.16165,81.10475,91.16331
"6389",108.17502,80.97536,91.068436
"6390",108.188324,80.80202,90.925575
"6391",108.20169,80.604256,90.75288
"6392",108.215,80.38941,90.556915
"6393",108.22836,80.17456,90.35423
"6394",108.24167,79.96704,90.15217
"6395",108.255035,79.76929,89.953384
"6396",108.26834,79.58373,89.76062
"6397",108.28171,79.415276,89.579155
"6398",108.29501,79.25414,89.39975
"6399",108.30838,79.10765,89.22995
"6400",108.321686,78.97826,89.07267
"6401",108.33505,78.86839,88.93088
"6402",108.34836,78.77562,88.80274
"6403",108.361725,78.69749,88.68635
"6404",108.37503,78.63889,88.58705
"6405",108.3884,78.58518,88.49081
"6406",108.4017,78.54612,88.40753
"6407",108.41507,78.5095,88.32548
"6408",108.428375,78.47532,88.24472
"6409",108.44174,78.43626,88.15801
"6410",108.45505,78.397194,88.07008
"6411",108.468414,78.35325,87.97605
"6412",108.48172,78.30686,87.878204
"6413",108.49509,78.25559,87.774025
"6414",108.50839,78.20187,87.665794
"6415",108.52176,78.14328,87.55101
"6416",108.535065,78.082245,87.43195
"6417",108.54843,78.02365,87.31343
"6418",108.56174,77.96994,87.19796
"6419",108.5751,77.92111,87.08569
"6420",108.58841,77.87717,86.97678
"6421",108.601776,77.83566,86.86894
"6422",108.61508,77.79904,86.76469
"6423",108.62845,77.77219,86.66905
"6424",108.641754,77.75021,86.57746
"6425",108.65512,77.738,86.49494
"6426",108.66843,77.733116,86.41937
"6427",108.68179,77.73556,86.350975
"6428",108.6951,77.74288,86.28754
"6429",108.708466,77.75021,86.224335
"6430",108.72177,77.75998,86.163795
"6431",108.73514,77.7673,86.10112
"6432",108.74844,77.77707,86.041115
"6433",108.76181,77.78439,85.97897
"6434",108.775116,77.79416,85.9195
"6435",108.78848,77.79904,85.85545
"6436",108.80179,77.803925,85.79156
"6437",108.815155,77.80881,85.72781
"6438",108.82846,77.81857,85.669106
"6439",108.84183,77.840546,85.62291
"6440",108.85513,77.87717,85.59205
"6441",108.8685,77.92111,85.56966
"6442",108.881805,77.96994,85.55352
"6443",108.89517,78.01633,85.53647
"6444",108.90848,78.05295,85.5111
"6445",108.921844,78.07736,85.47467
"6446",108.93515,78.08713,85.424355
"6447",108.94852,78.11398,85.39143
"6448",108.96182,78.24582,85.46433
"6449",108.97519,78.61936,85.78306
"6450",108.988495,79.35424,86.47479
"6451",109.00186,80.482185,87.58256
"6452",109.01517,81.90311,89.01855
"6453",109.028534,83.39239,90.5673
"6454",109.04184,84.68391,91.96483
"6455",109.05521,85.557945,92.98524
"6456",109.06851,85.926605,93.52758
"6457",109.08188,85.86069,93.646866
"6458",109.095184,85.506676,93.476
"6459",109.10855,85.03548,93.17688
"6460",109.12186,84.59113,92.88989
"6461",109.13522,84.25666,92.69889
"6462",109.14853,84.06622,92.64147
"6463",109.161896,84.01251,92.71483
"6464",109.1752,84.04913,92.87684
"6465",109.18857,84.11749,93.07173
"6466",109.20187,84.159,93.241905
"6467",109.21524,84.119934,93.33281
"6468",109.228546,83.96124,93.302864
"6469",109.24191,83.685356,93.150764
"6470",109.25522,83.32159,92.90216
"6471",109.268585,82.92363,92.608
"6472",109.28189,82.55741,92.333145
"6473",109.29526,82.27177,92.12742
"6474",109.30856,82.08377,92.010414
"6475",109.32193,81.97635,91.96811
"6476",109.335236,81.91287,91.96639
"6477",109.3486,81.85428,91.967575
"6478",109.36191,81.77127,91.94251
"6479",109.375275,81.63943,91.86602
"6480",109.38858,81.45876,91.73659
"6481",109.40195,81.24147,91.56488
"6482",109.41525,81.00221,91.36442
"6483",109.42862,80.75807,91.151596
"6484",109.441925,80.51881,90.93602
"6485",109.45529,80.291756,90.72518
"6486",109.4686,80.076904,90.51945
"6487",109.481964,79.87671,90.321655
"6488",109.49527,79.691154,90.13225
"6489",109.50864,79.520256,89.9517
"6490",109.52194,79.36645,89.7829
"6491",109.53531,79.22972,89.62637
"6492",109.548615,79.10521,89.47779
"6493",109.56198,78.99046,89.33508
"6494",109.57529,78.88304,89.19611
"6495",109.58865,78.79271,89.07088
"6496",109.60196,78.71458,88.95502
"6497",109.615326,78.65354,88.85381
"6498",109.62863,78.59983,88.758026
"6499",109.642,78.553444,88.667885
"6500",109.655304,78.504616,88.57385
"6501",109.66867,78.45823,88.480736
"6502",109.68198,78.4094,88.38373
"6503",109.69534,78.35813,88.28275
"6504",109.70865,78.2971,88.17041
"6505",109.722015,78.23117,88.05127
"6506",109.73532,78.16281,87.927635
"6507",109.74869,78.08957,87.79698
"6508",109.76199,78.02121,87.66892
"6509",109.77536,77.95529,87.54117
"6510",109.788666,77.89426,87.41624
"6511",109.80203,77.83322,87.2894
"6512",109.81534,77.77707,87.165535
"6513",109.828705,77.72335,87.04235
"6514",109.84201,77.67452,86.92238
"6515",109.85538,77.63058,86.80576
"6516",109.86868,77.59884,86.69998
"6517",109.88205,77.574425,86.60053
"6518",109.895355,77.55978,86.510086
"6519",109.90872,77.55001,86.424065
"6520",109.92203,77.54757,86.34506
"6521",109.935394,77.55489,86.27575
"6522",109.9487,77.5671,86.21155
"6523",109.96207,77.58175,86.15017
"6524",109.97537,77.5964,86.08925
"6525",109.98874,77.608604,86.026344
"6526",110.002045,77.61837,85.96138
"6527",110.01541,77.628136,85.89672
"6528",110.02872,77.64034,85.83481
"6529",110.04208,77.66476,85.785484
"6530",110.05539,77.70138,85.74913
"6531",110.068756,77.74532,85.721245
"6532",110.08206,77.789276,85.69474
"6533",110.09543,77.82834,85.66472
"6534",110.108734,77.86008,85.62859
"6535",110.1221,77.87961,85.58125
"6536",110.13541,77.89426,85.52964
"6537",110.14877,77.90646,85.47604
"6538",110.16208,77.91135,85.415504
"6539",110.175446,77.91135,85.350235
"6540",110.18875,77.91135,85.284966
"6541",110.20212,77.945526,85.253876
"6542",110.21542,78.099335,85.34348
"6543",110.22879,78.51194,85.69669
"6544",110.242096,79.28832,86.426575
"6545",110.25546,80.448006,87.56402
"6546",110.26877,81.883575,89.01359
"6547",110.282135,83.37774,90.56661
"6548",110.29544,84.66682,91.96124
"6549",110.30881,85.53353,92.97379
"6550",110.32211,85.89975,93.51293
"6551",110.33548,85.83139,93.62894
"6552",110.348785,85.470055,93.44983
"6553",110.36215,84.981766,93.13248
"6554",110.37546,84.505684,92.81207
"6555",110.388824,84.13214,92.57933
"6556",110.40213,83.895325,92.47164
"6557",110.4155,83.792786,92.49083
"6558",110.4288,83.790344,92.60691
"6559",110.44217,83.83429,92.7693
"6560",110.455475,83.861145,92.91598
"6561",110.46884,83.81232,92.98781
"6562",110.48215,83.6585,92.953125
"6563",110.495514,83.389946,92.7989
"6564",110.50882,83.038376,92.55326
"6565",110.52219,82.66239,92.272224
"6566",110.53549,82.32304,92.01607
"6567",110.54886,82.06424,91.829865
"6568",110.562164,81.89578,91.725914
"6569",110.57553,81.80789,91.697266
"6570",110.58884,81.75662,91.70249
"6571",110.6022,81.69558,91.69634
"6572",110.61551,81.600365,91.65411
"6573",110.628876,81.45388,91.55764
"6574",110.64218,81.26345,91.41264
"6575",110.65555,81.0486,91.237274
"6576",110.66885,80.82155,91.04299
"6577",110.68222,80.59205,90.839165
"6578",110.695526,80.36988,90.6355
"6579",110.70889,80.15747,90.43465
"6580",110.7222,79.957275,90.23937
"6581",110.735565,79.77417,90.05493
"6582",110.74887,79.60082,89.87453
"6583",110.76224,79.447014,89.708244
"6584",110.77554,79.30541,89.54936
"6585",110.78891,79.18089,89.40314
"6586",110.802216,79.06615,89.262794
"6587",110.81558,78.96605,89.133514
"6588",110.82889,78.873276,89.00843
"6589",110.842255,78.79027,88.89021
"6590",110.85556,78.712135,88.77428
"6591",110.86893,78.64622,88.66811
"6592",110.88223,78.58518,88.56477
"6593",110.8956,78.53147,88.46685
"6594",110.908905,78.48264,88.37213
"6595",110.92227,78.42893,88.271
"6596",110.93558,78.37278,88.16576
"6597",110.948944,78.314186,88.05631
"6598",110.96225,78.25315,87.9426
"6599",110.97562,78.18967,87.824524
"6600",110.98892,78.12619,87.704475
"6601",111.00229,78.06271,87.58244
"6602",111.015594,77.99924,87.45843
"6603",111.02896,77.9382,87.33487
"6604",111.04227,77.87717,87.209404
"6605",111.05563,77.821014,87.086914
"6606",111.06894,77.77463,86.972435
"6607",111.082306,77.74044,86.868706
"6608",111.09561,77.71603,86.77368
"6609",111.10898,77.696495,86.68278
"6610",111.122284,77.68429,86.59859
"6611",111.13565,77.67696,86.5189
"6612",111.14896,77.67208,86.44142
"6613",111.16232,77.66964,86.366234
"6614",111.17563,77.67452,86.298294
"6615",111.188995,77.68429,86.23539
"6616",111.2023,77.696495,86.17523
"6617",111.21567,77.7087,86.115456
"6618",111.22897,77.72091,86.05606
"6619",111.24234,77.74044,86.00437
"6620",111.255646,77.76242,85.95574
"6621",111.26901,77.786835,85.91023
"6622",111.28232,77.821014,85.87525
"6623",111.295685,77.857635,85.84378
"6624",111.30899,77.89426,85.81345
"6625",111.32236,77.92111,85.774506
"6626",111.33566,77.9382,85.72663
"6627",111.34903,77.945526,85.669525
"6628",111.362335,77.94064,85.60044
"6629",111.3757,77.945526,85.54097
"6630",111.38901,78.02121,85.55245
"6631",111.402374,78.277565,85.74697
"6632",111.41568,78.84398,86.25956
"6633",111.42905,79.783936,87.16339
"6634",111.44235,81.0486,88.4213
"6635",111.45572,82.4744,89.879875
"6636",111.469025,83.82208,91.30488
"6637",111.48239,84.85237,92.454605
"6638",111.4957,85.42367,93.177536
"6639",111.50906,85.538414,93.46177
"6640",111.52237,85.30648,93.40291
"6641",111.535736,84.88167,93.14392
"6642",111.54904,84.40559,92.82039
"6643",111.56241,83.980774,92.53325
"6644",111.575714,83.66827,92.34514
"6645",111.58908,83.48272,92.27422
"6646",111.60239,83.40948,92.309814
"6647",111.61575,83.404594,92.411476
"6648",111.62906,83.41436,92.52763
"6649",111.642426,83.37774,92.59771
"6650",111.65573,83.25567,92.58119
"6651",111.6691,83.02861,92.45587
"6652",111.6824,82.72343,92.24533
"6653",111.69577,82.39384,92.00085
"6654",111.709076,82.09842,91.780235
"6655",111.72244,81.87625,91.62364
"6656",111.73575,81.74685,91.55287
"6657",111.749115,81.688255,91.54887
"6658",111.76242,81.65652,91.569885
"6659",111.77579,81.61501,91.58015
"6660",111.78909,81.532005,91.54761
"6661",111.80246,81.392845,91.45632
"6662",111.815765,81.20729,91.31429
"6663",111.82913,80.987564,91.13229
"6664",111.84244,80.75563,90.93122
"6665",111.855804,80.52125,90.72045
"6666",111.86911,80.29908,90.51457
"6667",111.88248,80.09155,90.31639
"6668",111.89578,79.90112,90.12882
"6669",111.90915,79.72289,89.9475
"6670",111.922455,79.56176,89.77771
"6671",111.93582,79.412834,89.61509
"6672",111.94913,79.276115,89.46002
"6673",111.962494,79.149155,89.31044
"6674",111.9758,79.03441,89.169106
"6675",111.98917,78.93187,89.03639
"6676",112.00247,78.836655,88.9078
"6677",112.01584,78.75365,88.78844
"6678",112.029144,78.68772,88.68356
"6679",112.04251,78.641335,88.59617
"6680",112.05582,78.60227,88.51465
"6681",112.06918,78.56565,88.43435
"6682",112.08249,78.52415,88.34802
"6683",112.095856,78.467995,88.24575
"6684",112.10916,78.40208,88.13196
"6685",112.12253,78.328835,88.00878
"6686",112.13583,78.25803,87.88576
"6687",112.1492,78.18967,87.762955
"6688",112.162506,78.12375,87.640465
"6689",112.17587,78.05783,87.515915
"6690",112.18918,77.996796,87.39419
"6691",112.202545,77.943085,87.27788
"6692",112.21585,77.89426,87.16477
"6693",112.22922,77.85275,87.057465
"6694",112.24252,77.81613,86.95374
"6695",112.25589,77.77707,86.846436
"6696",112.269196,77.74044,86.74034
"6697",112.28256,77.71114,86.640434
"6698",112.29587,77.68917,86.546936
"6699",112.309235,77.679405,86.46496
"6700",112.32254,77.679405,86.39244
"6701",112.33591,77.68917,86.32969
"6702",112.34921,77.70382,86.272125
"6703",112.36258,77.72091,86.21746
"6704",112.375885,77.74288,86.16821
"6705",112.38925,77.76242,86.11722
"6706",112.40256,77.77951,86.064384
"6707",112.415924,77.79416,86.00964
"6708",112.42923,77.81369,85.96024
"6709",112.4426,77.838104,85.916336
"6710",112.4559,77.86984,85.880516
"6711",112.46927,77.90646,85.85057
"6712",112.482574,77.94797,85.82665
"6713",112.49594,77.98703,85.80159
"6714",112.50925,78.02365,85.77531
"6715",112.52261,78.05051,85.7404
"6716",112.53592,78.07004,85.69901
"6717",112.549286,78.0798,85.64847
"6718",112.56259,78.0798,85.58846
"6719",112.57596,78.099335,85.54799
"6720",112.589264,78.22873,85.61799
"6721",112.60263,78.59739,85.9313
"6722",112.61594,79.33227,86.622345
"6723",112.6293,80.465096,87.73431
"6724",112.64261,81.88846,89.1722
"6725",112.655975,83.39727,90.74003
"6726",112.66928,84.715645,92.164566
"6727",112.68265,85.628746,93.22503
"6728",112.69595,86.04135,93.81353
"6729",112.70932,86.00717,93.96814
"6730",112.722626,85.67025,93.81894
"6731",112.73599,85.19905,93.52493
"6732",112.7493,84.72297,93.21132
"6733",112.762665,84.33967,92.97561
"6734",112.77597,84.088196,92.85975
"6735",112.78934,83.97345,92.87276
"6736",112.80264,83.963684,92.98716
"6737",112.81601,84.01007,93.15741
"6738",112.829315,84.04913,93.321785
"6739",112.84268,84.02228,93.42146
"6740",112.85599,83.895325,93.420204
"6741",112.869354,83.65118,93.29778
"6742",112.88266,83.3167,93.07741
"6743",112.89603,82.95293,92.817276
"6744",112.90933,82.616005,92.57263
"6745",112.9227,82.34989,92.38827
"6746",112.936005,82.1741,92.28591
"6747",112.94937,82.07156,92.25131
"6748",112.96268,82.01297,92.257454
"6749",112.97604,81.95682,92.264206
"6750",112.98935,81.86893,92.237465
"6751",113.002716,81.73708,92.164024
"6752",113.01602,81.55886,92.040085
"6753",113.02939,81.341576,91.87151
"6754",113.042694,81.10231,91.67417
"6755",113.05606,80.85573,91.462036
"6756",113.06937,80.61158,91.24463
"6757",113.08273,80.37965,91.03181
"6758",113.09604,80.15503,90.81905
"6759",113.109406,79.937744,90.60661
"6760",113.12271,79.7351,90.40202
"6761",113.13608,79.54711,90.20576
"6762",113.14938,79.378654,90.02315
"6763",113.16275,79.23216,89.85724
"6764",113.176056,79.10521,89.70629
"6765",113.18942,78.992905,89.566025
"6766",113.20273,78.89525,89.4369
"6767",113.216095,78.8098,89.316925
"6768",113.2294,78.73655,89.20648
"6769",113.24277,78.67063,89.10108
"6770",113.25607,78.6096,88.998505
"6771",113.26944,78.551,88.89646
"6772",113.282745,78.487526,88.787704
"6773",113.29611,78.41917,88.67208
"6774",113.30942,78.35081,88.55432
"6775",113.322784,78.28245,88.434425
"6776",113.33609,78.21652,88.31483
"6777",113.34946,78.150604,88.19318
"6778",113.36276,78.08469,88.069466
"6779",113.37613,78.02121,87.94614
"6780",113.389435,77.95529,87.81838
"6781",113.4028,77.88937,87.68857
"6782",113.41611,77.83078,87.56402
"6783",113.429474,77.78195,87.4474
"6784",113.44278,77.738,87.33414
"6785",113.45615,77.696495,87.22195
"6786",113.46945,77.659874,87.11334
"6787",113.48282,77.625694,87.006035
"6788",113.496124,77.5964,86.90254
"6789",113.50949,77.576866,86.8079
"6790",113.5228,77.56466,86.71997
"6791",113.53616,77.55489,86.6341
"6792",113.54947,77.54757,86.55037
"6793",113.562836,77.54269,86.46885
"6794",113.57614,77.53292,86.38229
"6795",113.58951,77.52804,86.300316
"6796",113.60281,77.5256,86.22063
"6797",113.61618,77.52804,86.145744
"6798",113.629486,77.53292,86.07338
"6799",113.64285,77.540245,86.00361
"6800",113.65616,77.55489,85.94139
"6801",113.669525,77.57198,85.88207
"6802",113.68283,77.591515,85.82573
"6803",113.6962,77.61593,85.77488
"6804",113.7095,77.64767,85.73212
"6805",113.72287,77.68185,85.69279
"6806",113.736176,77.71847,85.65697
"6807",113.74954,77.76242,85.62962
"6808",113.76285,77.7966,85.59388
"6809",113.776215,77.823456,85.55188
"6810",113.78952,77.838104,85.49851
"6811",113.80289,77.840546,85.433395
"6812",113.81619,77.855194,85.38056
"6813",113.82956,77.960175,85.41852
"6814",113.842865,78.28977,85.68437
"6815",113.85623,78.97826,86.31941
"6816",113.86954,80.08423,87.393456
"6817",113.882904,81.52712,88.83898
"6818",113.89621,83.104294,90.463875
"6819",113.90958,84.54719,92.00378
"6820",113.92288,85.60433,93.20302
"6821",113.93625,86.153656,93.927475
"6822",113.949554,86.21713,94.18325
"6823",113.96292,85.926605,94.087006
"6824",113.97623,85.452965,93.79857
"6825",113.98959,84.94026,93.45627
"6826",114.0029,84.49592,93.166306
"6827",114.016266,84.17609,92.98697
"6828",114.02957,84.000305,92.94169
"6829",114.04294,83.94415,93.010544
"6830",114.056244,83.97345,93.16309
"6831",114.06961,84.02228,93.33609
"6832",114.08292,84.03204,93.47155
"6833",114.09628,83.95392,93.519424
"6834",114.10959,83.758606,93.44767
"6835",114.122955,83.46075,93.267265
"6836",114.13626,83.11162,93.02628
"6837",114.14963,82.76982,92.78172
"6838",114.16293,82.49149,92.58995
"6839",114.1763,82.29862,92.47494
"6840",114.189606,82.18387,92.432014
"6841",114.20297,82.11551,92.4319
"6842",114.21628,82.04959,92.43209
"6843",114.229645,81.95682,92.403366
"6844",114.24295,81.81766,92.325356
"6845",114.25632,81.62966,92.19416
"6846",114.26962,81.40505,92.02048
"6847",114.28299,81.160904,91.82024
"6848",114.296295,80.907,91.60261
"6849",114.30966,80.65797,91.38192
"6850",114.32297,80.41871,91.16322
"6851",114.336334,80.18677,90.94437
"6852",114.34964,79.9646,90.728035
"6853",114.36301,79.75952,90.52185
"6854",114.37631,79.571526,90.32634
"6855",114.38968,79.40551,90.146935
"6856",114.402985,79.26391,89.986755
"6857",114.41635,79.13939,89.83923
"6858",114.42966,79.03197,89.70492
"6859",114.44302,78.93675,89.57945
"6860",114.45633,78.84886,89.458336
"6861",114.469696,78.768295,89.3418
"6862",114.483,78.692604,89.227615
"6863",114.49637,78.61936,89.11352
"6864",114.509674,78.555885,89.0069
"6865",114.52304,78.49241,88.89829
"6866",114.53635,78.42893,88.787704
"6867",114.54971,78.363014,88.67269
"6868",114.56302,78.294655,88.55318
"6869",114.576385,78.21896,88.424194
"6870",114.58969,78.14084,88.29041
"6871",114.60306,78.06027,88.15175
"6872",114.61636,77.98459,88.01545
"6873",114.62973,77.908905,87.876785
"6874",114.643036,77.83078,87.733315
"6875",114.6564,77.7551,87.58984
"6876",114.66971,77.67696,87.44156
"6877",114.683075,77.60372,87.29572
"6878",114.69638,77.540245,87.157364
"6879",114.70975,77.48409,87.024345
"6880",114.72305,77.44015,86.90178
"6881",114.73642,77.40841,86.79005
"6882",114.749725,77.38888,86.68953
"6883",114.76309,77.37667,86.595726
"6884",114.7764,77.36935,86.506424
"6885",114.789764,77.36935,86.42422
"6886",114.80307,77.36935,86.34201
"6887",114.81644,77.36446,86.25492
"6888",114.82974,77.36202,86.17012
"6889",114.84311,77.35958,86.08524
"6890",114.856415,77.35714,86.00029
"6891",114.86978,77.35714,85.9177
"6892",114.88309,77.366905,85.84488
"6893",114.896454,77.38155,85.777245
"6894",114.90976,77.39864,85.71251
"6895",114.92313,77.42306,85.65563
"6896",114.93643,77.44503,85.59708
"6897",114.9498,77.454796,85.527
"6898",114.963104,77.45724,85.449905
"6899",114.97647,77.45724,85.370445
"6900",114.98978,77.469444,85.30319
"6901",115.00314,77.55978,85.314445
"6902",115.01645,77.85275,85.531166
"6903",115.029816,78.47532,86.08663
"6904",115.04312,79.48852,87.052185
"6905",115.05649,80.82643,88.374115
"6906",115.06979,82.32304,89.896545
"6907",115.08316,83.72686,91.37296
"6908",115.096466,84.79378,92.55634
"6909",115.10983,85.38949,93.30186
"6910",115.12314,85.514,93.59479
"6911",115.136505,85.27474,93.52784
"6912",115.14981,84.825516,93.24345
"6913",115.16318,84.31037,92.8791
"6914",115.17648,83.83917,92.542595
"6915",115.18985,83.47784,92.30123
"6916",115.203156,83.250786,92.18286
"6917",115.21652,83.15312,92.18678
"6918",115.22983,83.13603,92.26823
"6919",115.243195,83.140915,92.37111
"6920",115.2565,83.104294,92.43264
"6921",115.26987,82.984665,92.41002
"6922",115.28317,82.774704,92.29333
"6923",115.29654,82.5037,92.10903
"6924",115.309845,82.230255,91.913826
"6925",115.32321,82.00809,91.76135
"6926",115.33652,81.8616,91.67762
"6927",115.349884,81.78836,91.66255
"6928",115.36319,81.75906,91.68914
"6929",115.37656,81.73464,91.71969
"6930",115.38986,81.67361,91.71286
"6931",115.40323,81.55642,91.64797
"6932",115.416534,81.38552,91.52571
"6933",115.4299,81.17555,91.35904
"6934",115.44321,80.938736,91.15896
"6935",115.45657,80.69947,90.94903
"6936",115.46988,80.46754,90.73895
"6937",115.483246,80.2478,90.53383
"6938",115.49655,80.0354,90.32917
"6939",115.50992,79.83765,90.13252
"6940",115.523224,79.64965,89.93945
"6941",115.53659,79.47387,89.75272
"6942",115.5499,79.30541,89.567825
"6943",115.56326,79.151596,89.3923
"6944",115.57657,79.012436,89.22663
"6945",115.589935,78.88548,89.06882
"6946",115.60324,78.77318,88.921684
"6947",115.61661,78.6804,88.790565
"6948",115.62991,78.59739,88.66632
"6949",115.64328,78.521706,88.54681
"6950",115.656586,78.45823,88.43713
"6951",115.66995,78.40208,88.3328
"6952",115.68326,78.348366,88.22916
"6953",115.696625,78.294655,88.12383
"6954",115.70993,78.238495,88.01438
"6955",115.7233,78.18234,87.90318
"6956",115.7366,78.12375,87.78779
"6957",115.74997,78.065155,87.67056
"6958",115.763275,78.00656,87.551506
"6959",115.77664,77.95285,87.4355
"6960",115.78995,77.89426,87.312935
"6961",115.803314,77.83566,87.18854
"6962",115.81662,77.77951,87.06475
"6963",115.82999,77.72579,86.94164
"6964",115.84329,77.67696,86.82175
"6965",115.85666,77.6379,86.71009
"6966",115.869965,77.611046,86.60942
"6967",115.88333,77.59884,86.52256
"6968",115.89664,77.59884,86.447525
"6969",115.91,77.611046,86.3847
"6970",115.92331,77.63302,86.332016
"6971",115.936676,77.659874,86.284904
"6972",115.94998,77.68917,86.24107
"6973",115.96335,77.71114,86.190834
"6974",115.976654,77.733116,86.14128
"6975",115.99002,77.75021,86.08754
"6976",116.00333,77.75998,86.027
"6977",116.01669,77.76486,85.96188
"6978",116.03,77.803925,85.9311
"6979",116.043365,77.95285,86.0114
"6980",116.05667,78.331276,86.32585
"6981",116.07004,79.046616,86.989044
"6982",116.08334,80.11597,88.0286
"6983",116.09671,81.446556,89.362816
"6984",116.110016,82.845505,90.80697
"6985",116.12338,84.06134,92.111725
"6986",116.13669,84.9012,93.0785
"6987",116.150055,85.28695,93.61741
"6988",116.16336,85.26498,93.76065
"6989",116.17673,84.96712,93.62732
"6990",116.19003,84.53986,93.355286
"6991",116.2034,84.119934,93.077225
"6992",116.216705,83.78546,92.8715
"6993",116.23007,83.56817,92.7725
"6994",116.24338,83.458305,92.77414
"6995",116.256744,83.42901,92.85291
"6996",116.27005,83.421684,92.95274
"6997",116.28342,83.38506,93.02305
"6998",116.29672,83.27764,93.02141
"6999",116.31009,83.075,92.92119
"7000",116.323395,82.794235,92.73652
"7001",116.33676,82.48661,92.51621
"7002",116.35007,82.20584,92.31315
"7003",116.363434,81.99832,92.17456
"7004",116.37674,81.87869,92.11738
"7005",116.39011,81.82742,92.12482
"7006",116.40341,81.80545,92.15995
"7007",116.41678,81.76395,92.174866
"7008",116.430084,81.68337,92.149414
"7009",116.44345,81.54665,92.0653
"7010",116.45676,81.36843,91.93541
"7011",116.47012,81.15602,91.76576
"7012",116.48343,80.92653,91.572395
"7013",116.496796,80.69459,91.36941
"7014",116.5101,80.46754,91.16406
"7015",116.52347,80.24536,90.9565
"7016",116.53677,80.03052,90.74932
"7017",116.55014,79.82788,90.54764
"7018",116.563446,79.63744,90.35182
"7019",116.57681,79.4641,90.16715
"7020",116.59012,79.31274,89.99904
"7021",116.603485,79.17845,89.84328
"7022",116.61679,79.063705,89.70286
"7023",116.63016,78.958725,89.56862
"7024",116.64346,78.86595,89.443306
"7025",116.65683,78.78294,89.32486
"7026",116.670135,78.70725,89.211136
"7027",116.6835,78.63645,89.09994
"7028",116.69681,78.56077,88.98164
"7029",116.710175,78.4802,88.8561
"7030",116.72348,78.39231,88.72072
"7031",116.73685,78.29954,88.577705
"7032",116.75015,78.20676,88.431786
"7033",116.76352,78.116425,88.285416
"7034",116.776825,78.04318,88.15331
"7035",116.79019,77.977264,88.026245
"7036",116.8035,77.92355,87.909325
"7037",116.816864,77.874725,87.79561
"7038",116.83017,77.83078,87.68525
"7039",116.84354,77.78439,87.571075
"7040",116.85684,77.733116,87.45056
"7041",116.87021,77.67696,87.32357
"7042",116.883514,77.62081,87.194824
"7043",116.89688,77.56466,87.06432
"7044",116.91019,77.51339,86.93695
"7045",116.92355,77.47433,86.82018
"7046",116.93686,77.44747,86.7144
"7047",116.950226,77.437706,86.62487
"7048",116.96353,77.44259,86.54968
"7049",116.9769,77.467,86.49418
"7050",116.990204,77.50118,86.4492
"7051",117.00357,77.540245,86.41018
"7052",117.01688,77.57198,86.36505
"7053",117.03024,77.58907,86.30627
"7054",117.04355,77.57931,86.22116
"7055",117.056915,77.54513,86.111336
"7056",117.07022,77.503624,85.99312
"7057",117.08359,77.51339,85.92487
"7058",117.09689,77.68673,86.02051
"7059",117.11026,78.167694,86.429184
"7060",117.123566,79.044174,87.248405
"7061",117.13693,80.29664,88.471
"7062",117.15024,81.78348,89.96711
"7063",117.163605,83.25811,91.497475
"7064",117.17691,84.4593,92.800476
"7065",117.19028,85.206375,93.686905
"7066",117.20358,85.46761,94.11084
"7067",117.21695,85.3431,94.15719
"7068",117.230255,84.99397,93.97503
"7069",117.24362,84.576485,93.7136
"7070",117.25693,84.210266,93.490395
"7071",117.270294,83.9588,93.3705
"7072",117.2836,83.826965,93.36237
"7073",117.29697,83.80255,93.45755
"7074",117.31027,83.844055,93.61788
"7075",117.32364,83.897766,93.79172
"7076",117.336945,83.90265,93.9184
"7077",117.35031,83.809875,93.947586
"7078",117.36362,83.597466,93.85423
"7079",117.37698,83.27764,93.64683
"7080",117.39029,82.90166,93.37327
"7081",117.403656,82.530556,93.09284
"7082",117.41696,82.22781,92.86918
"7083",117.43033,82.01297,92.72395
"7084",117.443634,81.88846,92.662346
"7085",117.457,81.812775,92.645676
"7086",117.47031,81.75174,92.64129
"7087",117.48367,81.66628,92.61057
"7088",117.49698,81.53689,92.53325
"7089",117.510345,81.358665,92.40305
"7090",117.52365,81.126724,92.21357
"7091",117.53702,80.86061,91.982666
"7092",117.55032,80.570076,91.719025
"7093",117.56369,80.272224,91.43899
"7094",117.576996,79.98413,91.1594
"7095",117.59036,79.72289,90.89767
"7096",117.60367,79.49584,90.66196
"7097",117.617035,79.29565,90.44601
"7098",117.63034,79.11986,90.24821
"7099",117.64371,78.96117,90.06201
"7100",117.65701,78.8098,89.87818
"7101",117.67038,78.66575,89.69694
"7102",117.683685,78.52903,89.518524
"7103",117.69705,78.40208,89.345604
"7104",117.71036,78.28733,89.18092
"7105",117.723724,78.187225,89.0273
"7106",117.73703,78.09445,88.87788
"7107",117.7504,78.00412,88.728
"7108",117.7637,77.92111,88.58262
"7109",117.77707,77.838104,88.43465
"7110",117.790375,77.7551,88.28408
"7111",117.80374,77.67208,88.13091
"7112",117.81705,77.58663,87.97272
"7113",117.830414,77.506065,87.816734
"7114",117.84372,77.42306,87.65579
"7115",117.857086,77.34493,87.49714
"7116",117.87039,77.279015,87.34825
"7117",117.88376,77.225296,87.2095
"7118",117.897064,77.18135,87.07885
"7119",117.91043,77.152054,86.96147
"7120",117.92374,77.134964,86.855385
"7121",117.9371,77.12276,86.75365
"7122",117.95041,77.11299,86.65397
"7123",117.963776,77.10567,86.55643
"7124",117.97708,77.0959,86.456215
"7125",117.99045,77.08125,86.350815
"7126",118.00375,77.05684,86.23519
"7127",118.01712,77.02998,86.11636
"7128",118.030426,77.01045,86.00402
"7129",118.04379,77.04463,85.94478
"7130",118.0571,77.23506,86.042854
"7131",118.070465,77.70138,86.42277
"7132",118.08377,78.52903,87.17859
"7133",118.09714,79.68627,88.28986
"7134",118.11044,81.04616,89.639946
"7135",118.12381,82.38407,91.01055
"7136",118.137115,83.46563,92.16661
"7137",118.15048,84.137024,92.946304
"7138",118.16379,84.37629,93.31485
"7139",118.177155,84.27863,93.35395
"7140",118.19046,83.99786,93.20689
"7141",118.20383,83.67315,93.0071
"7142",118.21713,83.404594,92.85333
"7143",118.2305,83.245895,92.801025
"7144",118.243805,83.192184,92.84875
"7145",118.25717,83.21416,92.970474
"7146",118.27048,83.267876,93.12463
"7147",118.283844,83.29229,93.25117
"7148",118.29715,83.23613,93.29789
"7149",118.31052,83.06279,93.22568
"7150",118.32382,82.76738,93.02598
"7151",118.33719,82.38651,92.73159
"7152",118.350494,81.97635,92.396
"7153",118.36386,81.602806,92.08422
"7154",118.37717,81.31716,91.84866
"7155",118.39053,81.13161,91.70427
"7156",118.40384,81.02907,91.63709
"7157",118.417206,80.972916,91.6131
"7158",118.43051,80.92409,91.59467
"7159",118.44388,80.848404,91.54787
"7160",118.457184,80.73121,91.457184
"7161",118.47055,80.570076,91.3189
"7162",118.48386,80.36744,91.13408
"7163",118.49722,80.1355,90.91362
"7164",118.51053,79.88159,90.66395
"7165",118.523895,79.622795,90.40145
"7166",118.5372,79.37377,90.14064
"7167",118.55057,79.13939,89.88669
"7168",118.56387,78.92699,89.64739
"7169",118.57724,78.73655,89.42342
"7170",118.590546,78.56565,89.21304
"7171",118.60391,78.4094,89.01197
"7172",118.61722,78.27268,88.82555
"7173",118.630585,78.150604,88.64949
"7174",118.64389,78.05051,88.4916
"7175",118.65726,77.9675,88.34767
"7176",118.67056,77.89914,88.2158
"7177",118.68393,77.83566,88.08667
"7178",118.697235,77.78439,87.967766
"7179",118.7106,77.738,87.852135
"7180",118.72391,77.68429,87.72774
"7181",118.737274,77.63302,87.6041
"7182",118.75058,77.576866,87.47398
"7183",118.76395,77.51827,87.33967
"7184",118.77725,77.45724,87.20108
"7185",118.79062,77.3962,87.060585
"7186",118.803925,77.33517,86.91818
"7187",118.81729,77.28634,86.78608
"7188",118.8306,77.242386,86.657326
"7189",118.84396,77.20088,86.52965
"7190",118.85727,77.16426,86.405556
"7191",118.870636,77.13008,86.28276
"7192",118.88394,77.09834,86.16134
"7193",118.89731,77.066605,86.038925
"7194",118.910614,77.03975,85.9204
"7195",118.92398,77.02022,85.808365
"7196",118.93729,77.00801,85.70304
"7197",118.95065,77.00313,85.60466
"7198",118.96396,77.00801,85.51589
"7199",118.977325,77.02266,85.43704
"7200",118.99063,77.03975,85.36109
"7201",119.004,77.06172,85.29056
"7202",119.0173,77.08858,85.22559
"7203",119.03067,77.13008,85.17612
"7204",119.043976,77.17647,85.13282
"7205",119.05734,77.225296,85.093414
"7206",119.07065,77.26681,85.04822
"7207",119.084015,77.29366,84.98966
"7208",119.09732,77.30099,84.912415
"7209",119.11069,77.296104,84.82319
"7210",119.12399,77.30099,84.743576
"7211",119.13736,77.35958,84.71783
"7212",119.150665,77.56466,84.84039
"7213",119.16403,78.04318,85.24281
"7214",119.17734,78.88304,86.02152
"7215",119.190704,80.076904,87.18048
"7216",119.20401,81.48562,88.5916
"7217",119.21738,82.88945,90.041855
"7218",119.23068,84.03693,91.279625
"7219",119.24405,84.74738,92.116234
"7220",119.257355,84.98909,92.506294
"7221",119.27072,84.85237,92.52548
"7222",119.28403,84.49348,92.31822
"7223",119.29739,84.06622,92.03139
"7224",119.3107,83.6878,91.78003
"7225",119.324066,83.421684,91.62916
"7226",119.33737,83.29229,91.60669
"7227",119.35074,83.265434,91.68272
"7228",119.364044,83.299614,91.81894
"7229",119.37741,83.32159,91.94402
"7230",119.39072,83.27764,92.003876
"7231",119.40408,83.12138,91.95004
"7232",119.41739,82.847946,91.77415
"7233",119.430756,82.493935,91.50913
"7234",119.44406,82.12283,91.215965
"7235",119.45743,81.7908,90.95027
"7236",119.47073,81.55398,90.76941
"7237",119.4841,81.41726,90.68125
"7238",119.497406,81.36111,90.66939
"7239",119.51077,81.33425,90.68507
"7240",119.52408,81.29763,90.69014
"7241",119.537445,81.21217,90.64523
"7242",119.55075,81.07057,90.54151
"7243",119.56412,80.87526,90.379654
"7244",119.57742,80.65064,90.18239
"7245",119.59079,80.413826,89.965904
"7246",119.604095,80.17456,89.73957
"7247",119.61746,79.94995,89.52042
"7248",119.63077,79.744865,89.31377
"7249",119.644135,79.55932,89.12025
"7250",119.65744,79.39086,88.93802
"7251",119.67081,79.234604,88.762726
"7252",119.68411,79.09544,88.59965
"7253",119.69748,78.96849,88.44443
"7254",119.710785,78.84886,88.292564
"7255",119.72415,78.73899,88.14672
"7256",119.73746,78.641335,88.00966
"7257",119.750824,78.55833,87.88419
"7258",119.76413,78.49241,87.773224
"7259",119.7775,78.43626,87.66996
"7260",119.7908,78.39475,87.57959
"7261",119.80417,78.3679,87.50257
"7262",119.817474,78.345924,87.429596
"7263",119.83084,78.32639,87.358376
"7264",119.84415,78.294655,87.27434
"7265",119.85751,78.25559,87.181984
"7266",119.87082,78.20187,87.07375
"7267",119.884186,78.133514,86.9492
"7268",119.89749,78.06027,86.817635
"7269",119.91086,77.98703,86.68378
"7270",119.924164,77.91867,86.55251
"7271",119.93753,77.855194,86.423996
"7272",119.950836,77.80148,86.30326
"7273",119.9642,77.7551,86.18817
"7274",119.97751,77.72091,86.08383
"7275",119.990875,77.696495,85.9882
"7276",120.00418,77.68185,85.901566
"7277",120.01755,77.679405,85.82668
"7278",120.03085,77.68185,85.75661
"7279",120.04422,77.68429,85.68661
"7280",120.057526,77.68673,85.616684
"7281",120.07089,77.69161,85.54928
"7282",120.0842,77.70382,85.48935
"7283",120.097565,77.730675,85.44445
"7284",120.11087,77.76242,85.40528
"7285",120.12424,77.79904,85.37198
"7286",120.13754,77.83322,85.33738
"7287",120.15091,77.857635,85.29408
"7288",120.164215,77.86984,85.23934
"7289",120.17758,77.872284,85.17522
"7290",120.19089,77.86496,85.1014
"7291",120.204254,77.85275,85.02248
"7292",120.21756,77.86252,84.96514
"7293",120.23093,77.960175,84.996
"7294",120.24423,78.27024,85.242325
"7295",120.2576,78.905014,85.823044
"7296",120.270905,79.90845,86.79226
"7297",120.28427,81.20241,88.08336
"7298",120.29758,82.59159,89.51012
"7299",120.31094,83.826965,90.82648
"7300",120.32425,84.69367,91.812775
"7301",120.337616,85.09407,92.35985
"7302",120.35092,85.07454,92.499504
"7303",120.36429,84.76692,92.350464
"7304",120.377594,84.334785,92.06729
"7305",120.39096,83.90509,91.773056
"7306",120.40427,83.56573,91.555725
"7307",120.41763,83.35088,91.45231
"7308",120.43094,83.250786,91.456924
"7309",120.444305,83.23369,91.54141
"7310",120.45761,83.24834,91.65711
"7311",120.47098,83.23125,91.74153
"7312",120.48428,83.13359,91.74485
"7313",120.49765,82.92851,91.637695
"7314",120.510956,82.62089,91.421585
"7315",120.52432,82.26444,91.14704
"7316",120.53763,81.917755,90.87112
"7317",120.550995,81.636986,90.650276
"7318",120.5643,81.45144,90.515884
"7319",120.57767,81.35378,90.463585
"7320",120.59097,81.307396,90.4595
"7321",120.60434,81.27566,90.46862
"7322",120.617645,81.2195,90.452324
"7323",120.63101,81.129166,90.4001
"7324",120.64432,80.99733,90.30355
"7325",120.657684,80.831314,90.1687
"7326",120.67099,80.63355,89.99692
"7327",120.68436,80.411385,89.79455
"7328",120.69766,80.17944,89.57546
"7329",120.71103,79.95239,89.35402
"7330",120.724335,79.7351,89.13524
"7331",120.7377,79.537346,88.92921
"7332",120.75101,79.35912,88.73653
"7333",120.76437,79.19798,88.55536
"7334",120.77768,79.05638,88.388695
"7335",120.791046,78.941635,88.24446
"7336",120.80435,78.839096,88.10885
"7337",120.81772,78.75365,87.98712
"7338",120.831024,78.677956,87.87248
"7339",120.84439,78.61448,87.76769
"7340",120.8577,78.555885,87.6658
"7341",120.87106,78.502174,87.56696
"7342",120.88437,78.45335,87.47133
"7343",120.897736,78.4094,87.37905
"7344",120.91104,78.36057,87.28052
"7345",120.92441,78.311745,87.18046
"7346",120.93771,78.26536,87.081314
"7347",120.95108,78.21896,86.98071
"7348",120.964386,78.17258,86.87867
"7349",120.97775,78.12131,86.770294
"7350",120.99106,78.0676,86.657875
"7351",121.004425,78.011444,86.541336
"7352",121.01773,77.95773,86.42548
"7353",121.0311,77.90646,86.310394
"7354",121.0444,77.86252,86.20103
"7355",121.05777,77.82834,86.10005
"7356",121.071075,77.7966,86.00045
"7357",121.08444,77.769745,85.90474
"7358",121.09775,77.747765,85.813065
"7359",121.111115,77.733116,85.728035
"7360",121.12442,77.72335,85.64743
"7361",121.13779,77.72335,85.57629
"7362",121.15109,77.72823,85.510025
"7363",121.16446,77.738,85.4488
"7364",121.177765,77.747765,85.38788
"7365",121.19113,77.75998,85.32971
"7366",121.20444,77.77951,85.27924
"7367",121.217804,77.79904,85.229385
"7368",121.23111,77.82834,85.1899
"7369",121.24448,77.857635,85.15134
"7370",121.25778,77.8967,85.12345
"7371",121.27115,77.93576,85.09679
"7372",121.284454,77.97482,85.07134
"7373",121.29782,78.011444,85.04468
"7374",121.31113,78.04074,85.01183
"7375",121.32449,78.06027,84.97014
"7376",121.3378,78.0676,84.91685
"7377",121.351166,78.07004,84.8589
"7378",121.36447,78.07004,84.79859
"7379",121.37784,78.116425,84.78467
"7380",121.39114,78.314186,84.92357
"7381",121.40451,78.80492,85.36162
"7382",121.417816,79.68383,86.203186
"7383",121.43118,80.921646,87.43112
"7384",121.44449,82.371864,88.91014
"7385",121.457855,83.7879,90.4003
"7386",121.47116,84.91585,91.646614
"7387",121.48453,85.57748,92.46186
"7388",121.49783,85.753265,92.81194
"7389",121.5112,85.538414,92.77688
"7390",121.524506,85.09651,92.50805
"7391",121.53787,84.58137,92.15217
"7392",121.55118,84.10773,91.82169
"7393",121.564545,83.75372,91.596054
"7394",121.57785,83.543755,91.50339
"7395",121.59122,83.46807,91.538445
"7396",121.60452,83.49004,91.66879
"7397",121.61789,83.543755,91.831566
"7398",121.631195,83.5584,91.956955
"7399",121.64456,83.475395,91.985146
"7400",121.65787,83.27032,91.88867
"7401",121.671234,82.95781,91.67836
"7402",121.68454,82.58915,91.40213
"7403",121.69791,82.2327,91.12659
"7404",121.71121,81.93973,90.90339
"7405",121.72458,81.739525,90.7638
"7406",121.737885,81.61501,90.69365
"7407",121.75125,81.54421,90.67332
"7408",121.76456,81.48562,90.66298
"7409",121.77792,81.409935,90.63372
"7410",121.79123,81.30007,90.56792
"7411",121.804596,81.15358,90.46205
"7412",121.8179,80.972916,90.31744
"7413",121.83127,80.76784,90.14276
"7414",121.844574,80.54322,89.94214
"7415",121.85794,80.31373,89.72962
"7416",121.87125,80.08667,89.51237
"7417",121.88461,79.871826,89.30023
"7418",121.89792,79.67895,89.10335
"7419",121.911285,79.51537,88.92974
"7420",121.92459,79.381096,88.78032
"7421",121.93796,79.26879,88.648674
"7422",121.95126,79.166245,88.52328
"7423",121.96463,79.07103,88.40201
"7424",121.977936,78.9807,88.282646
"7425",121.9913,78.890366,88.16046
"7426",122.00461,78.80492,88.04034
"7427",122.017975,78.73167,87.92974
"7428",122.03128,78.67307,87.83151
"7429",122.04465,78.6218,87.73878
"7430",122.05795,78.57786,87.651764
"7431",122.07132,78.538795,87.56826
"7432",122.084625,78.49973,87.483536
"7433",122.09799,78.45579,87.39271
"7434",122.1113,78.4094,87.298065
"7435",122.124664,78.35569,87.19465
"7436",122.13797,78.2971,87.08467
"7437",122.15134,78.238495,86.972855
"7438",122.16464,78.18234,86.86166
"7439",122.17801,78.12375,86.74626
"7440",122.191315,78.0676,86.63148
"7441",122.20468,78.01633,86.51982
"7442",122.21799,77.9675,86.409004
"7443",122.23135,77.92355,86.301544
"7444",122.24466,77.88205,86.19515
"7445",122.258026,77.84543,86.09235
"7446",122.27133,77.81369,85.99328
"7447",122.2847,77.79416,85.905426
"7448",122.298004,77.78439,85.82673
"7449",122.31137,77.77951,85.75261
"7450",122.32468,77.77951,85.68322
"7451",122.33804,77.786835,85.621155
"7452",122.35135,77.7966,85.56176
"7453",122.364716,77.81125,85.50755
"7454",122.37802,77.83078,85.45869
"7455",122.39139,77.85275,85.41287
"7456",122.40469,77.87717,85.370186
"7457",122.41806,77.8967,85.32338
"7458",122.431366,77.91867,85.279625
"7459",122.44473,77.94064,85.23656
"7460",122.45804,77.96994,85.2015
"7461",122.471405,78.00168,85.1698
"7462",122.48471,78.03586,85.14153
"7463",122.49808,78.07248,85.116776
"7464",122.51138,78.11398,85.098045
"7465",122.52475,78.153046,85.07817
"7466",122.538055,78.18967,85.057076
"7467",122.55142,78.21652,85.02736
"7468",122.56473,78.22873,84.98383
"7469",122.578094,78.23361,84.933365
"7470",122.5914,78.260475,84.90503
"7471",122.60477,78.4094,84.999596
"7472",122.61807,78.82933,85.36982
"7473",122.63144,79.63744,86.14135
"7474",122.644745,80.84352,87.3361
"7475",122.65811,82.3328,88.85174
"7476",122.67142,83.86359,90.45542
"7477",122.684784,85.152664,91.865234
"7478",122.69809,85.98276,92.856346
"7479",122.71146,86.275734,93.33628
"7480",122.72476,86.10727,93.36393
"7481",122.73813,85.63851,93.08602
"7482",122.751434,85.03792,92.66163
"7483",122.7648,84.44709,92.22823
"7484",122.77811,83.96124,91.881355
"7485",122.79147,83.614555,91.658455
"7486",122.80478,83.40948,91.56633
"7487",122.818146,83.32159,91.584984
"7488",122.83145,83.299614,91.66681
"7489",122.84482,83.27764,91.74795
"7490",122.85812,83.20683,91.779564
"7491",122.87149,83.05058,91.723526
"7492",122.884796,82.80156,91.56983
"7493",122.89816,82.496376,91.352196
"7494",122.91147,82.18387,91.1177
"7495",122.924835,81.917755,90.91983
"7496",122.93814,81.72976,90.79176
"7497",122.95151,81.61501,90.73107
"7498",122.96481,81.54177,90.7083
"7499",122.97818,81.47341,90.68812
"7500",122.991486,81.373314,90.63406
"7501",123.00485,81.22438,90.528046
"7502",123.01816,81.02907,90.370995
"7503",123.031525,80.80934,90.183426
"7504",123.04483,80.587166,89.98654
"7505",123.0582,80.37965,89.79737
"7506",123.0715,80.20874,89.63833
"7507",123.08487,80.08179,89.5179
"7508",123.098175,79.9939,89.43256
"7509",123.11154,79.93286,89.37134
"7510",123.12485,79.87671,89.31309
"7511",123.138214,79.81079,89.24332
"7512",123.15152,79.72045,89.147064
"7513",123.16489,79.605705,89.02358
"7514",123.17819,79.47387,88.879425
"7515",123.19156,79.34203,88.73115
"7516",123.204865,79.2224,88.59095
"7517",123.21823,79.11986,88.46411
"7518",123.23154,79.03441,88.35116
"7519",123.2449,78.96605,88.252625
"7520",123.25821,78.91234,88.1666
"7521",123.271576,78.86839,88.08867
"7522",123.28488,78.82689,88.0118
"7523",123.29825,78.78783,87.93608
"7524",123.311554,78.74143,87.85181
"7525",123.32492,78.68284,87.75388
"7526",123.33823,78.61448,87.64436
"7527",123.35159,78.536354,87.52294
"7528",123.3649,78.44602,87.38687
"7529",123.378265,78.35813,87.25042
"7530",123.39157,78.27024,87.11122
"7531",123.40494,78.184784,86.97171
"7532",123.41824,78.1091,86.8393
"7533",123.43161,78.04074,86.71185
"7534",123.444916,77.977264,86.58715
"7535",123.45828,77.91867,86.46535
"7536",123.47159,77.8674,86.34904
"7537",123.484955,77.83078,86.24577
"7538",123.49826,77.803925,86.15113
"7539",123.51163,77.79172,86.0703
"7540",123.52493,77.786835,85.99641
"7541",123.5383,77.789276,85.92969
"7542",123.551605,77.80148,85.87281
"7543",123.56497,77.823456,85.82608
"7544",123.57828,77.85031,85.78492
"7545",123.591644,77.88693,85.754364
"7546",123.60495,77.925995,85.727394
"7547",123.61832,77.9675,85.70409
"7548",123.63162,78.00412,85.67719
"7549",123.64499,78.03342,85.64412
"7550",123.658295,78.06027,85.60952
"7551",123.67166,78.08713,85.57576
"7552",123.68497,78.1091,85.53796
"7553",123.69833,78.12131,85.49107
"7554",123.71164,78.135956,85.447014
"7555",123.725006,78.16525,85.41806
"7556",123.73831,78.25315,85.44862
"7557",123.75168,78.51438,85.655266
"7558",123.764984,79.09056,86.18502
"7559",123.77835,80.059814,87.125854
"7560",123.79166,81.38552,88.45343
"7561",123.80502,82.90898,90.02019
"7562",123.81833,84.37629,91.5784
"7563",123.831696,85.523766,92.86263
"7564",123.845,86.17563,93.68711
"7565",123.85837,86.30503,94.0095
"7566",123.87167,86.00473,93.90623
"7567",123.88504,85.42611,93.51525
"7568",123.898346,84.72297,92.981674
"7569",123.91171,84.02228,92.42857
"7570",123.92502,83.41924,91.95123
"7571",123.938385,82.96025,91.59909
"7572",123.95169,82.65751,91.388855
"7573",123.96506,82.48417,91.29856
"7574",123.97836,82.38407,91.27609
"7575",123.99173,82.29862,91.265144
"7576",124.005035,82.17166,91.210014
"7577",124.0184,81.988556,91.09477
"7578",124.03171,81.75662,90.92498
"7579",124.045074,81.52224,90.74549
"7580",124.05838,81.33181,90.60263
"7581",124.07175,81.2195,90.53194
"7582",124.08505,81.18288,90.533424
"7583",124.09842,81.19508,90.582596
"7584",124.111725,81.22194,90.6468
"7585",124.12509,81.2195,90.68254
"7586",124.1384,81.163345,90.6645
"7587",124.151764,81.041275,90.57878
"7588",124.16507,80.86549,90.43554
"7589",124.17844,80.64088,90.23797
"7590",124.19174,80.394295,90.01141
"7591",124.20511,80.147705,89.777145
"7592",124.218414,79.91821,89.55227
"7593",124.23178,79.72045,89.35195
"7594",124.24509,79.55932,89.18208
"7595",124.25845,79.429924,89.03892
"7596",124.27176,79.32494,88.91612
"7597",124.285126,79.23949,88.80957
"7598",124.29843,79.166245,88.71256
"7599",124.3118,79.097885,88.61815
"7600",124.3251,79.027084,88.51916
"7601",124.33847,78.958725,88.420395
"7602",124.351776,78.890366,88.319496
"7603",124.36514,78.82689,88.221344
"7604",124.37845,78.77074,88.12853
"7605",124.391815,78.73167,88.05105
"7606",124.40512,78.70725,87.987
"7607",124.41849,78.69749,87.93684
"7608",124.43179,78.69016,87.88881
"7609",124.44516,78.677956,87.83567
"7610",124.458466,78.66331,87.77971
"7611",124.47183,78.63889,87.713524
"7612",124.48514,78.60227,87.63437
"7613",124.498505,78.56077,87.54919
"7614",124.51181,78.521706,87.46515
"7615",124.52518,78.4802,87.37745
"7616",124.53848,78.433815,87.28357
"7617",124.55185,78.38499,87.1858
"7618",124.565155,78.33616,87.0865
"7619",124.57852,78.28489,86.98324
"7620",124.59183,78.24094,86.88569
"7621",124.605194,78.21164,86.80142
"7622",124.6185,78.20187,86.73577
"7623",124.63187,78.20676,86.68446
"7624",124.64517,78.22385,86.645515
"7625",124.65854,78.24826,86.614426
"7626",124.671844,78.27512,86.58655
"7627",124.68521,78.29221,86.549736
"7628",124.69852,78.2971,86.50125
"7629",124.71188,78.28733,86.43827
"7630",124.72519,78.27268,86.3701
"7631",124.738556,78.311745,86.35519
"7632",124.75186,78.521706,86.51239
"7633",124.76523,79.03685,86.98134
"7634",124.778534,79.93286,87.84725
"7635",124.7919,81.15846,89.070755
"7636",124.80521,82.55985,90.50835
"7637",124.81857,83.88312,91.911606
"7638",124.83188,84.89143,93.04127
"7639",124.845245,85.43343,93.73612
"7640",124.85855,85.50179,93.97427
"7641",124.87192,85.19173,93.836136
"7642",124.88522,84.65217,93.45882
"7643",124.89859,84.0296,92.98163
"7644",124.911896,83.43145,92.5094
"7645",124.92526,82.92851,92.11369
"7646",124.93857,82.55985,91.83655
"7647",124.951935,82.32304,91.679726
"7648",124.96524,82.19852,91.6278
"7649",124.97861,82.13504,91.633026
"7650",124.99191,82.08377,91.648476
"7651",125.00528,81.986115,91.61594
"7652",125.018585,81.8201,91.511986
"7653",125.03195,81.5906,91.33936
"7654",125.04526,81.341576,91.140045
"7655",125.058624,81.1194,90.95979
"7656",125.07193,80.96803,90.84341
"7657",125.0853,80.89723,90.80286
"7658",125.0986,80.88258,90.816246
"7659",125.11197,80.885025,90.84627
"7660",125.125275,80.87282,90.86172
"7661",125.13864,80.816666,90.83284
"7662",125.15195,80.70191,90.74361
"7663",125.16531,80.53834,90.60197
"7664",125.17862,80.33814,90.418594
"7665",125.191986,80.11597,90.206985
"7666",125.20529,79.886475,89.98112
"7667",125.21866,79.66918,89.76028
"7668",125.231964,79.466545,89.5473
"7669",125.24533,79.28344,89.34753
"7670",125.25864,79.114975,89.15667
"7671",125.272,78.96117,88.975204
"7672",125.28531,78.82689,88.808464
"7673",125.298676,78.70725,88.65217
"7674",125.31198,78.607155,88.51167
"7675",125.32535,78.53147,88.39246
"7676",125.33865,78.47776,88.29286
"7677",125.35202,78.44358,88.21111
"7678",125.365326,78.433815,88.15271
"7679",125.37869,78.43626,88.10621
"7680",125.392,78.44602,88.06711
"7681",125.405365,78.450905,88.02343
"7682",125.41867,78.44602,87.97014
"7683",125.43204,78.42649,87.90205
"7684",125.44534,78.39475,87.82114
"7685",125.45871,78.35813,87.73435
"7686",125.472015,78.31907,87.64398
"7687",125.48538,78.27512,87.54751
"7688",125.49869,78.22385,87.44233
"7689",125.512054,78.170135,87.333115
"7690",125.52536,78.10666,87.212456
"7691",125.53873,78.04562,87.092255
"7692",125.55203,77.98215,86.967705
"7693",125.5654,77.92111,86.84361
"7694",125.578705,77.86252,86.720055
"7695",125.59207,77.803925,86.594666
"7696",125.60538,77.747765,86.46988
"7697",125.618744,77.69894,86.35067
"7698",125.63205,77.67452,86.25435
"7699",125.64542,77.67696,86.18412
"7700",125.65872,77.69894,86.1335
"7701",125.67209,77.733116,86.09577
"7702",125.685394,77.76486,86.05668
"7703",125.69876,77.789276,86.011246
"7704",125.71207,77.803925,85.95681
"7705",125.72543,77.806366,85.890625
"7706",125.73874,77.806366,85.822075
"7707",125.752106,77.83078,85.77794
"7708",125.76541,77.960175,85.83955
"7709",125.77878,78.33372,86.149345
"7710",125.79208,79.078354,86.84191
"7711",125.80545,80.22339,87.958145
"7712",125.818756,81.65652,89.398254
"7713",125.83212,83.160446,90.95395
"7714",125.84543,84.46418,92.356445
"7715",125.858795,85.34066,93.37243
"7716",125.8721,85.70199,93.90065
"7717",125.88547,85.609215,93.98606
"7718",125.89877,85.21126,93.76339
"7719",125.91214,84.66682,93.3818
"7720",125.925446,84.11261,92.97343
"7721",125.93881,83.63653,92.62586
"7722",125.95212,83.28985,92.39282
"7723",125.965485,83.08232,92.2881
"7724",125.97879,82.98222,92.284325
"7725",125.99216,82.95293,92.34822
"7726",126.00546,82.93584,92.42341
"7727",126.01883,82.882126,92.46144
"7728",126.032135,82.74784,92.41722
"7729",126.0455,82.530556,92.285805
"7730",126.05881,82.24979,92.084114
"7731",126.072174,81.95438,91.85901
"7732",126.08548,81.6907,91.6564
"7733",126.09885,81.495384,91.51392
"7734",126.11215,81.375755,91.441025
"7735",126.12552,81.31472,91.42298
"7736",126.138824,81.2781,91.427444
"7737",126.15219,81.234146,91.42343
"7738",126.1655,81.15846,91.386314
"7739",126.17886,81.03883,91.30289
"7740",126.19217,80.8777,91.17422
"7741",126.205536,80.6775,91.00144
"7742",126.21884,80.45289,90.798004
"7743",126.23221,80.21118,90.57045
"7744",126.245514,79.96704,90.33291
"7745",126.25888,79.73998,90.10482
"7746",126.27219,79.53002,89.886734
"7747",126.28555,79.33959,89.68162
"7748",126.29886,79.168686,89.490074
"7749",126.312225,79.01732,89.31273
"7750",126.32553,78.87816,89.14286
"7751",126.3389,78.75365,88.98329
"7752",126.3522,78.64622,88.836914
"7753",126.36557,78.551,88.699394
"7754",126.378876,78.47288,88.57599
"7755",126.39224,78.40452,88.45991
"7756",126.40555,78.34348,88.349014
"7757",126.418915,78.28977,88.24354
"7758",126.43222,78.25071,88.15103
"7759",126.44559,78.21652,88.06218
"7760",126.45889,78.18234,87.97227
"7761",126.47226,78.14328,87.8764
"7762",126.485565,78.101776,87.77688
"7763",126.49893,78.05539,87.67117
"7764",126.51224,78.00656,87.56158
"7765",126.525604,77.95773,87.450455
"7766",126.53891,77.90646,87.335365
"7767",126.55228,77.85275,87.21623
"7768",126.56558,77.789276,87.085655
"7769",126.57895,77.72335,86.950645
"7770",126.592255,77.66476,86.82091
"7771",126.60562,77.608604,86.69178
"7772",126.61893,77.5671,86.57555
"7773",126.63229,77.540245,86.472664
"7774",126.6456,77.52804,86.38359
"7775",126.658966,77.51827,86.29658
"7776",126.67227,77.51583,86.21658
"7777",126.68564,77.51339,86.13651
"7778",126.698944,77.506065,86.05148
"7779",126.71231,77.4963,85.96378
"7780",126.72562,77.488976,85.87822
"7781",126.73898,77.488976,85.79975
"7782",126.75229,77.49874,85.73105
"7783",126.765656,77.51583,85.669975
"7784",126.77896,77.5378,85.61432
"7785",126.79233,77.56466,85.56423
"7786",126.80563,77.591515,85.514984
"7787",126.819,77.61349,85.46169
"7788",126.832306,77.63058,85.404205
"7789",126.84567,77.642784,85.34237
"7790",126.85898,77.67696,85.30289
"7791",126.872345,77.823456,85.376785
"7792",126.88565,78.22629,85.7116
"7793",126.89902,79.009995,86.43988
"7794",126.91232,80.18677,87.58572
"7795",126.92569,81.64675,89.05154
"7796",126.938995,83.15556,90.61181
"7797",126.95236,84.43,91.984856
"7798",126.96567,85.25521,92.9485
"7799",126.979034,85.55062,93.408134
"7800",126.99234,85.39193,93.4229
"7801",127.00571,84.93538,93.13484
"7802",127.01901,84.349434,92.703125
"7803",127.03238,83.77081,92.26042
"7804",127.045685,83.29473,91.902176
"7805",127.05905,82.96025,91.670654
"7806",127.07236,82.76982,91.57273
"7807",127.085724,82.701454,91.59092
"7808",127.09903,82.701454,91.67534
"7809",127.1124,82.71366,91.771965
"7810",127.1257,82.6746,91.8177
"7811",127.13907,82.54276,91.76945
"7812",127.152374,82.30595,91.61209
"7813",127.16574,81.99832,91.376526
"7814",127.17905,81.66628,91.10693
"7815",127.19241,81.373314,90.866035
"7816",127.20572,81.15602,90.69166
"7817",127.219086,81.02663,90.59839
"7818",127.23239,80.95827,90.56211
"7819",127.24576,80.91188,90.54567
"7820",127.25906,80.85329,90.51557
"7821",127.27243,80.76051,90.44946
"7822",127.285736,80.62379,90.3365
"7823",127.2991,80.448006,90.180214
"7824",127.31241,80.24536,89.99157
"7825",127.325775,80.02319,89.77707
"7826",127.33908,79.79614,89.55074
"7827",127.35245,79.57397,89.3222
"7828",127.36575,79.35668,89.0916
"7829",127.37912,79.15892,88.87373
"7830",127.392426,78.97337,88.6619
"7831",127.40579,78.81224,88.46869
"7832",127.4191,78.66819,88.28752
"7833",127.432465,78.54856,88.126274
"7834",127.44577,78.44358,87.97594
"7835",127.45914,78.35569,87.83941
"7836",127.47244,78.277565,87.7099
"7837",127.48581,78.21408,87.59259
"7838",127.499115,78.16281,87.48551
"7839",127.51248,78.116425,87.381714
"7840",127.52579,78.07004,87.27647
"7841",127.539154,78.028534,87.17465
"7842",127.55246,77.98459,87.0691
"7843",127.56583,77.943085,86.964615
"7844",127.57913,77.90646,86.863716
"7845",127.5925,77.87717,86.769
"7846",127.605804,77.85031,86.675804
"7847",127.61917,77.82834,86.586655
"7848",127.63248,77.806366,86.49682
"7849",127.64584,77.78439,86.406296
"7850",127.65915,77.75998,86.312645
"7851",127.672516,77.730675,86.21334
"7852",127.68582,77.69894,86.11069
"7853",127.69919,77.66964,86.00948
"7854",127.712494,77.64034,85.907364
"7855",127.72586,77.61593,85.80921
"7856",127.73917,77.5964,85.71518
"7857",127.75253,77.58419,85.62786
"7858",127.76584,77.574425,85.5426
"7859",127.779205,77.56954,85.46192
"7860",127.79251,77.57198,85.38841
"7861",127.80588,77.57931,85.31986
"7862",127.81918,77.593956,85.258865
"7863",127.83255,77.62081,85.21053
"7864",127.845856,77.65499,85.170364
"7865",127.85922,77.696495,85.13859
"7866",127.87253,77.738,85.10811
"7867",127.885895,77.77463,85.07405
"7868",127.8992,77.806366,85.03625
"7869",127.91257,77.838104,84.999435
"7870",127.92587,77.86984,84.963615
"7871",127.93924,77.90158,84.92879
"7872",127.952545,77.93576,84.89739
"7873",127.96591,77.962616,84.85974
"7874",127.97922,77.979706,84.81316
"7875",127.992584,77.99924,84.76956
"7876",128.00589,78.07004,84.77784
"7877",128.01926,78.30686,84.95435
"7878",128.03256,78.84642,85.441
"7879",128.04593,79.75708,86.31561
"7880",128.05923,80.99977,87.55071
"7881",128.0726,82.406044,88.98823
"7882",128.0859,83.717094,90.374466
"7883",128.09927,84.68391,91.457436
"7884",128.11258,85.15999,92.07989
"7885",128.12595,85.14778,92.22893
"7886",128.13925,84.76936,92.011375
"7887",128.15262,84.190735,91.58179
"7888",128.16592,83.563286,91.0853
"7889",128.17929,82.99443,90.62779
"7890",128.1926,82.55009,90.27702
"7891",128.20596,82.24979,90.05641
"7892",128.21927,82.08621,89.96314
"7893",128.23264,82.03006,89.97218
"7894",128.24594,82.020294,90.025856
"7895",128.25931,81.99832,90.06702
"7896",128.27261,81.91287,90.044014
"7897",128.28598,81.74929,89.94021
"7898",128.29929,81.514915,89.7605
"7899",128.31265,81.25857,89.55149
"7900",128.32596,81.03151,89.36376
"7901",128.33932,80.87282,89.237305
"7902",128.35263,80.78737,89.17913
"7903",128.366,80.75807,89.17444
"7904",128.3793,80.7483,89.188354
"7905",128.39267,80.72144,89.18488
"7906",128.40598,80.66285,89.148834
"7907",128.41934,80.56275,89.06945
"7908",128.43265,80.42603,88.95032
"7909",128.44601,80.257576,88.79517
"7910",128.45932,80.06714,88.612785
"7911",128.47269,79.869385,88.41713
"7912",128.486,79.67162,88.21529
"7913",128.49936,79.483635,88.01704
"7914",128.51266,79.31762,87.834885
"7915",128.52603,79.17113,87.66707
"7916",128.53934,79.044174,87.51421
"7917",128.5527,78.93919,87.379364
"7918",128.56601,78.84642,87.25344
"7919",128.57938,78.77318,87.14415
"7920",128.59268,78.71458,87.04721
"7921",128.60605,78.66819,86.960655
"7922",128.61935,78.63401,86.88486
"7923",128.63272,78.61204,86.8202
"7924",128.64603,78.59251,86.75729
"7925",128.6594,78.58274,86.703545
"7926",128.6727,78.57786,86.65437
"7927",128.68607,78.57786,86.60993
"7928",128.69937,78.57542,86.56305
"7929",128.71274,78.57053,86.51365
"7930",128.72604,78.55833,86.45677
"7931",128.73941,78.54124,86.39463
"7932",128.75272,78.521706,86.32951
"7933",128.76608,78.49729,86.2589
"7934",128.77939,78.47288,86.18753
"7935",128.79276,78.44358,86.11051
"7936",128.80606,78.41184,86.030136
"7937",128.81943,78.37766,85.94633
"7938",128.83273,78.345924,85.86389
"7939",128.8461,78.31907,85.78535
"7940",128.8594,78.2971,85.710846
"7941",128.87277,78.28001,85.64054
"7942",128.88608,78.2678,85.574585
"7943",128.89944,78.25803,85.51069
"7944",128.91275,78.25559,85.45381
"7945",128.92612,78.26536,85.409065
"7946",128.93942,78.28977,85.37927
"7947",128.95279,78.32395,85.36001
"7948",128.9661,78.3679,85.35158
"7949",128.97946,78.41428,85.34696
"7950",128.99277,78.44602,85.32915
"7951",129.00613,78.45823,85.29279
"7952",129.01944,78.46311,85.2495
"7953",129.0328,78.51438,85.25274
"7954",129.04611,78.72434,85.416275
"7955",129.05948,79.22484,85.87691
"7956",129.07278,80.08179,86.70963
"7957",129.08615,81.23903,87.86943
"7958",129.09946,82.533,89.20212
"7959",129.11282,83.72686,90.475136
"7960",129.12613,84.59113,91.45587
"7961",129.1395,84.98909,91.9973
"7962",129.1528,84.93538,92.099495
"7963",129.16617,84.54719,91.86553
"7964",129.17947,83.980774,91.441216
"7965",129.19284,83.38262,90.96746
"7966",129.20615,82.85283,90.54337
"7967",129.21951,82.44755,90.22724
"7968",129.23282,82.18631,90.04249
"7969",129.24619,82.04959,89.97409
"7970",129.25949,81.991,89.979546
"7971",129.27286,81.96414,90.01491
"7972",129.28616,81.90555,90.01769
"7973",129.29953,81.78104,89.95273
"7974",129.31284,81.5906,89.81795
"7975",129.3262,81.36355,89.6406
"7976",129.33951,81.15602,89.475685
"7977",129.35287,81.01442,89.37021
"7978",129.36618,80.953384,89.34087
"7979",129.37955,80.955826,89.37311
"7980",129.39285,80.98024,89.42739
"7981",129.40622,80.99245,89.47023
"7982",129.41953,80.96315,89.47195
"7983",129.43289,80.88747,89.42636
"7984",129.4462,80.76784,89.334465
"7985",129.45956,80.61402,89.20464
"7986",129.47287,80.43824,89.04805
"7987",129.48624,80.25025,88.87376
"7988",129.49954,80.062256,88.69358
"7989",129.51291,79.886475,88.519745
"7990",129.52621,79.73266,88.36238
"7991",129.53958,79.59594,88.21731
"7992",129.55289,79.48119,88.089935
"7993",129.56625,79.38842,87.98095
"7994",129.57956,79.310295,87.88371
"7995",129.59293,79.24193,87.79379
"7996",129.60623,79.18089,87.70907
"7997",129.6196,79.13451,87.637085
"7998",129.6329,79.097885,87.57342
"7999",129.64627,79.07347,87.52081
"8000",129.65958,79.063705,87.48209
"8001",129.67294,79.063705,87.452835
"8002",129.68625,79.06859,87.42846
"8003",129.69962,79.07591,87.40668
"8004",129.71292,79.078354,87.38024
"8005",129.72629,79.07591,87.349
"8006",129.7396,79.06615,87.310356
"8007",129.75296,79.04906,87.264084
"8008",129.76627,79.027084,87.212395
"8009",129.77963,78.99779,87.152695
"8010",129.79294,78.96117,87.084755
"8011",129.8063,78.907455,86.99858
"8012",129.81961,78.84154,86.89852
"8013",129.83298,78.768295,86.78908
"8014",129.84628,78.69749,86.67978
"8015",129.85965,78.63889,86.58048
"8016",129.87296,78.60471,86.50377
"8017",129.88632,78.59739,86.45284
"8018",129.89963,78.6096,86.42122
"8019",129.913,78.63401,86.40218
"8020",129.9263,78.66331,86.388794
"8021",129.93967,78.68772,86.37144
"8022",129.95297,78.69993,86.342636
"8023",129.96634,78.692604,86.294685
"8024",129.97964,78.677956,86.23918
"8025",129.99301,78.70237,86.22228
"8026",130.00632,78.87572,86.35508
"8027",130.01968,79.3225,86.76673
"8028",130.03299,80.12329,87.54635
"8029",130.04636,81.23659,88.6635
"8030",130.05966,82.52079,89.98634
"8031",130.07303,83.74151,91.285835
"8032",130.08633,84.6717,92.33295
"8033",130.0997,85.16487,92.97211
"8034",130.113,85.20882,93.17745
"8035",130.12637,84.91341,93.044815
"8036",130.13968,84.420235,92.705185
"8037",130.15305,83.87091,92.29399
"8038",130.16635,83.38506,91.92911
"8039",130.17972,83.021286,91.67111
"8040",130.19302,82.80888,91.55312
"8041",130.20639,82.72831,91.560326
"8042",130.2197,82.74296,91.66023
"8043",130.23306,82.78203,91.78502
"8044",130.24637,82.777145,91.86707
"8045",130.25974,82.68192,91.858635
"8046",130.27304,82.4744,91.734924
"8047",130.2864,82.18631,91.524155
"8048",130.29971,81.86893,91.27509
"8049",130.31308,81.58083,91.0454
"8050",130.32639,81.36111,90.87508
"8051",130.33975,81.22682,90.783325
"8052",130.35306,81.15114,90.74598
"8053",130.36642,81.109634,90.74045
"8054",130.37973,81.06569,90.73118
"8055",130.3931,81.007095,90.70589
"8056",130.4064,80.91432,90.644585
"8057",130.41977,80.78493,90.54376
"8058",130.43307,80.62623,90.40959
"8059",130.44644,80.445564,90.2485
"8060",130.45975,80.25269,90.06955
"8061",130.47311,80.059814,89.88457
"8062",130.48642,79.87671,89.70333
"8063",130.49979,79.708244,89.53101
"8064",130.51309,79.551994,89.36565
"8065",130.52646,79.40551,89.20516
"8066",130.53976,79.273674,89.05475
"8067",130.55313,79.149155,88.90753
"8068",130.56644,79.03929,88.77108
"8069",130.5798,78.94896,88.65073
"8070",130.59311,78.887924,88.55685
"8071",130.60648,78.853745,88.487915
"8072",130.61978,78.84398,88.44233
"8073",130.63315,78.84398,88.406204
"8074",130.64645,78.839096,88.3652
"8075",130.65982,78.82689,88.31671
"8076",130.67313,78.802475,88.25564
"8077",130.6865,78.77074,88.18648
"8078",130.6998,78.73167,88.10899
"8079",130.71317,78.69749,88.03518
"8080",130.72647,78.658424,87.955414
"8081",130.73984,78.61692,87.87199
"8082",130.75314,78.572975,87.78482
"8083",130.76651,78.521706,87.68896
"8084",130.77982,78.470436,87.59149
"8085",130.79318,78.42161,87.494865
"8086",130.80649,78.382545,87.40648
"8087",130.81985,78.35813,87.33152
"8088",130.83316,78.345924,87.268005
"8089",130.84653,78.3386,87.20899
"8090",130.85983,78.33616,87.15463
"8091",130.8732,78.33372,87.1002
"8092",130.8865,78.33616,87.05057
"8093",130.89987,78.3386,87.001015
"8094",130.91318,78.34348,86.95398
"8095",130.92654,78.35325,86.91198
"8096",130.93985,78.365456,86.87273
"8097",130.95322,78.382545,86.83874
"8098",130.96652,78.397194,86.80284
"8099",130.97989,78.416725,86.772285
"8100",130.9932,78.433815,86.7399
"8101",131.00656,78.44358,86.70072
"8102",131.01987,78.4387,86.6472
"8103",131.03323,78.41917,86.57888
"8104",131.04654,78.38743,86.49774
"8105",131.0599,78.37278,86.4327
"8106",131.07321,78.450905,86.45998
"8107",131.08658,78.751205,86.71187
"8108",131.09988,79.3933,87.31494
"8109",131.11325,80.40894,88.31162
"8110",131.12656,81.705345,89.620804
"8111",131.13992,83.07744,91.04619
"8112",131.15323,84.27131,92.33623
"8113",131.1666,85.06966,93.26805
"8114",131.1799,85.38949,93.74631
"8115",131.19327,85.28939,93.81463
"8116",131.20657,84.91585,93.60638
"8117",131.21994,84.43,93.27415
"8118",131.23325,83.96857,92.95115
"8119",131.24661,83.60967,92.71627
"8120",131.25992,83.387505,92.6069
"8121",131.27328,83.28741,92.61266
"8122",131.28659,83.265434,92.69342
"8123",131.29996,83.265434,92.79546
"8124",131.31326,83.23857,92.87064
"8125",131.32663,83.13359,92.86687
"8126",131.33994,82.92607,92.75727
"8127",131.3533,82.62333,92.54597
"8128",131.36661,82.26444,92.26906
"8129",131.37997,81.898224,91.9736
"8130",131.39328,81.58083,91.71553
"8131",131.40665,81.34646,91.530556
"8132",131.41995,81.20729,91.433464
"8133",131.43332,81.13649,91.40039
"8134",131.44662,81.10475,91.40417
"8135",131.45999,81.07301,91.40695
"8136",131.4733,81.024185,91.391655
"8137",131.48666,80.936295,91.33577
"8138",131.49997,80.80446,91.23319
"8139",131.51334,80.635994,91.08987
"8140",131.52664,80.44312,90.91687
"8141",131.54001,80.233154,90.72075
"8142",131.55331,80.01831,90.51319
"8143",131.56668,79.81079,90.306244
"8144",131.57999,79.62035,90.10989
"8145",131.59335,79.447014,89.92469
"8146",131.60666,79.290764,89.75116
"8147",131.62003,79.15404,89.59227
"8148",131.63333,79.03929,89.45109
"8149",131.6467,78.941635,89.32341
"8150",131.66,78.86107,89.20977
"8151",131.67337,78.8098,89.12291
"8152",131.68668,78.77806,89.05398
"8153",131.70004,78.75853,88.99626
"8154",131.71335,78.74143,88.94037
"8155",131.72672,78.72678,88.88639
"8156",131.74002,78.71458,88.8344
"8157",131.75339,78.70481,88.78446
"8158",131.7667,78.695045,88.73422
"8159",131.78006,78.68772,88.68612
"8160",131.79337,78.67307,88.63046
"8161",131.80673,78.641335,88.55726
"8162",131.82004,78.59739,88.470856
"8163",131.8334,78.54856,88.3782
"8164",131.84671,78.504616,88.288895
"8165",131.86008,78.470436,88.207985
"8166",131.87338,78.44846,88.138214
"8167",131.88675,78.44114,88.082405
"8168",131.90005,78.44358,88.03613
"8169",131.91342,78.44602,87.98994
"8170",131.92673,78.4387,87.93405
"8171",131.9401,78.42405,87.87061
"8172",131.9534,78.40208,87.79939
"8173",131.96677,78.382545,87.72993
"8174",131.98007,78.363014,87.65985
"8175",131.99344,78.363014,87.608696
"8176",132.00674,78.382545,87.57707
"8177",132.02011,78.42405,87.56803
"8178",132.03342,78.47288,87.56761
"8179",132.04678,78.53147,87.57848
"8180",132.06009,78.5803,87.58142
"8181",132.07346,78.61936,87.57612
"8182",132.08676,78.641335,87.55495
"8183",132.10013,78.658424,87.52958
"8184",132.11343,78.66819,87.49742
"8185",132.1268,78.6804,87.46801
"8186",132.1401,78.69993,87.446304
"8187",132.15347,78.7219,87.42765
"8188",132.16678,78.75365,87.41946
"8189",132.18015,78.79271,87.41957
"8190",132.19345,78.836655,87.42579
"8191",132.20682,78.8806,87.43338
"8192",132.22012,78.91234,87.43014
"8193",132.23349,78.924545,87.408356
"8194",132.2468,78.9099,87.3601
"8195",132.26016,78.86351,87.27965
"8196",132.27347,78.79759,87.178215
"8197",132.28683,78.77318,87.11623
"8198",132.30014,78.90013,87.20484
"8199",132.3135,79.31762,87.58796
"8200",132.32681,80.113525,88.36254
"8201",132.34018,81.26345,89.516014
"8202",132.35349,82.6038,90.89584
"8203",132.36685,83.88556,92.25897
"8204",132.38016,84.857254,93.35209
"8205",132.39352,85.350426,93.99705
"8206",132.40683,85.35775,94.17157
"8207",132.4202,84.99397,93.97522
"8208",132.4335,84.43244,93.56975
"8209",132.44687,83.826965,93.10278
"8210",132.46017,83.3045,92.699905
"8211",132.47354,82.92607,92.42474
"8212",132.48685,82.70634,92.29645
"8213",132.50021,82.62333,92.29801
"8214",132.51352,82.62577,92.38243
"8215",132.52689,82.64774,92.48646
"8216",132.54019,82.62577,92.547226
"8217",132.55356,82.51835,92.52186
"8218",132.56686,82.31083,92.393036
"8219",132.58023,82.022736,92.177155
"8220",132.59354,81.69558,91.91321
"8221",132.6069,81.3904,91.66102
"8222",132.62021,81.15358,91.46764
"8223",132.63358,80.99733,91.34744
"8224",132.64688,80.919205,91.30048
"8225",132.66025,80.88991,91.29991
"8226",132.67355,80.87282,91.31063
"8227",132.68692,80.831314,91.2964
"8228",132.70023,80.743416,91.23448
"8229",132.7136,80.60914,91.123436
"8230",132.7269,80.43336,90.96669
"8231",132.74026,80.23071,90.77759
"8232",132.75357,80.01343,90.56751
"8233",132.76694,79.7937,90.348206
"8234",132.78024,79.58373,90.13179
"8235",132.79361,79.38598,89.92103
"8236",132.80692,79.202866,89.71873
"8237",132.82028,79.04173,89.532684
"8238",132.83359,78.905014,89.36602
"8239",132.84695,78.79027,89.21706
"8240",132.86026,78.695045,89.08403
"8241",132.87363,78.61448,88.962685
"8242",132.88693,78.54124,88.846146
"8243",132.9003,78.48264,88.74197
"8244",132.9136,78.42649,88.6384
"8245",132.92697,78.37522,88.53796
"8246",132.94028,78.331276,88.44324
"8247",132.95364,78.29954,88.35935
"8248",132.96695,78.27024,88.27692
"8249",132.98032,78.25071,88.20333
"8250",132.99362,78.22873,88.126686
"8251",133.00699,78.204315,88.04692
"8252",133.0203,78.170135,87.95663
"8253",133.03366,78.12375,87.85306
"8254",133.04697,78.07492,87.7456
"8255",133.06033,78.02609,87.63661
"8256",133.07364,77.98215,87.53098
"8257",133.087,77.94797,87.43375
"8258",133.10031,77.925995,87.34765
"8259",133.11368,77.908905,87.26575
"8260",133.12698,77.891815,87.18331
"8261",133.14035,77.87717,87.10278
"8262",133.15366,77.8674,87.02668
"8263",133.16702,77.857635,86.95027
"8264",133.18033,77.85275,86.87844
"8265",133.1937,77.857635,86.81622
"8266",133.207,77.86496,86.7566
"8267",133.22037,77.872284,86.697205
"8268",133.23367,77.87717,86.6356
"8269",133.24704,77.87717,86.56926
"8270",133.26035,77.87961,86.50536
"8271",133.27371,77.88449,86.443985
"8272",133.28702,77.88937,86.38276
"8273",133.30038,77.90158,86.32901
"8274",133.31369,77.92111,86.28297
"8275",133.32706,77.945526,86.24242
"8276",133.34036,77.97238,86.20507
"8277",133.35373,78.00412,86.17345
"8278",133.36703,78.0383,86.145256
"8279",133.3804,78.0676,86.11325
"8280",133.3937,78.08713,86.072395
"8281",133.40707,78.101776,86.02727
"8282",133.42038,78.10422,85.97039
"8283",133.43375,78.09201,85.89894
"8284",133.44705,78.07736,85.82467
"8285",133.46042,78.0798,85.76703
"8286",133.47372,78.1799,85.80712
"8287",133.48709,78.49973,86.070076
"8288",133.5004,79.15892,86.68238
"8289",133.51376,80.18921,87.686386
"8290",133.52707,81.50759,89.01068
"8291",133.54044,82.91142,90.461624
"8292",133.55374,84.15167,91.792854
"8293",133.56711,85.0013,92.77222
"8294",133.58041,85.35287,93.280075
"8295",133.59378,85.25033,93.34481
"8296",133.60709,84.823074,93.08163
"8297",133.62045,84.23956,92.648834
"8298",133.63376,83.63653,92.17828
"8299",133.64713,83.12627,91.78166
"8300",133.66043,82.75273,91.50582
"8301",133.6738,82.52567,91.364784
"8302",133.6871,82.41581,91.33385
"8303",133.70047,82.37919,91.37272
"8304",133.71378,82.357216,91.425095
