"","Time..s.","PPG.trace","Preprocessed.PPG"
"20074",267.80386,78.467995,176.00797
"20075",267.8172,78.470436,175.96252
"20076",267.83054,78.47288,175.91716
"20077",267.84387,78.4802,175.87675
"20078",267.8572,78.48264,175.8317
"20079",267.87054,78.487526,175.78915
"20080",267.88388,78.49485,175.7492
"20081",267.89722,78.53147,175.73878
"20082",267.91055,78.63157,175.79298
"20083",267.9239,78.82445,175.9431
"20084",267.93723,79.12718,176.20909
"20085",267.95056,79.53979,176.59442
"20086",267.9639,80.025635,177.06589
"20087",267.97723,80.52369,177.56474
"20088",267.99057,80.98512,178.04254
"20089",268.0039,81.36111,178.44931
"20090",268.01724,81.634544,178.76529
"20091",268.03058,81.81033,178.99216
"20092",268.0439,81.90799,179.1464
"20093",268.05725,81.94705,179.24509
"20094",268.0706,81.95682,179.3157
"20095",268.08392,81.95682,179.37686
"20096",268.09726,81.951935,179.43314
"20097",268.1106,81.94217,179.48438
"20098",268.12393,81.92996,179.53287
"20099",268.13727,81.91287,179.5761
"20100",268.1506,81.87625,179.59926
"20101",268.16394,81.815216,179.59686
"20102",268.17728,81.7322,179.57057
"20103",268.1906,81.62722,179.51973
"20104",268.20395,81.497826,179.4412
"20105",268.2173,81.358665,179.34885
"20106",268.23062,81.21706,179.2497
"20107",268.24396,81.08766,179.15834
"20108",268.2573,80.96803,179.07271
"20109",268.27063,80.86305,178.99799
"20110",268.28397,80.76784,178.92975
"20111",268.2973,80.68482,178.87073
"20112",268.31064,80.604256,178.81157
"20113",268.32397,80.52613,178.75233
"20114",268.3373,80.44312,178.68578
"20115",268.35065,80.360115,178.61662
"20116",268.36398,80.26734,178.53511
"20117",268.37732,80.16968,178.4458
"20118",268.39066,80.0647,178.34613
"20119",268.404,79.9646,178.24805
"20120",268.41733,79.8645,178.14685
"20121",268.43066,79.77173,178.04984
"20122",268.444,79.68627,177.95724
"20123",268.45734,79.61059,177.87175
"20124",268.47067,79.54223,177.79121
"20125",268.484,79.47875,177.71342
"20126",268.49734,79.42016,177.63853
"20127",268.51068,79.37133,177.57158
"20128",268.52402,79.32006,177.50066
"20129",268.53735,79.27123,177.43057
"20130",268.5507,79.22728,177.36385
"20131",268.56403,79.18089,177.2933
"20132",268.57736,79.132065,177.21887
"20133",268.5907,79.08568,177.14536
"20134",268.60403,79.044174,177.07527
"20135",268.61737,79.00755,177.00877
"20136",268.6307,78.97826,176.94846
"20137",268.64404,78.95384,176.8921
"20138",268.65738,78.93187,176.83743
"20139",268.67072,78.91234,176.78452
"20140",268.68405,78.890366,176.72855
"20141",268.6974,78.873276,176.67677
"20142",268.71072,78.85863,176.6269
"20143",268.72406,78.84398,176.57658
"20144",268.7374,78.82933,176.5258
"20145",268.75073,78.819565,176.47945
"20146",268.76407,78.81224,176.43523
"20147",268.7774,78.80736,176.39322
"20148",268.79074,78.802475,176.35106
"20149",268.80408,78.80003,176.31119
"20150",268.8174,78.81224,176.28589
"20151",268.83075,78.86595,176.30247
"20152",268.8441,79.00023,176.4013
"20153",268.85742,79.24437,176.6142
"20154",268.87076,79.60082,176.94704
"20155",268.8841,80.04761,177.38135
"20156",268.89743,80.53834,177.87357
"20157",268.91077,81.007095,178.35915
"20158",268.9241,81.40261,178.78613
"20159",268.93744,81.69802,179.12538
"20160",268.95078,81.89578,179.3762
"20161",268.9641,82.00809,179.54776
"20162",268.97745,82.054474,179.6569
"20163",268.99078,82.06424,179.73088
"20164",269.00412,82.056915,179.78807
"20165",269.01746,82.039825,179.83527
"20166",269.0308,82.022736,179.88193
"20167",269.04413,82.005646,179.92805
"20168",269.05746,81.991,179.97609
"20169",269.0708,81.9617,180.00902
"20170",269.08414,81.91531,180.02394
"20171",269.09747,81.84451,180.013
"20172",269.1108,81.74441,179.97054
"20173",269.12415,81.61013,179.89078
"20174",269.13748,81.45144,179.78241
"20175",269.15082,81.28542,179.66176
"20176",269.16415,81.129166,179.54567
"20177",269.1775,80.98512,179.43692
"20178",269.19083,80.86549,179.34808
"20179",269.20416,80.762955,179.2726
"20180",269.2175,80.66529,179.19878
"20181",269.23083,80.570076,179.12436
"20182",269.24417,80.46998,179.04208
"20183",269.2575,80.37476,178.96156
"20184",269.27084,80.27711,178.87563
"20185",269.28418,80.181885,178.78906
"20186",269.29752,80.08423,178.69708
"20187",269.31085,79.98169,178.59717
"20188",269.3242,79.87915,178.49405
"20189",269.33752,79.77661,178.38773
"20190",269.35086,79.676506,178.28064
"20191",269.3642,79.57641,178.17043
"20192",269.37753,79.48119,178.06197
"20193",269.39087,79.38842,177.95297
"20194",269.4042,79.30541,177.85085
"20195",269.41754,79.22972,177.75345
"20196",269.43088,79.166245,177.6659
"20197",269.4442,79.11009,177.58368
"20198",269.45755,79.061264,177.50703
"20199",269.4709,79.01732,177.43375
"20200",269.48422,78.9807,177.36641
"20201",269.49756,78.94408,177.29793
"20202",269.5109,78.907455,177.2283
"20203",269.52423,78.873276,177.15997
"20204",269.53757,78.836655,177.08813
"20205",269.5509,78.80003,177.01515
"20206",269.56424,78.768295,176.9459
"20207",269.57758,78.73899,176.87811
"20208",269.5909,78.712135,176.81184
"20209",269.60425,78.68284,176.7423
"20210",269.61758,78.658424,176.67671
"20211",269.63092,78.63401,176.61037
"20212",269.64426,78.61448,176.54814
"20213",269.6576,78.59495,176.4853
"20214",269.67093,78.57786,176.4243
"20215",269.68427,78.56321,176.3652
"20216",269.6976,78.551,176.30809
"20217",269.71094,78.54368,176.25548
"20218",269.72427,78.54124,176.20752
"20219",269.7376,78.54368,176.16437
"20220",269.75095,78.56077,176.13594
"20221",269.76428,78.61448,176.14467
"20222",269.77762,78.73411,176.221
"20223",269.79095,78.95384,176.40117
"20224",269.8043,79.290764,176.7054
"20225",269.81763,79.73022,177.12268
"20226",269.83096,80.23071,177.61475
"20227",269.8443,80.72877,178.12001
"20228",269.85764,81.16579,178.5798
"20229",269.87097,81.50759,178.95804
"20230",269.8843,81.74197,179.23953
"20231",269.89764,81.88846,179.44046
"20232",269.91098,81.969025,179.58005
"20233",269.92432,82.01297,179.68553
"20234",269.93765,82.04471,179.78018
"20235",269.951,82.06912,179.8685
"20236",269.96432,82.08621,179.95026
"20237",269.97766,82.09842,180.02766
"20238",269.991,82.09842,180.09325
"20239",270.00433,82.08865,180.14906
"20240",270.01767,82.0618,180.18748
"20241",270.031,82.01053,180.20065
"20242",270.04434,81.92752,180.18048
"20243",270.05768,81.812775,180.12598
"20244",270.071,81.671165,180.04102
"20245",270.08435,81.50515,179.92723
"20246",270.0977,81.32693,179.79605
"20247",270.11102,81.15602,179.66661
"20248",270.12436,81.007095,179.55382
"20249",270.1377,80.88258,179.46078
"20250",270.15103,80.77028,179.37607
"20251",270.16437,80.672615,179.30247
"20252",270.1777,80.584724,179.23561
"20253",270.19104,80.49195,179.16112
"20254",270.20438,80.394295,179.07884
"20255",270.2177,80.29664,178.99352
"20256",270.23105,80.19653,178.90268
"20257",270.2444,80.093994,178.80627
"20258",270.25772,79.98413,178.69934
"20259",270.27106,79.88159,178.59631
"20260",270.2844,79.77905,178.49008
"20261",270.29773,79.68139,178.38551
"20262",270.31107,79.586174,178.28033
"20263",270.3244,79.49096,178.17218
"20264",270.33774,79.40063,178.06593
"20265",270.35107,79.31274,177.9593
"20266",270.3644,79.22972,177.85481
"20267",270.37775,79.15648,177.75749
"20268",270.39108,79.09056,177.6652
"20269",270.40442,79.029526,177.57574
"20270",270.41776,78.97337,177.48926
"20271",270.4311,78.922104,177.4059
"20272",270.44443,78.87572,177.32582
"20273",270.45776,78.83177,177.24673
"20274",270.4711,78.79271,177.17116
"20275",270.48444,78.76097,177.10168
"20276",270.49777,78.73411,177.0361
"20277",270.5111,78.709694,176.97212
"20278",270.52444,78.68772,176.90982
"20279",270.53778,78.66575,176.84683
"20280",270.55112,78.641335,176.78072
"20281",270.56445,78.61936,176.71628
"20282",270.5778,78.59495,176.64871
"20283",270.59113,78.57786,176.5877
"20284",270.60446,78.56809,176.5335
"20285",270.6178,78.56321,176.48386
"20286",270.63113,78.555885,176.43163
"20287",270.64447,78.551,176.3816
"20288",270.6578,78.54368,176.329
"20289",270.67114,78.54124,176.28104
"20290",270.68448,78.536354,176.23056
"20291",270.6978,78.54124,176.1897
"20292",270.71115,78.57542,176.17828
"20293",270.7245,78.66819,176.22653
"20294",270.73782,78.853745,176.37047
"20295",270.75116,79.15404,176.63493
"20296",270.7645,79.5642,177.01866
"20297",270.77783,80.04761,177.48845
"20298",270.79117,80.550545,177.99287
"20299",270.8045,81.004654,178.46419
"20300",270.81784,81.375755,178.86668
"20301",270.83118,81.64187,179.1758
"20302",270.8445,81.80789,179.39313
"20303",270.85785,81.898224,179.53996
"20304",270.8712,81.94461,179.64568
"20305",270.88452,81.9617,179.72354
"20306",270.89786,81.971466,179.79462
"20307",270.9112,81.98367,179.86844
"20308",270.92453,82.00076,179.94753
"20309",270.93787,82.00809,180.01738
"20310",270.9512,82.003204,180.07526
"20311",270.96454,81.97391,180.10857
"20312",270.97787,81.917755,180.1141
"20313",270.9912,81.829865,180.08615
"20314",271.00455,81.71755,180.03102
"20315",271.01788,81.583275,179.95042
"20316",271.03122,81.43679,179.85342
"20317",271.04456,81.28542,179.74696
"20318",271.0579,81.14137,179.64308
"20319",271.07123,81.004654,179.54204
"20320",271.08456,80.8777,179.44649
"20321",271.0979,80.762955,179.35918
"20322",271.11124,80.65308,179.27315
"20323",271.12457,80.550545,179.19102
"20324",271.1379,80.45045,179.10814
"20325",271.15125,80.35523,179.02701
"20326",271.16458,80.257576,178.94046
"20327",271.17792,80.15747,178.8484
"20328",271.19125,80.05249,178.74835
"20329",271.2046,79.94751,178.64502
"20330",271.21793,79.83765,178.53351
"20331",271.23126,79.73266,178.42345
"20332",271.2446,79.63012,178.31255
"20333",271.25793,79.53002,178.20088
"20334",271.27127,79.43481,178.09097
"20335",271.2846,79.344475,177.98297
"20336",271.29794,79.256584,177.87459
"20337",271.31128,79.18089,177.77567
"20338",271.32462,79.11253,177.6817
"20339",271.33795,79.05394,177.59537
"20340",271.3513,79.00511,177.51697
"20341",271.36462,78.95628,177.43704
"20342",271.37796,78.9099,177.35803
"20343",271.3913,78.86107,177.27513
"20344",271.40463,78.81468,177.19315
"20345",271.41797,78.77318,177.1146
"20346",271.4313,78.73655,177.03963
"20347",271.44464,78.70237,176.96596
"20348",271.45798,78.675514,176.89854
"20349",271.4713,78.64622,176.82785
"20350",271.48465,78.61448,176.7538
"20351",271.498,78.58518,176.6812
"20352",271.51132,78.55833,176.61012
"20353",271.52466,78.53391,176.54065
"20354",271.538,78.51438,176.4753
"20355",271.55133,78.502174,176.41666
"20356",271.56467,78.49241,176.36008
"20357",271.578,78.485085,176.30563
"20358",271.59134,78.47532,176.24852
"20359",271.60468,78.470436,176.19598
"20360",271.618,78.46311,176.14085
"20361",271.63135,78.46555,176.09526
"20362",271.64468,78.48997,176.07172
"20363",271.65802,78.56565,176.1002
"20364",271.67136,78.7219,176.21162
"20365",271.6847,78.98558,176.43536
"20366",271.69803,79.361565,176.77965
"20367",271.71136,79.82788,177.22601
"20368",271.7247,80.32838,177.72113
"20369",271.73804,80.80446,178.20747
"20370",271.75137,81.20485,178.63301
"20371",271.7647,81.51003,178.97585
"20372",271.77805,81.71023,179.22324
"20373",271.79138,81.829865,179.39632
"20374",271.80472,81.89334,179.51698
"20375",271.81805,81.92508,179.6079
"20376",271.8314,81.934845,179.67783
"20377",271.84473,81.93729,179.74074
"20378",271.85806,81.92996,179.79396
"20379",271.8714,81.91531,179.83963
"20380",271.88474,81.89578,179.87996
"20381",271.89807,81.8616,179.90503
"20382",271.9114,81.81033,179.91194
"20383",271.92474,81.72976,179.88794
"20384",271.93808,81.619896,179.83214
"20385",271.95142,81.48562,179.74849
"20386",271.96475,81.341576,179.65088
"20387",271.9781,81.19997,179.5512
"20388",271.99142,81.07301,179.46175
"20389",272.00476,80.95827,179.38054
"20390",272.0181,80.85817,179.3104
"20391",272.03143,80.76784,179.24689
"20392",272.04477,80.67994,179.18298
"20393",272.0581,80.587166,179.11147
"20394",272.07144,80.49439,179.03705
"20395",272.08478,80.394295,178.95241
"20396",272.0981,80.289314,178.85976
"20397",272.11145,80.181885,178.76137
"20398",272.1248,80.07446,178.65964
"20399",272.13812,79.974365,178.56186
"20400",272.15146,79.87915,178.46585
"20401",272.1648,79.781494,178.36441
"20402",272.17813,79.68627,178.26236
"20403",272.19147,79.59106,178.15733
"20404",272.2048,79.4934,178.04689
"20405",272.21814,79.40063,177.93828
"20406",272.23148,79.31518,177.83409
"20407",272.2448,79.24193,177.73944
"20408",272.25815,79.17845,177.65227
"20409",272.27148,79.1223,177.57043
"20410",272.28482,79.078354,177.49905
"20411",272.29816,79.03197,177.42386
"20412",272.3115,78.99046,177.3521
"20413",272.32483,78.94652,177.2766
"20414",272.33817,78.90013,177.19728
"20415",272.3515,78.853745,177.11652
"20416",272.36484,78.8098,177.03674
"20417",272.37817,78.77318,176.96292
"20418",272.3915,78.74143,176.89284
"20419",272.40485,78.712135,176.8242
"20420",272.41818,78.68284,176.75465
"20421",272.43152,78.660866,176.69151
"20422",272.44485,78.63889,176.62769
"20423",272.4582,78.624245,176.5705
"20424",272.47153,78.61204,176.51529
"20425",272.48486,78.60471,176.46458
"20426",272.4982,78.59739,176.41365
"20427",272.51154,78.590065,176.36249
"20428",272.52487,78.58518,176.31354
"20429",272.5382,78.60227,176.2864
"20430",272.55154,78.68284,176.32329
"20431",272.56488,78.86107,176.46036
"20432",272.57822,79.151596,176.71529
"20433",272.59155,79.554436,177.09161
"20434",272.6049,80.03296,177.55621
"20435",272.61823,80.52857,178.05286
"20436",272.63156,80.9778,178.5186
"20437",272.6449,81.341576,178.91293
"20438",272.65823,81.61013,179.22342
"20439",272.67157,81.7908,179.4544
"20440",272.6849,81.89578,179.61536
"20441",272.69824,81.94949,179.72832
"20442",272.71158,81.97879,179.81854
"20443",272.7249,81.99832,179.89992
"20444",272.73825,82.01053,179.97458
"20445",272.7516,82.02518,180.05206
"20446",272.76492,82.03494,180.12512
"20447",272.77826,82.037384,180.19116
"20448",272.7916,82.022736,180.24019
"20449",272.80493,81.98123,180.2619
"20450",272.81827,81.90311,180.2457
"20451",272.8316,81.79324,180.19531
"20452",272.84494,81.654076,180.11218
"20453",272.85828,81.495384,180.00519
"20454",272.8716,81.33181,179.88835
"20455",272.88495,81.17555,179.77371
"20456",272.8983,81.02907,179.66397
"20457",272.91162,80.89479,179.56186
"20458",272.92496,80.77272,179.46776
"20459",272.9383,80.66041,179.3796
"20460",272.95163,80.552986,179.29282
"20461",272.96497,80.448006,179.20512
"20462",272.9783,80.34547,179.1166
"20463",272.99164,80.24536,179.02728
"20464",273.00497,80.14282,178.9324
"20465",273.0183,80.042725,178.83676
"20466",273.03165,79.937744,178.73312
"20467",273.04498,79.83276,178.62619
"20468",273.05832,79.725334,178.51353
"20469",273.07166,79.61791,178.39752
"20470",273.085,79.517815,178.28548
"20471",273.09833,79.42748,178.18007
"20472",273.11166,79.34203,178.07672
"20473",273.125,79.26391,177.97803
"20474",273.13834,79.19066,177.88177
"20475",273.15167,79.11986,177.78568
"20476",273.165,79.0515,177.6898
"20477",273.17834,78.98558,177.59424
"20478",273.19168,78.922104,177.49905
"20479",273.20502,78.86595,177.40921
"20480",273.21835,78.81712,177.32494
"20481",273.2317,78.77074,177.24158
"20482",273.24503,78.729225,177.16165
"20483",273.25836,78.692604,177.08531
"20484",273.2717,78.660866,177.01271
"20485",273.28503,78.626686,176.93668
"20486",273.29837,78.59495,176.86201
"20487",273.3117,78.56565,176.7888
"20488",273.32504,78.536354,176.71468
"20489",273.33838,78.50706,176.63963
"20490",273.3517,78.487526,176.57344
"20491",273.36505,78.47532,176.51396
"20492",273.3784,78.46311,176.4541
"20493",273.39172,78.45823,176.40118
"20494",273.40506,78.45579,176.35056
"20495",273.4184,78.45335,176.29985
"20496",273.43173,78.44846,176.24663
"20497",273.44507,78.46311,176.21278
"20498",273.4584,78.51194,176.21358
"20499",273.47174,78.626686,176.28181
"20500",273.48508,78.836655,176.44887
"20501",273.4984,79.1638,176.73965
"20502",273.51175,79.59106,177.14078
"20503",273.5251,80.07446,177.6114
"20504",273.53842,80.56031,178.09958
"20505",273.55176,80.99489,178.55167
"20506",273.5651,81.341576,178.92944
"20507",273.57843,81.5906,179.2204
"20508",273.59177,81.75662,179.43613
"20509",273.6051,81.85672,179.59113
"20510",273.61844,81.9202,179.71263
"20511",273.63177,81.95682,179.80927
"20512",273.6451,81.98367,179.89728
"20513",273.65845,82.005646,179.98125
"20514",273.67178,82.020294,180.05858
"20515",273.68512,82.02518,180.1266
"20516",273.69846,82.01297,180.17769
"20517",273.7118,81.97879,180.20642
"20518",273.72513,81.917755,180.20723
"20519",273.73846,81.82498,180.1744
"20520",273.7518,81.705345,180.11179
"20521",273.76514,81.56374,180.02348
"20522",273.77847,81.40505,179.91367
"20523",273.7918,81.24147,179.79399
"20524",273.80515,81.08522,179.67654
"20525",273.81848,80.94362,179.56886
"20526",273.83182,80.82155,179.47629
"20527",273.84515,80.719,179.39941
"20528",273.8585,80.62379,179.32668
"20529",273.87183,80.52613,179.24852
"20530",273.88516,80.428474,179.16731
"20531",273.8985,80.323494,179.07573
"20532",273.91183,80.21362,178.97597
"20533",273.92517,80.1062,178.87521
"20534",273.9385,79.99878,178.77112
"20535",273.95184,79.888916,178.66122
"20536",273.96518,79.77905,178.54788
"20537",273.97852,79.66918,178.4311
"20538",273.99185,79.569084,178.32066
"20539",274.0052,79.46899,178.20709
"20540",274.01852,79.378654,178.10016
"20541",274.03186,79.29809,178.00017
"20542",274.0452,79.22484,177.90498
"20543",274.05853,79.15404,177.80995
"20544",274.07187,79.09056,177.72003
"20545",274.0852,79.029526,177.63057
"20546",274.09854,78.97093,177.54164
"20547",274.11188,78.9099,177.44844
"20548",274.1252,78.8513,177.35577
"20549",274.13855,78.79759,177.26616
"20550",274.1519,78.74387,177.17487
"20551",274.16522,78.695045,177.08678
"20552",274.17856,78.6511,177.00204
"20553",274.1919,78.6096,176.91838
"20554",274.20523,78.56565,176.83098
"20555",274.21857,78.52415,176.74464
"20556",274.2319,78.48997,176.66434
"20557",274.24524,78.46067,176.58784
"20558",274.25858,78.44114,176.5202
"20559",274.2719,78.42893,176.45927
"20560",274.28525,78.42161,176.40285
"20561",274.29858,78.416725,176.34863
"20562",274.31192,78.41428,176.2967
"20563",274.32526,78.4094,176.24226
"20564",274.3386,78.4094,176.19255
"20565",274.35193,78.41184,176.14528
"20566",274.36526,78.4094,176.0932
"20567",274.3786,78.4094,176.04349
"20568",274.39194,78.41917,176.00354
"20569",274.40527,78.45335,175.98831
"20570",274.4186,78.551,176.03763
"20571",274.43195,78.74143,176.18277
"20572",274.44528,79.0515,176.4535
"20573",274.45862,79.47631,176.84868
"20574",274.47195,79.97681,177.33281
"20575",274.4853,80.48707,177.84235
"20576",274.49863,80.953384,178.32388
"20577",274.51196,81.32693,178.72722
"20578",274.5253,81.5906,179.03236
"20579",274.53864,81.75662,179.2481
"20580",274.55197,81.85184,179.39821
"20581",274.5653,81.90555,179.5098
"20582",274.57864,81.94217,179.60597
"20583",274.59198,81.969025,179.69353
"20584",274.60532,81.988556,179.7746
"20585",274.61865,82.00076,179.84895
"20586",274.632,82.003204,179.91393
"20587",274.64532,81.991,179.96432
"20588",274.65866,81.95682,179.99237
"20589",274.672,81.898224,179.99493
"20590",274.68533,81.81033,179.96637
"20591",274.69867,81.69314,179.90575
"20592",274.712,81.55398,179.8195
"20593",274.72534,81.40261,179.7167
"20594",274.73868,81.25124,179.60918
"20595",274.752,81.10719,179.50423
"20596",274.76535,80.9778,179.40944
"20597",274.7787,80.86061,179.32281
"20598",274.79202,80.75319,179.2423
"20599",274.80536,80.65064,179.16328
"20600",274.8187,80.550545,179.08353
"20601",274.83203,80.45045,179.00064
"20602",274.84537,80.34791,178.91219
"20603",274.8587,80.24536,178.82051
"20604",274.87204,80.14282,178.72565
"20605",274.88538,80.04028,178.62756
"20606",274.8987,79.9353,178.52383
"20607",274.91205,79.83032,178.41684
"20608",274.92538,79.727776,178.30899
"20609",274.93872,79.63012,178.20282
"20610",274.95206,79.534904,178.09604
"20611",274.9654,79.44213,177.98872
"20612",274.97873,79.35912,177.88828
"20613",274.99207,79.27856,177.78767
"20614",275.0054,79.200424,177.687
"20615",275.01874,79.12962,177.5912
"20616",275.03207,79.06615,177.50052
"20617",275.0454,79.00755,177.41273
"20618",275.05875,78.95384,177.328
"20619",275.07208,78.90257,177.24403
"20620",275.08542,78.856186,177.16335
"20621",275.09875,78.8098,177.0812
"20622",275.1121,78.765854,177.00006
"20623",275.12543,78.72678,176.92242
"20624",275.13876,78.692604,176.84845
"20625",275.1521,78.66819,176.78317
"20626",275.16544,78.6511,176.72446
"20627",275.17877,78.63645,176.66765
"20628",275.1921,78.626686,176.61526
"20629",275.20544,78.61692,176.56258
"20630",275.21878,78.607155,176.50958
"20631",275.23212,78.59739,176.45628
"20632",275.24545,78.59251,176.40756
"20633",275.2588,78.590065,176.36113
"20634",275.27213,78.58518,176.31218
"20635",275.28546,78.57542,176.2582
"20636",275.2988,78.56321,176.20146
"20637",275.31213,78.555885,176.14923
"20638",275.32547,78.55833,176.10654
"20639",275.3388,78.59739,176.10054
"20640",275.35214,78.69749,176.1568
"20641",275.36548,78.890366,176.30898
"20642",275.3788,79.1931,176.57703
"20643",275.39215,79.603264,176.96198
"20644",275.4055,80.079346,177.42566
"20645",275.41882,80.57252,177.92131
"20646",275.43216,81.024185,178.39087
"20647",275.4455,81.38552,178.78421
"20648",275.45883,81.64187,179.08386
"20649",275.47217,81.79813,179.29143
"20650",275.4855,81.87625,179.42575
"20651",275.49884,81.900665,179.5088
"20652",275.51218,81.898224,179.56577
"20653",275.5255,81.89334,179.62021
"20654",275.53885,81.88846,179.6745
"20655",275.5522,81.88846,179.73352
"20656",275.56552,81.883575,179.78766
"20657",275.57886,81.86893,179.83188
"20658",275.5922,81.829865,179.85123
"20659",275.60553,81.761505,179.84006
"20660",275.61887,81.65896,179.79256
"20661",275.6322,81.529564,179.71501
"20662",275.64554,81.38064,179.61389
"20663",275.65887,81.22438,179.50078
"20664",275.6722,81.077896,179.39256
"20665",275.68555,80.9485,179.29686
"20666",275.69888,80.83864,179.21664
"20667",275.71222,80.743416,179.14763
"20668",275.72556,80.65064,179.0781
"20669",275.7389,80.56275,179.01054
"20670",275.75223,80.46998,178.93536
"20671",275.76556,80.377205,178.85728
"20672",275.7789,80.28199,178.77386
"20673",275.79224,80.181885,178.68257
"20674",275.80557,80.08179,178.58817
"20675",275.8189,79.97925,178.48819
"20676",275.83224,79.87427,178.38257
"20677",275.84558,79.77661,178.28098
"20678",275.85892,79.676506,178.17389
"20679",275.87225,79.58373,178.071
"20680",275.8856,79.49096,177.96521
"20681",275.89893,79.40795,177.86629
"20682",275.91226,79.33471,177.77454
"20683",275.9256,79.26635,177.68538
"20684",275.93893,79.20531,177.60141
"20685",275.95227,79.14671,177.51797
"20686",275.9656,79.08812,177.43271
"20687",275.97894,79.03197,177.34805
"20688",275.99228,78.9807,177.26653
"20689",276.0056,78.93431,177.18828
"20690",276.01895,78.890366,177.11102
"20691",276.0323,78.84642,177.0324
"20692",276.04562,78.802475,176.9524
"20693",276.05896,78.76097,176.87346
"20694",276.0723,78.72434,176.79811
"20695",276.08563,78.69016,176.72406
"20696",276.09897,78.660866,176.65382
"20697",276.1123,78.63401,176.58511
"20698",276.12564,78.607155,176.51556
"20699",276.13898,78.57542,176.44029
"20700",276.1523,78.551,176.37135
"20701",276.16565,78.52903,176.3041
"20702",276.179,78.51438,176.24347
"20703",276.19232,78.504616,176.18727
"20704",276.20566,78.49729,176.13321
"20705",276.219,78.487526,176.07648
"20706",276.23233,78.4802,176.02188
"20707",276.24567,78.47532,175.9695
"20708",276.259,78.49485,175.94138
"20709",276.27234,78.56809,175.96758
"20710",276.28568,78.73167,176.0864
"20711",276.299,79.012436,176.32753
"20712",276.31235,79.41039,176.69463
"20713",276.32568,79.90845,177.17426
"20714",276.33902,80.44312,177.70607
"20715",276.35236,80.95094,178.22774
"20716",276.3657,81.38064,178.68715
"20717",276.37903,81.69802,179.04768
"20718",276.39236,81.90311,179.30583
"20719",276.4057,82.01785,179.48006
"20720",276.41904,82.07889,179.60416
"20721",276.43237,82.11307,179.70331
"20722",276.4457,82.13992,179.7962
"20723",276.45905,82.16922,179.89238
"20724",276.47238,82.20096,179.99191
"20725",276.48572,82.22293,180.08267
"20726",276.49905,82.23514,180.16435
"20727",276.5124,82.22537,180.22444
"20728",276.52573,82.19119,180.25981
"20729",276.53906,82.12039,180.25749
"20730",276.5524,82.01541,180.21878
"20731",276.56573,81.87625,180.14261
"20732",276.57907,81.71511,180.0401
"20733",276.5924,81.54421,179.9228
"20734",276.60574,81.3782,179.80505
"20735",276.61908,81.22438,179.6943
"20736",276.63242,81.08278,179.59097
"20737",276.64575,80.955826,179.49786
"20738",276.6591,80.83864,179.41055
"20739",276.67242,80.726326,179.32445
"20740",276.68576,80.61646,179.23729
"20741",276.6991,80.50416,179.14426
"20742",276.71243,80.38941,179.04527
"20743",276.72577,80.272224,178.94026
"20744",276.7391,80.15015,178.82669
"20745",276.75244,80.025635,178.70688
"20746",276.76578,79.906006,178.58804
"20747",276.7791,79.78882,178.46793
"20748",276.79245,79.676506,178.34901
"20749",276.8058,79.57397,178.23636
"20750",276.81912,79.47631,178.12538
"20751",276.83246,79.38354,178.01624
"20752",276.8458,79.293205,177.90663
"20753",276.85913,79.21019,177.80153
"20754",276.87247,79.12962,177.69627
"20755",276.8858,79.05882,177.59827
"20756",276.89914,78.99779,177.50781
"20757",276.91248,78.94408,177.42278
"20758",276.9258,78.887924,177.33362
"20759",276.93915,78.839096,177.25003
"20760",276.95248,78.79271,177.16736
"20761",276.96582,78.74876,177.08568
"20762",276.97916,78.70481,177.00262
"20763",276.9925,78.66575,176.92308
"20764",277.00583,78.62913,176.84476
"20765",277.01917,78.59495,176.76773
"20766",277.0325,78.56565,176.69452
"20767",277.04584,78.54368,176.62772
"20768",277.05917,78.52659,176.56511
"20769",277.0725,78.51438,176.50685
"20770",277.08585,78.49973,176.44577
"20771",277.09918,78.485085,176.38423
"20772",277.11252,78.47288,176.32468
"20773",277.12585,78.45579,176.25986
"20774",277.1392,78.44358,176.19939
"20775",277.15253,78.43626,176.14342
"20776",277.16586,78.433815,176.0921
"20777",277.1792,78.43626,176.0456
"20778",277.19254,78.44114,176.0016
"20779",277.20587,78.45335,175.96509
"20780",277.2192,78.49241,175.95581
"20781",277.23254,78.590065,176.00635
"20782",277.24588,78.7805,176.15273
"20783",277.25922,79.09056,176.42467
"20784",277.27255,79.51293,176.81862
"20785",277.2859,80.02075,177.31122
"20786",277.29922,80.5481,177.83922
"20787",277.31256,81.03639,178.34464
"20788",277.3259,81.43679,178.77742
"20789",277.33923,81.72976,179.1153
"20790",277.35257,81.917755,179.35735
"20791",277.3659,82.02762,179.52715
"20792",277.37924,82.08377,179.64667
"20793",277.39258,82.11307,179.74109
"20794",277.4059,82.1326,179.82666
"20795",277.41925,82.14969,179.9104
"20796",277.4326,82.16434,179.99223
"20797",277.44592,82.18143,180.07697
"20798",277.45926,82.18387,180.14758
"20799",277.4726,82.16678,180.19875
"20800",277.48593,82.12283,180.22252
"20801",277.49927,82.04471,180.21074
"20802",277.5126,81.92752,180.15746
"20803",277.52594,81.778595,180.06877
"20804",277.53928,81.61013,179.95589
"20805",277.5526,81.43435,179.83043
"20806",277.56595,81.25857,179.69948
"20807",277.57928,81.09743,179.57767
"20808",277.59262,80.955826,179.47037
"20809",277.60596,80.82887,179.37329
"20810",277.6193,80.71168,179.282
"20811",277.63263,80.601814,179.19438
"20812",277.64597,80.49439,179.10577
"20813",277.6593,80.38697,179.01381
"20814",277.67264,80.27955,178.91849
"20815",277.68597,80.16968,178.81735
"20816",277.6993,80.05493,178.70792
"20817",277.71265,79.940186,178.59488
"20818",277.72598,79.823,178.47583
"20819",277.73932,79.708244,178.35555
"20820",277.75266,79.5935,178.23167
"20821",277.766,79.48608,178.11154
"20822",277.77933,79.381096,177.9905
"20823",277.79266,79.281,177.87105
"20824",277.806,79.18822,177.7558
"20825",277.81934,79.10521,177.64742
"20826",277.83267,79.02464,177.53888
"20827",277.846,78.95628,177.44003
"20828",277.85934,78.89769,177.34882
"20829",277.87268,78.84642,177.26309
"20830",277.88602,78.80003,177.18065
"20831",277.89935,78.75853,177.10164
"20832",277.9127,78.7219,177.02621
"20833",277.92603,78.6804,176.94476
"20834",277.93936,78.63645,176.85957
"20835",277.9527,78.59495,176.77545
"20836",277.96603,78.55833,176.69492
"20837",277.97937,78.52415,176.61568
"20838",277.9927,78.49485,176.54025
"20839",278.00604,78.470436,176.4688
"20840",278.01938,78.450905,176.40146
"20841",278.0327,78.43137,176.33351
"20842",278.04605,78.41184,176.26495
"20843",278.0594,78.39475,176.19823
"20844",278.07272,78.382545,176.13585
"20845",278.08606,78.37034,176.07309
"20846",278.0994,78.35813,176.00995
"20847",278.11273,78.34348,175.94398
"20848",278.12607,78.33372,175.88245
"20849",278.1394,78.331276,175.82793
"20850",278.15274,78.331276,175.77577
"20851",278.16608,78.34104,175.73338
"20852",278.1794,78.35813,175.69862
"20853",278.19275,78.38743,175.6766
"20854",278.2061,78.45579,175.69456
"20855",278.21942,78.60471,175.79523
"20856",278.23276,78.86351,176.01042
"20857",278.2461,79.24193,176.35332
"20858",278.25943,79.72045,176.80815
"20859",278.27277,80.255135,177.33409
"20860",278.2861,80.77516,177.86209
"20861",278.29944,81.2195,178.33066
"20862",278.31277,81.55642,178.70569
"20863",278.3261,81.78104,178.97894
"20864",278.33945,81.90799,179.16156
"20865",278.35278,81.96658,179.27979
"20866",278.36612,81.98367,179.35834
"20867",278.37946,81.97879,179.41545
"20868",278.3928,81.969025,179.46753
"20869",278.40613,81.95926,179.5193
"20870",278.41946,81.94705,179.56833
"20871",278.4328,81.92996,179.61209
"20872",278.44614,81.90311,179.64555
"20873",278.45947,81.85916,179.66109
"20874",278.4728,81.78348,179.64351
"20875",278.48615,81.68337,179.59914
"20876",278.49948,81.5613,179.52968
"20877",278.51282,81.41726,179.43443
"20878",278.52615,81.26833,179.3298
"20879",278.5395,81.13405,179.23515
"20880",278.55283,81.01442,179.15097
"20881",278.56616,80.90944,179.0777
"20882",278.5795,80.82155,179.01823
"20883",278.59283,80.743416,178.96577
"20884",278.60617,80.66529,178.91089
"20885",278.6195,80.587166,178.85356
"20886",278.63284,80.50172,178.78647
"20887",278.64618,80.411385,178.71182
"20888",278.65952,80.31129,178.62459
"20889",278.67285,80.20386,178.52689
"20890",278.6862,80.09155,178.42096
"20891",278.69952,79.974365,178.30664
"20892",278.71286,79.85962,178.1911
"20893",278.72617,79.7522,178.07928
"20894",278.73953,79.656975,177.97632
"20895",278.75284,79.569084,177.8777
"20896",278.7662,79.49096,177.7861
"20897",278.7795,79.415276,177.6945
"20898",278.79288,79.34936,177.6103
"20899",278.80618,79.281,177.5216
"20900",278.81955,79.21507,177.43321
"20901",278.83286,79.15404,177.34764
"20902",278.84622,79.10033,177.26749
"20903",278.85953,79.05394,177.19298
"20904",278.8729,79.012436,177.1219
"20905",278.8862,78.97337,177.05197
"20906",278.89957,78.941635,176.98814
"20907",278.91287,78.907455,176.92088
"20908",278.92624,78.873276,176.85255
"20909",278.93954,78.839096,176.78316
"20910",278.9529,78.80492,176.71269
"20911",278.96622,78.77562,176.64604
"20912",278.97958,78.74387,176.57603
"20913",278.9929,78.71458,176.50748
"20914",279.00626,78.69016,176.44289
"20915",279.01956,78.67063,176.38242
"20916",279.03293,78.65598,176.32622
"20917",279.04623,78.643776,176.272
"20918",279.0596,78.63401,176.21985
"20919",279.0729,78.62913,176.17227
"20920",279.08627,78.61936,176.11966
"20921",279.09958,78.6096,176.06674
"20922",279.11295,78.59983,176.01352
"20923",279.12625,78.60227,175.9722
"20924",279.13962,78.64622,175.97246
"20925",279.15292,78.768295,176.05223
"20926",279.1663,79.00267,176.24811
"20927",279.1796,79.35912,176.5734
"20928",279.19296,79.82544,177.01968
"20929",279.20627,80.35035,177.53914
"20930",279.21964,80.867935,178.06767
"20931",279.23294,81.322044,178.5489
"20932",279.2463,81.67361,178.94179
"20933",279.2596,81.91531,179.2358
"20934",279.27298,82.054474,179.43481
"20935",279.2863,82.127716,179.57227
"20936",279.29965,82.161896,179.67294
"20937",279.31296,82.178986,179.7576
"20938",279.32632,82.193634,179.84035
"20939",279.33963,82.213165,179.92844
"20940",279.353,82.2327,180.01714
"20941",279.3663,82.23758,180.0918
"20942",279.37967,82.22537,180.14952
"20943",279.39297,82.18631,180.18001
"20944",279.40634,82.11307,180.1751
"20945",279.41965,82.003204,180.13127
"20946",279.433,81.866486,180.05716
"20947",279.44632,81.71267,179.96167
"20948",279.4597,81.54421,179.84674
"20949",279.473,81.373314,179.7241
"20950",279.48636,81.21217,179.60588
"20951",279.49966,81.06325,179.49484
"20952",279.51303,80.92653,179.39136
"20953",279.52634,80.80202,179.2958
"20954",279.5397,80.689705,179.20856
"20955",279.553,80.57984,179.12025
"20956",279.56638,80.47486,179.0334
"20957",279.57968,80.36744,178.94083
"20958",279.59305,80.257576,178.84245
"20959",279.60635,80.147705,178.74063
"20960",279.61972,80.0354,178.63293
"20961",279.63303,79.91821,178.51685
"20962",279.6464,79.798584,178.39465
"20963",279.6597,79.68139,178.27116
"20964",279.67307,79.5642,178.14401
"20965",279.68637,79.45678,178.02296
"20966",279.69974,79.35912,177.90833
"20967",279.71304,79.27123,177.8004
"20968",279.7264,79.19066,177.69705
"20969",279.73972,79.11742,177.59851
"20970",279.75308,79.0515,177.505
"20971",279.7664,78.99046,177.41432
"20972",279.77975,78.93431,177.32661
"20973",279.79306,78.87572,177.23471
"20974",279.80643,78.82445,177.1483
"20975",279.81973,78.77562,177.06273
"20976",279.8331,78.729225,176.97807
"20977",279.8464,78.68284,176.89197
"20978",279.85977,78.64622,176.81418
"20979",279.87308,78.61692,176.74257
"20980",279.88644,78.590065,176.67249
"20981",279.89975,78.56321,176.60156
"20982",279.91312,78.536354,176.5298
"20983",279.92642,78.51194,176.45964
"20984",279.9398,78.485085,176.38628
"20985",279.9531,78.46311,176.31696
"20986",279.96646,78.44602,176.25183
"20987",279.97977,78.43626,176.1935
"20988",279.99313,78.43137,176.13974
"20989",280.00644,78.42893,176.08827
"20990",280.0198,78.42893,176.03917
"20991",280.0331,78.43137,175.99251
"20992",280.04648,78.433815,175.94592
"20993",280.05978,78.433815,175.89697
"20994",280.07315,78.433815,175.84802
"20995",280.08646,78.433815,175.79907
"20996",280.09982,78.43626,175.75256
"20997",280.11313,78.44602,175.71346
"20998",280.1265,78.487526,175.70639
"20999",280.1398,78.59739,175.76898
"21000",280.15317,78.8098,175.93756
"21001",280.16647,79.14671,176.23727
"21002",280.17984,79.60815,176.67204
"21003",280.19315,80.15015,177.2018
"21004",280.2065,80.70435,177.7607
"21005",280.21982,81.20729,178.28564
"21006",280.2332,81.61013,178.72621
"21007",280.2465,81.900665,179.06706
"21008",280.25986,82.08377,179.30957
"21009",280.27316,82.19119,179.48212
"21010",280.28653,82.23758,179.59698
"21011",280.29984,82.25468,179.684
"21012",280.3132,82.25956,179.75935
"21013",280.3265,82.262,179.83241
"21014",280.33987,82.26444,179.90555
"21015",280.35318,82.266884,179.97876
"21016",280.36655,82.25712,180.03984
"21017",280.37985,82.230255,180.08351
"21018",280.39322,82.18143,180.10439
"21019",280.40652,82.09842,180.08955
"21020",280.4199,81.98367,180.04039
"21021",280.4332,81.84207,179.96078
"21022",280.44656,81.67849,179.85477
"21023",280.45987,81.50759,179.73633
"21024",280.47324,81.341576,179.61743
"21025",280.48654,81.18776,179.50554
"21026",280.4999,81.05348,179.40839
"21027",280.5132,80.93141,179.31924
"21028",280.52658,80.82155,179.2385
"21029",280.5399,80.709236,179.15186
"21030",280.55325,80.601814,179.0666
"21031",280.56656,80.49439,178.978
"21032",280.57993,80.38941,178.88847
"21033",280.59323,80.28443,178.79567
"21034",280.6066,80.181885,178.70201
"21035",280.6199,80.079346,178.60516
"21036",280.63327,79.971924,178.50021
"21037",280.64658,79.85962,178.38702
"21038",280.65994,79.74975,178.27277
"21039",280.67325,79.639885,178.15508
"21040",280.6866,79.537346,178.04128
"21041",280.69992,79.43969,177.92915
"21042",280.7133,79.34936,177.8213
"21043",280.7266,79.26391,177.71552
"21044",280.73996,79.18822,177.61682
"21045",280.75327,79.114975,177.5182
"21046",280.76663,79.04906,177.42462
"21047",280.77994,78.992905,177.33875
"21048",280.7933,78.93919,177.25356
"21049",280.8066,78.890366,177.17157
"21050",280.81998,78.84398,177.0905
"21051",280.83328,78.80003,177.01042
"21052",280.84665,78.75609,176.92897
"21053",280.85995,78.712135,176.84615
"21054",280.87332,78.675514,176.76927
"21055",280.88663,78.64622,176.69858
"21056",280.9,78.624245,176.6343
"21057",280.9133,78.607155,176.5742
"21058",280.92667,78.590065,176.51358
"21059",280.93997,78.572975,176.45242
"21060",280.95334,78.54612,176.38097
"21061",280.96664,78.51682,176.30623
"21062",280.98,78.49241,176.23546
"21063",280.99332,78.47776,176.17369
"21064",281.00668,78.467995,176.11635
"21065",281.02,78.46555,176.06602
"21066",281.03336,78.46311,176.01562
"21067",281.04666,78.46311,175.96759
"21068",281.06003,78.46067,175.91711
"21069",281.07333,78.45579,175.86412
"21070",281.0867,78.46067,175.82074
"21071",281.1,78.48997,175.80193
"21072",281.11337,78.57786,175.84262
"21073",281.12668,78.76341,175.98373
"21074",281.14005,79.07347,176.25514
"21075",281.15335,79.50561,176.65833
"21076",281.16672,80.025635,177.1629
"21077",281.18002,80.57252,177.71059
"21078",281.1934,81.08034,178.2363
"21079",281.2067,81.497826,178.68755
"21080",281.22006,81.80545,179.04198
"21081",281.23337,82.003204,179.29616
"21082",281.24673,82.11307,179.46863
"21083",281.26004,82.16678,179.58838
"21084",281.2734,82.18875,179.67807
"21085",281.2867,82.193634,179.75136
"21086",281.30008,82.193634,179.81992
"21087",281.3134,82.193634,179.88847
"21088",281.32675,82.18875,179.95215
"21089",281.34006,82.17166,180.00346
"21090",281.35342,82.13748,180.03716
"21091",281.36673,82.08133,180.0478
"21092",281.3801,81.99588,180.0274
"21093",281.3934,81.883575,179.97748
"21094",281.40677,81.74441,179.89717
"21095",281.42007,81.59304,179.80032
"21096",281.43344,81.43679,179.69386
"21097",281.44675,81.28298,179.58496
"21098",281.4601,81.14137,179.48344
"21099",281.47342,81.004654,179.3824
"21100",281.4868,80.8777,179.28685
"21101",281.5001,80.76051,179.1971
"21102",281.51346,80.64332,179.10367
"21103",281.52676,80.52857,179.00903
"21104",281.54013,80.413826,178.91081
"21105",281.55344,80.306404,178.81633
"21106",281.5668,80.198975,178.71848
"21107",281.5801,80.096436,178.62216
"21108",281.59348,79.98657,178.51532
"21109",281.60678,79.88159,178.40991
"21110",281.62015,79.77173,178.29636
"21111",281.63345,79.6643,178.1818
"21112",281.64682,79.55932,178.06631
"21113",281.66013,79.46166,177.95488
"21114",281.6735,79.36889,177.84528
"21115",281.6868,79.27856,177.73521
"21116",281.70016,79.19066,177.62477
"21117",281.71347,79.10033,177.50914
"21118",281.72684,79.01488,177.39557
"21119",281.74014,78.92943,177.27933
"21120",281.7535,78.84154,177.15797
"21121",281.7668,78.75853,177.03876
"21122",281.78018,78.677956,176.91939
"21123",281.7935,78.59983,176.79994
"21124",281.80685,78.52659,176.68294
"21125",281.82016,78.45579,176.56609
"21126",281.83353,78.38743,176.44946
"21127",281.84683,78.328835,176.34047
"21128",281.8602,78.277565,176.23697
"21129",281.8735,78.23605,176.14163
"21130",281.88687,78.20187,176.05232
"21131",281.90018,78.1799,175.97415
"21132",281.91354,78.167694,175.90506
"21133",281.92685,78.16525,175.84535
"21134",281.94022,78.167694,175.79045
"21135",281.95352,78.17502,175.74051
"21136",281.9669,78.1799,175.68835
"21137",281.9802,78.18234,175.63391
"21138",281.99356,78.187225,175.58199
"21139",282.00687,78.19455,175.53265
"21140",282.02023,78.21164,175.49332
"21141",282.03354,78.22873,175.45451
"21142",282.0469,78.24826,175.41869
"21143",282.0602,78.27024,175.38593
"21144",282.07358,78.314186,175.37581
"21145",282.08688,78.416725,175.42566
"21146",282.10025,78.624245,175.5837
"21147",282.11356,78.96117,175.87762
"21148",282.12692,79.4226,176.3066
"21149",282.14023,79.971924,176.83788
"21150",282.1536,80.54322,177.4083
"21151",282.1669,81.06569,177.94774
"21152",282.18027,81.495384,178.41074
"21153",282.19357,81.812775,178.77486
"21154",282.20694,82.020294,179.03903
"21155",282.22025,82.142365,179.22424
"21156",282.2336,82.20096,179.3498
"21157",282.24692,82.22537,179.443
"21158",282.26028,82.2327,179.51987
"21159",282.2736,82.230255,179.5872
"21160",282.28696,82.22537,179.65202
"21161",282.30026,82.213165,179.70937
"21162",282.31363,82.193634,179.759
"21163",282.32693,82.15457,179.7885
"21164",282.3403,82.08865,179.78992
"21165",282.3536,81.99344,179.75998
"21166",282.36697,81.87381,179.70265
"21167",282.38028,81.72732,179.61472
"21168",282.39365,81.57107,179.51245
"21169",282.40695,81.4197,179.41019
"21170",282.42032,81.290306,179.32516
"21171",282.43362,81.180435,179.25562
"21172",282.447,81.09743,179.2095
"21173",282.4603,81.02907,179.17545
"21174",282.47366,80.970474,179.14902
"21175",282.48697,80.907,179.11588
"21176",282.50034,80.83864,179.07587
"21177",282.51364,80.75563,179.01907
"21178",282.527,80.66285,178.9499
"21179",282.5403,80.55787,178.86565
"21180",282.55368,80.44068,178.7659
"21181",282.567,80.31617,178.65517
"21182",282.58035,80.19165,178.54053
"21183",282.59366,80.07202,178.42688
"21184",282.60703,79.96216,178.31927
"21185",282.62033,79.86694,178.22287
"21186",282.6337,79.78882,178.1406
"21187",282.647,79.71801,178.06319
"21188",282.66037,79.65453,177.99089
"21189",282.67368,79.5935,177.91905
"21190",282.68704,79.53246,177.8453
"21191",282.70035,79.47631,177.77454
"21192",282.7137,79.4226,177.70445
"21193",282.72702,79.381096,177.6449
"21194",282.7404,79.34936,177.59381
"21195",282.7537,79.32006,177.54417
"21196",282.76706,79.290764,177.49362
"21197",282.78036,79.26147,177.44215
"21198",282.79373,79.22972,177.38733
"21199",282.80704,79.1931,177.32663
"21200",282.8204,79.15404,177.26234
"21201",282.8337,79.11986,177.20172
"21202",282.84708,79.093,177.14735
"21203",282.86038,79.07103,177.09703
"21204",282.87375,79.061264,177.05823
"21205",282.88705,79.05638,177.024
"21206",282.90042,79.05394,176.99207
"21207",282.91373,79.0515,176.96005
"21208",282.9271,79.044174,176.92308
"21209",282.9404,79.03441,176.88344
"21210",282.95377,79.01976,176.83861
"21211",282.96707,79.00511,176.79332
"21212",282.98044,78.98802,176.74513
"21213",282.99374,78.99046,176.71594
"21214",283.0071,79.03685,176.73077
"21215",283.02042,79.16136,176.82518
"21216",283.03378,79.395744,177.03336
"21217",283.0471,79.74975,177.36847
"21218",283.06046,80.20386,177.81476
"21219",283.07376,80.706795,178.32407
"21220",283.08713,81.19997,178.83932
"21221",283.10043,81.62722,179.30408
"21222",283.1138,81.95438,179.68208
"21223",283.1271,82.1741,179.96289
"21224",283.14047,82.30595,180.16267
"21225",283.15378,82.374306,180.3031
"21226",283.16714,82.39872,180.40172
"21227",283.18045,82.406044,180.48401
"21228",283.19382,82.4036,180.55676
"21229",283.20712,82.39628,180.62456
"21230",283.2205,82.38163,180.6848
"21231",283.2338,82.36454,180.74214
"21232",283.24716,82.33524,180.78674
"21233",283.26047,82.286415,180.8109
"21234",283.27383,82.210724,180.80666
"21235",283.28714,82.10574,180.77077
"21236",283.3005,81.971466,180.7023
"21237",283.3138,81.812775,180.60522
"21238",283.32718,81.63943,180.48853
"21239",283.34048,81.47097,180.3713
"21240",283.35385,81.31228,180.25859
"21241",283.36716,81.16823,180.15555
"21242",283.38052,81.03883,180.06267
"21243",283.39383,80.921646,179.97795
"21244",283.4072,80.80446,179.88957
"21245",283.4205,80.68726,179.79752
"21246",283.43387,80.56519,179.69693
"21247",283.44717,80.445564,179.59497
"21248",283.46054,80.325935,179.48927
"21249",283.47385,80.2063,179.37982
"21250",283.4872,80.08911,179.26907
"21251",283.50052,79.974365,179.1571
"21252",283.5139,79.85474,179.03668
"21253",283.5272,79.7351,178.9125
"21254",283.54056,79.622795,178.79192
"21255",283.55386,79.51293,178.67026
"21256",283.56723,79.40795,178.55005
"21257",283.58054,79.30785,178.43144
"21258",283.5939,79.217514,178.31947
"21259",283.6072,79.13451,178.212
"21260",283.62057,79.05882,178.10927
"21261",283.63388,78.99046,178.01149
"21262",283.64725,78.92943,177.9189
"21263",283.66055,78.873276,177.82928
"21264",283.67392,78.82201,177.7428
"21265",283.68723,78.77562,177.65959
"21266",283.7006,78.73167,177.57738
"21267",283.7139,78.68772,177.49379
"21268",283.72726,78.64622,177.41127
"21269",283.74057,78.60227,177.32501
"21270",283.75394,78.56077,177.23982
"21271",283.76724,78.52659,177.16066
"21272",283.7806,78.49485,177.08287
"21273",283.7939,78.46555,177.00653
"21274",283.80728,78.43626,176.92928
"21275",283.8206,78.41184,176.85599
"21276",283.83395,78.39231,176.78682
"21277",283.84726,78.37522,176.71948
"21278",283.86063,78.363014,176.6565
"21279",283.87393,78.35325,176.59557
"21280",283.8873,78.34348,176.53433
"21281",283.9006,78.33616,176.47523
"21282",283.91397,78.331276,176.41835
"21283",283.92728,78.32395,176.35887
"21284",283.94064,78.32151,176.30405
"21285",283.95395,78.35081,176.28088
"21286",283.96732,78.44358,176.32211
"21287",283.98062,78.643776,176.47366
"21288",283.994,78.96849,176.756
"21289",284.0073,79.415276,177.17055
"21290",284.02066,79.940186,177.67719
"21291",284.03397,80.4773,178.21243
"21292",284.04733,80.95827,178.70831
"21293",284.06064,81.341576,179.12157
"21294",284.074,81.619896,179.44182
"21295",284.0873,81.79813,179.67067
"21296",284.10068,81.90555,179.83429
"21297",284.11398,81.96658,179.95488
"21298",284.12735,82.00076,180.05052
"21299",284.14066,82.01785,180.13014
"21300",284.15402,82.02518,180.20053
"21301",284.16733,82.02762,180.26627
"21302",284.1807,82.02518,180.3272
"21303",284.194,82.00809,180.3734
"21304",284.20737,81.97635,180.40442
"21305",284.22067,81.92508,180.41492
"21306",284.23404,81.83963,180.38963
"21307",284.24734,81.722435,180.32993
"21308",284.2607,81.57839,180.23972
"21309",284.27402,81.41726,180.12791
"21310",284.28738,81.248795,180.00374
"21311",284.3007,81.08522,179.8792
"21312",284.31406,80.936295,179.76419
"21313",284.32736,80.80446,179.66162
"21314",284.34073,80.68482,179.56712
"21315",284.35403,80.57252,179.47623
"21316",284.3674,80.46754,179.38914
"21317",284.3807,80.360115,179.29634
"21318",284.39407,80.25025,179.19774
"21319",284.40738,80.13794,179.09325
"21320",284.42075,80.02075,178.98038
"21321",284.43405,79.903564,178.86383
"21322",284.44742,79.783936,178.74118
"21323",284.46072,79.66674,178.61723
"21324",284.4741,79.554436,178.4945
"21325",284.4874,79.449455,178.3756
"21326",284.50076,79.34692,178.25584
"21327",284.51407,79.24681,178.13533
"21328",284.52744,79.15404,178.01901
"21329",284.54074,79.063705,177.90224
"21330",284.5541,78.97826,177.78752
"21331",284.5674,78.90013,177.67746
"21332",284.58078,78.82933,177.57228
"21333",284.5941,78.76097,177.46733
"21334",284.60745,78.69993,177.36757
"21335",284.62076,78.643776,177.27078
"21336",284.63412,78.59495,177.17957
"21337",284.64743,78.551,177.0917
"21338",284.6608,78.5095,177.00491
"21339",284.6741,78.47288,176.9217
"21340",284.68747,78.4387,176.8398
"21341",284.70078,78.40696,176.75926
"21342",284.71414,78.37766,176.68018
"21343",284.72745,78.35813,176.60994
"21344",284.7408,78.34104,176.54153
"21345",284.75412,78.32395,176.4726
"21346",284.7675,78.3093,176.40556
"21347",284.7808,78.29221,176.33563
"21348",284.79416,78.277565,176.26761
"21349",284.80746,78.26536,176.20157
"21350",284.82083,78.25559,176.13759
"21351",284.83414,78.24826,176.07574
"21352",284.8475,78.24338,176.01611
"21353",284.8608,78.24582,175.96365
"21354",284.87418,78.25071,175.91373
"21355",284.88748,78.25559,175.86394
"21356",284.90085,78.2678,175.82162
"21357",284.91415,78.28001,175.7797
"21358",284.92752,78.29221,175.73814
"21359",284.94083,78.29954,175.6921
"21360",284.9542,78.311745,175.65115
"21361",284.9675,78.33372,175.62036
"21362",284.98087,78.39475,175.62932
"21363",284.99417,78.52659,175.71098
"21364",285.00754,78.77074,175.90909
"21365",285.02084,79.14427,176.2442
"21366",285.0342,79.63012,176.70331
"21367",285.04752,80.181885,177.24352
"21368",285.06088,80.73365,177.80096
"21369",285.0742,81.22194,178.31218
"21370",285.08755,81.602806,178.73123
"21371",285.10086,81.87137,179.04988
"21372",285.11423,82.03494,179.27194
"21373",285.12753,82.12039,179.42099
"21374",285.1409,82.15701,179.52388
"21375",285.1542,82.1741,179.60838
"21376",285.16757,82.18143,179.68365
"21377",285.18088,82.18631,179.75671
"21378",285.19424,82.19119,179.82993
"21379",285.20755,82.18875,179.89597
"21380",285.22092,82.16922,179.94484
"21381",285.23422,82.13016,179.97357
"21382",285.2476,82.06668,179.97667
"21383",285.2609,81.971466,179.94604
"21384",285.27426,81.846954,179.88315
"21385",285.28757,81.70046,179.79437
"21386",285.30093,81.53689,179.68394
"21387",285.31424,81.373314,179.5684
"21388",285.3276,81.22682,179.46483
"21389",285.3409,81.094986,179.37134
"21390",285.35428,80.98268,179.29326
"21391",285.36758,80.88258,179.22388
"21392",285.38095,80.78737,179.15625
"21393",285.39426,80.68726,179.08075
"21394",285.40762,80.58228,178.99725
"21395",285.42093,80.4773,178.91048
"21396",285.4343,80.365,178.8131
"21397",285.4476,80.25025,178.70976
"21398",285.46097,80.1355,178.60283
"21399",285.47427,80.02075,178.49231
"21400",285.48764,79.903564,178.37576
"21401",285.50095,79.78638,178.25555
"21402",285.5143,79.676506,178.139
"21403",285.52762,79.571526,178.02391
"21404",285.541,79.46899,177.90797
"21405",285.5543,79.37133,177.79372
"21406",285.56766,79.281,177.68373
"21407",285.58096,79.1931,177.57336
"21408",285.59433,79.114975,177.47002
"21409",285.60764,79.044174,177.37155
"21410",285.621,78.98314,177.28064
"21411",285.6343,78.92699,177.1927
"21412",285.64767,78.87816,177.11034
"21413",285.66098,78.82933,177.02644
"21414",285.67435,78.7805,176.94102
"21415",285.68765,78.73411,176.85652
"21416",285.70102,78.68772,176.77057
"21417",285.71432,78.643776,176.68561
"21418",285.7277,78.60227,176.60172
"21419",285.741,78.57053,176.52629
"21420",285.75436,78.54124,176.45232
"21421",285.76767,78.51682,176.38231
"21422",285.78104,78.49241,176.31154
"21423",285.79434,78.470436,176.24245
"21424",285.8077,78.450905,176.17511
"21425",285.821,78.433815,176.1096
"21426",285.83438,78.416725,176.04356
"21427",285.8477,78.40208,175.97943
"21428",285.86105,78.38987,175.91728
"21429",285.87436,78.37522,175.85231
"21430",285.88773,78.365456,175.79176
"21431",285.90103,78.36057,175.7358
"21432",285.9144,78.35813,175.68211
"21433",285.9277,78.35813,175.6308
"21434",285.94107,78.36057,175.58192
"21435",285.95438,78.365456,175.53557
"21436",285.96774,78.37034,175.48936
"21437",285.98105,78.37766,175.44576
"21438",285.99442,78.38743,175.40482
"21439",286.00772,78.41428,175.38127
"21440",286.0211,78.47288,175.3903
"21441",286.0344,78.60227,175.47197
"21442",286.04776,78.83421,175.66023
"21443",286.06107,79.19066,175.98024
"21444",286.07443,79.66186,176.42615
"21445",286.08774,80.2063,176.96002
"21446",286.1011,80.765396,177.52557
"21447",286.1144,81.26833,178.05243
"21448",286.12778,81.66628,178.49002
"21449",286.14108,81.93973,178.81554
"21450",286.15445,82.10574,179.04218
"21451",286.16776,82.18143,179.18367
"21452",286.18112,82.20096,179.27138
"21453",286.19443,82.18875,179.32796
"21454",286.2078,82.16434,179.37195
"21455",286.2211,82.13504,179.4103
"21456",286.23447,82.10574,179.44772
"21457",286.24777,82.06668,179.47447
"21458",286.26114,82.02518,179.49756
"21459",286.27444,81.97635,179.51202
"21460",286.2878,81.91287,179.51031
"21461",286.30112,81.82254,179.47977
"21462",286.31448,81.71511,179.42929
"21463",286.3278,81.58816,179.35594
"21464",286.34116,81.446556,179.26398
"21465",286.35446,81.30007,179.1627
"21466",286.36783,81.16823,179.07149
"21467",286.38113,81.0486,178.98837
"21468",286.3945,80.936295,178.90884
"21469",286.4078,80.8362,178.83801
"21470",286.42117,80.743416,178.77136
"21471",286.43448,80.6482,178.69939
"21472",286.44785,80.55543,178.62688
"21473",286.46115,80.462654,178.55147
"21474",286.47452,80.365,178.46828
"21475",286.48782,80.2649,178.3796
"21476",286.5012,80.164795,178.28777
"21477",286.5145,80.059814,178.18793
"21478",286.52786,79.954834,178.08481
"21479",286.54117,79.85474,177.9833
"21480",286.55453,79.76196,177.88599
"21481",286.56784,79.67162,177.78821
"21482",286.5812,79.586174,177.69249
"21483",286.5945,79.51049,177.60387
"21484",286.60788,79.43725,177.51532
"21485",286.6212,79.36889,177.42937
"21486",286.63455,79.310295,177.35104
"21487",286.64786,79.256584,177.27577
"21488",286.66122,79.20531,177.20126
"21489",286.67453,79.15404,177.12515
"21490",286.6879,79.10521,177.04988
"21491",286.7012,79.05882,176.97552
"21492",286.71457,79.01976,176.90704
"21493",286.72787,78.98314,176.83978
"21494",286.74124,78.94652,176.77138
"21495",286.75455,78.91234,176.70427
"21496",286.7679,78.88304,176.64098
"21497",286.78122,78.853745,176.57677
"21498",286.7946,78.82933,176.51653
"21499",286.8079,78.80736,176.45796
"21500",286.82126,78.78783,176.40115
"21501",286.83456,78.765854,176.3413
"21502",286.84793,78.74143,176.2783
"21503",286.86124,78.71702,176.21455
"21504",286.8746,78.695045,176.15248
"21505",286.8879,78.677956,176.0946
"21506",286.90128,78.66575,176.04108
"21507",286.91458,78.660866,175.99449
"21508",286.92795,78.658424,175.9502
"21509",286.94125,78.65598,175.90582
"21510",286.95462,78.6511,175.85893
"21511",286.96793,78.65354,175.81921
"21512",286.9813,78.65354,175.77713
"21513",286.9946,78.65598,175.73749
"21514",287.00797,78.66819,175.70769
"21515",287.02127,78.71458,175.71245
"21516",287.03464,78.83177,175.78947
"21517",287.04794,79.05638,175.97757
"21518",287.0613,79.41039,176.3021
"21519",287.07462,79.88159,176.75487
"21520",287.08798,80.42359,177.29317
"21521",287.1013,80.96315,177.84596
"21522",287.11465,81.43923,178.35214
"21523",287.12796,81.80545,178.76334
"21524",287.14133,82.04715,179.06146
"21525",287.15463,82.176544,179.25484
"21526",287.168,82.22293,179.36925
"21527",287.1813,82.210724,179.42651
"21528",287.19467,82.1741,179.45898
"21529",287.20798,82.127716,179.48055
"21530",287.22134,82.08377,179.5031
"21531",287.23465,82.04227,179.52672
"21532",287.24802,81.99832,179.5466
"21533",287.26132,81.93973,179.55046
"21534",287.2747,81.864044,179.5354
"21535",287.288,81.76883,179.49844
"21536",287.30136,81.64919,179.43408
"21537",287.31467,81.514915,179.35135
"21538",287.32803,81.373314,179.2571
"21539",287.34134,81.23903,179.16573
"21540",287.3547,81.11452,179.07994
"21541",287.368,81.004654,179.00491
"21542",287.38138,80.907,178.93866
"21543",287.39468,80.81911,178.87912
"21544",287.40805,80.73609,178.8217
"21545",287.42136,80.65064,178.75926
"21546",287.43472,80.56519,178.69415
"21547",287.44803,80.479744,178.62637
"21548",287.4614,80.39185,178.55348
"21549",287.4747,80.29908,178.47296
"21550",287.48807,80.201416,178.38464
"21551",287.50137,80.10132,178.29083
"21552",287.51474,80.00122,178.19391
"21553",287.52805,79.89624,178.08896
"21554",287.5414,79.78882,177.9783
"21555",287.55472,79.68383,177.86671
"21556",287.56808,79.586174,177.75917
"21557",287.5814,79.49584,177.6559
"21558",287.59476,79.42016,177.56445
"21559",287.60806,79.35668,177.48285
"21560",287.62143,79.30297,177.40903
"21561",287.63474,79.2517,177.33597
"21562",287.6481,79.20531,177.26619
"21563",287.6614,79.15892,177.19496
"21564",287.67477,79.11742,177.12717
"21565",287.68808,79.078354,177.06052
"21566",287.70145,79.04173,176.99509
"21567",287.71475,79.00267,176.92607
"21568",287.72812,78.97093,176.86316
"21569",287.74142,78.941635,176.8017
"21570",287.7548,78.91478,176.74176
"21571",287.7681,78.890366,176.68343
"21572",287.78146,78.870834,176.62921
"21573",287.79477,78.84886,176.57195
"21574",287.80814,78.82689,176.51399
"21575",287.82144,78.8098,176.46024
"21576",287.8348,78.79271,176.40594
"21577",287.8481,78.77562,176.35112
"21578",287.86148,78.75365,176.29088
"21579",287.8748,78.73655,176.23483
"21580",287.88815,78.7219,176.1807
"21581",287.90146,78.71458,176.13342
"21582",287.91483,78.70725,176.08592
"21583",287.92813,78.70725,176.04552
"21584",287.9415,78.70725,176.00511
"21585",287.9548,78.71702,175.97447
"21586",287.96817,78.75365,175.97101
"21587",287.98148,78.856186,176.03459
"21588",287.99484,79.06615,176.2088
"21589",288.00815,79.40307,176.51654
"21590",288.0215,79.86206,176.95688
"21591",288.03482,80.4065,177.49701
"21592",288.0482,80.96803,178.07124
"21593",288.0615,81.47341,178.60687
"21594",288.07486,81.87625,179.05576
"21595",288.08817,82.15701,179.39516
"21596",288.10153,82.32304,179.62859
"21597",288.11484,82.39872,179.77687
"21598",288.1282,82.41581,179.86893
"21599",288.1415,82.39384,179.92245
"21600",288.15488,82.35966,179.96309
"21601",288.16818,82.32548,180.00266
"21602",288.18155,82.29618,180.04604
"21603",288.19485,82.27177,180.09338
"21604",288.20822,82.24246,180.13507
"21605",288.22153,82.196075,180.15877
"21606",288.2349,82.13016,180.16148
"21607",288.2482,82.03494,180.13284
"21608",288.26157,81.91287,180.07437
"21609",288.27487,81.76639,179.98767
"21610",288.28824,81.60525,179.88173
"21611",288.30154,81.444115,179.77077
"21612",288.3149,81.29275,179.66454
"21613",288.32822,81.15602,179.5682
"21614",288.34158,81.03151,179.47983
"21615",288.3549,80.919205,179.39977
"21616",288.36826,80.81178,179.32108
"21617",288.38156,80.706795,179.24146
"21618",288.39493,80.59937,179.15613
"21619",288.40823,80.49195,179.06744
"21620",288.4216,80.38697,178.97784
"21621",288.4349,80.27955,178.88252
"21622",288.44827,80.17212,178.78383
"21623",288.46158,80.06714,178.68423
"21624",288.47495,79.957275,178.57648
"21625",288.48825,79.84985,178.46771
"21626",288.50162,79.742424,178.35559
"21627",288.51492,79.635,178.24011
"21628",288.5283,79.53246,178.12616
"21629",288.5416,79.43969,178.01877
"21630",288.55496,79.35668,177.91824
"21631",288.56827,79.28588,177.82733
"21632",288.58163,79.22484,177.74397
"21633",288.59494,79.17113,177.66603
"21634",288.6083,79.1223,177.5913
"21635",288.6216,79.07347,177.51503
"21636",288.63498,79.02464,177.43724
"21637",288.6483,78.97337,177.35548
"21638",288.66165,78.924545,177.27457
"21639",288.67496,78.87572,177.19212
"21640",288.68832,78.82933,177.1106
"21641",288.70163,78.78783,177.0325
"21642",288.715,78.75365,176.96043
"21643",288.7283,78.72678,176.89462
"21644",288.74167,78.70481,176.83286
"21645",288.75497,78.68528,176.77284
"21646",288.76834,78.66819,176.71466
"21647",288.78165,78.65354,176.65839
"21648",288.795,78.63889,176.60165
"21649",288.80832,78.624245,176.54446
"21650",288.8217,78.61448,176.4917
"21651",288.835,78.607155,176.44107
"21652",288.84836,78.59739,176.38777
"21653",288.86166,78.590065,176.33661
"21654",288.87503,78.58762,176.2901
"21655",288.88834,78.59251,176.25084
"21656",288.9017,78.59983,176.21417
"21657",288.915,78.61936,176.18994
"21658",288.92838,78.675514,176.20294
"21659",288.94168,78.8098,176.29584
"21660",288.95505,79.0515,176.50034
"21661",288.96835,79.42016,176.83936
"21662",288.98172,79.89868,177.29976
"21663",288.99503,80.44312,177.84103
"21664",289.0084,80.987564,178.39932
"21665",289.0217,81.45876,178.90138
"21666",289.03506,81.8201,179.3083
"21667",289.04837,82.0618,179.60689
"21668",289.06174,82.19852,179.80804
"21669",289.07504,82.24979,179.92802
"21670",289.0884,82.25712,180.00566
"21671",289.1017,82.24002,180.0591
"21672",289.11508,82.21561,180.10469
"21673",289.1284,82.18875,180.14708
"21674",289.14175,82.161896,180.18863
"21675",289.15506,82.13016,180.22446
"21676",289.16843,82.08865,180.24953
"21677",289.18173,82.0325,180.25865
"21678",289.1951,81.95926,180.24893
"21679",289.2084,81.8616,180.21251
"21680",289.22177,81.739525,180.1486
"21681",289.23508,81.600365,180.06381
"21682",289.24844,81.446556,179.96002
"21683",289.26175,81.29275,179.85143
"21684",289.27512,81.143814,179.74289
"21685",289.28842,81.01198,179.6468
"21686",289.3018,80.89235,179.5588
"21687",289.3151,80.780045,179.4744
"21688",289.32846,80.6775,179.39622
"21689",289.34177,80.57984,179.31975
"21690",289.35513,80.479744,179.23778
"21691",289.36844,80.37965,179.15268
"21692",289.3818,80.27711,179.06201
"21693",289.3951,80.17212,178.96568
"21694",289.40848,80.059814,178.85876
"21695",289.42178,79.94507,178.74588
"21696",289.43515,79.82788,178.62698
"21697",289.44846,79.71801,178.51173
"21698",289.46182,79.61059,178.3955
"21699",289.47513,79.51293,178.28566
"21700",289.4885,79.42504,178.18254
"21701",289.5018,79.344475,178.084
"21702",289.51517,79.26635,177.98538
"21703",289.52847,79.19554,177.89165
"21704",289.54184,79.12718,177.79814
"21705",289.55515,79.063705,177.70738
"21706",289.5685,79.00511,177.61952
"21707",289.58182,78.9514,177.53471
"21708",289.59518,78.90013,177.45067
"21709",289.6085,78.856186,177.37234
"21710",289.62186,78.819565,177.29997
"21711",289.63516,78.785385,177.2289
"21712",289.64853,78.751205,177.15675
"21713",289.66183,78.71458,177.0811
"21714",289.6752,78.677956,177.0043
"21715",289.6885,78.643776,176.9288
"21716",289.70187,78.61204,176.85468
"21717",289.71518,78.590065,176.78932
"21718",289.72855,78.57542,176.7306
"21719",289.74185,78.56565,176.67632
"21720",289.75522,78.56321,176.62904
"21721",289.76852,78.56077,176.5817
"21722",289.7819,78.55833,176.53427
"21723",289.7952,78.555885,176.48677
"21724",289.80856,78.54612,176.43187
"21725",289.82187,78.53391,176.37422
"21726",289.83524,78.521706,176.3162
"21727",289.84854,78.51194,176.26022
"21728",289.8619,78.51438,176.21616
"21729",289.8752,78.54856,176.2039
"21730",289.88858,78.643776,176.25375
"21731",289.9019,78.836655,176.40425
"21732",289.91525,79.149155,176.68039
"21733",289.92856,79.57641,177.08105
"21734",289.94193,80.09155,177.58296
"21735",289.95523,80.63355,178.12782
"21736",289.9686,81.13649,178.65056
"21737",289.9819,81.54665,179.09624
"21738",289.99527,81.84207,179.43999
"21739",290.00858,82.02518,179.68066
"21740",290.02194,82.11795,179.83673
"21741",290.03525,82.15213,179.9371
"21742",290.0486,82.15213,180.00436
"21743",290.06192,82.13992,180.05942
"21744",290.0753,82.12283,180.1092
"21745",290.0886,82.1033,180.15602
"21746",290.10196,82.08133,180.19978
"21747",290.11526,82.05203,180.23553
"21748",290.12863,82.01297,180.2606
"21749",290.14194,81.95438,180.26492
"21750",290.1553,81.87137,180.243
"21751",290.1686,81.75906,180.18918
"21752",290.18198,81.62234,180.10742
"21753",290.19528,81.46853,180.00432
"21754",290.20865,81.307396,179.88908
"21755",290.22195,81.15358,179.77612
"21756",290.23532,81.007095,179.6657
"21757",290.24863,80.8777,179.56778
"21758",290.262,80.762955,179.48047
"21759",290.2753,80.65797,179.39932
"21760",290.28867,80.55787,179.3198
"21761",290.30197,80.462654,179.24202
"21762",290.31534,80.365,179.15883
"21763",290.32864,80.26246,179.0677
"21764",290.342,80.15503,178.96848
"21765",290.35532,80.05005,178.86835
"21766",290.36868,79.94751,178.76736
"21767",290.382,79.84009,178.6583
"21768",290.39536,79.73266,178.54587
"21769",290.40866,79.63012,178.43497
"21770",290.42203,79.53246,178.32574
"21771",290.43533,79.43969,178.21835
"21772",290.4487,79.35424,178.11539
"21773",290.462,79.27856,178.01952
"21774",290.47537,79.20775,177.92616
"21775",290.48868,79.14183,177.83548
"21776",290.50204,79.08324,177.75006
"21777",290.51535,79.03441,177.67258
"21778",290.52872,78.99046,177.59845
"21779",290.54202,78.94896,177.52539
"21780",290.5554,78.907455,177.45103
"21781",290.5687,78.86351,177.37294
"21782",290.58206,78.81712,177.29103
"21783",290.59537,78.77318,177.21011
"21784",290.60873,78.73655,177.13515
"21785",290.62204,78.70725,177.06636
"21786",290.6354,78.68528,177.00398
"21787",290.6487,78.66331,176.94092
"21788",290.66208,78.641335,176.87717
"21789",290.67538,78.61936,176.81273
"21790",290.68875,78.59983,176.75005
"21791",290.70206,78.58518,176.69164
"21792",290.71542,78.57786,176.64009
"21793",290.72873,78.57786,176.59564
"21794",290.7421,78.5803,176.55363
"21795",290.7554,78.5803,176.50926
"21796",290.76877,78.57542,176.46
"21797",290.78207,78.56565,176.40572
"21798",290.79544,78.55833,176.35356
"21799",290.80875,78.56321,176.31339
"21800",290.8221,78.59739,176.30266
"21801",290.83542,78.692604,176.35403
"21802",290.8488,78.8806,176.50117
"21803",290.8621,79.18089,176.76648
"21804",290.87546,79.5935,177.15349
"21805",290.88876,80.08423,177.63152
"21806",290.90213,80.604256,178.15417
"21807",290.91544,81.08766,178.65646
"21808",290.9288,81.478294,179.08109
"21809",290.9421,81.75662,179.40561
"21810",290.95547,81.92752,179.63141
"21811",290.96878,82.01053,179.77466
"21812",290.98215,82.0325,179.85947
"21813",290.99545,82.02518,179.91566
"21814",291.00882,82.003204,179.95699
"21815",291.02213,81.97635,179.99274
"21816",291.0355,81.94461,180.02277
"21817",291.0488,81.91043,180.04936
"21818",291.06216,81.86893,180.06757
"21819",291.07547,81.812775,180.06982
"21820",291.08884,81.73708,180.05078
"21821",291.10214,81.634544,180.00253
"21822",291.1155,81.50759,179.92667
"21823",291.1288,81.36111,179.8273
"21824",291.14218,81.21217,179.7209
"21825",291.1555,81.07057,179.61719
"21826",291.16885,80.9485,179.52858
"21827",291.18216,80.84108,179.4508
"21828",291.19553,80.7483,179.38431
"21829",291.20883,80.66529,179.32469
"21830",291.2222,80.58961,179.2698
"21831",291.2355,80.50904,179.20767
"21832",291.24887,80.428474,179.14302
"21833",291.26218,80.34058,179.06853
"21834",291.27554,80.2478,178.98639
"21835",291.28885,80.147705,178.89404
"21836",291.30222,80.045166,178.79611
"21837",291.31552,79.94263,178.69498
"21838",291.3289,79.84253,178.59308
"21839",291.3422,79.744865,178.4905
"21840",291.35556,79.64965,178.3873
"21841",291.36887,79.55688,178.28357
"21842",291.38223,79.4641,178.17694
"21843",291.39554,79.378654,178.07474
"21844",291.4089,79.30053,177.97719
"21845",291.4222,79.22728,177.88208
"21846",291.43558,79.1638,177.79445
"21847",291.44888,79.10521,177.70972
"21848",291.46225,79.0515,177.62804
"21849",291.47556,79.00755,177.55444
"21850",291.48892,78.97093,177.4868
"21851",291.50223,78.93431,177.41801
"21852",291.5156,78.90013,177.35052
"21853",291.5289,78.86351,177.27953
"21854",291.54227,78.82445,177.20494
"21855",291.55557,78.78783,177.13158
"21856",291.56894,78.75609,177.06195
"21857",291.58224,78.729225,176.99622
"21858",291.5956,78.709694,176.93697
"21859",291.60892,78.692604,176.87955
"21860",291.62228,78.67307,176.81915
"21861",291.6356,78.660866,176.76547
"21862",291.64896,78.65354,176.7163
"21863",291.66226,78.64866,176.66933
"21864",291.67563,78.63889,176.61732
"21865",291.68893,78.62913,176.56502
"21866",291.7023,78.61936,176.5124
"21867",291.7156,78.61936,176.46925
"21868",291.72897,78.65354,176.46028
"21869",291.74228,78.76341,176.52808
"21870",291.75565,78.97093,176.69695
"21871",291.76895,79.30297,176.99683
"21872",291.78232,79.73754,177.4096
"21873",291.79562,80.23804,177.9019
"21874",291.809,80.740974,178.41228
"21875",291.8223,81.1902,178.88466
"21876",291.83566,81.54665,179.2783
"21877",291.84897,81.795685,179.57567
"21878",291.86234,81.94705,179.78316
"21879",291.87564,82.022736,179.9197
"21880",291.889,82.04959,180.00977
"21881",291.9023,82.05203,180.07626
"21882",291.91568,82.04227,180.13063
"21883",291.929,82.03006,180.18225
"21884",291.94235,82.01785,180.23349
"21885",291.95566,82.00076,180.27946
"21886",291.96902,81.96658,180.30782
"21887",291.98233,81.90799,180.31068
"21888",291.9957,81.82498,180.28731
"21889",292.009,81.71511,180.23447
"21890",292.02237,81.58572,180.15868
"21891",292.03568,81.44167,180.0642
"21892",292.04904,81.29275,179.96033
"21893",292.06235,81.143814,179.85179
"21894",292.0757,81.004654,179.74838
"21895",292.08902,80.8777,179.65283
"21896",292.1024,80.76051,179.56308
"21897",292.1157,80.66041,179.48674
"21898",292.12906,80.56519,179.41217
"21899",292.14236,80.47242,179.33707
"21900",292.15573,80.37476,179.25418
"21901",292.16904,80.272224,179.16336
"21902",292.1824,80.16724,179.06688
"21903",292.1957,80.05493,178.95981
"21904",292.20908,79.940186,178.84677
"21905",292.22238,79.82544,178.73016
"21906",292.23575,79.71313,178.6124
"21907",292.24905,79.605705,178.496
"21908",292.26242,79.50805,178.38602
"21909",292.27573,79.4226,178.28519
"21910",292.2891,79.34203,178.18657
"21911",292.3024,79.26635,178.09032
"21912",292.31577,79.1931,177.99414
"21913",292.32907,79.1223,177.89812
"21914",292.34244,79.05882,177.8072
"21915",292.35574,79.00023,177.7192
"21916",292.3691,78.94896,177.63667
"21917",292.38242,78.90257,177.55743
"21918",292.39578,78.856186,177.47675
"21919",292.4091,78.81224,177.39705
"21920",292.42245,78.768295,177.31598
"21921",292.43576,78.729225,177.23842
"21922",292.44913,78.692604,177.16208
"21923",292.46243,78.66331,177.09192
"21924",292.4758,78.63401,177.02084
"21925",292.4891,78.60471,176.94885
"21926",292.50247,78.57542,176.87595
"21927",292.51578,78.54856,176.80457
"21928",292.52914,78.52659,176.73723
"21929",292.54245,78.5095,176.67409
"21930",292.55582,78.49485,176.61285
"21931",292.56912,78.48264,176.5536
"21932",292.5825,78.47532,176.49886
"21933",292.5958,78.470436,176.44632
"21934",292.60916,78.470436,176.39851
"21935",292.62247,78.47532,176.35559
"21936",292.63583,78.487526,176.32014
"21937",292.64914,78.49973,176.28508
"21938",292.6625,78.52659,176.26505
"21939",292.6758,78.59739,176.2898
"21940",292.68918,78.74876,176.39732
"21941",292.70248,79.01488,176.62434
"21942",292.71585,79.40551,176.98419
"21943",292.72916,79.89868,177.45879
"21944",292.74252,80.44312,178.00006
"21945",292.75583,80.96559,178.53638
"21946",292.7692,81.409935,179.0109
"21947",292.7825,81.739525,179.38455
"21948",292.79587,81.95926,179.65865
"21949",292.80917,82.08621,179.84683
"21950",292.82254,82.144806,179.97063
"21951",292.83585,82.16922,180.06207
"21952",292.8492,82.18143,180.14207
"21953",292.86252,82.19119,180.22002
"21954",292.8759,82.19852,180.29582
"21955",292.8892,82.20096,180.36697
"21956",292.90256,82.193634,180.42844
"21957",292.91586,82.16678,180.47014
"21958",292.92923,82.11551,180.48659
"21959",292.94254,82.037384,180.47458
"21960",292.9559,81.92996,180.43083
"21961",292.9692,81.79324,180.35443
"21962",292.98257,81.636986,180.25421
"21963",292.99588,81.46853,180.13692
"21964",293.00925,81.304955,180.01924
"21965",293.02255,81.15358,179.90865
"21966",293.03592,81.01442,179.80554
"21967",293.04922,80.88991,179.71274
"21968",293.0626,80.77516,179.62581
"21969",293.0759,80.66041,179.53528
"21970",293.08926,80.54566,179.44118
"21971",293.10257,80.4358,179.34837
"21972",293.11594,80.325935,179.25214
"21973",293.12924,80.21362,179.15001
"21974",293.1426,80.1062,179.04926
"21975",293.1559,79.99878,178.94516
"21976",293.16928,79.888916,178.83527
"21977",293.1826,79.77905,178.72192
"21978",293.19595,79.67162,178.60759
"21979",293.20926,79.571526,178.49722
"21980",293.22263,79.47387,178.38617
"21981",293.23593,79.38354,178.27939
"21982",293.2493,79.30053,178.17711
"21983",293.2626,79.219955,178.07468
"21984",293.27597,79.13939,177.96973
"21985",293.28928,79.06615,177.86958
"21986",293.30264,79.00023,177.77448
"21987",293.31595,78.941635,177.68463
"21988",293.3293,78.890366,177.60028
"21989",293.34262,78.84642,177.52165
"21990",293.356,78.80492,177.44409
"21991",293.3693,78.76097,177.3628
"21992",293.38266,78.71702,177.28012
"21993",293.39597,78.675514,177.19852
"21994",293.40933,78.63401,177.11562
"21995",293.42264,78.59251,177.03142
"21996",293.436,78.56077,176.95569
"21997",293.4493,78.536354,176.88629
"21998",293.46268,78.5095,176.81369
"21999",293.47598,78.485085,176.74269
"22000",293.48935,78.470436,176.6807
"22001",293.50266,78.45823,176.62068
"22002",293.51602,78.44846,176.56273
"22003",293.52933,78.44114,176.50691
"22004",293.5427,78.4387,176.45575
"22005",293.556,78.4387,176.40695
"22006",293.56937,78.43626,176.35571
"22007",293.58267,78.433815,176.3044
"22008",293.59604,78.433815,176.25545
"22009",293.60934,78.43626,176.20894
"22010",293.6227,78.44846,176.17227
"22011",293.63602,78.49973,176.17505
"22012",293.64938,78.62913,176.25755
"22013",293.6627,78.86839,176.45398
"22014",293.67606,79.22728,176.7775
"22015",293.68936,79.69604,177.2221
"22016",293.70273,80.22583,177.7424
"22017",293.71603,80.75075,178.27438
"22018",293.7294,81.214615,178.76172
"22019",293.7427,81.583275,179.16833
"22020",293.75607,81.84207,179.47661
"22021",293.76938,82.00076,179.69287
"22022",293.78275,82.08377,179.83841
"22023",293.79605,82.12039,179.94016
"22024",293.80942,82.13016,180.01619
"22025",293.82272,82.127716,180.08032
"22026",293.8361,82.12283,180.14194
"22027",293.8494,82.11551,180.20096
"22028",293.86276,82.10086,180.25243
"22029",293.87607,82.07156,180.28879
"22030",293.88943,82.022736,180.3047
"22031",293.90274,81.95438,180.29956
"22032",293.9161,81.85916,180.26543
"22033",293.9294,81.73708,180.20145
"22034",293.94278,81.58572,180.10437
"22035",293.9561,81.4197,179.98792
"22036",293.96945,81.248795,179.86137
"22037",293.98276,81.0901,179.74171
"22038",293.99612,80.94606,179.63174
"22039",294.00943,80.816666,179.53192
"22040",294.0228,80.69703,179.4378
"22041",294.0361,80.587166,179.34973
"22042",294.04947,80.479744,179.26067
"22043",294.06277,80.37476,179.17068
"22044",294.07614,80.272224,179.07986
"22045",294.08945,80.17212,178.98827
"22046",294.1028,80.062256,178.88379
"22047",294.11612,79.94995,178.77344
"22048",294.1295,79.83032,178.65225
"22049",294.1428,79.71313,178.52975
"22050",294.15616,79.60082,178.40848
"22051",294.16946,79.500725,178.2959
"22052",294.18283,79.412834,178.1924
"22053",294.19614,79.32983,178.09103
"22054",294.2095,79.2517,177.99196
"22055",294.2228,79.17601,177.89288
"22056",294.23618,79.10765,177.79877
"22057",294.24948,79.044174,177.7074
"22058",294.26285,78.98802,177.62137
"22059",294.27615,78.94652,177.54823
"22060",294.28952,78.91966,177.48845
"22061",294.30283,78.90013,177.43515
"22062",294.3162,78.88304,177.38368
"22063",294.3295,78.870834,177.33656
"22064",294.34286,78.85863,177.28906
"22065",294.35617,78.84398,177.23874
"22066",294.36954,78.82201,177.18063
"22067",294.38284,78.79515,177.11696
"22068",294.3962,78.765854,177.05
"22069",294.40952,78.73411,176.97969
"22070",294.42288,78.69993,176.90594
"22071",294.4362,78.66575,176.83113
"22072",294.44955,78.62913,176.7528
"22073",294.46286,78.590065,176.6709
"22074",294.47623,78.551,176.58777
"22075",294.48953,78.51194,176.50342
"22076",294.5029,78.47776,176.42273
"22077",294.5162,78.450905,176.3483
"22078",294.52957,78.42649,176.27547
"22079",294.54288,78.399635,176.19943
"22080",294.55624,78.37522,176.125
"22081",294.56955,78.35813,176.05713
"22082",294.58292,78.34348,175.99117
"22083",294.59622,78.32639,175.9223
"22084",294.6096,78.31663,175.86023
"22085",294.6229,78.314186,175.80518
"22086",294.63626,78.34348,175.78178
"22087",294.64957,78.44114,175.82767
"22088",294.66293,78.65354,175.99135
"22089",294.67624,78.995346,176.29108
"22090",294.6896,79.45922,176.72356
"22091",294.7029,80.00366,177.2511
"22092",294.71628,80.56275,177.8103
"22093",294.72958,81.06813,178.33327
"22094",294.74295,81.47341,178.77193
"22095",294.75626,81.76395,179.1085
"22096",294.76962,81.94705,179.34674
"22097",294.78293,82.04227,179.5028
"22098",294.7963,82.07645,179.60081
"22099",294.8096,82.074005,179.66327
"22100",294.82297,82.04959,179.70367
"22101",294.83627,82.020294,179.73843
"22102",294.84964,81.988556,179.76984
"22103",294.86295,81.95926,179.80269
"22104",294.8763,81.92264,179.8273
"22105",294.88962,81.87381,179.83856
"22106",294.90298,81.80057,179.82388
"22107",294.9163,81.69802,179.7776
"22108",294.92966,81.56374,179.6964
"22109",294.94296,81.40749,179.58902
"22110",294.95633,81.24147,179.46698
"22111",294.96964,81.08034,179.34465
"22112",294.983,80.93385,179.23193
"22113",294.9963,80.799576,179.12685
"22114",295.00967,80.6775,179.02975
"22115",295.02298,80.570076,178.94351
"22116",295.03635,80.46754,178.8588
"22117",295.04965,80.36744,178.77332
"22118",295.06302,80.274666,178.69203
"22119",295.07632,80.177,178.60295
"22120",295.0897,80.07446,178.50595
"22121",295.103,79.95972,178.39352
"22122",295.11636,79.84253,178.27509
"22123",295.12967,79.725334,178.15297
"22124",295.14304,79.61303,178.03207
"22125",295.15634,79.500725,177.90767
"22126",295.1697,79.40307,177.7944
"22127",295.183,79.31762,177.69029
"22128",295.19638,79.23949,177.59084
"22129",295.2097,79.1638,177.49138
"22130",295.22305,79.10033,177.40176
"22131",295.23636,79.044174,177.31749
"22132",295.24973,78.99046,177.2339
"22133",295.26303,78.93919,177.15108
"22134",295.2764,78.89281,177.07153
"22135",295.2897,78.8513,176.99542
"22136",295.30307,78.80492,176.91313
"22137",295.31638,78.76341,176.83427
"22138",295.32974,78.72678,176.759
"22139",295.34305,78.69749,176.68991
"22140",295.3564,78.67307,176.62479
"22141",295.36972,78.65354,176.56378
"22142",295.3831,78.63889,176.50705
"22143",295.3964,78.61692,176.44254
"22144",295.40976,78.59739,176.37978
"22145",295.42307,78.57542,176.31396
"22146",295.43643,78.555885,176.24991
"22147",295.44974,78.54124,176.19012
"22148",295.4631,78.53147,176.13477
"22149",295.4764,78.521706,176.0791
"22150",295.48978,78.519264,176.03046
"22151",295.50308,78.519264,175.98418
"22152",295.51645,78.521706,175.94034
"22153",295.52975,78.52903,175.90146
"22154",295.54312,78.536354,175.86281
"22155",295.55643,78.54612,175.82683
"22156",295.5698,78.56809,175.80336
"22157",295.5831,78.63401,175.82452
"22158",295.59647,78.78783,175.93565
"22159",295.60977,79.05638,176.16632
"22160",295.62314,79.447014,176.52747
"22161",295.63644,79.9353,176.99847
"22162",295.6498,80.46021,177.52136
"22163",295.66312,80.955826,178.03136
"22164",295.67648,81.36355,178.46895
"22165",295.6898,81.654076,178.8021
"22166",295.70316,81.82742,179.02713
"22167",295.71646,81.90555,179.16237
"22168",295.72983,81.91043,179.2268
"22169",295.74313,81.87625,179.25233
"22170",295.7565,81.82254,179.25726
"22171",295.7698,81.76883,179.26051
"22172",295.78317,81.71511,179.26207
"22173",295.79648,81.66384,179.2644
"22174",295.80984,81.61257,179.26514
"22175",295.82315,81.549095,179.25206
"22176",295.83652,81.46609,179.21747
"22177",295.84982,81.36111,179.15831
"22178",295.8632,81.23903,179.07877
"22179",295.8765,81.112076,178.99054
"22180",295.88986,80.987564,178.90079
"22181",295.90317,80.87038,178.81447
"22182",295.91653,80.77516,178.74646
"22183",295.92984,80.69459,178.69011
"22184",295.9432,80.62379,178.64102
"22185",295.9565,80.56031,178.59705
"22186",295.96988,80.499275,178.55353
"22187",295.9832,80.430916,178.50078
"22188",295.99655,80.35035,178.43369
"22189",296.00986,80.26246,178.35675
"22190",296.02322,80.16968,178.27217
"22191",296.03653,80.076904,178.1847
"22192",296.0499,79.98413,178.09433
"22193",296.0632,79.888916,177.99863
"22194",296.07657,79.801025,177.90726
"22195",296.08987,79.710686,177.8107
"22196",296.10324,79.62524,177.7162
"22197",296.11655,79.53979,177.61903
"22198",296.1299,79.45678,177.52164
"22199",296.14322,79.37621,177.42409
"22200",296.1566,79.30053,177.3289
"22201",296.1699,79.234604,177.24112
"22202",296.18326,79.17845,177.16104
"22203",296.19656,79.132065,177.08897
"22204",296.20993,79.08568,177.01546
"22205",296.22324,79.04173,176.94293
"22206",296.2366,78.995346,176.8666
"22207",296.2499,78.94896,176.7888
"22208",296.26328,78.9099,176.71689
"22209",296.27658,78.8806,176.65352
"22210",296.28995,78.86107,176.599
"22211",296.30325,78.84398,176.54631
"22212",296.31662,78.83177,176.49797
"22213",296.32993,78.81712,176.44681
"22214",296.3433,78.802475,176.39519
"22215",296.3566,78.785385,176.34067
"22216",296.36996,78.77074,176.28806
"22217",296.38327,78.75609,176.23499
"22218",296.39664,78.74143,176.18146
"22219",296.40994,78.729225,176.12991
"22220",296.4233,78.73655,176.09752
"22221",296.4366,78.79759,176.11908
"22222",296.44998,78.958725,176.24263
"22223",296.4633,79.24437,176.49573
"22224",296.47665,79.6643,176.89204
"22225",296.48996,80.184326,177.40158
"22226",296.50333,80.75075,177.97375
"22227",296.51663,81.287865,178.53433
"22228",296.53,81.74197,179.02869
"22229",296.5433,82.07645,179.4176
"22230",296.55667,82.2913,179.69734
"22231",296.56998,82.39628,179.87393
"22232",296.58334,82.42802,179.98056
"22233",296.59665,82.408485,180.03691
"22234",296.61002,82.37919,180.08289
"22235",296.62332,82.34257,180.12062
"22236",296.6367,82.31327,180.16454
"22237",296.65,82.28886,180.21242
"22238",296.66336,82.25468,180.24977
"22239",296.67667,82.20584,180.2714
"22240",296.69003,82.1326,180.26709
"22241",296.70334,82.03006,180.2312
"22242",296.7167,81.89578,180.16037
"22243",296.73,81.74197,180.0658
"22244",296.74338,81.56863,179.9469
"22245",296.75668,81.392845,179.82014
"22246",296.77005,81.22194,179.69276
"22247",296.78336,81.06813,179.57715
"22248",296.79672,80.92409,179.46649
"22249",296.81003,80.797134,179.36842
"22250",296.8234,80.68482,179.28102
"22251",296.8367,80.57984,179.19745
"22252",296.85007,80.47242,179.10815
"22253",296.86337,80.36256,179.01306
"22254",296.87674,80.2478,178.90964
"22255",296.89005,80.1355,178.80508
"22256",296.9034,80.02075,178.69458
"22257",296.91672,79.90845,178.58292
"22258",296.93008,79.79614,178.46774
"22259",296.9434,79.68383,178.34906
"22260",296.95676,79.571526,178.22687
"22261",296.97006,79.46166,178.1036
"22262",296.98343,79.361565,177.98668
"22263",296.99673,79.26635,177.8715
"22264",297.0101,79.183334,177.76556
"22265",297.0234,79.10521,177.66191
"22266",297.03677,79.03441,177.56314
"22267",297.05008,78.96849,177.46704
"22268",297.06345,78.907455,177.37376
"22269",297.07675,78.8513,177.28346
"22270",297.09012,78.80003,177.19629
"22271",297.10342,78.75365,177.1124
"22272",297.1168,78.71458,177.03438
"22273",297.1301,78.68284,176.96246
"22274",297.14346,78.6511,176.88956
"22275",297.15677,78.624245,176.82054
"22276",297.17014,78.59495,176.74825
"22277",297.18344,78.56809,176.67747
"22278",297.1968,78.54856,176.61319
"22279",297.2101,78.52903,176.5483
"22280",297.22348,78.52659,176.49988
"22281",297.2368,78.56809,176.49533
"22282",297.25015,78.69016,176.57265
"22283",297.26346,78.92699,176.76854
"22284",297.27682,79.290764,177.09879
"22285",297.29013,79.76196,177.54782
"22286",297.3035,80.289314,178.06773
"22287",297.3168,80.80446,178.59192
"22288",297.33017,81.24635,179.05896
"22289",297.34348,81.583275,179.43483
"22290",297.35684,81.80789,179.70892
"22291",297.37015,81.934845,179.89238
"22292",297.3835,81.988556,180.00656
"22293",297.39682,82.003204,180.08336
"22294",297.4102,82.00076,180.14352
"22295",297.4235,81.988556,180.19385
"22296",297.43686,81.97635,180.24379
"22297",297.45016,81.95926,180.28847
"22298",297.46353,81.934845,180.32529
"22299",297.47684,81.898224,180.34914
"22300",297.4902,81.84451,180.35475
"22301",297.5035,81.76639,180.33427
"22302",297.51688,81.65652,180.2796
"22303",297.53018,81.51736,180.19221
"22304",297.54355,81.3489,180.07118
"22305",297.55685,81.17067,179.9351
"22306",297.57022,80.99489,179.79591
"22307",297.58353,80.82887,179.661
"22308",297.5969,80.68238,179.5404
"22309",297.6102,80.552986,179.43234
"22310",297.62357,80.44068,179.33733
"22311",297.63687,80.343025,179.25345
"22312",297.65024,80.255135,179.17628
"22313",297.66354,80.164795,179.09392
"22314",297.6769,80.06714,179.0014
"22315",297.69022,79.9646,178.90097
"22316",297.70358,79.84253,178.7778
"22317",297.7169,79.71313,178.64348
"22318",297.73026,79.586174,178.50755
"22319",297.74356,79.46166,178.3701
"22320",297.75693,79.34692,178.23853
"22321",297.77023,79.23949,178.11069
"22322",297.7836,79.14183,177.98926
"22323",297.7969,79.0515,177.8721
"22324",297.81027,78.96361,177.75456
"22325",297.82358,78.87816,177.63672
"22326",297.83694,78.80492,177.52841
"22327",297.85025,78.74143,177.42758
"22328",297.86362,78.68528,177.33209
"22329",297.87692,78.63889,177.24461
"22330",297.8903,78.59739,177.16057
"22331",297.9036,78.55833,177.07767
"22332",297.91696,78.519264,176.99355
"22333",297.93027,78.4802,176.9082
"22334",297.94363,78.44358,176.82408
"22335",297.95694,78.41428,176.74614
"22336",297.9703,78.38743,176.66972
"22337",297.9836,78.37278,176.60468
"22338",297.99698,78.39475,176.57579
"22339",298.01028,78.485085,176.61595
"22340",298.02365,78.68284,176.76636
"22341",298.03696,79.00755,177.04991
"22342",298.05032,79.449455,177.4608
"22343",298.06363,79.96216,177.9563
"22344",298.077,80.479744,178.4727
"22345",298.0903,80.936295,178.94424
"22346",298.10367,81.29275,179.32996
"22347",298.11697,81.53689,179.6145
"22348",298.13034,81.688255,179.8139
"22349",298.14365,81.76639,179.9448
"22350",298.157,81.80545,180.03906
"22351",298.17032,81.8201,180.11014
"22352",298.1837,81.82254,180.16946
"22353",298.197,81.8201,180.22398
"22354",298.21036,81.815216,180.27599
"22355",298.22366,81.80301,180.32051
"22356",298.23703,81.77615,180.35
"22357",298.25034,81.72732,180.35667
"22358",298.2637,81.64919,180.33253
"22359",298.277,81.53445,180.26933
"22360",298.29037,81.38796,180.1708
"22361",298.30368,81.22194,180.04816
"22362",298.31705,81.04372,179.90813
"22363",298.33035,80.87282,179.76985
"22364",298.34372,80.71412,179.63843
"22365",298.35703,80.57496,179.52159
"22366",298.3704,80.45289,179.4175
"22367",298.3837,80.34058,179.31935
"22368",298.39706,80.235596,179.225
"22369",298.41037,80.13306,179.12982
"22370",298.42374,80.028076,179.02899
"22371",298.43704,79.920654,178.92245
"22372",298.4504,79.815674,178.815
"22373",298.4637,79.710686,178.70425
"22374",298.47708,79.605705,178.59023
"22375",298.4904,79.50317,178.47536
"22376",298.50375,79.40307,178.35973
"22377",298.51706,79.30297,178.24097
"22378",298.53043,79.200424,178.11664
"22379",298.54373,79.097885,177.9891
"22380",298.5571,79.00023,177.86325
"22381",298.5704,78.9099,177.74167
"22382",298.58377,78.83177,177.62947
"22383",298.59708,78.76341,177.5246
"22384",298.61044,78.70237,177.42491
"22385",298.62375,78.643776,177.32576
"22386",298.63712,78.58274,177.22234
"22387",298.65042,78.519264,177.11456
"22388",298.6638,78.46311,177.01213
"22389",298.6771,78.416725,176.91771
"22390",298.69046,78.380104,176.8316
"22391",298.70377,78.35081,176.75168
"22392",298.71713,78.32639,176.67572
"22393",298.73044,78.29954,176.59656
"22394",298.7438,78.27512,176.519
"22395",298.7571,78.24582,176.43579
"22396",298.77048,78.221405,176.35655
"22397",298.78378,78.19943,176.27899
"22398",298.79715,78.184784,176.20807
"22399",298.81046,78.17502,176.14157
"22400",298.82382,78.167694,176.07721
"22401",298.83713,78.16525,176.0175
"22402",298.8505,78.187225,175.98213
"22403",298.8638,78.26292,176.00117
"22404",298.87717,78.4387,176.12267
"22405",298.89047,78.746315,176.38148
"22406",298.90384,79.18822,176.78421
"22407",298.91714,79.73022,177.30084
"22408",298.9305,80.306404,177.86859
"22409",298.94382,80.84596,178.41772
"22410",298.95718,81.28542,178.88362
"22411",298.9705,81.600365,179.23874
"22412",298.98386,81.7908,179.47919
"22413",298.99716,81.88602,179.63037
"22414",299.01053,81.91043,179.71373
"22415",299.02383,81.90311,179.76611
"22416",299.0372,81.883575,179.80606
"22417",299.0505,81.8616,179.84296
"22418",299.06387,81.84451,179.88405
"22419",299.07718,81.82254,179.91972
"22420",299.09055,81.795685,179.94983
"22421",299.10385,81.74929,179.95955
"22422",299.11722,81.671165,179.9361
"22423",299.13052,81.5613,179.87846
"22424",299.1439,81.41726,179.78322
"22425",299.1572,81.25124,179.6615
"22426",299.17056,81.075455,179.52481
"22427",299.18387,80.90944,179.39241
"22428",299.19724,80.765396,179.2768
"22429",299.21054,80.64576,179.18108
"22430",299.2239,80.54078,179.09628
"22431",299.2372,80.448006,179.02042
"22432",299.25058,80.360115,178.94653
"22433",299.2639,80.26734,178.86502
"22434",299.27725,80.17212,178.77815
"22435",299.29056,80.06714,178.67856
"22436",299.30392,79.9646,178.57812
"22437",299.31723,79.85718,178.4696
"22438",299.3306,79.7522,178.36017
"22439",299.3439,79.64721,178.24744
"22440",299.35727,79.54467,178.13387
"22441",299.37057,79.43969,178.01465
"22442",299.38394,79.33959,177.89703
"22443",299.39725,79.237045,177.77385
"22444",299.4106,79.13939,177.65234
"22445",299.42392,79.046616,177.53267
"22446",299.4373,78.96117,177.41742
"22447",299.4506,78.88548,177.30927
"22448",299.46396,78.82445,177.2134
"22449",299.47726,78.77318,177.12538
"22450",299.49063,78.729225,177.04309
"22451",299.50394,78.695045,176.9692
"22452",299.5173,78.658424,176.89178
"22453",299.5306,78.624245,176.81567
"22454",299.54398,78.59251,176.74094
"22455",299.55728,78.56321,176.66765
"22456",299.57065,78.53391,176.59344
"22457",299.58395,78.5095,176.52321
"22458",299.59732,78.487526,176.45465
"22459",299.61063,78.470436,176.39029
"22460",299.624,78.45335,176.3254
"22461",299.6373,78.44602,176.26973
"22462",299.65067,78.44358,176.21872
"22463",299.66397,78.44358,176.17007
"22464",299.67734,78.44602,176.12387
"22465",299.69064,78.44846,176.07774
"22466",299.704,78.44602,176.02681
"22467",299.71732,78.45823,175.99045
"22468",299.73068,78.51438,175.99841
"22469",299.744,78.65598,176.09358
"22470",299.75735,78.91722,176.31282
"22471",299.77066,79.310295,176.67206
"22472",299.78403,79.80835,177.14856
"22473",299.79733,80.35523,177.68945
"22474",299.8107,80.88258,178.2279
"22475",299.824,81.32693,178.69983
"22476",299.83737,81.64919,179.06357
"22477",299.85068,81.846954,179.31287
"22478",299.86404,81.94461,179.46825
"22479",299.87735,81.96658,179.551
"22480",299.89072,81.94217,179.58804
"22481",299.90402,81.90311,179.60968
"22482",299.9174,81.864044,179.6301
"22483",299.9307,81.82742,179.65173
"22484",299.94406,81.78836,179.66978
"22485",299.95737,81.74441,179.68172
"22486",299.97073,81.68093,179.67276
"22487",299.98404,81.5906,179.63496
"22488",299.9974,81.46609,179.56017
"22489",300.0107,81.3196,179.4595
"22490",300.02408,81.163345,179.34448
"22491",300.03738,81.007095,179.2246
"22492",300.05075,80.86549,179.11447
"22493",300.06406,80.743416,179.01944
"22494",300.07742,80.635994,178.93526
"22495",300.09073,80.53834,178.85748
"22496",300.1041,80.445564,178.78154
"22497",300.1174,80.35523,178.70514
"22498",300.13077,80.26734,178.62836
"22499",300.14407,80.17212,178.54149
"22500",300.15744,80.07446,178.44922
"22501",300.17075,79.96948,178.34656
"22502",300.1841,79.86206,178.23819
"22503",300.19742,79.74731,178.11913
"22504",300.2108,79.639885,178.0038
"22505",300.2241,79.53246,177.88512
"22506",300.23746,79.432365,177.7704
"22507",300.25076,79.33715,177.65744
"22508",300.26413,79.24925,177.54883
"22509",300.27744,79.16136,177.43747
"22510",300.2908,79.078354,177.32825
"22511",300.3041,79.00267,177.22375
"22512",300.31747,78.93431,177.12422
"22513",300.33078,78.87572,177.03232
"22514",300.34415,78.82445,176.9459
"22515",300.35745,78.7805,176.86522
"22516",300.37082,78.74143,176.78804
"22517",300.38412,78.70237,176.70964
"22518",300.3975,78.66575,176.63246
"22519",300.4108,78.63645,176.56146
"22520",300.42416,78.61204,176.49443
"22521",300.43747,78.590065,176.42908
"22522",300.45084,78.57053,176.36548
"22523",300.46414,78.551,176.30127
"22524",300.4775,78.53391,176.23889
"22525",300.4908,78.519264,176.17842
"22526",300.50418,78.504616,176.1175
"22527",300.5175,78.487526,176.05367
"22528",300.53085,78.467995,175.98686
"22529",300.54416,78.44358,175.91457
"22530",300.55753,78.42893,175.85127
"22531",300.57083,78.42649,175.79973
"22532",300.5842,78.44846,175.77252
"22533",300.5975,78.536354,175.81192
"22534",300.61087,78.72678,175.9566
"22535",300.62418,79.046616,176.23665
"22536",300.63754,79.500725,176.66096
"22537",300.65085,80.062256,177.2069
"22538",300.6642,80.65797,177.80455
"22539",300.67752,81.214615,178.38176
"22540",300.6909,81.6614,178.8665
"22541",300.7042,81.97635,179.23337
"22542",300.71756,82.16434,179.48312
"22543",300.73087,82.25468,179.6411
"22544",300.74423,82.28153,179.73842
"22545",300.75754,82.27909,179.80728
"22546",300.7709,82.266884,179.8663
"22547",300.7842,82.25468,179.92494
"22548",300.79758,82.24002,179.98074
"22549",300.81088,82.22293,180.03366
"22550",300.82425,82.193634,180.07384
"22551",300.83755,82.144806,180.09357
"22552",300.85092,82.06424,180.08003
"22553",300.86423,81.95438,180.03468
"22554",300.8776,81.812775,179.95416
"22555",300.8909,81.64919,179.84723
"22556",300.90427,81.47341,179.72299
"22557",300.91757,81.29763,179.59326
"22558",300.93094,81.12428,179.46046
"22559",300.94424,80.96559,179.33691
"22560",300.9576,80.816666,179.21817
"22561",300.97092,80.68482,179.11185
"22562",300.98428,80.567635,179.01607
"22563",300.9976,80.462654,178.92883
"22564",301.01096,80.35767,178.83832
"22565",301.02426,80.25025,178.74208
"22566",301.03763,80.1355,178.63515
"22567",301.05093,80.01343,178.5173
"22568",301.0643,79.89136,178.39566
"22569",301.0776,79.766846,178.26776
"22570",301.09097,79.64477,178.1384
"22571",301.10428,79.53002,178.01254
"22572",301.11765,79.42016,177.88799
"22573",301.13095,79.31518,177.76488
"22574",301.14432,79.219955,177.64825
"22575",301.15762,79.132065,177.53598
"22576",301.171,79.05394,177.43073
"22577",301.1843,78.98314,177.33035
"22578",301.19766,78.91478,177.23021
"22579",301.21097,78.8513,177.13281
"22580",301.22433,78.79515,177.04076
"22581",301.23764,78.74387,176.95183
"22582",301.251,78.69993,176.86862
"22583",301.2643,78.660866,176.78893
"22584",301.27768,78.624245,176.71045
"22585",301.291,78.590065,176.63327
"22586",301.30435,78.553444,176.55258
"22587",301.31766,78.51682,176.47075
"22588",301.33102,78.487526,176.3951
"22589",301.34433,78.467995,176.3283
"22590",301.3577,78.44846,176.26088
"22591",301.371,78.43626,176.20018
"22592",301.38437,78.42161,176.13666
"22593",301.39767,78.40696,176.07268
"22594",301.41104,78.39475,176.01068
"22595",301.42435,78.382545,175.9483
"22596",301.4377,78.37522,175.89043
"22597",301.45102,78.37034,175.83476
"22598",301.4644,78.365456,175.77895
"22599",301.4777,78.36057,175.72298
"22600",301.49106,78.363014,175.67418
"22601",301.50436,78.38499,175.64499
"22602",301.51773,78.470436,175.67996
"22603",301.53104,78.66819,175.82991
"22604",301.5444,79.00755,176.12766
"22605",301.5577,79.49096,176.58005
"22606",301.57108,80.079346,177.15253
"22607",301.58438,80.69703,177.77269
"22608",301.59775,81.26345,178.3609
"22609",301.61105,81.71999,178.85693
"22610",301.62442,82.037384,179.22807
"22611",301.63773,82.22781,179.48218
"22612",301.6511,82.31571,179.6397
"22613",301.6644,82.340126,179.73648
"22614",301.67776,82.320595,179.79008
"22615",301.69107,82.28397,179.82599
"22616",301.70444,82.247345,179.86073
"22617",301.71774,82.21805,179.90167
"22618",301.7311,82.196075,179.94902
"22619",301.74442,82.16922,179.9908
"22620",301.75778,82.13016,180.01953
"22621",301.7711,82.0618,180.01775
"22622",301.78445,81.95438,179.97476
"22623",301.79776,81.81033,179.8918
"22624",301.81113,81.64187,179.7799
"22625",301.82443,81.45632,179.64568
"22626",301.8378,81.27322,179.50809
"22627",301.8511,81.10719,179.38185
"22628",301.86447,80.95827,179.26753
"22629",301.87778,80.82643,179.16565
"22630",301.89114,80.706795,179.07184
"22631",301.90445,80.59937,178.98651
"22632",301.91782,80.49683,178.90271
"22633",301.93112,80.394295,178.8157
"22634",301.9445,80.28687,178.72061
"22635",301.9578,80.17456,178.61726
"22636",301.97116,80.059814,178.50797
"22637",301.98447,79.937744,178.38776
"22638",301.99783,79.82056,178.26862
"22639",302.01114,79.708244,178.1507
"22640",302.0245,79.605705,178.03903
"22641",302.0378,79.50561,177.9266
"22642",302.05118,79.40795,177.81349
"22643",302.06448,79.31518,177.70221
"22644",302.07785,79.22484,177.59047
"22645",302.09116,79.13695,177.47835
"22646",302.10452,79.05394,177.36836
"22647",302.11783,78.97826,177.2631
"22648",302.1312,78.9099,177.16281
"22649",302.1445,78.84886,177.0677
"22650",302.15787,78.79271,176.97557
"22651",302.17117,78.73899,176.88412
"22652",302.18454,78.692604,176.79832
"22653",302.19785,78.65354,176.7184
"22654",302.2112,78.61936,176.64214
"22655",302.22452,78.58762,176.56725
"22656",302.23788,78.553444,176.48892
"22657",302.2512,78.519264,176.40953
"22658",302.26456,78.48997,176.33395
"22659",302.27786,78.46555,176.26234
"22660",302.29123,78.44114,176.18997
"22661",302.30453,78.42405,176.12416
"22662",302.3179,78.4094,176.06026
"22663",302.3312,78.399635,176.00078
"22664",302.34457,78.38743,175.93855
"22665",302.35788,78.382545,175.88327
"22666",302.37125,78.382545,175.83272
"22667",302.38455,78.382545,175.78217
"22668",302.39792,78.38499,175.73405
"22669",302.41122,78.38743,175.68602
"22670",302.4246,78.399635,175.64783
"22671",302.4379,78.450905,175.64908
"22672",302.45126,78.58518,175.73494
"22673",302.46457,78.84642,175.95197
"22674",302.47794,79.24925,176.31874
"22675",302.49124,79.783936,176.82996
"22676",302.5046,80.396736,177.436
"22677",302.5179,81.004654,178.05632
"22678",302.53128,81.52468,178.60774
"22679",302.5446,81.91287,179.04358
"22680",302.55795,82.161896,179.35239
"22681",302.57126,82.28886,179.5469
"22682",302.58463,82.33036,179.65994
"22683",302.59793,82.32548,179.72789
"22684",302.6113,82.30106,179.77615
"22685",302.6246,82.27421,179.82121
"22686",302.63797,82.24246,179.86053
"22687",302.65128,82.210724,179.89888
"22688",302.66464,82.17166,179.92891
"22689",302.67795,82.12039,179.94551
"22690",302.6913,82.04715,179.93854
"22691",302.70462,81.951935,179.9073
"22692",302.718,81.82742,179.8438
"22693",302.7313,81.68093,179.75441
"22694",302.74466,81.52224,179.64825
"22695",302.75797,81.356224,179.52982
"22696",302.77133,81.19997,179.41594
"22697",302.78464,81.05592,179.3094
"22698",302.798,80.921646,179.20813
"22699",302.8113,80.797134,179.11243
"22700",302.82468,80.68482,179.02502
"22701",302.83798,80.57496,178.93657
"22702",302.85135,80.47242,178.852
"22703",302.86465,80.36988,178.76424
"22704",302.87802,80.26734,178.67326
"22705",302.89133,80.16235,178.57663
"22706",302.9047,80.05249,178.47183
"22707",302.918,79.937744,178.35873
"22708",302.93137,79.82544,178.24448
"22709",302.94467,79.71557,178.12915
"22710",302.95804,79.61059,178.01527
"22711",302.97134,79.51049,177.903
"22712",302.9847,79.415276,177.79248
"22713",302.99802,79.327385,177.68631
"22714",303.01138,79.24925,177.58716
"22715",303.0247,79.18089,177.49533
"22716",303.03806,79.11986,177.40869
"22717",303.05136,79.06859,177.32991
"22718",303.06473,79.01976,177.25197
"22719",303.07803,78.97093,177.1725
"22720",303.0914,78.91966,177.08907
"22721",303.1047,78.86839,177.00403
"22722",303.11807,78.81468,176.91495
"22723",303.13138,78.765854,176.82907
"22724",303.14474,78.72678,176.75143
"22725",303.15805,78.695045,176.6799
"22726",303.17142,78.66331,176.60738
"22727",303.18472,78.63645,176.53874
"22728",303.1981,78.61448,176.47415
"22729",303.2114,78.590065,176.40643
"22730",303.22476,78.57053,176.34283
"22731",303.23807,78.55833,176.28595
"22732",303.25143,78.54856,176.23112
"22733",303.26474,78.54368,176.18088
"22734",303.2781,78.54124,176.13292
"22735",303.2914,78.536354,176.08244
"22736",303.30478,78.53391,176.03426
"22737",303.31808,78.54368,175.9982
"22738",303.33145,78.59495,176.00395
"22739",303.34476,78.73655,176.10164
"22740",303.35812,79.00267,176.32828
"22741",303.37143,79.40307,176.69751
"22742",303.3848,79.91577,177.19156
"22743",303.3981,80.48463,177.75778
"22744",303.41147,81.03639,178.32469
"22745",303.42477,81.497826,178.81851
"22746",303.43814,81.83475,179.20224
"22747",303.45145,82.04227,179.4671
"22748",303.4648,82.13748,179.62614
"22749",303.47812,82.15213,179.7076
"22750",303.4915,82.12283,179.74556
"22751",303.5048,82.07645,179.76552
"22752",303.51816,82.0325,179.78647
"22753",303.53146,81.99344,179.81093
"22754",303.54483,81.951935,179.83173
"22755",303.55814,81.90311,179.8439
"22756",303.5715,81.83475,179.83502
"22757",303.5848,81.73708,179.7947
"22758",303.59818,81.61013,179.72203
"22759",303.61148,81.46609,179.62831
"22760",303.62485,81.30984,179.51788
"22761",303.63815,81.15602,179.405
"22762",303.65152,81.01198,179.29709
"22763",303.66483,80.88014,179.19688
"22764",303.6782,80.762955,179.10721
"22765",303.6915,80.65797,179.02606
"22766",303.70486,80.56519,178.95386
"22767",303.71817,80.4773,178.88364
"22768",303.73154,80.39185,178.81311
"22769",303.74484,80.30396,178.73747
"22770",303.7582,80.20874,178.65175
"22771",303.7715,80.1062,178.55573
"22772",303.78488,79.99878,178.45163
"22773",303.7982,79.888916,178.34174
"22774",303.81155,79.77905,178.2284
"22775",303.82486,79.674065,178.1165
"22776",303.83823,79.569084,178.00133
"22777",303.85153,79.46899,177.88776
"22778",303.8649,79.36889,177.77106
"22779",303.8782,79.281,177.66344
"22780",303.89157,79.19798,177.55795
"22781",303.90488,79.12474,177.45964
"22782",303.91824,79.061264,177.3688
"22783",303.93155,79.00511,177.28331
"22784",303.94492,78.958725,177.20583
"22785",303.95822,78.91722,177.13177
"22786",303.9716,78.8806,177.06131
"22787",303.9849,78.84398,176.9897
"22788",303.99826,78.8098,176.91939
"22789",304.01157,78.77318,176.84557
"22790",304.02493,78.73899,176.77304
"22791",304.03824,78.70725,176.70189
"22792",304.0516,78.68284,176.63707
"22793",304.0649,78.66331,176.57637
"22794",304.07828,78.643776,176.51506
"22795",304.09158,78.624245,176.45314
"22796",304.10495,78.607155,176.39305
"22797",304.11826,78.590065,176.33243
"22798",304.13162,78.57053,176.26883
"22799",304.14493,78.551,176.20462
"22800",304.1583,78.53391,176.14224
"22801",304.1716,78.521706,176.08421
"22802",304.18497,78.538795,176.0551
"22803",304.19827,78.61936,176.09
"22804",304.21164,78.802475,176.22997
"22805",304.22495,79.114975,176.50504
"22806",304.2383,79.55932,176.92172
"22807",304.25162,80.10376,177.4524
"22808",304.26498,80.68726,178.03914
"22809",304.2783,81.23659,178.60994
"22810",304.29166,81.69314,179.10513
"22811",304.30496,82.02762,179.49252
"22812",304.31833,82.24246,179.77074
"22813",304.33163,82.357216,179.95557
"22814",304.345,82.391396,180.06342
"22815",304.3583,82.38651,180.13327
"22816",304.37167,82.3621,180.18344
"22817",304.38498,82.33524,180.23041
"22818",304.39835,82.31083,180.27898
"22819",304.41165,82.29374,180.3341
"22820",304.42502,82.269325,180.38138
"22821",304.43832,82.230255,180.41322
"22822",304.4517,82.17166,180.42433
"22823",304.465,82.08133,180.40187
"22824",304.47836,81.95682,180.3424
"22825",304.49167,81.80789,180.25464
"22826",304.50504,81.63943,180.14267
"22827",304.51834,81.45876,180.01324
"22828",304.5317,81.28054,179.88062
"22829",304.545,81.11696,179.75705
"22830",304.55838,80.96559,179.6406
"22831",304.5717,80.82887,179.53406
"22832",304.58505,80.70435,179.43544
"22833",304.59836,80.584724,179.33783
"22834",304.61172,80.46754,179.23892
"22835",304.62503,80.35279,179.1388
"22836",304.6384,80.233154,179.03018
"22837",304.6517,80.10864,178.91296
"22838",304.66507,79.97681,178.78452
"22839",304.67838,79.84253,178.6495
"22840",304.69174,79.70336,178.50542
"22841",304.70505,79.5642,178.35698
"22842",304.7184,79.43481,178.21396
"22843",304.73172,79.31274,178.07422
"22844",304.7451,79.200424,177.94043
"22845",304.7584,79.097885,177.8129
"22846",304.77176,79.00755,177.69437
"22847",304.78506,78.922104,177.5779
"22848",304.79843,78.84398,177.46608
"22849",304.81174,78.768295,177.35426
"22850",304.8251,78.69749,177.24496
"22851",304.8384,78.62913,177.1359
"22852",304.85178,78.56809,177.03201
"22853",304.86508,78.51194,176.9311
"22854",304.87845,78.46311,176.83577
"22855",304.89175,78.41917,176.74379
"22856",304.90512,78.37278,176.648
"22857",304.91843,78.328835,176.55319
"22858",304.9318,78.28489,176.45702
"22859",304.9451,78.24826,176.36679
"22860",304.95847,78.21896,176.28275
"22861",304.97177,78.20187,176.20999
"22862",304.98514,78.18967,176.14159
"22863",304.99844,78.18234,176.07768
"22864",305.0118,78.17502,176.01355
"22865",305.02512,78.170135,175.95163
"22866",305.03848,78.167694,175.892
"22867",305.0518,78.170135,175.83717
"22868",305.06516,78.17746,175.78731
"22869",305.07846,78.187225,175.74011
"22870",305.09183,78.19943,175.69566
"22871",305.10513,78.221405,175.66136
"22872",305.1185,78.28245,175.66682
"22873",305.1318,78.42161,175.7523
"22874",305.14517,78.6804,175.96176
"22875",305.15848,79.080795,176.32092
"22876",305.17184,79.61303,176.82443
"22877",305.18515,80.22583,177.42514
"22878",305.19852,80.848404,178.05478
"22879",305.21182,81.40261,178.6355
"22880",305.2252,81.84207,179.11879
"22881",305.2385,82.15213,179.48642
"22882",305.25186,82.34257,179.74411
"22883",305.26517,82.442665,179.91742
"22884",305.27853,82.48905,180.04015
"22885",305.29184,82.50126,180.13014
"22886",305.3052,82.50126,180.20831
"22887",305.3185,82.49149,180.27672
"22888",305.33188,82.476845,180.33994
"22889",305.34518,82.45243,180.39293
"22890",305.35855,82.41337,180.43051
"22891",305.37186,82.35233,180.4449
"22892",305.38522,82.262,180.42809
"22893",305.39853,82.13748,180.37425
"22894",305.4119,81.986115,180.28969
"22895",305.4252,81.812775,180.17842
"22896",305.43857,81.62722,180.04951
"22897",305.45187,81.43923,179.91238
"22898",305.46524,81.26345,179.78159
"22899",305.47855,81.09743,179.65504
"22900",305.4919,80.938736,179.53065
"22901",305.50522,80.79225,179.41351
"22902",305.5186,80.65797,179.30399
"22903",305.5319,80.5359,179.20248
"22904",305.54526,80.42359,179.10693
"22905",305.55856,80.32838,179.02496
"22906",305.57193,80.23804,178.94489
"22907",305.58524,80.15503,178.86932
"22908",305.5986,80.07202,178.79117
"22909",305.6119,79.99634,178.71774
"22910",305.62527,79.93042,178.6517
"22911",305.63858,79.87671,178.59583
"22912",305.65195,79.835205,178.55048
"22913",305.66525,79.80347,178.51358
"22914",305.67862,79.77173,178.47571
"22915",305.69193,79.73266,178.4295
"22916",305.7053,79.69604,178.38452
"22917",305.7186,79.66186,178.34084
"22918",305.73196,79.62768,178.29608
"22919",305.74527,79.60082,178.25758
"22920",305.75864,79.57641,178.22069
"22921",305.77194,79.551994,178.18303
"22922",305.7853,79.520256,178.13728
"22923",305.7986,79.47875,178.08078
"22924",305.81198,79.432365,178.0181
"22925",305.8253,79.378654,177.94664
"22926",305.83865,79.3225,177.87106
"22927",305.85196,79.26879,177.79617
"22928",305.86533,79.217514,177.72205
"22929",305.87863,79.166245,177.64632
"22930",305.892,79.114975,177.56898
"22931",305.9053,79.063705,177.49005
"22932",305.91867,79.01488,177.41196
"22933",305.93198,78.96605,177.33234
"22934",305.94534,78.91722,177.25119
"22935",305.95865,78.870834,177.17096
"22936",305.97202,78.82445,177.08928
"22937",305.98532,78.7805,177.00859
"22938",305.9987,78.73899,176.92897
"22939",306.012,78.695045,176.84561
"22940",306.02536,78.6511,176.76088
"22941",306.03867,78.60227,176.66989
"22942",306.05203,78.553444,176.57738
"22943",306.06534,78.5095,176.48822
"22944",306.0787,78.502174,176.43431
"22945",306.092,78.56809,176.45341
"22946",306.10538,78.74387,176.58444
"22947",306.11868,79.04906,176.85037
"22948",306.13205,79.47387,177.24547
"22949",306.14536,79.96704,177.7222
"22950",306.15872,80.45533,178.20946
"22951",306.17203,80.87038,178.63873
"22952",306.1854,81.160904,178.95647
"22953",306.1987,81.324486,179.15633
"22954",306.21207,81.37087,179.24411
"22955",306.22537,81.33181,179.2479
"22956",306.23874,81.23903,179.19673
"22957",306.25204,81.1194,179.11583
"22958",306.2654,80.990005,179.02142
"22959",306.27872,80.85817,178.92053
"22960",306.29208,80.72877,178.81795
"22961",306.3054,80.60914,178.7211
"22962",306.31876,80.49683,178.62784
"22963",306.33206,80.38697,178.53351
"22964",306.34543,80.272224,178.43086
"22965",306.35873,80.15503,178.32217
"22966",306.3721,80.03296,178.20496
"22967",306.3854,79.90845,178.08148
"22968",306.39877,79.79126,177.96143
"22969",306.41208,79.69604,177.85968
"22970",306.42545,79.62524,177.77937
"22971",306.43875,79.57885,177.72127
"22972",306.45212,79.554436,177.68369
"22973",306.46542,79.54223,177.65755
"22974",306.4788,79.537346,177.63835
"22975",306.4921,79.52758,177.61412
"22976",306.50546,79.51049,177.58226
"22977",306.51877,79.48608,177.54254
"22978",306.53214,79.4519,177.4923
"22979",306.54544,79.412834,177.4361
"22980",306.5588,79.37133,177.37624
"22981",306.5721,79.327385,177.31264
"22982",306.58548,79.28832,177.25255
"22983",306.5988,79.2517,177.19368
"22984",306.61215,79.217514,177.13611
"22985",306.62546,79.18089,177.07503
"22986",306.63882,79.14427,177.0128
"22987",306.65213,79.10765,176.94943
"22988",306.6655,79.07103,176.88492
"22989",306.6788,79.03197,176.81682
"22990",306.69217,78.99779,176.75238
"22991",306.70547,78.96361,176.68687
"22992",306.71884,78.92699,176.61786
"22993",306.73215,78.89281,176.55014
"22994",306.7455,78.86107,176.4838
"22995",306.75882,78.83177,176.4189
"22996",306.7722,78.802475,176.35309
"22997",306.7855,78.77562,176.2888
"22998",306.79886,78.75609,176.231
"22999",306.81216,78.74143,176.17747
"23000",306.82553,78.72678,176.12349
"23001",306.83884,78.71702,176.07393
"23002",306.8522,78.71458,176.03139
"23003",306.8655,78.71946,175.9961
"23004",306.87888,78.7219,175.95851
"23005",306.89218,78.73167,175.92833
"23006",306.90555,78.73899,175.89601
"23007",306.91885,78.74387,175.86148
"23008",306.93222,78.74876,175.8271
"23009",306.94553,78.77318,175.81242
"23010",306.9589,78.8513,175.8522
"23011",306.9722,79.02464,175.98964
"23012",306.98557,79.32983,176.26434
"23013",306.99887,79.766846,176.68042
"23014",307.01224,80.30396,177.21025
"23015",307.02554,80.88258,177.79837
"23016",307.0389,81.42458,178.36795
"23017",307.05222,81.87381,178.8617
"23018",307.06558,82.196075,179.24252
"23019",307.0789,82.39872,179.5138
"23020",307.09225,82.50126,179.6913
"23021",307.10556,82.54276,179.81097
"23022",307.11893,82.55009,179.89777
"23023",307.13223,82.545204,179.97258
"23024",307.1456,82.53788,180.0448
"23025",307.1589,82.533,180.11923
"23026",307.17227,82.51835,180.18375
"23027",307.18558,82.48173,180.22583
"23028",307.19894,82.41337,180.23503
"23029",307.21225,82.30106,180.19815
"23030",307.22562,82.13992,180.10892
"23031",307.23892,81.93729,179.97316
"23032",307.2523,81.70046,179.79688
"23033",307.2656,81.45388,179.60344
"23034",307.27896,81.21706,179.41205
"23035",307.29227,81.007095,179.24013
"23036",307.30563,80.833755,179.09827
"23037",307.31894,80.70191,178.99248
"23038",307.3323,80.59449,178.907
"23039",307.3456,80.50172,178.83281
"23040",307.35898,80.41627,178.76305
"23041",307.37228,80.323494,178.68329
"23042",307.38565,80.22095,178.59085
"23043",307.39896,80.10864,178.48544
"23044",307.41232,79.991455,178.37164
"23045",307.42563,79.8645,178.24442
"23046",307.439,79.7351,178.11078
"23047",307.4523,79.603264,177.97066
"23048",307.46567,79.47631,177.8313
"23049",307.47897,79.35668,177.6953
"23050",307.49234,79.24193,177.56044
"23051",307.50565,79.13939,177.4342
"23052",307.519,79.046616,177.31453
"23053",307.53232,78.96361,177.20172
"23054",307.5457,78.88548,177.0912
"23055",307.559,78.81468,176.98557
"23056",307.57236,78.74876,176.8826
"23057",307.58566,78.69016,176.7849
"23058",307.59903,78.63889,176.69269
"23059",307.61234,78.59495,176.6062
"23060",307.6257,78.555885,176.52322
"23061",307.639,78.51438,176.43658
"23062",307.65237,78.470436,176.3462
"23063",307.66568,78.42649,176.25446
"23064",307.67905,78.380104,176.15889
"23065",307.69235,78.3386,176.06676
"23066",307.70572,78.30442,175.98065
"23067",307.71902,78.28001,175.90324
"23068",307.7324,78.260475,175.82996
"23069",307.7457,78.24826,175.76338
"23070",307.75906,78.24338,175.70375
"23071",307.77237,78.238495,175.64397
"23072",307.78574,78.24582,175.59624
"23073",307.79904,78.277565,175.57317
"23074",307.8124,78.365456,175.60722
"23075",307.8257,78.54856,175.73924
"23076",307.83908,78.85863,176.00395
"23077",307.8524,79.30053,176.41019
"23078",307.86575,79.84985,176.93765
"23079",307.87906,80.45045,177.53355
"23080",307.89243,81.02663,178.12381
"23081",307.90573,81.51003,178.6393
"23082",307.9191,81.8616,179.03806
"23083",307.9324,82.07645,179.31108
"23084",307.94577,82.1741,179.47363
"23085",307.95908,82.196075,179.56355
"23086",307.97244,82.16922,179.60533
"23087",307.98575,82.127716,179.63162
"23088",307.9991,82.06912,179.63953
"23089",308.01242,82.003204,179.63828
"23090",308.0258,81.92752,179.6252
"23091",308.0391,81.849396,179.60732
"23092",308.05246,81.761505,179.57722
"23093",308.06577,81.668724,179.53949
"23094",308.07913,81.57351,179.49643
"23095",308.09244,81.46853,179.44063
"23096",308.1058,81.3489,179.3669
"23097",308.1191,81.214615,179.27477
"23098",308.13248,81.07057,179.16869
"23099",308.14578,80.92653,179.0581
"23100",308.15915,80.77516,178.9357
"23101",308.17245,80.621346,178.8061
"23102",308.18582,80.462654,178.66684
"23103",308.19913,80.30152,178.52017
"23104",308.2125,80.14038,178.36845
"23105",308.2258,79.98413,178.21658
"23106",308.23917,79.83276,178.06473
"23107",308.25247,79.691154,177.9179
"23108",308.26584,79.54955,177.76663
"23109",308.27914,79.40063,177.60362
"23110",308.2925,79.24925,177.43352
"23111",308.30582,79.10033,177.26112
"23112",308.31918,78.958725,177.0914
"23113",308.3325,78.83177,176.9319
"23114",308.34586,78.71946,176.78308
"23115",308.35916,78.6218,176.6454
"23116",308.37253,78.53147,176.512
"23117",308.38583,78.45335,176.38797
"23118",308.3992,78.382545,176.26883
"23119",308.4125,78.32395,176.15968
"23120",308.42587,78.277565,176.06091
"23121",308.43918,78.25071,175.98022
"23122",308.45255,78.24338,175.91823
"23123",308.46585,78.24826,175.86821
"23124",308.47922,78.260475,175.82568
"23125",308.49252,78.277565,175.7884
"23126",308.5059,78.28245,175.73946
"23127",308.5192,78.27268,175.67601
"23128",308.53256,78.25071,175.60005
"23129",308.54587,78.22385,175.51852
"23130",308.55923,78.19699,175.43616
"23131",308.57254,78.17258,175.3554
"23132",308.5859,78.153046,175.27875
"23133",308.5992,78.14572,175.2137
"23134",308.61258,78.14816,175.15819
"23135",308.6259,78.170135,175.12228
"23136",308.63925,78.22873,175.12369
"23137",308.65256,78.3679,175.2075
"23138",308.66592,78.61692,175.40552
"23139",308.67923,78.99779,175.74316
"23140",308.6926,79.50805,176.2221
"23141",308.7059,80.111084,176.80977
"23142",308.71927,80.73853,177.44069
"23143",308.73257,81.31716,178.0424
"23144",308.74594,81.80057,178.56697
"23145",308.75925,82.161896,178.98457
"23146",308.7726,82.406044,179.29628
"23147",308.78592,82.564735,179.53017
"23148",308.7993,82.667274,179.71286
"23149",308.8126,82.74784,179.87679
"23150",308.82596,82.82597,180.04079
"23151",308.83926,82.91875,180.22188
"23152",308.85263,83.02617,180.42052
"23153",308.86594,83.1458,180.63472
"23154",308.8793,83.25323,180.84045
"23155",308.8926,83.33379,181.02269
"23156",308.90598,83.36065,181.15373
"23157",308.91928,83.319145,181.21725
"23158",308.93265,83.20683,181.20866
"23159",308.94595,83.03105,181.1331
"23160",308.95932,82.81377,181.01054
"23161",308.97263,82.581825,180.86653
"23162",308.986,82.357216,180.72261
"23163",308.9993,82.14969,180.58875
"23164",309.01266,81.9617,180.46794
"23165",309.02597,81.79324,180.3608
"23166",309.03934,81.6321,180.25569
"23167",309.05264,81.47341,180.14801
"23168",309.066,81.31716,180.03781
"23169",309.0793,81.160904,179.92271
"23170",309.09268,81.007095,179.80519
"23171",309.106,80.85573,179.6853
"23172",309.11935,80.706795,179.56311
"23173",309.13266,80.56519,179.4436
"23174",309.14603,80.428474,179.32455
"23175",309.15933,80.29908,179.20856
"23176",309.1727,80.17212,179.09094
"23177",309.186,80.045166,178.96936
"23178",309.19937,79.90845,178.83405
"23179",309.21268,79.764404,178.68713
"23180",309.22604,79.62035,178.53572
"23181",309.23935,79.48608,178.38957
"23182",309.25272,79.364006,178.25143
"23183",309.26602,79.259026,178.12657
"23184",309.2794,79.166245,178.01064
"23185",309.2927,79.08812,177.90645
"23186",309.30606,79.01732,177.80714
"23187",309.31937,78.9514,177.71051
"23188",309.33273,78.89525,177.62158
"23189",309.34604,78.84886,177.54066
"23190",309.3594,78.81224,177.46806
"23191",309.3727,78.77562,177.39432
"23192",309.38608,78.74143,177.32187
"23193",309.39938,78.70237,177.24347
"23194",309.41275,78.67063,177.17117
"23195",309.42606,78.66819,177.12718
"23196",309.43942,78.73899,177.15636
"23197",309.45273,78.922104,177.30006
"23198",309.4661,79.24193,177.5862
"23199",309.4794,79.68139,178.00197
"23200",309.49277,80.19653,178.50716
"23201",309.50607,80.71656,179.03333
"23202",309.51944,81.17311,179.51227
"23203",309.53275,81.52468,179.9005
"23204",309.5461,81.761505,180.18497
"23205",309.55942,81.89578,180.3743
"23206",309.57278,81.95438,180.49214
"23207",309.5861,81.95926,180.5581
"23208",309.59946,81.93729,180.59737
"23209",309.61276,81.90311,180.62373
"23210",309.62613,81.864044,180.64415
"23211",309.63943,81.82254,180.6609
"23212",309.6528,81.78104,180.67636
"23213",309.6661,81.722435,180.67342
"23214",309.67947,81.64187,180.64668
"23215",309.69278,81.529564,180.5857
"23216",309.70615,81.38552,180.48946
"23217",309.71945,81.2195,180.36673
"23218",309.73282,81.04616,180.2315
"23219",309.74612,80.867935,180.08598
"23220",309.7595,80.70191,179.94708
"23221",309.7728,80.550545,179.81766
"23222",309.78616,80.411385,179.69571
"23223",309.79947,80.28687,179.58406
"23224",309.81284,80.17456,179.48071
"23225",309.82614,80.07446,179.38608
"23226",309.8395,79.97681,179.29074
"23227",309.8528,79.87915,179.19235
"23228",309.86618,79.77661,179.08603
"23229",309.8795,79.66674,178.96918
"23230",309.89285,79.54955,178.84157
"23231",309.90616,79.42748,178.70541
"23232",309.91953,79.30297,178.563
"23233",309.93283,79.183334,178.42159
"23234",309.9462,79.06615,178.27887
"23235",309.9595,78.95628,178.13982
"23236",309.97287,78.85863,178.00954
"23237",309.98618,78.76341,177.87865
"23238",309.99954,78.675514,177.7521
"23239",310.01285,78.59495,177.63014
"23240",310.0262,78.519264,177.51054
"23241",310.03952,78.450905,177.3959
"23242",310.0529,78.39231,177.2889
"23243",310.0662,78.34104,177.18738
"23244",310.07956,78.30198,177.09647
"23245",310.09286,78.26536,177.00677
"23246",310.10623,78.23605,176.92326
"23247",310.11954,78.2092,176.84128
"23248",310.1329,78.184784,176.7609
"23249",310.1462,78.16037,176.67975
"23250",310.15958,78.14328,176.60516
"23251",310.17288,78.13107,176.53493
"23252",310.18625,78.118866,176.46431
"23253",310.19955,78.11154,176.3982
"23254",310.21292,78.1091,176.33673
"23255",310.22623,78.12375,176.29228
"23256",310.2396,78.184784,176.29468
"23257",310.2529,78.3386,176.39177
"23258",310.26627,78.6218,176.62305
