"","Time..s.","PPG.trace","Preprocessed.PPG"
"39037",533.73474,82.933395,261.7474
"39038",533.74805,82.71122,261.6169
"39039",533.76135,82.41581,261.40622
"39040",533.77466,82.07156,261.13748
"39041",533.78796,81.71023,260.84088
"39042",533.8013,81.36111,260.5452
"39043",533.8146,81.05104,260.27768
"39044",533.8279,80.797134,260.0566
"39045",533.8412,80.59449,259.87888
"39046",533.8545,80.42359,259.72656
"39047",533.8678,80.26978,259.586
"39048",533.8811,80.11841,259.44305
"39049",533.8944,79.96704,259.29538
"39050",533.9077,79.80591,259.1332
"39051",533.921,79.63744,258.95868
"39052",533.9343,79.45922,258.76913
"39053",533.94763,79.27856,258.57156
"39054",533.96094,79.10033,258.3708
"39055",533.97424,78.93431,258.17667
"39056",533.98755,78.7805,257.98956
"39057",534.00085,78.63645,257.8074
"39058",534.01416,78.5095,257.63785
"39059",534.02747,78.39231,257.4741
"39060",534.0408,78.28245,257.314
"39061",534.0541,78.18234,257.16022
"39062",534.0674,78.09445,257.01553
"39063",534.0807,78.01633,256.87787
"39064",534.094,77.95041,256.74997
"39065",534.1073,77.8967,256.6322
"39066",534.1206,77.84543,256.5152
"39067",534.1339,77.806366,256.4088
"39068",534.1472,77.7673,256.3012
"39069",534.1605,77.730675,256.1948
"39070",534.1738,77.68673,256.07993
"39071",534.18713,77.6379,255.9588
"39072",534.20044,77.58907,255.83615
"39073",534.21375,77.540245,255.71198
"39074",534.22705,77.50118,255.59604
"39075",534.24036,77.47433,255.49109
"39076",534.25366,77.45968,255.3975
"39077",534.26697,77.45724,255.31567
"39078",534.2803,77.45724,255.2362
"39079",534.2936,77.45968,255.15918
"39080",534.3069,77.46456,255.08467
"39081",534.3202,77.51095,255.05182
"39082",534.3335,77.66964,255.13272
"39083",534.3468,78.0383,255.42856
"39084",534.3601,78.68528,256.01422
"39085",534.3734,79.5935,256.88135
"39086",534.3867,80.67506,257.9502
"39087",534.4,81.76639,259.06262
"39088",534.4133,82.701454,260.0529
"39089",534.42664,83.370415,260.80627
"39090",534.43994,83.74883,261.29
"39091",534.45325,83.90021,261.55853
"39092",534.46655,83.90997,261.6902
"39093",534.47986,83.85382,261.75623
"39094",534.49316,83.78302,261.80585
"39095",534.5065,83.719536,261.8606
"39096",534.5198,83.65118,261.90848
"39097",534.5331,83.57305,261.94446
"39098",534.5464,83.46319,261.94626
"39099",534.5597,83.3045,261.89578
"39100",534.573,83.07988,261.77444
"39101",534.5863,82.791794,261.5826
"39102",534.5996,82.44511,261.32318
"39103",534.6129,82.06668,261.02118
"39104",534.6262,81.688255,260.70734
"39105",534.6395,81.34402,260.41586
"39106",534.65283,81.04616,260.16
"39107",534.66614,80.79469,259.94122
"39108",534.67944,80.587166,259.75854
"39109",534.69275,80.40406,259.59378
"39110",534.70605,80.23804,259.4404
"39111",534.71936,80.076904,259.2867
"39112",534.73267,79.91577,259.128
"39113",534.746,79.74731,258.9569
"39114",534.7593,79.57397,258.77567
"39115",534.7726,79.3933,258.5817
"39116",534.7859,79.217514,258.38693
"39117",534.7992,79.046616,258.1916
"39118",534.8125,78.88548,258.00067
"39119",534.8258,78.73411,257.81445
"39120",534.8391,78.59495,257.63574
"39121",534.8524,78.470436,257.46732
"39122",534.8657,78.35813,257.30722
"39123",534.879,78.25559,257.15338
"39124",534.89233,78.16281,257.00607
"39125",534.90564,78.082245,256.8681
"39126",534.91895,78.00412,256.73004
"39127",534.93225,77.9382,256.60175
"39128",534.94556,77.87961,256.47873
"39129",534.95886,77.82834,256.3612
"39130",534.97217,77.77951,256.2445
"39131",534.9855,77.738,256.1336
"39132",534.9988,77.696495,256.02142
"39133",535.0121,77.65255,255.90549
"39134",535.0254,77.61349,255.79306
"39135",535.0387,77.58175,255.68674
"39136",535.052,77.55245,255.58186
"39137",535.0653,77.52804,255.48096
"39138",535.0786,77.51827,255.39394
"39139",535.0919,77.51583,255.31393
"39140",535.1052,77.51583,255.2363
"39141",535.1185,77.51339,255.15622
"39142",535.13184,77.50851,255.07362
"39143",535.14514,77.51095,254.9982
"39144",535.15845,77.576866,254.98633
"39145",535.17175,77.79904,255.13278
"39146",535.18506,78.27268,255.53764
"39147",535.19836,79.03441,256.2454
"39148",535.2117,80.03052,257.21133
"39149",535.225,81.13161,258.3134
"39150",535.2383,82.159454,259.3766
"39151",535.2516,82.96513,260.24976
"39152",535.2649,83.47051,260.8478
"39153",535.2782,83.702446,261.1882
"39154",535.2915,83.74395,261.3454
"39155",535.3048,83.682915,261.40137
"39156",535.3181,83.58526,261.4188
"39157",535.3314,83.492485,261.43805
"39158",535.3447,83.41436,261.46906
"39159",535.35803,83.33868,261.50006
"39160",535.37134,83.243454,261.5092
"39161",535.38464,83.104294,261.47137
"39162",535.39795,82.9041,261.3682
"39163",535.41125,82.62821,261.18307
"39164",535.42456,82.29374,260.93073
"39165",535.43787,81.917755,260.62643
"39166",535.4512,81.54177,260.3104
"39167",535.4645,81.1902,260.00702
"39168",535.4778,80.885025,259.73904
"39169",535.4911,80.63111,259.5128
"39170",535.5044,80.41627,259.31766
"39171",535.5177,80.233154,259.14755
"39172",535.531,80.059814,258.9815
"39173",535.5443,79.888916,258.81247
"39174",535.5576,79.71801,258.6381
"39175",535.5709,79.53979,258.45105
"39176",535.5842,79.35912,258.256
"39177",535.59753,79.18089,258.05774
"39178",535.61084,79.00511,257.85635
"39179",535.62415,78.836655,257.6568
"39180",535.63745,78.677956,257.46173
"39181",535.65076,78.53391,257.27637
"39182",535.66406,78.40452,257.10117
"39183",535.67737,78.29221,256.939
"39184",535.6907,78.18967,256.78308
"39185",535.704,78.099335,256.63617
"39186",535.7173,78.013885,256.49133
"39187",535.7306,77.9382,256.35358
"39188",535.7439,77.872284,256.22324
"39189",535.7572,77.81125,256.0957
"39190",535.7705,77.7551,255.97115
"39191",535.7838,77.70382,255.84972
"39192",535.7971,77.65499,255.72913
"39193",535.8104,77.608604,255.60945
"39194",535.8237,77.57198,255.4981
"39195",535.83704,77.54269,255.39291
"39196",535.85034,77.523155,255.29659
"39197",535.86365,77.51095,255.20697
"39198",535.87695,77.506065,255.1243
"39199",535.89026,77.503624,255.04391
"39200",535.90356,77.50118,254.96346
"39201",535.9169,77.4963,254.88048
"39202",535.9302,77.488976,254.7949
"39203",535.9435,77.47677,254.70422
"39204",535.9568,77.45724,254.60583
"39205",535.9701,77.452354,254.52148
"39206",535.9834,77.49874,254.48825
"39207",535.9967,77.68673,254.59807
"39208",536.01,78.11154,254.95059
"39209",536.0233,78.81712,255.59715
"39210",536.0366,79.76929,256.51236
"39211",536.0499,80.850845,257.5867
"39212",536.06323,81.8909,258.65335
"39213",536.07654,82.73319,259.55475
"39214",536.08984,83.28741,260.19437
"39215",536.10315,83.560844,260.57053
"39216",536.11646,83.62676,260.7477
"39217",536.12976,83.580376,260.81467
"39218",536.14307,83.4876,260.83377
"39219",536.1564,83.39483,260.84998
"39220",536.1697,83.302055,260.86328
"39221",536.183,83.20683,260.87125
"39222",536.1963,83.09453,260.85916
"39223",536.2096,82.94316,260.8045
"39224",536.2229,82.738075,260.6914
"39225",536.2362,82.46952,260.50842
"39226",536.2495,82.159454,260.27554
"39227",536.2628,81.8201,260.00366
"39228",536.2761,81.48562,259.72607
"39229",536.2894,81.18532,259.4722
"39230",536.30273,80.936295,259.26022
"39231",536.31604,80.73609,259.0893
"39232",536.32935,80.57252,258.94873
"39233",536.34265,80.43336,258.82745
"39234",536.35596,80.29908,258.70673
"39235",536.36926,80.16235,258.57935
"39236",536.38257,80.01587,258.43793
"39237",536.3959,79.85718,258.27972
"39238",536.4092,79.693596,258.1117
"39239",536.4225,79.52758,257.9361
"39240",536.4358,79.36889,257.76263
"39241",536.4491,79.219955,257.59396
"39242",536.4624,79.08324,257.43286
"39243",536.4757,78.96117,257.28214
"39244",536.489,78.84642,257.13492
"39245",536.5023,78.74143,256.99387
"39246",536.5156,78.64622,256.8593
"39247",536.52893,78.55833,256.72913
"39248",536.54224,78.4802,256.60596
"39249",536.55554,78.41184,256.4901
"39250",536.56885,78.35813,256.38678
"39251",536.58215,78.311745,256.2891
"39252",536.59546,78.27512,256.1997
"39253",536.60876,78.24826,256.11893
"39254",536.6221,78.22873,256.04465
"39255",536.6354,78.2092,255.96976
"39256",536.6487,78.19211,255.8967
"39257",536.662,78.1799,255.82799
"39258",536.6753,78.17502,255.76622
"39259",536.6886,78.167694,255.70186
"39260",536.7019,78.16281,255.63971
"39261",536.7152,78.150604,255.57008
"39262",536.7285,78.133514,255.4952
"39263",536.7418,78.11398,255.41733
"39264",536.7551,78.1384,255.3828
"39265",536.76843,78.28245,255.46867
"39266",536.78174,78.63401,255.76656
"39267",536.79504,79.23949,256.32935
"39268",536.80835,80.08423,257.15033
"39269",536.82166,81.06569,258.13443
"39270",536.83496,82.0325,259.13455
"39271",536.84827,82.84062,260.0062
"39272",536.8616,83.39971,260.65405
"39273",536.8749,83.700005,261.06058
"39274",536.8882,83.80255,261.27875
"39275",536.9015,83.78302,261.37805
"39276",536.9148,83.70977,261.42303
"39277",536.9281,83.62188,261.45108
"39278",536.9414,83.54131,261.4837
"39279",536.9547,83.46319,261.51624
"39280",536.968,83.36797,261.52924
"39281",536.9813,83.24101,261.50754
"39282",536.9946,83.05791,261.42572
"39283",537.00793,82.80888,261.27225
"39284",537.02124,82.5037,261.05484
"39285",537.03455,82.1741,260.8035
"39286",537.04785,81.846954,260.54428
"39287",537.06116,81.55154,260.30658
"39288",537.07446,81.304955,260.1085
"39289",537.08777,81.10719,259.9515
"39290",537.1011,80.938736,259.81766
"39291",537.1144,80.79469,259.70294
"39292",537.1277,80.65797,259.59106
"39293",537.141,80.516365,259.47003
"39294",537.1543,80.36256,259.33237
"39295",537.1676,80.19653,259.17767
"39296",537.1809,80.02319,259.01047
"39297",537.1942,79.84497,258.83298
"39298",537.2075,79.66918,258.65234
"39299",537.2208,79.50317,258.47598
"39300",537.23413,79.34936,258.30664
"39301",537.24744,79.21019,258.14713
"39302",537.26074,79.08324,257.99548
"39303",537.27405,78.96605,257.84964
"39304",537.28735,78.86107,257.71234
"39305",537.30066,78.75853,257.57422
"39306",537.31396,78.66575,257.44263
"39307",537.3273,78.58274,257.31793
"39308",537.3406,78.5095,257.2004
"39309",537.3539,78.44602,257.09036
"39310",537.3672,78.38987,256.98566
"39311",537.3805,78.33616,256.88162
"39312",537.3938,78.28489,256.77835
"39313",537.4071,78.24094,256.6808
"39314",537.4204,78.204315,256.5892
"39315",537.4337,78.17258,256.50134
"39316",537.447,78.14572,256.4174
"39317",537.4603,78.118866,256.33258
"39318",537.47363,78.09201,256.24695
"39319",537.48694,78.06027,256.15558
"39320",537.50024,78.030975,256.06567
"39321",537.51355,78.013885,255.98705
"39322",537.52686,78.065155,255.97624
"39323",537.54016,78.25559,256.1062
"39324",537.55347,78.675514,256.47162
"39325",537.5668,79.34936,257.10406
"39326",537.5801,80.235596,257.96997
"39327",537.5934,81.2195,258.96124
"39328",537.6067,82.15213,259.93198
"39329",537.62,82.90166,260.74875
"39330",537.6333,83.40215,261.33994
"39331",537.6466,83.67071,261.7148
"39332",537.6599,83.77814,261.93695
"39333",537.6732,83.79767,262.07455
"39334",537.6865,83.78302,262.1786
"39335",537.6998,83.76593,262.27972
"39336",537.71313,83.74883,262.3803
"39337",537.72644,83.72198,262.4706
"39338",537.73975,83.67071,262.53564
"39339",537.75305,83.580376,262.56003
"39340",537.76636,83.43145,262.52298
"39341",537.77966,83.211716,262.4105
"39342",537.79297,82.91875,262.2179
"39343",537.8063,82.56718,261.95755
"39344",537.8196,82.18631,261.65692
"39345",537.8329,81.81033,261.34927
"39346",537.8462,81.47585,261.07138
"39347",537.8595,81.19508,260.83673
"39348",537.8728,80.96803,260.64703
"39349",537.8861,80.77028,260.47952
"39350",537.8994,80.59449,260.32782
"39351",537.9127,80.42603,260.17795
"39352",537.926,80.257576,260.0228
"39353",537.93933,80.08667,259.85995
"39354",537.95264,79.90845,259.68445
"39355",537.96594,79.725334,259.49847
"39356",537.97925,79.54223,259.3068
"39357",537.99255,79.35668,259.10693
"39358",538.00586,79.18089,258.91104
"39359",538.01917,79.01488,258.71942
"39360",538.0325,78.86351,258.53726
"39361",538.0458,78.7219,258.36014
"39362",538.0591,78.59251,258.1908
"39363",538.0724,78.470436,258.02475
"39364",538.0857,78.35569,257.8622
"39365",538.099,78.25559,257.71072
"39366",538.1123,78.170135,257.57074
"39367",538.1256,78.09689,257.4403
"39368",538.1389,78.03342,257.31735
"39369",538.1522,77.98215,257.20462
"39370",538.1655,77.93088,257.0903
"39371",538.17883,77.88449,256.97925
"39372",538.19214,77.83322,256.86188
"39373",538.20544,77.786835,256.74777
"39374",538.21875,77.74288,256.63464
"39375",538.23206,77.70382,256.52505
"39376",538.24536,77.67208,256.42157
"39377",538.25867,77.65255,256.32928
"39378",538.272,77.64034,256.2437
"39379",538.2853,77.63302,256.16266
"39380",538.2986,77.625694,256.08136
"39381",538.3119,77.608604,255.99007
"39382",538.3252,77.58907,255.8958
"39383",538.3385,77.58419,255.81557
"39384",538.3518,77.659874,255.81575
"39385",538.3651,77.90402,255.98677
"39386",538.3784,78.39231,256.40955
"39387",538.3917,79.14183,257.10883
"39388",538.405,80.09155,258.03174
"39389",538.41833,81.10719,259.05023
"39390",538.43164,82.02762,260.00525
"39391",538.44495,82.73319,260.7742
"39392",538.45825,83.17998,261.3064
"39393",538.47156,83.40215,261.62796
"39394",538.48486,83.475395,261.80753
"39395",538.49817,83.48272,261.92346
"39396",538.5115,83.46807,262.01764
"39397",538.5248,83.458305,262.11624
"39398",538.5381,83.44854,262.21454
"39399",538.5514,83.43145,262.3052
"39400",538.5647,83.38506,262.36606
"39401",538.578,83.29229,262.37906
"39402",538.5913,83.13359,262.32324
"39403",538.6046,82.899216,262.1868
"39404",538.6179,82.598915,261.9771
"39405",538.6312,82.24979,261.7092
"39406",538.64453,81.88602,261.41574
"39407",538.65784,81.53689,261.12555
"39408",538.67114,81.23903,260.87573
"39409",538.68445,80.99245,260.66788
"39410",538.69775,80.79225,260.4987
"39411",538.71106,80.62379,260.35498
"39412",538.72437,80.462654,260.21335
"39413",538.7377,80.29664,260.0618
"39414",538.751,80.12085,259.8953
"39415",538.7643,79.937744,259.71597
"39416",538.7776,79.74975,259.52603
"39417",538.7909,79.55688,259.32535
"39418",538.8042,79.36645,259.12106
"39419",538.8175,79.185776,258.9206
"39420",538.8308,79.01488,258.72424
"39421",538.8441,78.85863,258.5372
"39422",538.8574,78.71946,258.36237
"39423",538.8707,78.59495,258.19785
"39424",538.88403,78.47776,258.03674
"39425",538.89734,78.363014,257.87442
"39426",538.91064,78.260475,257.72073
"39427",538.92395,78.16525,257.57114
"39428",538.93726,78.0798,257.42834
"39429",538.95056,77.99924,257.28778
"39430",538.96387,77.93088,257.1569
"39431",538.9772,77.86496,257.0263
"39432",538.9905,77.81125,256.90588
"39433",539.0038,77.75998,256.78622
"39434",539.0171,77.71114,256.6674
"39435",539.0304,77.6672,256.5519
"39436",539.0437,77.625694,256.4375
"39437",539.057,77.58419,256.3218
"39438",539.0703,77.54757,256.2097
"39439",539.0836,77.51583,256.10132
"39440",539.0969,77.49386,256.0017
"39441",539.1102,77.47433,255.90385
"39442",539.12354,77.454796,255.80539
"39443",539.13684,77.44015,255.7112
"39444",539.15015,77.42306,255.6141
"39445",539.16345,77.401085,255.5116
"39446",539.17676,77.383995,255.41328
"39447",539.19006,77.3962,255.34373
"39448",539.20337,77.503624,255.36978
"39449",539.2167,77.803925,255.59207
"39450",539.23,78.365456,256.08496
"39451",539.2433,79.183334,256.85175
"39452",539.2566,80.17456,257.81744
"39453",539.2699,81.19264,258.84097
"39454",539.2832,82.07645,259.76205
"39455",539.2965,82.70878,260.4593
"39456",539.3098,83.070114,260.90527
"39457",539.3231,83.211716,261.14282
"39458",539.3364,83.22392,261.2554
"39459",539.34973,83.175095,261.3073
"39460",539.36304,83.11162,261.34305
"39461",539.37634,83.05791,261.38657
"39462",539.38965,83.01396,261.43817
"39463",539.40295,82.96025,261.47864
"39464",539.41626,82.8748,261.4857
"39465",539.42957,82.738075,261.4388
"39466",539.4429,82.533,261.3193
"39467",539.4562,82.25468,261.12015
"39468",539.4695,81.92264,260.85858
"39469",539.4828,81.56374,260.55978
"39470",539.4961,81.214615,260.25952
"39471",539.5094,80.90944,259.9923
"39472",539.5227,80.65797,259.76926
"39473",539.536,80.45533,259.5872
"39474",539.5493,80.2942,259.44028
"39475",539.5626,80.15015,259.30542
"39476",539.5759,80.008545,259.16852
"39477",539.58923,79.85474,259.01498
"39478",539.60254,79.68383,258.83954
"39479",539.61584,79.50317,258.649
"39480",539.62915,79.31518,258.44547
"39481",539.64246,79.12718,258.23605
"39482",539.65576,78.94896,258.03055
"39483",539.66907,78.785385,257.83414
"39484",539.6824,78.63645,257.64725
"39485",539.6957,78.49973,257.46793
"39486",539.709,78.37766,257.29898
"39487",539.7223,78.260475,257.1311
"39488",539.7356,78.15793,256.97418
"39489",539.7489,78.06271,256.8214
"39490",539.7622,77.979706,256.67786
"39491",539.7755,77.90402,256.53903
"39492",539.7888,77.838104,256.40762
"39493",539.8021,77.77707,256.27902
"39494",539.8154,77.72823,256.1607
"39495",539.82874,77.68185,256.04333
"39496",539.84204,77.642784,255.93182
"39497",539.85535,77.60616,255.82153
"39498",539.86865,77.57198,255.71254
"39499",539.88196,77.54513,255.6098
"39500",539.89526,77.52071,255.50867
"39501",539.90857,77.506065,255.41653
"39502",539.9219,77.4963,255.32883
"39503",539.9352,77.49386,255.24814
"39504",539.9485,77.49874,255.1747
"39505",539.9618,77.51095,255.10873
"39506",539.9751,77.5256,255.0456
"39507",539.9884,77.540245,254.98291
"39508",540.0017,77.55489,254.92068
"39509",540.015,77.55978,254.84915
"39510",540.0283,77.557335,254.77045
"39511",540.0416,77.57931,254.71608
"39512",540.05493,77.68673,254.74785
"39513",540.06824,77.977264,254.9661
"39514",540.08154,78.52659,255.45221
"39515",540.09485,79.344475,256.22406
"39516",540.10815,80.35035,257.20944
"39517",540.12146,81.40261,258.27264
"39518",540.13477,82.32548,259.23935
"39519",540.1481,82.99443,259.981
"39520",540.1614,83.370415,260.45056
"39521",540.1747,83.50225,260.6877
"39522",540.188,83.47295,260.76785
"39523",540.2013,83.36797,260.7714
"39524",540.2146,83.250786,260.75946
"39525",540.2279,83.15068,260.76096
"39526",540.2412,83.05791,260.76663
"39527",540.2545,82.96025,260.76453
"39528",540.2678,82.8333,260.73007
"39529",540.2811,82.65507,260.64038
"39530",540.29443,82.41337,260.48166
"39531",540.30774,82.11795,260.26166
"39532",540.32104,81.795685,260.00558
"39533",540.33435,81.478294,259.74432
"39534",540.34766,81.19508,259.50732
"39535",540.36096,80.96315,259.31274
"39536",540.37427,80.780045,259.15973
"39537",540.3876,80.638435,259.0425
"39538",540.4009,80.516365,258.9404
"39539",540.4142,80.396736,258.8369
"39540",540.4275,80.26978,258.72235
"39541",540.4408,80.130615,258.5916
"39542",540.4541,79.98169,258.44678
"39543",540.4674,79.82544,258.28995
"39544",540.4807,79.6643,258.12335
"39545",540.494,79.50561,257.95416
"39546",540.5073,79.35424,257.78735
"39547",540.5206,79.21263,257.62555
"39548",540.53394,79.08568,257.474
"39549",540.54724,78.975815,257.33557
"39550",540.56055,78.87816,257.2059
"39551",540.57385,78.79027,257.08295
"39552",540.58716,78.709694,256.96457
"39553",540.60046,78.63157,256.84613
"39554",540.6138,78.56321,256.73502
"39555",540.6271,78.49729,256.6242
"39556",540.6404,78.44114,256.5211
"39557",540.6537,78.39231,256.42355
"39558",540.667,78.35569,256.3367
"39559",540.6803,78.32395,256.25357
"39560",540.6936,78.294655,256.1719
"39561",540.7069,78.26292,256.08688
"39562",540.7202,78.22873,255.99841
"39563",540.7335,78.19211,255.90643
"39564",540.7468,78.153046,255.81087
"39565",540.76013,78.12375,255.72385
"39566",540.77344,78.11154,255.653
"39567",540.78674,78.10666,255.5891
"39568",540.80005,78.10666,255.52992
"39569",540.81335,78.10422,255.4683
"39570",540.82666,78.101776,255.40662
"39571",540.83997,78.09445,255.33997
"39572",540.8533,78.12863,255.31459
"39573",540.8666,78.28001,255.40749
"39574",540.8799,78.643776,255.7175
"39575",540.8932,79.273674,256.30502
"39576",540.9065,80.15259,257.16122
"39577",540.9198,81.1902,258.2036
"39578",540.9331,82.22781,259.2784
"39579",540.9464,83.09697,260.2172
"39580",540.9597,83.702446,260.91946
"39581",540.973,84.02716,261.3599
"39582",540.9863,84.13214,261.59073
"39583",540.99963,84.102844,261.69055
"39584",541.01294,84.01984,261.73575
"39585",541.02625,83.93439,261.7759
"39586",541.03955,83.85626,261.82074
"39587",541.05286,83.790344,261.87534
"39588",541.06616,83.717094,261.92053
"39589",541.07947,83.60967,261.92926
"39590",541.0928,83.4461,261.87848
"39591",541.1061,83.21416,261.75424
"39592",541.1194,82.913864,261.55438
"39593",541.1327,82.55985,261.29144
"39594",541.146,82.18387,260.99545
"39595",541.1593,81.82254,260.70236
"39596",541.1726,81.49294,260.42972
"39597",541.1859,81.21217,260.19562
"39598",541.1992,80.97536,259.99667
"39599",541.2125,80.77272,259.82452
"39600",541.2258,80.59449,259.67044
"39601",541.23914,80.43336,259.5279
"39602",541.25244,80.26978,259.37787
"39603",541.26575,80.10376,259.22028
"39604",541.27905,79.92554,259.0453
"39605",541.29236,79.73998,258.85742
"39606",541.30566,79.551994,258.66132
"39607",541.319,79.36889,258.4642
"39608",541.3323,79.19798,258.27356
"39609",541.3456,79.044174,258.0947
"39610",541.3589,78.90257,257.92322
"39611",541.3722,78.77318,257.75952
"39612",541.3855,78.65354,257.60153
"39613",541.3988,78.54368,257.4496
"39614",541.4121,78.44114,257.30154
"39615",541.4254,78.35081,257.1625
"39616",541.4387,78.27268,257.03284
"39617",541.452,78.20187,256.90805
"39618",541.46533,78.14084,256.79083
"39619",541.47864,78.082245,256.67413
"39620",541.49194,78.03342,256.56537
"39621",541.50525,77.98703,256.45752
"39622",541.51855,77.95041,256.358
"39623",541.53186,77.92111,256.26465
"39624",541.54517,77.90158,256.18015
"39625",541.5585,77.88449,256.09747
"39626",541.5718,77.872284,256.01917
"39627",541.5851,77.86008,255.94046
"39628",541.5984,77.84787,255.86137
"39629",541.6117,77.840546,255.78679
"39630",541.625,77.838104,255.71686
"39631",541.6383,77.83322,255.64441
"39632",541.6516,77.82834,255.57181
"39633",541.6649,77.823456,255.49905
"39634",541.6782,77.83078,255.43835
"39635",541.6915,77.8967,255.43648
"39636",541.70483,78.118866,255.59291
"39637",541.71814,78.58762,256.00287
"39638",541.73145,79.33715,256.70825
"39639",541.74475,80.32105,257.67145
"39640",541.75806,81.40749,258.7679
"39641",541.77136,82.41825,259.82266
"39642",541.78467,83.20439,260.6844
"39643",541.798,83.69512,261.27527
"39644",541.8113,83.91974,261.61536
"39645",541.8246,83.95392,261.77203
"39646",541.8379,83.90021,261.8419
"39647",541.8512,83.809875,261.87344
"39648",541.8645,83.72198,261.9046
"39649",541.8778,83.63897,261.9379
"39650",541.8911,83.5584,261.97104
"39651",541.9044,83.458305,261.98215
"39652",541.9177,83.33135,261.96326
"39653",541.931,83.14824,261.88425
"39654",541.94434,82.9041,261.7385
"39655",541.95764,82.59647,261.52164
"39656",541.97095,82.24002,261.24634
"39657",541.98425,81.85916,260.9355
"39658",541.99756,81.495384,260.62982
"39659",542.01086,81.17555,260.35672
"39660",542.0242,80.90944,260.12735
"39661",542.0375,80.69215,259.93848
"39662",542.0508,80.51148,259.77945
"39663",542.0641,80.35035,259.6343
"39664",542.0774,80.18921,259.48413
"39665",542.0907,80.025635,259.32648
"39666",542.104,79.85718,259.1588
"39667",542.1173,79.68627,258.98346
"39668",542.1306,79.520256,258.80765
"39669",542.1439,79.361565,258.63397
"39670",542.1572,79.20531,258.45776
"39671",542.17053,79.05638,258.284
"39672",542.18384,78.91234,258.11047
"39673",542.19714,78.77806,257.9422
"39674",542.21045,78.65354,257.77948
"39675",542.22375,78.54368,257.62753
"39676",542.23706,78.44846,257.48682
"39677",542.25037,78.363014,257.35287
"39678",542.2637,78.28977,257.2285
"39679",542.277,78.22873,257.11398
"39680",542.2903,78.17258,257.00247
"39681",542.3036,78.118866,256.89166
"39682",542.3169,78.0676,256.78162
"39683",542.3302,78.01877,256.6724
"39684",542.3435,77.97238,256.5641
"39685",542.3568,77.93088,256.45923
"39686",542.3701,77.891815,256.3555
"39687",542.3834,77.85275,256.25055
"39688",542.3967,77.81369,256.14438
"39689",542.41003,77.77463,256.037
"39690",542.42334,77.74288,255.9357
"39691",542.43665,77.72091,255.84319
"39692",542.44995,77.713585,255.76463
"39693",542.46326,77.71603,255.69562
"39694",542.47656,77.72335,255.63156
"39695",542.48987,77.733116,255.57018
"39696",542.5032,77.738,255.50421
"39697",542.5165,77.73556,255.43108
"39698",542.5298,77.74044,255.36519
"39699",542.5431,77.80148,255.35562
"39700",542.5564,78.00168,255.4871
"39701",542.5697,78.4387,255.86168
"39702",542.583,79.151596,256.5258
"39703",542.5963,80.093994,257.44168
"39704",542.6096,81.146255,258.4969
"39705",542.6229,82.1326,259.51904
"39706",542.6362,82.90166,260.35474
"39707",542.64954,83.37774,260.9215
"39708",542.66284,83.5877,261.23703
"39709",542.67615,83.614555,261.376
"39710",542.68945,83.546196,261.4206
"39711",542.70276,83.44854,261.43375
"39712",542.71606,83.353325,261.4463
"39713",542.7294,83.267876,261.46564
"39714",542.7427,83.17998,261.47986
"39715",542.756,83.07744,261.47668
"39716",542.7693,82.94316,261.43857
"39717",542.7826,82.757614,261.345
"39718",542.7959,82.511024,261.1846
"39719",542.8092,82.20584,260.9579
"39720",542.8225,81.85672,260.6777
"39721",542.8358,81.50027,260.37927
"39722",542.8491,81.160904,260.0868
"39723",542.8624,80.867935,259.8301
"39724",542.87573,80.62379,259.6131
"39725",542.88904,80.42603,259.43484
"39726",542.90234,80.26002,259.28214
"39727",542.91565,80.10376,259.134
"39728",542.92896,79.94751,258.981
"39729",542.94226,79.78638,258.8182
"39730",542.95557,79.62524,258.6504
"39731",542.9689,79.4641,258.47754
"39732",542.9822,79.30541,258.3021
"39733",542.9955,79.149155,258.1241
"39734",543.0088,78.99779,257.94617
"39735",543.0221,78.8513,257.76837
"39736",543.0354,78.71458,257.59573
"39737",543.0487,78.58762,257.42862
"39738",543.062,78.48264,257.2795
"39739",543.0753,78.397194,257.14664
"39740",543.0886,78.32151,257.02087
"39741",543.1019,78.25803,256.90494
"39742",543.11523,78.19943,256.7919
"39743",543.12854,78.14084,256.67703
"39744",543.14185,78.08469,256.56277
"39745",543.15515,78.028534,256.44678
"39746",543.16846,77.97482,256.33145
"39747",543.18176,77.91867,256.212
"39748",543.19507,77.8674,256.0957
"39749",543.2084,77.81613,255.97778
"39750",543.2217,77.77219,255.86559
"39751",543.235,77.738,255.76178
"39752",543.2483,77.71114,255.66423
"39753",543.2616,77.69405,255.5756
"39754",543.2749,77.68429,255.49377
"39755",543.2882,77.67208,255.4092
"39756",543.3015,77.66476,255.32912
"39757",543.3148,77.659874,255.25125
"39758",543.3281,77.659874,255.17812
"39759",543.34143,77.662315,255.10742
"39760",543.35474,77.66476,255.0368
"39761",543.36804,77.66476,254.96382
"39762",543.38135,77.659874,254.88596
"39763",543.39465,77.6672,254.82014
"39764",543.40796,77.74532,254.82536
"39765",543.42126,77.994354,255.00394
"39766",543.4346,78.49485,255.44176
"39767",543.4479,79.273674,256.17355
"39768",543.4612,80.26978,257.14697
"39769",543.4745,81.34646,258.2321
"39770",543.4878,82.32792,259.2556
"39771",543.5011,83.06523,260.06567
"39772",543.5144,83.49981,260.59604
"39773",543.5277,83.66338,260.869
"39774",543.541,83.64385,260.96393
"39775",543.5543,83.53155,260.96548
"39776",543.5676,83.39483,260.93912
"39777",543.58093,83.267876,260.91824
"39778",543.59424,83.158005,260.9105
"39779",543.60754,83.055466,260.90665
"39780",543.62085,82.94072,260.8874
"39781",543.63416,82.78935,260.8279
"39782",543.64746,82.579384,260.7051
"39783",543.66077,82.31083,260.51715
"39784",543.6741,81.99588,260.2744
"39785",543.6874,81.66384,260.00476
"39786",543.7007,81.3489,259.74182
"39787",543.714,81.075455,259.51053
"39788",543.7273,80.85817,259.32684
"39789",543.7406,80.68482,259.18033
"39790",543.7539,80.54322,259.06012
"39791",543.7672,80.41627,258.95013
"39792",543.7805,80.291756,258.83862
"39793",543.7938,80.15503,258.71103
"39794",543.8071,80.008545,258.5694
"39795",543.82043,79.85718,258.4183
"39796",543.83374,79.70336,258.26
"39797",543.84705,79.54955,258.09692
"39798",543.86035,79.40551,257.9388
"39799",543.87366,79.27123,257.78595
"39800",543.88696,79.14671,257.63864
"39801",543.90027,79.03441,257.49966
"39802",543.9136,78.93187,257.36694
"39803",543.9269,78.84642,257.2481
"39804",543.9402,78.77074,257.13638
"39805",543.9535,78.70237,257.0296
"39806",543.9668,78.64622,256.9329
"39807",543.9801,78.59983,256.8442
"39808",543.9934,78.56077,256.76138
"39809",544.0067,78.53391,256.68954
"39810",544.02,78.50706,256.61688
"39811",544.0333,78.485085,256.54825
"39812",544.04663,78.45579,256.47162
"39813",544.05994,78.42649,256.39407
"39814",544.07324,78.399635,256.31805
"39815",544.08655,78.37766,256.24606
"39816",544.09985,78.36057,256.17828
"39817",544.11316,78.34104,256.1075
"39818",544.12646,78.32151,256.03613
"39819",544.1398,78.30198,255.96414
"39820",544.1531,78.277565,255.88666
"39821",544.1664,78.25315,255.80841
"39822",544.1797,78.23117,255.73184
"39823",544.193,78.21652,255.66191
"39824",544.2063,78.22385,255.6135
"39825",544.2196,78.31907,255.65321
"39826",544.2329,78.59251,255.87411
"39827",544.2462,79.1223,256.35992
"39828",544.2595,79.920654,257.13086
"39829",544.2728,80.91676,258.12448
"39830",544.28613,81.96658,259.20294
"39831",544.29944,82.899216,260.19702
"39832",544.31274,83.58282,260.97122
"39833",544.32605,83.97833,261.4787
"39834",544.33936,84.12726,261.75195
"39835",544.35266,84.11749,261.87115
"39836",544.36597,84.03937,261.9217
"39837",544.3793,83.94171,261.95026
"39838",544.3926,83.8465,261.9782
"39839",544.4059,83.76105,262.01297
"39840",544.4192,83.67315,262.0426
"39841",544.4325,83.56817,262.0524
"39842",544.4458,83.42657,262.0223
"39843",544.4591,83.228806,261.93164
"39844",544.4724,82.97002,261.77374
"39845",544.4857,82.650185,261.54672
"39846",544.499,82.28886,261.26822
"39847",544.5123,81.917755,260.96866
"39848",544.52563,81.57351,260.68436
"39849",544.53894,81.28054,260.44055
"39850",544.55225,81.04616,260.2462
"39851",544.56555,80.85329,260.086
"39852",544.57886,80.69215,259.95154
"39853",544.59216,80.54078,259.8218
"39854",544.60547,80.38453,259.68246
"39855",544.6188,80.22095,259.5309
"39856",544.6321,80.05005,259.3669
"39857",544.6454,79.871826,259.19025
"39858",544.6587,79.69604,259.01044
"39859",544.672,79.520256,258.82516
"39860",544.6853,79.3518,258.64172
"39861",544.6986,79.1931,258.46277
"39862",544.7119,79.04906,258.29352
"39863",544.7252,78.91966,258.1344
"39864",544.7385,78.802475,257.98346
"39865",544.75183,78.692604,257.83615
"39866",544.76514,78.59251,257.6952
"39867",544.77844,78.502174,257.56088
"39868",544.79175,78.416725,257.42862
"39869",544.80505,78.34104,257.30347
"39870",544.81836,78.27512,257.1857
"39871",544.83167,78.21652,257.07318
"39872",544.845,78.16281,256.96375
"39873",544.8583,78.116425,256.85995
"39874",544.8716,78.07248,256.75714
"39875",544.8849,78.030975,256.6554
"39876",544.8982,77.994354,256.55725
"39877",544.9115,77.96506,256.46527
"39878",544.9248,77.945526,256.38214
"39879",544.9381,77.93332,256.30573
"39880",544.9514,77.92111,256.22894
"39881",544.9647,77.908905,256.15176
"39882",544.978,77.89426,256.07178
"39883",544.99133,77.872284,255.984
"39884",545.00464,77.84543,255.89064
"39885",545.01794,77.81857,255.79645
"39886",545.03125,77.81613,255.72583
"39887",545.04456,77.88693,255.72838
"39888",545.05786,78.12619,255.9016
"39889",545.07117,78.61936,256.3362
"39890",545.0845,79.3933,257.06702
"39891",545.0978,80.38453,258.03928
"39892",545.1111,81.45876,259.12552
"39893",545.1244,82.442665,260.155
"39894",545.1377,83.194626,260.9833
"39895",545.151,83.65118,261.5397
"39896",545.1643,83.84894,261.85156
"39897",545.1776,83.87335,261.99625
"39898",545.1909,83.81232,262.05624
"39899",545.2042,83.73174,262.09482
"39900",545.2175,83.6585,262.13818
"39901",545.23083,83.595024,262.18903
"39902",545.24414,83.53399,262.24033
"39903",545.25745,83.45098,262.26776
"39904",545.27075,83.33135,262.25598
"39905",545.28406,83.15556,262.1843
"39906",545.29736,82.91875,262.04608
"39907",545.31067,82.616005,261.83456
"39908",545.324,82.266884,261.5672
"39909",545.3373,81.89334,261.2645
"39910",545.3506,81.532005,260.96234
"39911",545.3639,81.21217,260.6904
"39912",545.3772,80.94362,260.45972
"39913",545.3905,80.72877,260.27435
"39914",545.4038,80.552986,260.12134
"39915",545.4171,80.39185,259.97748
"39916",545.4304,80.235596,259.83347
"39917",545.4437,80.07202,259.67725
"39918",545.45703,79.89868,259.50616
"39919",545.47034,79.710686,259.315
"39920",545.48364,79.5227,259.11798
"39921",545.49695,79.33959,258.91995
"39922",545.51025,79.166245,258.72595
"39923",545.52356,79.00755,258.5412
"39924",545.53687,78.86595,258.3686
"39925",545.5502,78.73655,258.20374
"39926",545.5635,78.61936,258.04706
"39927",545.5768,78.51194,257.89648
"39928",545.5901,78.41184,257.74988
"39929",545.6034,78.32151,257.60992
"39930",545.6167,78.24094,257.4769
"39931",545.63,78.16281,257.3438
"39932",545.6433,78.08957,257.21317
"39933",545.6566,78.02121,257.0851
"39934",545.6699,77.960175,256.96225
"39935",545.6832,77.90402,256.84235
"39936",545.69653,77.855194,256.72803
"39937",545.70984,77.81369,256.6195
"39938",545.72314,77.77707,256.51456
"39939",545.73645,77.747765,256.41577
"39940",545.74976,77.71847,256.3161
"39941",545.76306,77.696495,256.22284
"39942",545.77637,77.67696,256.13132
"39943",545.7897,77.6672,256.04895
"39944",545.803,77.662315,255.97116
"39945",545.8163,77.659874,255.89566
"39946",545.8296,77.662315,255.82497
"39947",545.8429,77.662315,255.7519
"39948",545.8562,77.65499,255.67152
"39949",545.8695,77.65255,255.5958
"39950",545.8828,77.68429,255.55417
"39951",545.8961,77.81857,255.61609
"39952",545.9094,78.14816,255.8775
"39953",545.9227,78.74387,256.41534
"39954",545.93604,79.603264,257.23547
"39955",545.94934,80.63355,258.25336
"39956",545.96265,81.67849,259.31808
"39957",545.97595,82.57206,260.2641
"39958",545.98926,83.20195,260.97437
"39959",546.00256,83.54131,261.4138
"39960",546.01587,83.65118,261.6343
"39961",546.0292,83.62676,261.724
"39962",546.0425,83.55108,261.76166
"39963",546.0558,83.46807,261.7896
"39964",546.0691,83.39727,261.82718
"39965",546.0824,83.33868,261.87476
"39966",546.0957,83.267876,261.9083
"39967",546.109,83.16777,261.9103
"39968",546.1223,83.018845,261.86038
"39969",546.1356,82.811325,261.7472
"39970",546.1489,82.52567,261.5494
"39971",546.16223,82.176544,261.2792
"39972",546.17554,81.80057,260.97125
"39973",546.18884,81.42214,260.6491
"39974",546.20215,81.075455,260.34686
"39975",546.21545,80.78981,260.09482
"39976",546.22876,80.55787,259.88757
"39977",546.24207,80.37232,259.71945
"39978",546.2554,80.216064,259.57483
"39979",546.2687,80.06714,259.43265
"39980",546.282,79.91821,259.28583
"39981",546.2953,79.766846,259.1319
"39982",546.3086,79.61059,258.96835
"39983",546.3219,79.4519,258.7975
"39984",546.3352,79.293205,258.62167
"39985",546.3485,79.13939,258.44577
"39986",546.3618,78.992905,258.2724
"39987",546.3751,78.853745,258.10178
"39988",546.3884,78.72434,257.93655
"39989",546.40173,78.60227,257.77463
"39990",546.41504,78.48997,257.61865
"39991",546.42834,78.380104,257.4616
"39992",546.44165,78.27512,257.306
"39993",546.45496,78.17746,257.15442
"39994",546.46826,78.08713,257.00714
"39995",546.48157,78.00412,256.86435
"39996",546.4949,77.925995,256.72385
"39997",546.5082,77.855194,256.58823
"39998",546.5215,77.78439,256.4504
"39999",546.5348,77.71847,256.31525
"40000",546.5481,77.65255,256.17804
"40001",546.5614,77.591515,256.04364
"40002",546.5747,77.5378,255.91466
"40003",546.588,77.486534,255.78644
"40004",546.6013,77.437706,255.65906
"40005",546.6146,77.39376,255.53503
"40006",546.6279,77.3547,255.41452
"40007",546.64124,77.31808,255.29523
"40008",546.65454,77.29366,255.187
"40009",546.66785,77.2839,255.09265
"40010",546.68115,77.29122,255.01509
"40011",546.69446,77.30587,254.94508
"40012",546.70776,77.32052,254.87553
"40013",546.72107,77.33761,254.80888
"40014",546.7344,77.35226,254.74033
"40015",546.7477,77.40841,254.71373
"40016",546.761,77.593956,254.81828
"40017",546.7743,78.00656,255.1557
"40018",546.7876,78.69993,255.78677
"40019",546.8009,79.65209,256.6983
"40020",546.8142,80.740974,257.7763
"40021",546.8275,81.80301,258.8615
"40022",546.8408,82.67216,259.78702
"40023",546.8541,83.243454,260.44183
"40024",546.86743,83.51934,260.8191
"40025",546.88074,83.57061,260.98035
"40026",546.89404,83.4876,261.0089
"40027",546.90735,83.35088,260.98117
"40028",546.92065,83.2166,260.9516
"40029",546.93396,83.09941,260.93494
"40030",546.94727,83.004196,260.93658
"40031",546.9606,82.90166,260.92792
"40032",546.9739,82.77226,260.8892
"40033",546.9872,82.58915,260.79272
"40034",547.0005,82.34501,260.6295
"40035",547.0138,82.04715,260.4049
"40036",547.0271,81.722435,260.14417
"40037",547.0404,81.40749,259.88306
"40038",547.0537,81.13161,259.65115
"40039",547.067,80.91188,259.4668
"40040",547.0803,80.740974,259.3244
"40041",547.0936,80.60914,259.21573
"40042",547.10693,80.49195,259.11758
"40043",547.12024,80.377205,259.01822
"40044",547.13354,80.25025,258.90305
"40045",547.14685,80.113525,258.77414
"40046",547.16016,79.9646,258.62875
"40047",547.17346,79.81079,258.47385
"40048",547.18677,79.65209,258.30923
"40049",547.2001,79.4934,258.13968
"40050",547.2134,79.344475,257.9749
"40051",547.2267,79.20775,257.8177
"40052",547.24,79.08568,257.67087
"40053",547.2533,78.97826,257.53488
"40054",547.2666,78.88548,257.4102
"40055",547.2799,78.80492,257.2948
"40056",547.2932,78.73411,257.18665
"40057",547.3065,78.66575,257.07874
"40058",547.3198,78.607155,256.97845
"40059",547.3331,78.553444,256.88123
"40060",547.34644,78.502174,256.78476
"40061",547.35974,78.45579,256.69156
"40062",547.37305,78.41428,256.6018
"40063",547.38635,78.37278,256.51074
"40064",547.39966,78.33372,256.42084
"40065",547.41296,78.30442,256.33948
"40066",547.4263,78.277565,256.25964
"40067",547.4396,78.260475,256.18872
"40068",547.4529,78.25315,256.12704
"40069",547.4662,78.24582,256.06512
"40070",547.4795,78.24094,256.00543
"40071",547.4928,78.238495,255.94801
"40072",547.5061,78.23361,255.88808
"40073",547.5194,78.22385,255.8231
"40074",547.5327,78.21896,255.76271
"40075",547.546,78.24094,255.72902
"40076",547.5593,78.363014,255.79613
"40077",547.57263,78.6804,256.06235
"40078",547.58594,79.26147,256.60217
"40079",547.59924,80.10132,257.41895
"40080",547.61255,81.1194,258.4402
"40081",547.62585,82.159454,259.51523
"40082",547.63916,83.055466,260.47873
"40083",547.65247,83.69268,261.21143
"40084",547.6658,84.04181,261.67596
"40085",547.6791,84.156555,261.91702
"40086",547.6924,84.12482,262.01517
"40087",547.7057,84.02716,262.04642
"40088",547.719,83.92218,262.0673
"40089",547.7323,83.83185,262.09952
"40090",547.7456,83.76105,262.14847
"40091",547.7589,83.69024,262.1952
"40092",547.7722,83.597466,262.21774
"40093",547.7855,83.455864,262.18857
"40094",547.7988,83.24834,262.08905
"40095",547.81213,82.96513,261.90735
"40096",547.82544,82.62577,261.66064
"40097",547.83875,82.25956,261.3765
"40098",547.85205,81.90799,261.09555
"40099",547.86536,81.5906,260.8378
"40100",547.87866,81.32937,260.62628
"40101",547.89197,81.1194,260.45786
"40102",547.9053,80.94118,260.3146
"40103",547.9186,80.780045,260.1829
"40104",547.9319,80.62379,260.05103
"40105",547.9452,80.462654,259.9094
"40106",547.9585,80.2942,259.7554
"40107",547.9718,80.12329,259.5937
"40108",547.9851,79.94751,259.42175
"40109",547.9984,79.77173,259.24432
"40110",548.0117,79.59838,259.06384
"40111",548.025,79.432365,258.88528
"40112",548.0383,79.276115,258.7113
"40113",548.05164,79.12962,258.54218
"40114",548.06494,78.995346,258.3807
"40115",548.07825,78.873276,258.22723
"40116",548.09155,78.76341,258.08215
"40117",548.10486,78.660866,257.94095
"40118",548.11816,78.56565,257.8039
"40119",548.1315,78.47776,257.67117
"40120",548.1448,78.40208,257.5479
"40121",548.1581,78.331276,257.4272
"40122",548.1714,78.26536,257.3091
"40123",548.1847,78.20676,257.1963
"40124",548.198,78.153046,257.08655
"40125",548.2113,78.101776,256.97757
"40126",548.2246,78.05783,256.8743
"40127",548.2379,78.02121,256.77698
"40128",548.2512,77.98703,256.68097
"40129",548.2645,77.95041,256.58145
"40130",548.27783,77.91623,256.48322
"40131",548.29114,77.874725,256.3766
"40132",548.30444,77.83566,256.27112
"40133",548.31775,77.7966,256.16443
"40134",548.33105,77.76486,256.06384
"40135",548.34436,77.7551,255.98422
"40136",548.35767,77.806366,255.96533
"40137",548.371,78.00168,256.0921
"40138",548.3843,78.42893,256.4569
"40139",548.3976,79.132065,257.11093
"40140",548.4109,80.0647,258.01645
"40141",548.4242,81.11696,259.07074
"40142",548.4375,82.12039,260.10907
"40143",548.4508,82.916306,260.97125
"40144",548.4641,83.43633,261.58243
"40145",548.4774,83.69756,261.95105
"40146",548.4907,83.77814,262.1472
"40147",548.504,83.76593,262.25305
"40148",548.51733,83.73174,262.33655
"40149",548.53064,83.700005,262.42142
"40150",548.54395,83.67803,262.51508
"40151",548.55725,83.65118,262.60315
"40152",548.57056,83.60235,262.66843
"40153",548.58386,83.51446,262.6931
"40154",548.59717,83.372856,262.66135
"40155",548.6105,83.16289,262.5568
"40156",548.6238,82.87724,262.37
"40157",548.6371,82.53788,262.12054
"40158",548.6504,82.16434,261.82632
"40159",548.6637,81.79324,261.52286
"40160",548.677,81.45632,261.24197
"40161",548.6903,81.17555,261.0067
"40162",548.7036,80.94118,260.80908
"40163",548.7169,80.74586,260.6432
"40164",548.7302,80.567635,260.48828
"40165",548.7435,80.396736,260.3351
"40166",548.75684,80.218506,260.16928
"40167",548.77014,80.0354,259.993
"40168",548.78345,79.852295,259.811
"40169",548.79675,79.66674,259.62085
"40170",548.81006,79.48852,259.43222
"40171",548.82336,79.31274,259.24045
"40172",548.8367,79.14671,259.05295
"40173",548.85,78.98558,258.86514
"40174",548.8633,78.83421,258.68207
"40175",548.8766,78.695045,258.50647
"40176",548.8899,78.56809,258.33875
"40177",548.9032,78.45335,258.17926
"40178",548.9165,78.348366,258.02594
"40179",548.9298,78.24826,257.8742
"40180",548.9431,78.15549,257.72668
"40181",548.9564,78.07736,257.5909
"40182",548.9697,78.00412,257.45758
"40183",548.98303,77.943085,257.33417
"40184",548.99634,77.88693,257.21375
"40185",549.00964,77.83566,257.09644
"40186",549.02295,77.786835,256.97998
"40187",549.03625,77.73556,256.85953
"40188",549.04956,77.68917,256.74237
"40189",549.06287,77.65011,256.6311
"40190",549.0762,77.61593,256.5235
"40191",549.0895,77.58907,256.42215
"40192",549.1028,77.5671,256.32483
"40193",549.1161,77.55245,256.23416
"40194",549.1294,77.53536,256.1406
"40195",549.1427,77.51339,256.0416
"40196",549.156,77.488976,255.93947
"40197",549.1693,77.46456,255.83658
"40198",549.1826,77.454796,255.74757
"40199",549.1959,77.4963,255.70953
"40200",549.2092,77.67452,255.80951
"40201",549.22253,78.0798,256.14212
"40202",549.23584,78.75853,256.76083
"40203",549.24915,79.68383,257.64734
"40204",549.26245,80.743416,258.69705
"40205",549.27576,81.77127,259.74814
"40206",549.28906,82.60868,260.6409
"40207",549.30237,83.16777,261.28152
"40208",549.3157,83.45342,261.66617
"40209",549.329,83.53887,261.85953
"40210",549.3423,83.52422,261.95547
"40211",549.3556,83.47784,262.01923
"40212",549.3689,83.43633,262.0864
"40213",549.3822,83.407036,262.1645
"40214",549.3955,83.38262,262.24655
"40215",549.4088,83.33135,262.301
"40216",549.4221,83.24101,262.31476
"40217",549.4354,83.087204,262.26224
"40218",549.4487,82.86992,262.14142
"40219",549.46204,82.579384,261.94058
"40220",549.47534,82.23758,261.67938
"40221",549.48865,81.87137,261.3831
"40222",549.50195,81.51736,261.08755
"40223",549.51526,81.19997,260.8176
"40224",549.52856,80.93385,260.589
"40225",549.5419,80.71656,260.40088
"40226",549.5552,80.5359,260.2426
"40227",549.5685,80.36988,260.09335
"40228",549.5818,80.20386,259.9389
"40229",549.5951,80.028076,259.7695
"40230",549.6084,79.84253,259.58484
"40231",549.6217,79.64721,259.38458
"40232",549.635,79.45434,259.1807
"40233",549.6483,79.26147,258.97076
"40234",549.6616,79.07347,258.75967
"40235",549.6749,78.90013,258.55737
"40236",549.68823,78.74387,258.36673
"40237",549.70154,78.59983,258.18344
"40238",549.71484,78.467995,258.00784
"40239",549.72815,78.35325,257.8452
"40240",549.74146,78.25071,257.69122
"40241",549.75476,78.153046,257.53888
"40242",549.76807,78.06027,257.3884
"40243",549.7814,77.97482,257.24234
"40244",549.7947,77.8967,257.10092
"40245",549.808,77.821014,256.9595
"40246",549.8213,77.752655,256.82306
"40247",549.8346,77.69405,256.6942
"40248",549.8479,77.63546,256.56357
"40249",549.8612,77.58175,256.43597
"40250",549.8745,77.53048,256.30914
"40251",549.8878,77.47921,256.1807
"40252",549.9011,77.43282,256.05554
"40253",549.9144,77.38888,255.93137
"40254",549.92773,77.3547,255.81558
"40255",549.94104,77.32784,255.70605
"40256",549.95435,77.30831,255.60301
"40257",549.96765,77.296104,255.50668
"40258",549.98096,77.29122,255.4173
"40259",549.99426,77.28878,255.3302
"40260",550.00757,77.2839,255.24059
"40261",550.0209,77.281456,255.15326
"40262",550.0342,77.28634,255.07318
"40263",550.0475,77.332726,255.03476
"40264",550.0608,77.4963,255.11497
"40265",550.0741,77.872284,255.41272
"40266",550.0874,78.52415,255.9981
"40267",550.1007,79.43725,256.86508
"40268",550.114,80.50904,257.91928
"40269",550.1273,81.58083,259.007
"40270",550.1406,82.47929,259.95483
"40271",550.15393,83.104294,260.65732
"40272",550.16724,83.43389,261.08392
"40273",550.18054,83.53887,261.2962
"40274",550.19385,83.509575,261.3775
"40275",550.20715,83.42657,261.40417
"40276",550.22046,83.336235,261.42093
"40277",550.23376,83.26299,261.45193
"40278",550.2471,83.20439,261.4953
"40279",550.2604,83.14336,261.5344
"40280",550.2737,83.053024,261.5423
"40281",550.287,82.90898,261.49365
"40282",550.3003,82.69657,261.37216
"40283",550.3136,82.41093,261.17078
"40284",550.3269,82.07889,260.9141
"40285",550.3402,81.7322,260.6324
"40286",550.3535,81.40261,260.35693
"40287",550.3668,81.11696,260.1151
"40288",550.3801,80.88258,259.91565
"40289",550.39343,80.69459,259.75525
"40290",550.40674,80.5359,259.61826
"40291",550.42004,80.38697,259.48608
"40292",550.43335,80.235596,259.3468
"40293",550.44666,80.07446,259.19302
"40294",550.45996,79.903564,259.02444
"40295",550.47327,79.72289,258.84076
"40296",550.4866,79.537346,258.64655
"40297",550.4999,79.35424,258.44897
"40298",550.5132,79.18089,258.25543
"40299",550.5265,79.0222,258.07114
"40300",550.5398,78.87816,257.89655
"40301",550.5531,78.751205,257.73453
"40302",550.5664,78.63889,257.5832
"40303",550.5797,78.538795,257.44055
"40304",550.593,78.45335,257.30945
"40305",550.6063,78.37522,257.18298
"40306",550.6196,78.29954,257.05652
"40307",550.63293,78.22873,256.93256
"40308",550.64624,78.16525,256.81372
"40309",550.65955,78.10666,256.69778
"40310",550.67285,78.05783,256.58978
"40311",550.68616,78.013885,256.48514
"40312",550.69946,77.98215,256.39133
"40313",550.71277,77.95285,256.29898
"40314",550.7261,77.92111,256.20328
"40315",550.7394,77.891815,256.109
"40316",550.7527,77.86984,256.02115
"40317",550.766,77.857635,255.94237
"40318",550.7793,77.84543,255.8632
"40319",550.7926,77.840546,255.79099
"40320",550.8059,77.83566,255.71861
"40321",550.8192,77.83566,255.65097
"40322",550.8325,77.83078,255.57845
"40323",550.8458,77.821014,255.50089
"40324",550.85913,77.81857,255.43034
"40325",550.87244,77.857635,255.40123
"40326",550.88574,78.01633,255.49297
"40327",550.89905,78.38743,255.80208
"40328",550.91235,79.03441,256.39865
"40329",550.92566,79.9353,257.26938
"40330",550.93896,80.987564,258.3196
"40331",550.9523,82.02762,259.39053
"40332",550.9656,82.896774,260.32306
"40333",550.9789,83.492485,261.0093
"40334",550.9922,83.807434,261.4334
"40335",551.0055,83.90509,261.65005
"40336",551.0188,83.87335,261.74036
"40337",551.0321,83.7879,261.77594
"40338",551.0454,83.702446,261.80887
"40339",551.0587,83.6292,261.85132
"40340",551.072,83.56817,261.9037
"40341",551.0853,83.49737,261.9444
"40342",551.09863,83.39483,261.95114
"40343",551.11194,83.23613,261.89853
"40344",551.12524,83.00664,261.77017
"40345",551.13855,82.70878,261.56628
"40346",551.15186,82.36698,261.30914
"40347",551.16516,82.01785,261.034
"40348",551.17847,81.6907,260.7699
"40349",551.1918,81.41238,260.5444
"40350",551.2051,81.18288,260.35904
"40351",551.2184,80.99489,260.208
"40352",551.2317,80.833755,260.07797
"40353",551.245,80.67994,259.95023
"40354",551.2583,80.51881,259.81033
"40355",551.2716,80.35035,259.65808
"40356",551.2849,80.16968,259.48837
"40357",551.2982,79.98169,259.3057
"40358",551.3115,79.78882,259.11224
"40359",551.3248,79.605705,258.92255
"40360",551.33813,79.432365,258.73688
"40361",551.35144,79.27123,258.558
"40362",551.36475,79.12718,258.39117
"40363",551.37805,78.992905,258.2296
"40364",551.39136,78.86839,258.07364
"40365",551.40466,78.74876,257.91864
"40366",551.41797,78.63889,257.76968
"40367",551.4313,78.538795,257.62704
"40368",551.4446,78.44358,257.48618
"40369",551.4579,78.35813,257.35208
"40370",551.4712,78.28001,257.22266
"40371",551.4845,78.204315,257.0932
"40372",551.4978,78.13107,256.96384
"40373",551.5111,78.06271,256.83707
"40374",551.5244,78.00168,256.71548
"40375",551.5377,77.945526,256.5969
"40376",551.551,77.89914,256.4863
"40377",551.56433,77.86252,256.38403
"40378",551.57764,77.83078,256.2855
"40379",551.59094,77.803925,256.19086
"40380",551.60425,77.78195,256.10025
"40381",551.61755,77.7673,256.0163
"40382",551.63086,77.75754,255.93675
"40383",551.64417,77.75021,255.85934
"40384",551.6575,77.74044,255.77927
"40385",551.6708,77.730675,255.69888
"40386",551.6841,77.730675,255.62796
"40387",551.6974,77.786835,255.6132
"40388",551.7107,77.98947,255.74667
"40389",551.724,78.42649,256.12085
"40390",551.7373,79.15404,256.79922
"40391",551.7506,80.12085,257.7396
"40392",551.7639,81.21217,258.8347
"40393",551.7772,82.24979,259.9102
"40394",551.7905,83.08232,260.81302
"40395",551.80383,83.631645,261.45868
"40396",551.81714,83.914856,261.85538
"40397",551.83044,84.00519,262.06805
"40398",551.84375,84.000305,262.18832
"40399",551.85706,83.966125,262.27914
"40400",551.87036,83.93683,262.37378
"40401",551.88367,83.91974,262.4797
"40402",551.897,83.90509,262.58755
"40403",551.9103,83.87335,262.67786
"40404",551.9236,83.80255,262.7281
"40405",551.9369,83.67559,262.71997
"40406",551.9502,83.47784,262.6371
"40407",551.9635,83.20683,262.47476
"40408",551.9768,82.87236,262.2405
"40409",551.9901,82.50126,261.95917
"40410",552.0034,82.125275,261.66135
"40411",552.0167,81.778595,261.38107
"40412",552.03,81.480736,261.1388
"40413",552.04333,81.23659,260.94092
"40414",552.05664,81.03639,260.77936
"40415",552.06995,80.86305,260.6384
"40416",552.08325,80.69703,260.49936
"40417",552.09656,80.52613,260.35025
"40418",552.10986,80.34058,260.18115
"40419",552.12317,80.14282,259.99405
"40420",552.1365,79.9353,259.791
"40421",552.1498,79.73022,259.58386
"40422",552.1631,79.52758,259.3728
"40423",552.1764,79.33959,259.17004
"40424",552.1897,79.166245,258.97604
"40425",552.203,79.00267,258.7864
"40426",552.2163,78.8513,258.60388
"40427",552.2296,78.709694,258.42636
"40428",552.2429,78.57786,258.2542
"40429",552.2562,78.46067,258.0926
"40430",552.26953,78.35081,257.93463
"40431",552.28284,78.25071,257.783
"40432",552.29614,78.16037,257.63797
"40433",552.30945,78.07248,257.49258
"40434",552.32275,77.99191,257.35178
"40435",552.33606,77.91623,257.21335
"40436",552.34937,77.84543,257.07742
"40437",552.3627,77.786835,256.9515
"40438",552.376,77.73556,256.83105
"40439",552.3893,77.69161,256.71634
"40440",552.4026,77.65255,256.60513
"40441",552.4159,77.61349,256.4927
"40442",552.4292,77.57198,256.37662
"40443",552.4425,77.53292,256.2617
"40444",552.4558,77.49874,256.15042
"40445",552.4691,77.471886,256.0454
"40446",552.4824,77.454796,255.94931
"40447",552.4957,77.44747,255.86244
"40448",552.50903,77.44259,255.77779
"40449",552.52234,77.437706,255.69298
"40450",552.53564,77.437706,255.6129
"40451",552.54895,77.45968,255.5548
"40452",552.56226,77.5671,255.58282
"40453",552.57556,77.855194,255.79489
"40454",552.58887,78.399635,256.2723
"40455",552.6022,79.217514,257.04016
"40456",552.6155,80.233154,258.03134
"40457",552.6288,81.30251,259.10797
"40458",552.6421,82.25712,260.10327
"40459",552.6554,82.96513,260.88184
"40460",552.6687,83.389946,261.39932
"40461",552.682,83.580376,261.69568
"40462",552.6953,83.62188,261.84906
"40463",552.7086,83.59991,261.94028
"40464",552.7219,83.563286,262.01614
"40465",552.7352,83.54131,262.10553
"40466",552.74854,83.52178,262.19666
"40467",552.76184,83.49737,262.2823
"40468",552.77515,83.44854,262.34274
"40469",552.78845,83.34844,262.3504
"40470",552.80176,83.1873,262.2939
"40471",552.81506,82.948044,262.15427
"40472",552.82837,82.63798,261.93634
"40473",552.8417,82.28153,261.66232
"40474",552.855,81.917755,261.36984
"40475",552.8683,81.57839,261.09042
"40476",552.8816,81.28054,260.8419
"40477",552.8949,81.03883,260.6402
"40478",552.9082,80.83864,260.47247
"40479",552.9215,80.65797,260.31802
"40480",552.9348,80.48463,260.16525
"40481",552.9481,80.306404,260.00217
"40482",552.9614,80.12329,259.82864
"40483",552.97473,79.937744,259.64694
"40484",552.98804,79.74731,259.45456
"40485",553.00134,79.554436,259.25378
"40486",553.01465,79.36645,259.05188
"40487",553.02795,79.185776,258.8514
"40488",553.04126,79.01488,258.65506
"40489",553.05457,78.85863,258.46802
"40490",553.0679,78.712135,258.28586
"40491",553.0812,78.58518,258.11865
"40492",553.0945,78.46555,257.9548
"40493",553.1078,78.35325,257.79456
"40494",553.1211,78.24582,257.63565
"40495",553.1344,78.14572,257.48074
"40496",553.1477,78.05051,257.32758
"40497",553.161,77.962616,257.17877
"40498",553.1743,77.88205,257.03455
"40499",553.1876,77.80881,256.8951
"40500",553.2009,77.74044,256.75827
"40501",553.21423,77.67452,256.62173
"40502",553.22754,77.608604,256.48315
"40503",553.24084,77.540245,256.34006
"40504",553.25415,77.47921,256.20215
"40505",553.26746,77.420616,256.0648
"40506",553.28076,77.36935,255.9329
"40507",553.29407,77.32784,255.80919
"40508",553.3074,77.29122,255.68906
"40509",553.3207,77.25948,255.57266
"40510",553.334,77.23018,255.45772
"40511",553.3473,77.20332,255.3443
"40512",553.3606,77.17891,255.23248
"40513",553.3739,77.15938,255.12479
"40514",553.3872,77.13985,255.01648
"40515",553.4005,77.12764,254.91489
"40516",553.4138,77.13985,254.83733
"40517",553.4271,77.2375,254.8456
"40518",553.4404,77.52071,255.04248
"40519",553.45374,78.0676,255.51189
"40520",553.46704,78.89281,256.2767
"40521",553.48035,79.923096,257.2724
"40522",553.49365,81.01198,258.3589
"40523",553.50696,81.98367,259.3622
"40524",553.52026,82.703896,260.14444
"40525",553.53357,83.13115,260.6562
"40526",553.5469,83.31182,260.93472
"40527",553.5602,83.33135,261.05774
"40528",553.5735,83.27276,261.10324
"40529",553.5868,83.19707,261.12982
"40530",553.6001,83.13115,261.16382
"40531",553.6134,83.07988,261.2104
"40532",553.6267,83.035934,261.2627
"40533",553.64,82.9749,261.29654
"40534",553.6533,82.86992,261.28452
"40535",553.6666,82.69901,261.2033
"40536",553.67993,82.45731,261.04596
"40537",553.69324,82.14725,260.81268
"40538",553.70654,81.79813,260.53067
"40539",553.71985,81.446556,260.2353
"40540",553.73315,81.126724,259.96066
"40541",553.74646,80.85573,259.72488
"40542",553.75977,80.63355,259.52945
"40543",553.7731,80.45045,259.36615
"40544",553.7864,80.289314,259.2191
"40545",553.7997,80.13306,259.07187
"40546",553.813,79.97925,258.9222
"40547",553.8263,79.815674,258.758
"40548",553.8396,79.639885,258.57645
"40549",553.8529,79.45434,258.37964
"40550",553.8662,79.26635,258.1746
"40551",553.8795,79.080795,257.9661
"40552",553.8928,78.9099,257.76648
"40553",553.9061,78.75853,257.58105
"40554",553.91943,78.624245,257.40796
"40555",553.93274,78.49973,257.24045
"40556",553.94604,78.38743,257.08127
"40557",553.95935,78.28001,256.92346
"40558",553.97266,78.18234,256.77203
"40559",553.98596,78.09689,256.6298
"40560",553.99927,78.02365,256.49707
"40561",554.0126,77.95773,256.3694
"40562",554.0259,77.8967,256.24454
"40563",554.0392,77.84299,256.1251
"40564",554.0525,77.79172,256.0064
"40565",554.0658,77.74044,255.88612
"40566",554.0791,77.69405,255.76912
"40567",554.0924,77.65011,255.6531
"40568",554.1057,77.61593,255.54549
"40569",554.119,77.58419,255.43924
"40570",554.1323,77.557335,255.33688
"40571",554.1456,77.53048,255.23369
"40572",554.15894,77.51095,255.13698
"40573",554.17224,77.49142,255.03966
"40574",554.18555,77.47921,254.94905
"40575",554.19885,77.47433,254.86539
"40576",554.21216,77.47677,254.7889
"40577",554.22546,77.48165,254.71492
"40578",554.2388,77.48409,254.63866
"40579",554.2521,77.47921,254.55515
"40580",554.2654,77.47433,254.47148
"40581",554.2787,77.50118,254.4194
"40582",554.292,77.628136,254.46826
"40583",554.3053,77.95041,254.71642
"40584",554.3186,78.54612,255.24808
"40585",554.3319,79.42748,256.084
"40586",554.3452,80.50172,257.14035
"40587",554.3585,81.61013,258.26443
"40588",554.3718,82.56962,259.27423
"40589",554.38513,83.25323,260.03815
"40590",554.39844,83.62188,260.50845
"40591",554.41174,83.72686,260.72662
"40592",554.42505,83.67071,260.78693
"40593",554.43835,83.54131,260.77225
"40594",554.45166,83.40215,260.74374
"40595",554.46497,83.284966,260.73288
"40596",554.4783,83.18486,260.73544
"40597",554.4916,83.087204,260.7373
"40598",554.5049,82.96513,260.7117
"40599",554.5182,82.794235,260.63345
"40600",554.5315,82.562294,260.48883
"40601",554.5448,82.27421,260.28082
"40602",554.5581,81.95438,260.03207
"40603",554.5714,81.634544,259.77332
"40604",554.5847,81.34646,259.53632
"40605",554.598,81.109634,259.34158
"40606",554.6113,80.919205,259.18582
"40607",554.62463,80.76784,259.06317
"40608",554.63794,80.635994,258.95532
"40609",554.65125,80.51148,258.85068
"40610",554.66455,80.38209,258.73727
"40611",554.67786,80.24292,258.61005
"40612",554.69116,80.096436,258.47116
"40613",554.70447,79.94263,258.32037
"40614",554.7178,79.783936,258.15988
"40615",554.7311,79.622795,257.992
"40616",554.7444,79.47143,257.82886
"40617",554.7577,79.33227,257.6732
"40618",554.771,79.202866,257.52292
"40619",554.7843,79.08568,257.38083
"40620",554.7976,78.98314,257.24973
"40621",554.8109,78.89281,257.12762
"40622",554.8242,78.81224,257.01245
"40623",554.8375,78.73655,256.89963
"40624",554.8508,78.66331,256.7869
"40625",554.86414,78.59251,256.67432
"40626",554.87744,78.52903,256.56686
"40627",554.89075,78.470436,256.4623
"40628",554.90405,78.42161,256.3657
"40629",554.91736,78.37766,256.27243
"40630",554.93066,78.3386,256.18268
"40631",554.944,78.30198,256.09415
"40632",554.9573,78.27512,256.01422
"40633",554.9706,78.25315,255.93834
"40634",554.9839,78.24094,255.87154
"40635",554.9972,78.23605,255.81168
"40636",555.0105,78.238495,255.75899
"40637",555.0238,78.24338,255.70882
"40638",555.0371,78.24582,255.65636
"40639",555.0504,78.24826,255.60397
"40640",555.0637,78.24826,255.54922
"40641",555.077,78.260475,255.5067
"40642",555.09033,78.32639,255.51825
"40643",555.10364,78.52659,255.66614
"40644",555.11694,78.95628,256.04977
"40645",555.13025,79.65942,256.72028
"40646",555.14355,80.6067,257.65692
"40647",555.15686,81.68093,258.75012
"40648",555.17017,82.7161,259.83783
"40649",555.1835,83.55352,260.76013
"40650",555.1968,84.09308,261.41074
"40651",555.2101,84.34455,261.79013
"40652",555.2234,84.38117,261.96252
"40653",555.2367,84.300606,262.01886
"40654",555.25,84.17853,262.0312
"40655",555.2633,84.06134,262.0446
"40656",555.2766,83.963684,262.07385
"40657",555.2899,83.87579,262.10983
"40658",555.3032,83.77814,262.1333
"40659",555.3165,83.65118,262.12442
"40660",555.32983,83.475395,262.06274
"40661",555.34314,83.23857,261.93454
"40662",555.35645,82.93584,261.733
"40663",555.36975,82.58671,261.47562
"40664",555.38306,82.20828,261.17804
"40665",555.39636,81.83719,260.87595
"40666",555.40967,81.497826,260.594
"40667",555.423,81.20729,260.35028
"40668",555.4363,80.96803,260.14874
"40669",555.4496,80.77516,259.9861
"40670",555.4629,80.604256,259.83945
"40671",555.4762,80.44312,259.6972
"40672",555.4895,80.28443,259.55237
"40673",555.5028,80.12085,259.39767
"40674",555.5161,79.94507,259.22568
"40675",555.5294,79.764404,259.0433
"40676",555.5427,79.57885,258.8504
"40677",555.556,79.39086,258.64926
"40678",555.56934,79.21019,258.44955
"40679",555.58264,79.04173,258.2564
"40680",555.59595,78.890366,258.0751
"40681",555.60925,78.75853,257.9086
"40682",555.62256,78.63645,257.7477
"40683",555.63586,78.521706,257.59036
"40684",555.6492,78.416725,257.43918
"40685",555.6625,78.32151,257.2945
"40686",555.6758,78.238495,257.15903
"40687",555.6891,78.16281,257.0283
"40688",555.7024,78.09689,256.90497
"40689",555.7157,78.03342,256.782
"40690",555.729,77.96994,256.65707
"40691",555.7423,77.908905,256.5326
"40692",555.7556,77.85031,256.40866
"40693",555.7689,77.79416,256.28534
"40694",555.7822,77.747765,256.17
"40695",555.79553,77.7087,256.06058
"40696",555.80884,77.67696,255.95723
"40697",555.82214,77.659874,255.86754
"40698",555.83545,77.64767,255.7822
"40699",555.84875,77.6379,255.69891
"40700",555.86206,77.63058,255.61777
"40701",555.87537,77.625694,255.53883
"40702",555.8887,77.61837,255.4573
"40703",555.902,77.608604,255.37311
"40704",555.9153,77.61349,255.30325
"40705",555.9286,77.659874,255.27505
"40706",555.9419,77.82834,255.37039
"40707",555.9552,78.21164,255.68582
"40708",555.9685,78.870834,256.28912
"40709",555.9818,79.783936,257.16693
"40710",555.9951,80.85573,258.23196
"40711",556.0084,81.91531,259.3183
"40712",556.0217,82.79668,260.25952
"40713",556.03503,83.387505,260.93774
"40714",556.04834,83.682915,261.33902
"40715",556.06165,83.756165,261.52737
"40716",556.07495,83.702446,261.59103
"40717",556.08826,83.60723,261.6115
"40718",556.10156,83.5169,261.6339
"40719",556.11487,83.441216,261.66812
"40720",556.1282,83.370415,261.70486
"40721",556.1415,83.29229,261.73206
"40722",556.1548,83.18486,261.7275
"40723",556.1681,83.035934,261.6781
"40724",556.1814,82.82597,261.56302
"40725",556.1947,82.55497,261.38034
"40726",556.208,82.22293,261.12814
"40727",556.2213,81.85428,260.82895
"40728",556.2346,81.48806,260.5207
"40729",556.2479,81.15602,260.23517
"40730",556.2612,80.88014,259.99542
"40731",556.27454,80.66529,259.80807
"40732",556.28784,80.49439,259.65796
"40733",556.30115,80.35279,259.5318
"40734",556.31445,80.216064,259.4061
"40735",556.32776,80.07202,259.2688
"40736",556.34106,79.920654,259.1197
"40737",556.3544,79.75952,258.9561
"40738",556.3677,79.5935,258.78253
"40739",556.381,79.4226,258.59894
"40740",556.3943,79.256584,258.4149
"40741",556.4076,79.10033,258.23538
"40742",556.4209,78.9514,258.05835
"40743",556.4342,78.81224,257.8864
"40744",556.4475,78.68284,257.71988
"40745",556.4608,78.56809,257.56396
"40746",556.4741,78.46555,257.4167
"40747",556.4874,78.37034,257.27353
"40748",556.50073,78.28489,257.13715
"40749",556.51404,78.2092,257.00784
"40750",556.52734,78.1384,256.88107
"40751",556.54065,78.07492,256.75943
"40752",556.55396,78.02121,256.64557
"40753",556.56726,77.977264,256.5398
"40754",556.58057,77.943085,256.4424
"40755",556.5939,77.90646,256.34152
"40756",556.6072,77.872284,256.2419
"40757",556.6205,77.840546,256.14368
"40758",556.6338,77.80881,256.04446
"40759",556.6471,77.77707,255.94424
"40760",556.6604,77.752655,255.85036
"40761",556.6737,77.733116,255.76059
"40762",556.687,77.72091,255.67754
"40763",556.7003,77.71603,255.60143
"40764",556.7136,77.713585,255.5276
"40765",556.7269,77.713585,255.45615
"40766",556.74023,77.713585,255.38469
"40767",556.75354,77.713585,255.31323
"40768",556.76685,77.71114,255.23933
"40769",556.78015,77.71114,255.1678
"40770",556.79346,77.75998,255.14511
"40771",556.80676,77.94064,255.25577
"40772",556.82007,78.348366,255.59914
"40773",556.8334,79.03441,256.23355
"40774",556.8467,79.96704,257.13602
"40775",556.86,81.03639,258.20435
"40776",556.8733,82.07645,259.2768
"40777",556.8866,82.916306,260.18155
"40778",556.8999,83.46319,260.81958
"40779",556.9132,83.72442,261.18903
"40780",556.9265,83.76593,261.34692
"40781",556.9398,83.685356,261.38403
"40782",556.9531,83.563286,261.37714
"40783",556.96643,83.45098,261.3762
"40784",556.97974,83.36065,261.3937
"40785",556.99304,83.284966,261.42303
"40786",557.00635,83.20683,261.44757
"40787",557.01965,83.09941,261.44037
"40788",557.03296,82.94072,261.37854
"40789",557.04626,82.7161,261.24582
"40790",557.0596,82.423134,261.03772
"40791",557.0729,82.08377,260.77408
"40792",557.0862,81.72732,260.48276
"40793",557.0995,81.38552,260.19495
"40794",557.1128,81.08278,259.93552
"40795",557.1261,80.831314,259.7179
"40796",557.1394,80.62623,259.5388
"40797",557.1527,80.45289,259.385
"40798",557.166,80.291756,259.23804
"40799",557.1793,80.1355,259.0909
"40800",557.1926,79.974365,258.93402
"40801",557.20593,79.81079,258.76965
"40802",557.21924,79.63744,258.5904
"40803",557.23254,79.4641,258.40573
"40804",557.24585,79.290764,258.21564
"40805",557.25916,79.11986,258.02255
"40806",557.27246,78.95628,257.83148
"40807",557.28577,78.80492,257.6475
"40808",557.2991,78.66819,257.47342
"40809",557.3124,78.54124,257.30484
"40810",557.3257,78.42649,257.1445
"40811",557.339,78.32639,256.99524
"40812",557.3523,78.23361,256.85016
"40813",557.3656,78.153046,256.7144
"40814",557.3789,78.082245,256.58588
"40815",557.3922,78.02609,256.4698
"40816",557.4055,77.97238,256.3544
"40817",557.4188,77.91623,256.2349
"40818",557.4321,77.86008,256.11362
"40819",557.44543,77.803925,255.99059
"40820",557.45874,77.752655,255.87068
"40821",557.47205,77.70626,255.75406
"40822",557.48535,77.66476,255.64087
"40823",557.49866,77.63302,255.53615
"40824",557.51196,77.60372,255.43288
"40825",557.52527,77.576866,255.33113
"40826",557.5386,77.55001,255.22855
"40827",557.5519,77.52804,255.13
"40828",557.5652,77.51583,255.04054
"40829",557.5785,77.51339,254.96046
"40830",557.5918,77.51827,254.88763
"40831",557.6051,77.53048,254.82228
"40832",557.6184,77.5378,254.75243
"40833",557.6317,77.540245,254.67792
"40834",557.645,77.54269,254.60349
"40835",557.6583,77.5964,254.5804
"40836",557.67163,77.77707,254.68596
"40837",557.68494,78.19211,255.03152
"40838",557.69824,78.890366,255.67328
"40839",557.71155,79.84497,256.5932
"40840",557.72485,80.936295,257.6797
"40841",557.73816,81.99344,258.76608
"40842",557.75146,82.845505,259.68045
"40843",557.7648,83.39727,260.32114
"40844",557.7781,83.65362,260.68365
"40845",557.7914,83.6878,260.832
"40846",557.8047,83.59991,260.85934
"40847",557.818,83.47051,260.84244
"40848",557.8313,83.34112,260.8215
"40849",557.8446,83.228806,260.8136
"40850",557.8579,83.13115,260.81683
"40851",557.8712,83.03105,260.81458
"40852",557.8845,82.9041,260.78235
"40853",557.8978,82.72831,260.69733
"40854",557.91113,82.496376,260.55066
"40855",557.92444,82.210724,260.34302
"40856",557.93774,81.8909,260.0923
"40857",557.95105,81.566185,259.82666
"40858",557.96436,81.26589,259.57532
"40859",557.97766,81.007095,259.35608
"40860",557.99097,80.80202,259.18246
"40861",558.0043,80.63111,259.03662
"40862",558.0176,80.48951,258.91473
"40863",558.0309,80.360115,258.80063
"40864",558.0442,80.23071,258.6825
"40865",558.0575,80.093994,258.55298
"40866",558.0708,79.95239,258.4143
"40867",558.0841,79.798584,258.259
"40868",558.0974,79.63744,258.09155
"40869",558.1107,79.47875,257.92154
"40870",558.124,79.327385,257.75388
"40871",558.1373,79.185776,257.59125
"40872",558.15063,79.06615,257.44617
"40873",558.16394,78.958725,257.30957
"40874",558.17725,78.86107,257.17938
"40875",558.19055,78.77562,257.05835
"40876",558.20386,78.69749,256.94196
"40877",558.21716,78.62913,256.8329
"40878",558.23047,78.57053,256.73145
"40879",558.2438,78.521706,256.63794
"40880",558.2571,78.47776,256.5478
"40881",558.2704,78.433815,256.45627
"40882",558.2837,78.397194,256.3707
"40883",558.297,78.363014,256.28644
"40884",558.3103,78.33616,256.20844
"40885",558.3236,78.3093,256.12958
"40886",558.3369,78.28489,256.05234
"40887",558.3502,78.25803,255.97188
"40888",558.3635,78.23361,255.89302
"40889",558.37683,78.20676,255.81096
"40890",558.39014,78.187225,255.73538
"40891",558.40344,78.17746,255.66896
"40892",558.41675,78.17258,255.60712
"40893",558.43005,78.167694,255.54512
"40894",558.44336,78.16525,255.48541
"40895",558.45667,78.15793,255.42075
"40896",558.47,78.153046,255.35829
"40897",558.4833,78.17502,255.32254
"40898",558.4966,78.3093,255.3998
"40899",558.5099,78.641335,255.67899
"40900",558.5232,79.24681,256.242
"40901",558.5365,80.111084,257.08273
"40902",558.5498,81.1487,258.1238
"40903",558.5631,82.196075,259.2071
"40904",558.5764,83.08476,260.1644
"40905",558.5897,83.69268,260.8687
"40906",558.603,83.99786,261.2893
"40907",558.61633,84.068665,261.48505
"40908",558.62964,83.99542,261.53894
"40909",558.64294,83.86603,261.5344
"40910",558.65625,83.736626,261.52582
"40911",558.66956,83.631645,261.5376
"40912",558.68286,83.543755,261.5632
"40913",558.69617,83.458305,261.5885
"40914",558.7095,83.34844,261.5867
"40915",558.7228,83.194626,261.53754
"40916",558.7361,82.97978,261.42252
"40917",558.7494,82.70634,261.2422
"40918",558.7627,82.38651,261.00693
"40919",558.776,82.05203,260.74704
"40920",558.7893,81.72732,260.48645
"40921",558.8026,81.444115,260.25723
"40922",558.8159,81.20973,260.068
"40923",558.8292,81.01442,259.9105
"40924",558.8425,80.850845,259.77863
"40925",558.85583,80.69947,259.65384
"40926",558.86914,80.54566,259.52188
"40927",558.88245,80.38453,259.3778
"40928",558.89575,80.216064,259.22137
"40929",558.90906,80.042725,259.05478
"40930",558.92236,79.86694,258.88034
"40931",558.93567,79.69848,258.7077
"40932",558.949,79.53979,258.53958
"40933",558.9623,79.39086,258.37628
"40934",558.9756,79.24925,258.21564
"40935",558.9889,79.11986,258.06277
"40936",559.0022,79.00023,257.91565
"40937",559.0155,78.89281,257.77698
"40938",559.0288,78.79271,257.64227
"40939",559.0421,78.70237,257.5142
"40940",559.0554,78.61936,257.39062
"40941",559.0687,78.54368,257.2718
"40942",559.08203,78.470436,257.15305
"40943",559.09534,78.40452,257.03934
"40944",559.10864,78.35081,256.93576
"40945",559.12195,78.29954,256.83295
"40946",559.13525,78.24826,256.72852
"40947",559.14856,78.204315,256.62982
"40948",559.16187,78.16037,256.52975
"40949",559.1752,78.118866,256.43076
"40950",559.1885,78.08469,256.3378
"40951",559.2018,78.06027,256.25354
"40952",559.2151,78.04318,256.17584
"40953",559.2284,78.030975,256.10248
"40954",559.2417,78.01877,256.02875
"40955",559.255,78.00412,255.95218
"40956",559.2683,77.99191,255.8776
"40957",559.2816,77.977264,255.80019
"40958",559.2949,77.962616,255.72232
"40959",559.3082,77.962616,255.65865
"40960",559.32153,78.02121,255.65356
"40961",559.33484,78.22385,255.79436
"40962",559.34814,78.660866,256.17587
"40963",559.36145,79.37377,256.84692
"40964",559.37476,80.32838,257.78195
"40965",559.38806,81.40505,258.8689
"40966",559.40137,82.43046,259.9382
"40967",559.4147,83.250786,260.83447
"40968",559.428,83.78058,261.46585
"40969",559.4413,84.034485,261.8379
"40970",559.4546,84.09064,262.0201
"40971",559.4679,84.04425,262.10156
"40972",559.4812,83.963684,262.14737
"40973",559.4945,83.89288,262.20044
"40974",559.5078,83.83917,262.26837
"40975",559.5211,83.792786,262.34195
"40976",559.5344,83.736626,262.40433
"40977",559.5477,83.64629,262.43076
"40978",559.56104,83.50469,262.4031
"40979",559.57434,83.29717,262.3051
"40980",559.58765,83.02373,262.1347
"40981",559.60095,82.69413,261.8996
"40982",559.61426,82.337685,261.62735
"40983",559.62756,81.98123,261.34396
"40984",559.64087,81.66384,261.0885
"40985",559.6542,81.39529,260.87195
"40986",559.6675,81.17311,260.6934
"40987",559.6808,80.98512,260.54205
"40988",559.6941,80.81911,260.40683
"40989",559.7074,80.65064,260.26398
"40990",559.7207,80.47486,260.10852
"40991",559.734,80.291756,259.94025
"40992",559.7473,80.1062,259.76382
"40993",559.7606,79.923096,259.58405
"40994",559.7739,79.742424,259.40097
"40995",559.78723,79.56664,259.21713
"40996",559.80054,79.40063,259.03757
"40997",559.81384,79.24193,258.86014
"40998",559.82715,79.097885,258.6924
"40999",559.84045,78.96605,258.53238
"41000",559.85376,78.84642,258.38043
"41001",559.86707,78.74143,258.23938
"41002",559.8804,78.643776,258.1024
"41003",559.8937,78.54856,257.96478
"41004",559.907,78.46311,257.83398
"41005",559.9203,78.38499,257.70782
"41006",559.9336,78.32151,257.59387
"41007",559.9469,78.2678,257.4877
"41008",559.9602,78.22385,257.38962
"41009",559.9735,78.18234,257.2926
"41010",559.9868,78.14328,257.19675
"41011",560.0001,78.09689,257.09235
"41012",560.0134,78.048065,256.98404
"41013",560.02673,78.00168,256.87665
"41014",560.04004,77.960175,256.7727
"41015",560.05334,77.92844,256.67722
"41016",560.06665,77.90646,256.5905
"41017",560.07996,77.891815,256.51044
"41018",560.09326,77.88205,256.43478
"41019",560.10657,77.86984,256.35638
"41020",560.1199,77.857635,256.27762
"41021",560.1332,77.84543,256.19846
"41022",560.1465,77.83566,256.12137
"41023",560.1598,77.84543,256.0635
"41024",560.1731,77.93088,256.08163
"41025",560.1864,78.1799,256.266
"41026",560.1997,78.66819,256.6974
"41027",560.213,79.4226,257.4102
"41028",560.2263,80.377205,258.34674
"41029",560.2396,81.39529,259.37662
"41030",560.2529,82.31571,260.34064
"41031",560.26624,83.00664,261.10394
"41032",560.27954,83.424126,261.6154
"41033",560.29285,83.60235,261.9006
"41034",560.30615,83.62676,262.0376
"41035",560.31946,83.58526,262.10944
"41036",560.33276,83.53643,262.17264
"41037",560.34607,83.49981,262.24652
"41038",560.3594,83.47295,262.32904
"41039",560.3727,83.4461,262.4107
"41040",560.386,83.39483,262.46713
"41041",560.3993,83.29473,262.4731
"41042",560.4126,83.13359,262.41495
"41043",560.4259,82.899216,262.2785
"41044",560.4392,82.60136,262.07126
"41045",560.4525,82.262,261.8132
"41046",560.4658,81.91043,261.53232
"41047",560.4791,81.57839,261.25998
"41048",560.49243,81.29519,261.0261
"41049",560.50574,81.06081,260.83218
"41050",560.51904,80.86549,260.67
"41051",560.53235,80.69215,260.5237
"41052",560.54565,80.52369,260.3769
"41053",560.55896,80.35279,260.22235
"41054",560.57227,80.17456,260.05515
"41055",560.5856,79.98413,259.87018
"41056",560.5989,79.79126,259.67682
"41057",560.6122,79.59594,259.47498
"41058",560.6255,79.41039,259.2768
"41059",560.6388,79.23216,259.08014
"41060",560.6521,79.06859,258.89258
"41061",560.6654,78.91478,258.70966
"41062",560.6787,78.77562,258.5366
"41063",560.692,78.643776,258.3665
"41064",560.7053,78.521706,258.20203
"41065",560.7186,78.40452,258.03864
"41066",560.73193,78.294655,257.8789
"41067",560.74524,78.18967,257.7206
"41068",560.75854,78.08713,257.5615
"41069",560.77185,77.99191,257.4065
"41070",560.78516,77.90158,257.25342
"41071",560.79846,77.821014,257.10727
"41072",560.81177,77.747765,256.9659
"41073",560.8251,77.679405,256.82718
"41074",560.8384,77.61349,256.68875
"41075",560.8517,77.54757,256.54825
"41076",560.865,77.488976,256.41302
"41077",560.8783,77.44015,256.28574
"41078",560.8916,77.3962,256.1618
"41079",560.9049,77.36446,256.0487
"41080",560.9182,77.33517,255.93704
"41081",560.9315,77.313194,255.83179
"41082",560.9448,77.29366,255.72829
"41083",560.9581,77.279015,255.62906
"41084",560.97144,77.26925,255.53426
"41085",560.98474,77.26681,255.44647
"41086",560.99805,77.264366,255.35861
"41087",561.01135,77.25948,255.26823
"41088",561.02466,77.25948,255.18259
"41089",561.03796,77.29366,255.13112
"41090",561.0513,77.44015,255.19302
"41091",561.0646,77.79904,255.47192
"41092",561.0779,78.43626,256.04034
"41093",561.0912,79.34203,256.89725
"41094",561.1045,80.413826,257.9485
"41095",561.1178,81.49294,259.04053
"41096",561.1311,82.4036,259.99783
"41097",561.1444,83.035934,260.7053
"41098",561.1577,83.38018,261.1444
"41099",561.171,83.50225,261.3721
"41100",561.1843,83.49493,261.4742
"41101",561.19763,83.4461,261.5346
"41102",561.21094,83.39483,261.59103
"41103",561.22424,83.36309,261.66537
"41104",561.23755,83.33868,261.74606
"41105",561.25085,83.30694,261.81866
"41106",561.26416,83.243454,261.85852
"41107",561.27747,83.12138,261.8378
"41108",561.2908,82.930954,261.7449
"41109",561.3041,82.669716,261.57526
"41110",561.3174,82.34989,261.33887
"41111",561.3307,82.00076,261.06317
"41112",561.344,81.65896,260.7839
"41113",561.3573,81.35378,260.53058
"41114",561.3706,81.09987,260.31897
"41115",561.3839,80.89479,260.14825
"41116",561.3972,80.72144,260.00287
"41117",561.4105,80.56275,259.86673
"41118",561.4238,80.39918,259.72073
"41119",561.43713,80.22827,259.56232
"41120",561.45044,80.04761,259.3888
"41121",561.46375,79.869385,259.21207
"41122",561.47705,79.68627,259.02487
"41123",561.49036,79.51049,258.8393
"41124",561.50366,79.34203,258.65555
"41125",561.51697,79.17601,258.46896
"41126",561.5303,79.01976,258.28696
"41127",561.5436,78.873276,258.10983
"41128",561.5569,78.74143,257.94278
"41129",561.5702,78.6218,257.7838
"41130",561.5835,78.51194,257.6309
"41131",561.5968,78.41184,257.48428
"41132",561.6101,78.31663,257.33945
"41133",561.6234,78.22385,257.19406
"41134",561.6367,78.1384,257.0531
"41135",561.65,78.06027,256.9168
"41136",561.6633,77.98459,256.78052
"41137",561.67664,77.91135,256.6443
"41138",561.68994,77.84543,256.5131
"41139",561.70325,77.78195,256.3823
"41140",561.71655,77.72091,256.25192
"41141",561.72986,77.67208,256.13187
"41142",561.74316,77.63546,256.0225
"41143",561.7565,77.60616,255.9193
"41144",561.7698,77.58663,255.82495
"41145",561.7831,77.574425,255.73732
"41146",561.7964,77.5671,255.65419
"41147",561.8097,77.56222,255.57327
"41148",561.823,77.55978,255.49464
"41149",561.8363,77.55978,255.41838
"41150",561.8496,77.56222,255.34456
"41151",561.8629,77.55489,255.26105
"41152",561.8762,77.54757,255.1773
"41153",561.8895,77.57198,255.12508
"41154",561.90283,77.70138,255.17859
"41155",561.91614,78.03342,255.4388
"41156",561.92944,78.63645,255.98038
"41157",561.94275,79.51049,256.8118
"41158",561.95605,80.56519,257.8512
"41159",561.96936,81.64187,258.94553
"41160",561.98267,82.562294,259.91727
"41161",561.996,83.20683,260.64188
"41162",562.0093,83.55352,261.08878
"41163",562.0226,83.65362,261.29993
"41164",562.0359,83.614555,261.37503
"41165",562.0492,83.51446,261.38788
"41166",562.0625,83.41924,261.4025
"41167",562.0758,83.34844,261.43854
"41168",562.0891,83.29717,261.4919
"41169",562.1024,83.23857,261.53635
"41170",562.1157,83.14336,261.54233
"41171",562.129,82.98955,261.48676
"41172",562.14233,82.76494,261.35556
"41173",562.15564,82.476845,261.15387
"41174",562.16895,82.15457,260.909
"41175",562.18225,81.829865,260.6516
"41176",562.19556,81.53689,260.41583
"41177",562.20886,81.290306,260.2173
"41178",562.22217,81.094986,260.0623
"41179",562.2355,80.94118,259.9427
"41180",562.2488,80.80446,259.8354
"41181",562.2621,80.67017,259.72626
"41182",562.2754,80.52369,259.6007
"41183",562.2887,80.360115,259.4535
"41184",562.302,80.17944,259.2841
"41185",562.3153,79.9939,259.10416
"41186",562.3286,79.81079,258.92087
"41187",562.3419,79.635,258.73917
"41188",562.3552,79.47631,258.56906
"41189",562.3685,79.32983,258.40622
"41190",562.38184,79.1931,258.24854
"41191",562.39514,79.063705,258.09393
"41192",562.40845,78.941635,257.9426
"41193",562.42175,78.82689,257.79477
"41194",562.43506,78.72434,257.65555
"41195",562.44836,78.624245,257.5156
"41196",562.4617,78.536354,257.3847
"41197",562.475,78.45579,257.2584
"41198",562.4883,78.37766,257.13202
"41199",562.5016,78.29954,257.0032
"41200",562.5149,78.23361,256.88412
"41201",562.5282,78.17502,256.77032
"41202",562.5415,78.11398,256.65225
"41203",562.5548,78.05539,256.53473
"41204",562.5681,77.99924,256.41782
"41205",562.5814,77.95041,256.30646
"41206",562.5947,77.90646,256.19846
"41207",562.60803,77.874725,256.1013
"41208",562.62134,77.85031,256.01047
"41209",562.63464,77.83078,255.92375
"41210",562.64795,77.81369,255.83887
"41211",562.66125,77.7966,255.75345
"41212",562.67456,77.77463,255.66261
"41213",562.68787,77.75021,255.56865
"41214",562.7012,77.730675,255.4788
"41215",562.7145,77.75998,255.4372
"41216",562.7278,77.91867,255.52588
"41217",562.7411,78.314186,255.85635
"41218",562.7544,78.99779,256.48727
"41219",562.7677,79.94263,257.4008
"41220",562.781,81.03639,258.49277
"41221",562.7943,82.10574,259.5945
"41222",562.8076,82.97734,260.53192
"41223",562.8209,83.563286,261.2109
"41224",562.8342,83.86359,261.62256
"41225",562.84753,83.95392,261.83362
"41226",562.86084,83.929504,261.93277
"41227",562.87415,83.87579,262.00186
"41228",562.88745,83.82941,262.0766
"41229",562.90076,83.80499,262.17184
"41230",562.91406,83.79767,262.28342
"41231",562.92737,83.7879,262.39233
"41232",562.9407,83.74639,262.4692
"41233",562.954,83.65362,262.4935
"41234",562.9673,83.49004,262.4441
"41235",562.9806,83.245895,262.30902
"41236",562.9939,82.93828,262.10284
"41237",563.0072,82.59647,261.85287
"41238",563.0205,82.24979,261.58734
"41239",563.0338,81.92752,261.3354
"41240",563.0471,81.64919,261.1173
"41241",563.0604,81.41482,260.93448
"41242",563.0737,81.20973,260.77362
"41243",563.08704,81.01198,260.61368
"41244",563.10034,80.816666,260.44998
"41245",563.11365,80.61402,260.27286
"41246",563.12695,80.40406,260.0821
"41247",563.14026,80.19409,259.88477
"41248",563.15356,79.98901,259.68576
"41249",563.1669,79.7937,259.4901
"41250",563.1802,79.603264,259.2932
"41251",563.1935,79.4226,259.10016
"41252",563.2068,79.25414,258.91367
"41253",563.2201,79.09056,258.72678
"41254",563.2334,78.93187,258.53967
"41255",563.2467,78.7805,258.35492
"41256",563.26,78.63645,258.17276
"41257",563.2733,78.50706,258.00076
"41258",563.2866,78.38987,257.8369
"41259",563.2999,78.28977,257.6865
"41260",563.31323,78.204315,257.54758
"41261",563.32654,78.12863,257.41577
"41262",563.33984,78.06027,257.28894
"41263",563.35315,77.994354,257.1624
"41264",563.36646,77.93088,257.03625
"41265",563.37976,77.8674,256.9081
"41266",563.39307,77.806366,256.78043
"41267",563.4064,77.74532,256.65082
"41268",563.4197,77.68917,256.5242
"41269",563.433,77.642784,256.4056
"41270",563.4463,77.608604,256.29776
"41271",563.4596,77.58419,256.1986
"41272",563.4729,77.56466,256.10358
"41273",563.4862,77.55001,256.01282
"41274",563.4995,77.53292,255.91916
"41275",563.5128,77.50851,255.81764
"41276",563.5261,77.47433,255.7056
"41277",563.5394,77.437706,255.59004
"41278",563.55273,77.40353,255.47578
"41279",563.56604,77.38644,255.37755
"41280",563.57935,77.43282,255.34225
"41281",563.59265,77.63302,255.46222
"41282",563.60596,78.082245,255.83748
"41283",563.61926,78.82201,256.5173
"41284",563.63257,79.823,257.48148
"41285",563.6459,80.96559,258.61853
"41286",563.6592,82.07645,259.75955
"41287",563.6725,82.98222,260.73022
"41288",563.6858,83.59014,261.43134
"41289",563.6991,83.912415,261.8658
"41290",563.7124,84.02228,262.09793
"41291",563.7257,84.01984,262.2212
"41292",563.739,83.980774,262.30774
"41293",563.7523,83.949036,262.4004
"41294",563.7656,83.93439,262.50916
"41295",563.77893,83.92218,262.6199
"41296",563.79224,83.897766,262.71805
"41297",563.80554,83.83429,262.77637
"41298",563.81885,83.70733,262.76923
"41299",563.83215,83.50469,262.68243
"41300",563.84546,83.226364,262.51364
"41301",563.85876,82.88701,262.27512
"41302",563.8721,82.51591,261.99423
"41303",563.8854,82.15213,261.70908
"41304",563.8987,81.832306,261.4565
"41305",563.912,81.5613,261.24277
"41306",563.9253,81.341576,261.07184
"41307",563.9386,81.15602,260.92822
"41308",563.9519,80.98268,260.79102
"41309",563.9652,80.80446,260.6435
"41310",563.9785,80.61402,260.4782
"41311",563.9918,80.411385,260.29477
"41312",564.0051,80.198975,260.0952
"41313",564.01843,79.991455,259.89392
"41314",564.03174,79.78638,259.68857
"41315",564.04504,79.59106,259.48657
"41316",564.05835,79.40307,259.2858
"41317",564.07166,79.22972,259.09378
"41318",564.08496,79.06615,258.90613
"41319",564.09827,78.91234,258.72314
"41320",564.1116,78.77318,258.55
"41321",564.1249,78.64866,258.38712
"41322",564.1382,78.52903,258.22525
"41323",564.1515,78.41917,258.06943
"41324",564.1648,78.32151,257.92236
"41325",564.1781,78.23605,257.78445
"41326",564.1914,78.153046,257.64633
"41327",564.2047,78.07736,257.51294
"41328",564.218,78.009,257.3845
"41329",564.2313,77.945526,257.2588
"41330",564.2446,77.88205,257.1311
"41331",564.25793,77.821014,257.00388
"41332",564.27124,77.75998,256.87476
"41333",564.28455,77.70138,256.74615
"41334",564.29785,77.6379,256.61084
"41335",564.31116,77.57931,256.47842
"41336",564.32446,77.53536,256.35883
"41337",564.33777,77.49874,256.24518
"41338",564.3511,77.47433,256.1426
"41339",564.3644,77.46212,256.05148
"41340",564.3777,77.45724,255.96729
"41341",564.391,77.45724,255.88782
"41342",564.4043,77.454796,255.80591
"41343",564.4176,77.454796,255.72636
"41344",564.4309,77.44991,255.64194
"41345",564.4442,77.44747,255.5598
"41346",564.4575,77.47433,255.50688
"41347",564.4708,77.59884,255.55246
"41348",564.48413,77.91379,255.79237
"41349",564.49744,78.49241,256.3058
"41350",564.51074,79.344475,257.11075
"41351",564.52405,80.38453,258.1303
"41352",564.53735,81.461205,259.219
"41353",564.55066,82.406044,260.2095
"41354",564.56396,83.09941,260.97806
"41355",564.5773,83.50225,261.47775
"41356",564.5906,83.67071,261.75565
"41357",564.6039,83.700005,261.89966
"41358",564.6172,83.67315,261.98843
"41359",564.6305,83.63653,262.0666
"41360",564.6438,83.60967,262.15338
"41361",564.6571,83.59014,262.24664
"41362",564.6704,83.563286,262.33197
"41363",564.6837,83.50225,262.3823
"41364",564.697,83.39483,262.3843
"41365",564.7103,83.2166,262.31216
"41366",564.72363,82.967575,262.16367
"41367",564.73694,82.650185,261.93903
"41368",564.75024,82.29374,261.6654
"41369",564.76355,81.92996,261.37332
"41370",564.77686,81.5906,261.09427
"41371",564.79016,81.29519,260.84857
"41372",564.80347,81.0486,260.64246
"41373",564.8168,80.84108,260.4677
"41374",564.8301,80.655525,260.30844
"41375",564.8434,80.47486,260.14825
"41376",564.8567,80.28687,259.9751
"41377",564.87,80.096436,259.79364
"41378",564.8833,79.89868,259.5989
"41379",564.8966,79.691154,259.3882
"41380",564.9099,79.48608,259.1735
"41381",564.9232,79.290764,258.96213
"41382",564.9365,79.10521,258.7544
"41383",564.9498,78.93187,258.5531
"41384",564.96313,78.77074,258.35858
"41385",564.97644,78.61936,258.1688
"41386",564.98975,78.4802,257.98648
"41387",565.00305,78.345924,257.80472
"41388",565.01636,78.22629,257.6334
"41389",565.02966,78.11154,257.46323
"41390",565.04297,78.00656,257.29922
"41391",565.0563,77.91135,257.14172
"41392",565.0696,77.8259,256.991
"41393",565.0829,77.747765,256.8449
"41394",565.0962,77.67696,256.70374
"41395",565.1095,77.61593,256.5701
"41396",565.1228,77.55978,256.43945
"41397",565.1361,77.503624,256.30704
"41398",565.1494,77.44747,256.17288
"41399",565.1627,77.39132,256.03696
"41400",565.176,77.34005,255.90416
"41401",565.18933,77.29122,255.7722
"41402",565.20264,77.2546,255.65092
"41403",565.21594,77.22774,255.53827
"41404",565.22925,77.208206,255.4321
"41405",565.24255,77.19844,255.33508
"41406",565.25586,77.19356,255.24265
"41407",565.26917,77.19112,255.1525
"41408",565.2825,77.19356,255.06715
"41409",565.2958,77.20088,254.98677
"41410",565.3091,77.208206,254.90662
"41411",565.3224,77.21553,254.82669
"41412",565.3357,77.225296,254.74944
"41413",565.349,77.25948,254.69691
"41414",565.3623,77.39376,254.74554
"41415",565.3756,77.72579,254.99612
"41416",565.3889,78.328835,255.52809
"41417",565.4022,79.202866,256.34988
"41418",565.4155,80.272224,257.39432
"41419",565.42883,81.3782,258.5088
"41420",565.44214,82.34257,259.51624
"41421",565.45544,83.038376,260.28525
"41422",565.46875,83.43389,260.77573
"41423",565.48206,83.580376,261.0295
"41424",565.49536,83.580376,261.1414
"41425",565.50867,83.51202,261.1849
"41426",565.522,83.43389,261.21652
"41427",565.5353,83.370415,261.26035
"41428",565.5486,83.32403,261.31927
"41429",565.5619,83.27032,261.36945
"41430",565.5752,83.1873,261.38864
"41431",565.5885,83.06035,261.3613
"41432",565.6018,82.86748,261.26407
"41433",565.6151,82.61112,261.09732
"41434",565.6284,82.30106,260.86887
"41435",565.6417,81.97391,260.61362
"41436",565.655,81.654076,260.35547
"41437",565.66833,81.36599,260.11908
"41438",565.68164,81.13161,259.9274
"41439",565.69495,80.938736,259.7699
"41440",565.70825,80.780045,259.64053
"41441",565.72156,80.635994,259.52087
"41442",565.73486,80.49439,259.39914
"41443",565.74817,80.343025,259.2632
"41444",565.7615,80.177,259.1079
"41445",565.7748,80.00366,258.9401
"41446",565.7881,79.83032,258.76688
"41447",565.8014,79.65942,258.59067
"41448",565.8147,79.49828,258.41888
"41449",565.828,79.34936,258.25427
"41450",565.8413,79.21263,258.0972
"41451",565.8546,79.08812,257.9481
"41452",565.8679,78.97337,257.80484
"41453",565.8812,78.86839,257.6678
"41454",565.89453,78.77074,257.53476
"41455",565.90784,78.6804,257.406
"41456",565.92114,78.59983,257.2842
"41457",565.93445,78.52903,257.16965
"41458",565.94775,78.45823,257.0529
"41459",565.96106,78.38743,256.9339
"41460",565.97437,78.31663,256.8127
"41461",565.9877,78.25315,256.69662
"41462",566.001,78.19455,256.58344
"41463",566.0143,78.14572,256.47818
"41464",566.0276,78.10422,256.37872
"41465",566.0409,78.065155,256.28043
"41466",566.0542,78.028534,256.18335
"41467",566.0675,77.99191,256.0851
"41468",566.0808,77.960175,255.99062
"41469",566.0941,77.93576,255.90245
"41470",566.1074,77.91867,255.82085
"41471",566.1207,77.90402,255.74115
"41472",566.13403,77.89426,255.66588
"41473",566.14734,77.88693,255.59274
"41474",566.16064,77.87717,255.51694
"41475",566.17395,77.86496,255.43839
"41476",566.18726,77.857635,255.36433
"41477",566.20056,77.88449,255.32423
"41478",566.21387,78.01877,255.3924
"41479",566.2272,78.35569,255.6674
"41480",566.2405,78.96361,256.22394
"41481",566.2538,79.84253,257.07047
"41482",566.2671,80.89479,258.1178
"41483",566.2804,81.96414,259.21512
"41484",566.2937,82.88701,260.19937
"41485",566.307,83.546196,260.9488
"41486",566.3203,83.91974,261.43317
"41487",566.3336,84.0589,261.69482
"41488",566.3469,84.0589,261.82166
"41489",566.3602,84.000305,261.8899
"41490",566.37354,83.93683,261.95142
"41491",566.38684,83.888,262.0256
"41492",566.40015,83.85626,262.11536
"41493",566.41345,83.826965,262.20657
"41494",566.42676,83.773254,262.27246
"41495",566.44006,83.67071,262.28784
"41496",566.45337,83.49493,262.22678
"41497",566.4667,83.24101,262.0821
"41498",566.48,82.92119,261.86356
"41499",566.4933,82.55985,261.5935
"41500",566.5066,82.196075,261.30972
"41501",566.5199,81.8616,261.04388
"41502",566.5332,81.57595,260.8164
"41503",566.5465,81.341576,260.6313
"41504",566.5598,81.143814,260.47546
"41505",566.5731,80.96559,260.33298
"41506",566.5864,80.79469,260.19226
"41507",566.59973,80.618904,260.04132
"41508",566.61304,80.430916,259.87268
"41509",566.62634,80.233154,259.6884
"41510",566.63965,80.03052,259.49304
"41511",566.65295,79.82788,259.29135
"41512",566.66626,79.62768,259.08575
"41513",566.67957,79.43481,258.88126
"41514",566.6929,79.2517,258.68048
"41515",566.7062,79.08812,258.4935
"41516",566.7195,78.93675,258.31363
"41517",566.7328,78.802475,258.14612
"41518",566.7461,78.6804,257.9866
"41519",566.7594,78.56809,257.83307
"41520",566.7727,78.46067,257.6809
"41521",566.786,78.35569,257.52783
"41522",566.7993,78.25803,257.37878
"41523",566.8126,78.17258,257.2389
"41524",566.8259,78.09445,257.10367
"41525",566.83923,78.02609,256.97577
"41526",566.85254,77.9675,256.8555
"41527",566.86584,77.91379,256.73828
"41528",566.87915,77.86008,256.6194
"41529",566.89246,77.80881,256.50125
"41530",566.90576,77.7551,256.37906
"41531",566.91907,77.70382,256.25763
"41532",566.9324,77.65499,256.13705
"41533",566.9457,77.61593,256.02472
"41534",566.959,77.58175,255.91603
"41535",566.9723,77.55489,255.8136
"41536",566.9856,77.53536,255.71765
"41537",566.9989,77.51583,255.6211
"41538",567.0122,77.49874,255.52637
"41539",567.0255,77.486534,255.43599
"41540",567.0388,77.47677,255.34767
"41541",567.0521,77.471886,255.26393
"41542",567.0654,77.48165,255.19469
"41543",567.07874,77.56466,255.19899
"41544",567.09204,77.81613,255.37436
"41545",567.10535,78.32395,255.81393
"41546",567.11865,79.12474,256.56235
"41547",567.13196,80.15747,257.56772
"41548",567.14526,81.28542,258.7006
"41549",567.15857,82.32792,259.78326
"41550",567.1719,83.14336,260.67145
"41551",567.1852,83.65606,261.28238
"41552",567.1985,83.90509,261.64566
"41553",567.2118,83.97345,261.83606
"41554",567.2251,83.95636,261.94315
"41555",567.2384,83.9173,262.0277
"41556",567.2517,83.88556,262.11838
"41557",567.265,83.86847,262.22272
"41558",567.2783,83.8587,262.33383
"41559",567.2916,83.82941,262.4251
"41560",567.30493,83.76349,262.47885
"41561",567.31824,83.64141,262.4744
"41562",567.33154,83.45098,262.39777
"41563",567.34485,83.18242,262.23706
"41564",567.35815,82.85527,262.00937
"41565",567.37146,82.48905,261.7324
"41566",567.38477,82.125275,261.4464
"41567",567.3981,81.78836,261.1759
"41568",567.4114,81.49294,260.93637
"41569",567.4247,81.24391,260.734
"41570",567.438,81.03151,260.5605
"41571",567.4513,80.83864,260.39984
"41572",567.4646,80.6482,260.23563
"41573",567.4779,80.45777,260.06546
"41574",567.4912,80.26246,259.88446
"41575",567.5045,80.0647,259.69492
"41576",567.5178,79.8645,259.49673
"41577",567.5311,79.67162,259.29962
"41578",567.54443,79.48608,259.10382
"41579",567.55774,79.30785,258.90955
"41580",567.57104,79.13939,258.71945
"41581",567.58435,78.98314,258.53632
"41582",567.59766,78.839096,258.3605
"41583",567.61096,78.70481,258.18994
"41584",567.62427,78.57786,258.02252
"41585",567.6376,78.45335,257.85358
"41586",567.6509,78.33616,257.68805
"41587",567.6642,78.22629,257.52618
"41588",567.6775,78.12863,257.3731
"41589",567.6908,78.0383,257.2243
"41590",567.7041,77.960175,257.08487
"41591",567.7174,77.88937,256.95032
"41592",567.7307,77.8259,256.8209
"41593",567.744,77.76486,256.69193
"41594",567.7573,77.7087,256.56592
"41595",567.7706,77.662315,256.44794
"41596",567.78394,77.62081,256.33337
"41597",567.79724,77.57931,256.21753
"41598",567.81055,77.54269,256.10526
"41599",567.82385,77.50851,255.99428
"41600",567.83716,77.47433,255.88223
"41601",567.85046,77.44259,255.77156
"41602",567.8638,77.41085,255.6599
"41603",567.8771,77.38644,255.55457
"41604",567.8904,77.36446,255.45091
"41605",567.9037,77.35226,255.35634
"41606",567.917,77.34493,255.26627
"41607",567.9303,77.34005,255.1784
"41608",567.9436,77.33517,255.0904
"41609",567.9569,77.32784,254.99979
"41610",567.9702,77.347374,254.9358
"41611",567.9835,77.45968,254.96521
"41612",567.9968,77.76486,255.19101
"41613",568.01013,78.345924,255.70222
"41614",568.02344,79.217514,256.52213
"41615",568.03674,80.29908,257.57922
"41616",568.05005,81.44167,258.73117
"41617",568.06335,82.4622,259.79675
"41618",568.07666,83.2166,260.6281
"41619",568.08997,83.66338,261.1754
"41620",568.1033,83.84894,261.47546
"41621",568.1166,83.86847,261.61526
"41622",568.1299,83.81232,261.68
"41623",568.1432,83.74151,261.72833
"41624",568.1565,83.69024,261.79398
"41625",568.1698,83.66338,261.88245
"41626",568.1831,83.63897,261.9725
"41627",568.1964,83.595024,262.04227
"41628",568.2097,83.51202,262.0716
"41629",568.223,83.36553,262.03485
"41630",568.2363,83.140915,261.9154
"41631",568.24963,82.845505,261.71814
"41632",568.26294,82.49882,261.4604
"41633",568.27625,82.13748,261.17715
"41634",568.28955,81.795685,260.90216
"41635",568.30286,81.49294,260.65555
"41636",568.31616,81.23903,260.4483
"41637",568.32947,81.024185,260.2722
"41638",568.3428,80.83864,260.11865
"41639",568.3561,80.66529,259.97153
"41640",568.3694,80.49683,259.82385
"41641",568.3827,80.31861,259.66116
"41642",568.396,80.13794,259.49045
"41643",568.4093,79.94995,259.30676
"41644",568.4226,79.74975,259.10498
"41645",568.4359,79.54711,258.89453
"41646",568.4492,79.34692,258.68018
"41647",568.4625,79.15404,258.4669
"41648",568.4758,78.97337,258.2598
"41649",568.48914,78.8098,258.06415
"41650",568.50244,78.66331,257.88046
"41651",568.51575,78.52659,257.70197
"41652",568.52905,78.399635,257.52896
"41653",568.54236,78.277565,257.35687
"41654",568.55566,78.15793,257.1834
"41655",568.569,78.04318,257.0111
"41656",568.5823,77.9382,256.84497
"41657",568.5956,77.84299,256.68533
"41658",568.6089,77.75754,256.53247
"41659",568.6222,77.679405,256.38425
"41660",568.6355,77.60616,256.2385
"41661",568.6488,77.5378,256.09534
"41662",568.6621,77.467,255.94759
"41663",568.6754,77.39864,255.80006
"41664",568.6887,77.33517,255.65529
"41665",568.702,77.27657,255.51341
"41666",568.71533,77.222855,255.37459
"41667",568.72864,77.17647,255.24141
"41668",568.74194,77.137405,255.1141
"41669",568.75525,77.11055,254.99779
"41670",568.76855,77.09834,254.89528
"41671",568.78186,77.09346,254.79971
"41672",568.79517,77.09346,254.70888
"41673",568.8085,77.09346,254.61804
"41674",568.8218,77.09102,254.52477
"41675",568.8351,77.08858,254.43141
"41676",568.8484,77.09102,254.34286
"41677",568.8617,77.0959,254.25684
"41678",568.875,77.10811,254.17828
"41679",568.8883,77.152054,254.13185
"41680",568.9016,77.298546,254.18935
"41681",568.9149,77.65499,254.46136
"41682",568.9282,78.30442,255.0375
"41683",568.9415,79.256584,255.93668
"41684",568.95483,80.42115,257.078
"41685",568.96814,81.62966,258.29968
"41686",568.98145,82.68925,259.4102
"41687",568.99475,83.455864,260.26083
"41688",569.00806,83.88556,260.79852
"41689",569.02136,84.04181,261.0762
"41690",569.03467,84.02228,261.18298
"41691",569.048,83.92706,261.21347
"41692",569.0613,83.82208,261.2312
"41693",569.0746,83.734184,261.26276
"41694",569.0879,83.665825,261.3111
"41695",569.1012,83.60723,261.36707
"41696",569.1145,83.53399,261.40656
"41697",569.1278,83.421684,261.4047
"41698",569.1411,83.245895,261.33585
"41699",569.1544,83.001755,261.19315
"41700",569.1677,82.68925,260.97446
"41701",569.181,82.337685,260.70694
"41702",569.19434,81.97879,260.4211
"41703",569.20764,81.64675,260.1509
"41704",569.22095,81.36111,259.91672
"41705",569.23425,81.12428,259.72244
"41706",569.24756,80.92897,259.56226
"41707",569.26086,80.7483,259.4106
"41708",569.2742,80.57252,259.2582
"41709",569.2875,80.396736,259.1003
"41710",569.3008,80.216064,258.93204
"41711",569.3141,80.028076,258.7508
"41712",569.3274,79.84253,258.56613
"41713",569.3407,79.65942,258.3781
"41714",569.354,79.47875,258.1868
"41715",569.3673,79.30297,257.99472
"41716",569.3806,79.13939,257.80936
"41717",569.3939,78.992905,257.636
"41718",569.4072,78.86107,257.4727
"41719",569.42053,78.73899,257.315
"41720",569.43384,78.62913,257.16574
"41721",569.44714,78.52903,257.0228
"41722",569.46045,78.43626,256.88406
"41723",569.47375,78.35325,256.7522
"41724",569.48706,78.28001,256.6275
"41725",569.50037,78.21408,256.5078
"41726",569.5137,78.150604,256.38852
"41727",569.527,78.082245,256.26236
"41728",569.5403,78.013885,256.13406
"41729",569.5536,77.945526,256.00363
"41730",569.5669,77.88693,255.88083
"41731",569.5802,77.83566,255.76352
"41732",569.5935,77.79172,255.65193
"41733",569.6068,77.75754,255.54874
"41734",569.6201,77.72823,255.44936
"41735",569.6334,77.7087,255.35883
"41736",569.6467,77.69894,255.27745
"41737",569.66003,77.696495,255.2031
"41738",569.67334,77.7087,255.14331
"41739",569.68665,77.72579,255.08879
"41740",569.69995,77.74532,255.03725
"41741",569.71326,77.769745,254.99121
"41742",569.72656,77.79416,254.94592
"41743",569.73987,77.81125,254.89407
"41744",569.7532,77.82834,254.84276
"41745",569.7665,77.87717,254.82372
"41746",569.7798,78.028534,254.90874
"41747",569.7931,78.38499,255.20358
"41748",569.8064,79.0222,255.79033
"41749",569.8197,79.9353,256.67288
"41750",569.833,81.041275,257.77682
"41751",569.8463,82.1741,258.9422
"41752",569.8596,83.14824,259.98428
"41753",569.8729,83.83917,260.7736
"41754",569.8862,84.207825,261.2622
"41755",569.89954,84.315254,261.50113
"41756",569.91284,84.24689,261.56763
"41757",569.92615,84.10773,261.5612
"41758",569.93945,83.9588,261.54062
"41759",569.95276,83.83673,261.54227
"41760",569.96606,83.736626,261.56207
"41761",569.9794,83.648735,261.59094
"41762",569.9927,83.543755,261.59998
"41763",570.006,83.39239,261.55936
"41764",570.0193,83.175095,261.4481
"41765",570.0326,82.9041,261.2763
"41766",570.0459,82.58915,261.05212
"41767",570.0592,82.266884,260.81076
"41768",570.0725,81.96414,260.57886
"41769",570.0858,81.7029,260.379
"41770",570.0991,81.48318,260.2125
"41771",570.1124,81.29763,260.0733
"41772",570.12573,81.13161,259.94785
"41773",570.13904,80.970474,259.82208
"41774",570.15234,80.8069,259.68884
"41775",570.16565,80.63111,259.53827
"41776",570.17896,80.43824,259.3651
"41777",570.19226,80.24048,259.18106
"41778",570.20557,80.03784,258.98593
"41779",570.2189,79.83765,258.78693
"41780",570.2322,79.64721,258.59143
"41781",570.2455,79.47143,258.40463
"41782",570.2588,79.30785,258.22455
"41783",570.2721,79.15404,258.0491
"41784",570.2854,79.01488,257.8835
"41785",570.2987,78.887924,257.72577
"41786",570.312,78.77074,257.57382
"41787",570.3253,78.66575,257.43042
"41788",570.3386,78.572975,257.29596
"41789",570.3519,78.49241,257.1708
"41790",570.36523,78.41917,257.05045
"41791",570.37854,78.35081,256.93268
"41792",570.39185,78.28245,256.81277
"41793",570.40515,78.21408,256.69073
"41794",570.41846,78.14572,256.56656
"41795",570.43176,78.0798,256.4427
"41796",570.44507,78.02121,256.3241
"41797",570.4584,77.96506,256.20612
"41798",570.4717,77.91379,256.09125
"41799",570.485,77.86984,255.9821
"41800",570.4983,77.83322,255.8789
"41801",570.5116,77.806366,255.78433
"41802",570.5249,77.786835,255.69624
"41803",570.5382,77.769745,255.60999
"41804",570.5515,77.7551,255.52563
"41805",570.5648,77.74288,255.44327
"41806",570.5781,77.733116,255.36296
"41807",570.59143,77.72335,255.28235
"41808",570.60474,77.71847,255.20631
"41809",570.61804,77.730675,255.14722
"41810",570.63135,77.79904,255.14467
"41811",570.64465,78.013885,255.29073
"41812",570.65796,78.47776,255.69254
"41813",570.67126,79.234604,256.4018
"41814",570.6846,80.25025,257.39352
"41815",570.6979,81.40505,258.55615
"41816",570.7112,82.52323,259.71823
"41817",570.7245,83.42901,260.70285
"41818",570.7378,84.03204,261.41306
"41819",570.7511,84.334785,261.8418
"41820",570.7644,84.41779,262.06027
"41821",570.7777,84.38117,262.1617
"41822",570.791,84.30305,262.2205
"41823",570.8043,84.23224,262.28415
"41824",570.8176,84.18341,262.36758
"41825",570.83093,84.14923,262.46414
"41826",570.84424,84.11261,262.5572
"41827",570.85754,84.051575,262.62466
"41828",570.87085,83.94415,262.64386
"41829",570.88416,83.775696,262.59866
"41830",570.89746,83.53155,262.4725
"41831",570.91077,83.2166,262.2679
"41832",570.9241,82.86015,262.012
"41833",570.9374,82.493935,261.73517
"41834",570.9507,82.144806,261.464
"41835",570.964,81.83475,261.22095
"41836",570.9773,81.57595,261.0195
"41837",570.9906,81.35378,260.8466
"41838",571.0039,81.15358,260.6887
"41839",571.0172,80.96071,260.53186
"41840",571.0305,80.76784,260.36902
"41841",571.0438,80.57252,260.1977
"41842",571.0571,80.37965,260.0227
"41843",571.07043,80.184326,259.83926
"41844",571.08374,79.98901,259.64972
"41845",571.09705,79.79614,259.4565
"41846",571.11035,79.605705,259.2597
"41847",571.12366,79.41772,259.0594
"41848",571.13696,79.237045,258.8605
"41849",571.15027,79.06859,258.6682
"41850",571.1636,78.9099,258.4804
"41851",571.1769,78.765854,258.3023
"41852",571.1902,78.63401,258.1319
"41853",571.2035,78.521706,257.9769
"41854",571.2168,78.42161,257.8306
"41855",571.2301,78.33372,257.6934
"41856",571.2434,78.25071,257.55832
"41857",571.2567,78.170135,257.42307
"41858",571.27,78.08713,257.28287
"41859",571.2833,78.011444,257.1474
"41860",571.29663,77.93576,257.00958
"41861",571.30994,77.86252,256.87183
"41862",571.32324,77.7966,256.7391
"41863",571.33655,77.74044,256.61407
"41864",571.34985,77.69405,256.49707
"41865",571.36316,77.65743,256.3884
"41866",571.37646,77.628136,256.2859
"41867",571.3898,77.59884,256.18246
"41868",571.4031,77.57198,256.08057
"41869",571.4164,77.54513,255.97783
"41870",571.4297,77.51827,255.87425
"41871",571.443,77.49874,255.77716
"41872",571.4563,77.48165,255.6819
"41873",571.4696,77.467,255.58855
"41874",571.4829,77.45724,255.49962
"41875",571.4962,77.452354,255.41527
"41876",571.5095,77.47677,255.36006
"41877",571.5228,77.593956,255.39839
"41878",571.53613,77.8967,255.62595
"41879",571.54944,78.46555,256.12906
"41880",571.56274,79.31274,256.92828
"41881",571.57605,80.37476,257.96884
"41882",571.58936,81.497826,259.1036
"41883",571.60266,82.511024,260.1636
"41884",571.61597,83.267876,260.99893
"41885",571.6293,83.72442,261.5576
"41886",571.6426,83.92462,261.87418
"41887",571.6559,83.95392,262.02612
"41888",571.6692,83.90997,262.10574
"41889",571.6825,83.85382,262.17178
"41890",571.6958,83.81476,262.25314
"41891",571.7091,83.80011,262.3577
"41892",571.7224,83.790344,262.46667
"41893",571.7357,83.76349,262.55826
"41894",571.749,83.702446,262.61484
"41895",571.7623,83.580376,262.60846
"41896",571.77563,83.37774,262.5177
"41897",571.78894,83.09697,262.3425
"41898",571.80225,82.760056,262.10236
"41899",571.81555,82.39872,261.82727
"41900",571.82886,82.04715,261.55066
"41901",571.84216,81.73464,261.30212
"41902",571.85547,81.47341,261.0951
"41903",571.8688,81.253685,260.92142
"41904",571.8821,81.06081,260.76773
"41905",571.8954,80.87526,260.61533
"41906",571.9087,80.69215,260.45956
"41907",571.922,80.50172,260.29077
"41908",571.9353,80.30152,260.10626
"41909",571.9486,80.093994,259.90817
"41910",571.9619,79.886475,259.70358
"41911",571.9752,79.67895,259.4925
"41912",571.9885,79.47875,259.28226
"41913",572.00183,79.290764,259.07797
"41914",572.01514,79.114975,258.88
"41915",572.02844,78.94652,258.6839
"41916",572.04175,78.79027,258.49472
"41917",572.05505,78.643776,258.31042
"41918",572.06836,78.50706,258.13132
"41919",572.08167,78.37278,257.95038
"41920",572.095,78.24338,257.7701
"41921",572.1083,78.116425,257.58826
"41922",572.1216,77.994354,257.40732
"41923",572.1349,77.88693,257.2372
"41924",572.1482,77.79172,257.07596
"41925",572.1615,77.7087,256.92392
"41926",572.1748,77.63302,256.77664
"41927",572.1881,77.56222,256.63187
"41928",572.2014,77.486534,256.48
"41929",572.2147,77.41085,256.32578
"41930",572.228,77.33517,256.1692
"41931",572.24133,77.26681,256.01755
"41932",572.25464,77.208206,255.87354
"41933",572.26794,77.15938,255.73746
"41934",572.28125,77.117874,255.60718
"41935",572.29456,77.09102,255.49025
"41936",572.30786,77.07393,255.38225
"41937",572.32117,77.06172,255.2786
"41938",572.3345,77.06172,255.18677
"41939",572.3478,77.066605,255.09982
"41940",572.3611,77.07393,255.01547
"41941",572.3744,77.07393,254.92403
"41942",572.3877,77.07149,254.83014
"41943",572.401,77.08125,254.74838
"41944",572.4143,77.16914,254.74506
"41945",572.4276,77.437706,254.92516
"41946",572.4409,77.97482,255.3822
"41947",572.4542,78.80736,256.15146
"41948",572.4675,79.87915,257.18597
"41949",572.48083,81.03883,258.3419
"41950",572.49414,82.11063,259.44614
"41951",572.50745,82.94072,260.3422
"41952",572.52075,83.46319,260.95657
"41953",572.53406,83.71221,261.3138
"41954",572.54736,83.77081,261.48843
"41955",572.56067,83.73907,261.57452
"41956",572.574,83.685356,261.63766
"41957",572.5873,83.64629,261.71378
"41958",572.6006,83.62432,261.80576
"41959",572.6139,83.612114,261.9068
"41960",572.6272,83.5877,261.99527
"41961",572.6405,83.52422,262.0439
"41962",572.6538,83.39727,262.0271
"41963",572.6671,83.18974,261.92575
"41964",572.6804,82.90898,261.74466
"41965",572.6937,82.57694,261.50354
"41966",572.70703,82.22293,261.23007
"41967",572.72034,81.8909,260.9675
"41968",572.73364,81.60769,260.74338
"41969",572.74695,81.373314,260.55923
"41970",572.76025,81.17799,260.40683
"41971",572.77356,81.007095,260.27274
"41972",572.78687,80.83864,260.13574
"41973",572.8002,80.66285,259.98618
"41974",572.8135,80.47242,259.81647
"41975",572.8268,80.274666,259.63348
"41976",572.8401,80.07446,259.44186
"41977",572.8534,79.87671,259.24643
"41978",572.8667,79.68139,259.04724
"41979",572.88,79.49584,258.85175
"41980",572.8933,79.32006,258.66022
"41981",572.9066,79.151596,258.4705
"41982",572.9199,78.995346,258.28772
"41983",572.9332,78.856186,258.11716
"41984",572.94653,78.729225,257.95444
"41985",572.95984,78.6096,257.7951
"41986",572.97314,78.49973,257.64178
"41987",572.98645,78.39231,257.4875
"41988",572.99976,78.28977,257.33472
"41989",573.01306,78.19211,257.1836
"41990",573.02637,78.101776,257.03677
"41991",573.0397,78.02121,256.89688
"41992",573.053,77.95041,256.76425
"41993",573.0663,77.88693,256.63672
"41994",573.0796,77.8259,256.50964
"41995",573.0929,77.769745,256.38556
"41996",573.1062,77.71847,256.2646
"41997",573.1195,77.66964,256.14447
"41998",573.1328,77.628136,256.03015
"41999",573.1461,77.59884,255.92673
"42000",573.1594,77.576866,255.82971
"42001",573.1727,77.55978,255.7369
"42002",573.18604,77.55001,255.65086
"42003",573.19934,77.55001,255.5743
"42004",573.21265,77.55001,255.49773
"42005",573.22595,77.55245,255.4236
"42006",573.23926,77.557335,255.35199
"42007",573.25256,77.557335,255.27565
"42008",573.26587,77.56222,255.2042
"42009",573.2792,77.608604,255.1744
"42010",573.2925,77.77951,255.27057
"42011",573.3058,78.170135,255.5918
"42012",573.3191,78.84398,256.20847
"42013",573.3324,79.781494,257.10986
"42014",573.3457,80.87526,258.1968
"42015",573.359,81.969025,259.31793
"42016",573.3723,82.88945,260.2999
"42017",573.3856,83.529106,261.02985
"42018",573.3989,83.88312,261.49414
"42019",573.41223,84.01495,261.7473
"42020",573.42554,84.01495,261.87277
"42021",573.43884,83.96124,261.94452
"42022",573.45215,83.90997,262.01703
"42023",573.46545,83.87091,262.10016
"42024",573.47876,83.83673,262.18695
"42025",573.49207,83.79523,262.26535
"42026",573.5054,83.717094,262.30582
"42027",573.5187,83.58526,262.29013
"42028",573.532,83.37774,262.19464
"42029",573.5453,83.09941,262.02188
"42030",573.5586,82.76738,261.7867
"42031",573.5719,82.42069,261.52652
"42032",573.5852,82.091095,261.27258
"42033",573.5985,81.80789,261.05472
"42034",573.6118,81.58083,260.88416
"42035",573.6251,81.39529,260.74802
"42036",573.6384,81.23659,260.63293
"42037",573.65173,81.075455,260.51044
"42038",573.66504,80.902115,260.3707
"42039",573.67834,80.71656,260.21335
"42040",573.69165,80.51881,260.038
"42041",573.70496,80.31129,259.84668
"42042",573.71826,80.096436,259.64157
"42043",573.73157,79.88159,259.42975
"42044",573.7449,79.676506,259.22095
"42045",573.7582,79.483635,259.01797
"42046",573.7715,79.30785,258.82605
"42047",573.7848,79.14671,258.64328
"42048",573.7981,78.995346,258.46524
"42049",573.8114,78.856186,258.29468
"42050",573.8247,78.72434,258.12708
"42051",573.838,78.60227,257.96515
"42052",573.8513,78.49241,257.8116
"42053",573.8646,78.38743,257.65952
"42054",573.8779,78.28977,257.51147
"42055",573.89124,78.19943,257.36768
"42056",573.90454,78.11398,257.22595
"42057",573.91785,78.03342,257.08646
"42058",573.93115,77.95773,256.9493
"42059",573.94446,77.88937,256.81714
"42060",573.95776,77.82834,256.69016
"42061",573.97107,77.769745,256.5637
"42062",573.9844,77.71847,256.44272
"42063",573.9977,77.67696,256.32993
"42064",574.011,77.6379,256.21826
"42065",574.0243,77.59884,256.10538
"42066",574.0376,77.56954,256.00104
"42067",574.0509,77.55001,255.90555
"42068",574.0642,77.53292,255.81189
"42069",574.0775,77.523155,255.72502
"42070",574.0908,77.51339,255.63785
"42071",574.1041,77.506065,255.55281
"42072",574.11743,77.4963,255.4651
"42073",574.13074,77.49386,255.38441
"42074",574.14404,77.53536,255.3476
"42075",574.15735,77.70138,255.43658
"42076",574.17065,78.08957,255.75294
"42077",574.18396,78.76341,256.3671
"42078",574.19727,79.71557,257.2806
"42079",574.2106,80.850845,258.40698
"42080",574.2239,82.01053,259.59326
"42081",574.2372,83.01152,260.65707
"42082",574.2505,83.736626,261.4763
"42083",574.2638,84.1712,262.02765
"42084",574.2771,84.37141,262.35822
"42085",574.2904,84.420235,262.54364
"42086",574.3037,84.40559,262.6671
"42087",574.317,84.3885,262.7877
"42088",574.3303,84.386055,262.9224
"42089",574.3436,84.39826,263.07166
"42090",574.35693,84.40559,263.21643
"42091",574.37024,84.386055,263.33456
"42092",574.38354,84.31037,263.39594
"42093",574.39685,84.159,263.37927
"42094",574.41016,83.9173,263.26755
"42095",574.42346,83.60235,263.075
"42096",574.43677,83.23613,262.82138
"42097",574.4501,82.847946,262.53433
"42098",574.4634,82.46708,262.24246
"42099",574.4767,82.127716,261.9802
"42100",574.49,81.832306,261.75128
"42101",574.5033,81.583275,261.5595
"42102",574.5166,81.36355,261.38925
"42103",574.5299,81.15358,261.2219
"42104",574.5432,80.94606,261.0504
"42105",574.5565,80.73121,260.86514
"42106",574.5698,80.50904,260.66583
"42107",574.5831,80.27955,260.45224
"42108",574.59644,80.05493,260.23636
"42109",574.60974,79.83276,260.0159
"42110",574.62305,79.61791,259.79584
"42111",574.63635,79.41039,259.5764
"42112",574.64966,79.21507,259.36264
"42113",574.66296,79.029526,259.15256
"42114",574.6763,78.853745,258.94644
"42115",574.6896,78.692604,258.74948
"42116",574.7029,78.54368,258.5597
"42117",574.7162,78.40452,258.37503
"42118",574.7295,78.277565,258.1982
"42119",574.7428,78.16037,258.0272
"42120",574.7561,78.048065,257.8574
"42121",574.7694,77.943085,257.6914
"42122",574.7827,77.84299,257.52704
"42123",574.796,77.747765,257.3644
"42124",574.8093,77.65743,257.2037
"42125",574.82263,77.56954,257.0426
"42126",574.83594,77.486534,256.88364
"42127",574.84924,77.41085,256.7294
"42128",574.86255,77.34005,256.5777
"42129",574.87585,77.27657,256.4311
"42130",574.88916,77.225296,256.2947
"42131",574.90247,77.18623,256.16895
"42132",574.9158,77.154495,256.0493
"42133",574.9291,77.1252,255.93106
"42134",574.9424,77.100784,255.8168
"42135",574.9557,77.08125,255.70667
"42136",574.969,77.066605,255.6008
"42137",574.9823,77.05684,255.49936
"42138",574.9956,77.04707,255.39761
"42139",575.0089,77.03487,255.29312
"42140",575.0222,77.032425,255.19801
"42141",575.0355,77.08125,255.1541
"42142",575.0488,77.27413,255.25577
"42143",575.06213,77.7087,255.60515
"42144",575.07544,78.43626,256.2611
"42145",575.08875,79.43481,257.2108
"42146",575.10205,80.59205,258.35037
"42147",575.11536,81.73464,259.51147
"42148",575.12866,82.684364,260.5154
"42149",575.14197,83.34844,261.26337
"42150",575.1553,83.72198,261.74155
"42151",575.1686,83.87579,262.0117
"42152",575.1819,83.90021,262.15723
"42153",575.1952,83.88068,262.25958
"42154",575.2085,83.86359,262.36377
"42155",575.2218,83.86603,262.48694
"42156",575.2351,83.87335,262.61508
"42157",575.2484,83.87091,262.73367
"42158",575.2617,83.83185,262.81558
"42159",575.275,83.736626,262.84012
"42160",575.2883,83.56573,262.78598
"42161",575.30164,83.319145,262.65082
"42162",575.31494,83.001755,262.43716
"42163",575.32825,82.64042,262.16965
"42164",575.34155,82.266884,261.87863
"42165",575.35486,81.91531,261.5979
"42166",575.36816,81.60525,261.3477
"42167",575.3815,81.341576,261.1342
"42168",575.3948,81.11452,260.94907
"42169",575.4081,80.90456,260.77393
"42170",575.4214,80.70191,260.59955
"42171",575.4347,80.48951,260.4091
"42172",575.448,80.26978,260.20465
"42173",575.4613,80.04028,259.98358
"42174",575.4746,79.80835,259.7529
"42175",575.4879,79.57641,259.51495
"42176",575.5012,79.3518,259.2771
"42177",575.5145,79.132065,259.0371
"42178",575.52783,78.924545,258.80246
"42179",575.54114,78.73655,258.58084
"42180",575.55444,78.56321,258.368
"42181",575.56775,78.399635,258.15955
"42182",575.58105,78.24338,257.95328
"42183",575.59436,78.08957,257.74457
"42184",575.60767,77.94064,257.53595
"42185",575.621,77.7966,257.32755
"42186",575.6343,77.6672,257.12927
"42187",575.6476,77.557335,256.9465
"42188",575.6609,77.45968,256.77252
"42189",575.6742,77.37179,256.60526
"42190",575.6875,77.2839,256.43524
"42191",575.7008,77.19356,256.26
"42192",575.7141,77.10811,256.08685
"42193",575.7274,77.02998,255.91835
"42194",575.7407,76.961624,255.75717
"42195",575.754,76.90059,255.60118
"42196",575.76733,76.84444,255.44817
"42197",575.78064,76.79561,255.30072
"42198",575.79395,76.756546,255.16151
"42199",575.80725,76.72724,255.03085
"42200",575.82056,76.70771,254.90904
"42201",575.83386,76.697945,254.79639
"42202",575.84717,76.69062,254.68587
"42203",575.8605,76.680855,254.57268
"42204",575.8738,76.66865,254.45674
"42205",575.8871,76.64912,254.3331
"42206",575.9004,76.63691,254.21617
"42207",575.9137,76.663765,254.13792
"42208",575.927,76.807816,254.17772
"42209",575.9403,77.171585,254.44173
"42210",575.9536,77.838104,255.01985
"42211",575.9669,78.8098,255.92398
"42212",575.9802,79.9939,257.0709
"42213",575.9935,81.22682,258.30362
"42214",576.00684,82.320595,259.43573
"42215",576.02014,83.13603,260.3237
"42216",576.03345,83.631645,260.91733
"42217",576.04675,83.8587,261.25787
"42218",576.06006,83.914856,261.4346
"42219",576.07336,83.89288,261.53497
"42220",576.0867,83.85382,261.61755
"42221",576.1,83.826965,261.71112
"42222",576.1133,83.81232,261.81607
"42223",576.1266,83.80011,261.923
"42224",576.1399,83.758606,262.00024
"42225",576.1532,83.67071,262.02982
"42226",576.1665,83.51202,261.98584
"42227",576.1798,83.27764,261.8612
"42228",576.1931,82.97246,261.65845
"42229",576.2064,82.62089,261.39978
"42230",576.2197,82.25712,261.11792
"42231",576.23303,81.91531,260.84665
"42232",576.24634,81.619896,260.61108
"42233",576.25964,81.373314,260.41513
"42234",576.27295,81.17311,260.25784
"42235",576.28625,80.99245,260.11383
"42236",576.29956,80.81911,259.9715
"42237",576.31287,80.64088,259.81888
"42238",576.3262,80.45289,259.6509
"42239",576.3395,80.25025,259.46243
"42240",576.3528,80.04028,259.26028
"42241",576.3661,79.82788,259.04913
"42242",576.3794,79.61547,258.83136
"42243",576.3927,79.41039,258.61426
"42244",576.406,79.21507,258.4005
"42245",576.4193,79.03929,258.2002
"42246",576.4326,78.8806,258.01147
"42247",576.4459,78.73167,257.82755
"42248",576.4592,78.59983,257.65607
"42249",576.47253,78.48264,257.49512
"42250",576.48584,78.37522,257.34027
"42251",576.49915,78.27268,257.18695
"42252",576.51245,78.1799,257.0402
"42253",576.52576,78.099335,256.90274
"42254",576.53906,78.02365,256.76767
"42255",576.55237,77.95285,256.6351
"42256",576.5657,77.88693,256.50522
"42257",576.579,77.821014,256.37326
"42258",576.5923,77.75754,256.2417
"42259",576.6056,77.696495,256.11057
"42260",576.6189,77.64767,255.98975
"42261",576.6322,77.60616,255.87473
"42262",576.6455,77.574425,255.76817
