"","Time..s.","PPG.trace","Preprocessed.PPG"
"39087",521.41046,101.402916,176.30553
"39088",521.42377,97.2256,172.79706
"39089",521.4371,93.19234,169.3021
"39090",521.4504,89.45205,165.97406
"39091",521.4637,86.10971,162.9271
"39092",521.477,83.24101,160.24933
"39093",521.4903,80.92653,158.03613
"39094",521.5036,79.26391,156.40247
"39095",521.5169,78.35569,155.47124
"39096",521.5302,78.25559,155.31975
"39097",521.5435,78.92699,155.93663
"39098",521.5568,80.20386,157.17996
"39099",521.5701,81.8201,158.80258
"39100",521.58344,83.46075,160.5001
"39101",521.59674,84.8304,161.9779
"39102",521.61005,85.711754,163.01021
"39103",521.62335,85.99252,163.46947
"39104",521.63666,85.643394,163.3076
"39105",521.64996,84.72297,162.56354
"39106",521.66327,83.336235,161.3244
"39107",521.6766,81.61501,159.70744
"39108",521.6899,79.68139,157.8243
"39109",521.7032,77.65255,155.78549
"39110",521.7165,75.62371,153.68329
"39111",521.7298,73.673,151.59581
"39112",521.7431,71.86145,149.58655
"39113",521.7564,70.23544,147.7062
"39114",521.7697,68.82918,145.9948
"39115",521.783,67.65484,144.47137
"39116",521.7963,66.71488,143.14563
"39117",521.80963,65.9971,142.0127
"39118",521.82294,65.4844,141.06241
"39119",521.83624,65.15968,140.28409
"39120",521.84955,65.00343,139.66408
"39121",521.86285,64.99123,139.18323
"39122",521.87616,65.10353,138.8265
"39123",521.88947,65.31838,138.57584
"39124",521.9028,65.61135,138.41
"39125",521.9161,65.95804,138.30705
"39126",521.9294,66.34379,138.254
"39127",521.9427,66.75395,138.23741
"39128",521.956,67.17143,138.24095
"39129",521.9693,67.58404,138.25267
"39130",521.9826,67.97711,138.25775
"39131",521.9959,68.33112,138.23605
"39132",522.0092,68.61921,138.15948
"39133",522.0225,68.82918,138.01381
"39134",522.0358,68.94148,137.77702
"39135",522.04913,68.95369,137.44365
"39136",522.06244,68.88045,137.0252
"39137",522.07574,68.82674,136.62401
"39138",522.08905,69.09285,136.54095
"39139",522.10236,70.28916,137.39642
"39140",522.11566,73.179825,139.98363
"39141",522.12897,78.2971,144.88777
"39142",522.1423,85.54574,152.08319
"39143",522.1556,94.14206,160.85281
"39144",522.1689,102.79454,169.94724
"39145",522.1822,110.12619,177.99121
"39146",522.1955,115.140915,183.94739
"39147",522.2088,117.53109,187.43571
"39148",522.2221,117.60189,188.67937
"39149",522.2354,115.92706,188.1796
"39150",522.2487,113.08522,186.46048
"39151",522.262,109.51827,183.92744
"39152",522.2753,105.58755,180.91916
"39153",522.28864,101.5787,177.70992
"39154",522.30194,97.7261,174.53165
"39155",522.31525,94.203094,171.56259
"39156",522.32855,91.11955,168.9229
"39157",522.34186,88.516975,166.6678
"39158",522.35516,86.39292,164.8099
"39159",522.36847,84.74006,163.35683
"39160",522.3818,83.560844,162.32574
"39161",522.3951,82.87236,161.74854
"39162",522.4084,82.6746,161.64053
"39163",522.4217,82.90898,161.9585
"39164",522.435,83.455864,162.59628
"39165",522.4483,84.137024,163.38544
"39166",522.4616,84.754715,164.13242
"39167",522.4749,85.1429,164.66919
"39168",522.4882,85.17952,164.86653
"39169",522.5015,84.805984,164.65486
"39170",522.51483,84.01007,164.00914
"39171",522.52814,82.83086,162.95525
"39172",522.54144,81.33425,161.5471
"39173",522.55475,79.60815,159.8627
"39174",522.56805,77.747765,157.99007
"39175",522.58136,75.83856,156.01048
"39176",522.59467,73.95865,154.00052
"39177",522.608,72.16907,152.02214
"39178",522.6213,70.52598,150.13434
"39179",522.6346,69.05379,148.36609
"39180",522.6479,67.774475,146.7447
"39181",522.6612,66.69535,145.28354
"39182",522.6745,65.82864,144.00107
"39183",522.6878,65.164566,142.89413
"39184",522.7011,64.69825,141.9642
"39185",522.7144,64.41749,141.20526
"39186",522.7277,64.3003,140.60112
"39187",522.741,64.324715,140.13492
"39188",522.75433,64.46143,139.78178
"39189",522.76764,64.6836,139.51837
"39190",522.78094,64.96925,139.32538
"39191",522.79425,65.29397,139.18039
"39192",522.80756,65.64065,139.0675
"39193",522.82086,65.9971,138.97523
"39194",522.83417,66.34379,138.88434
"39195",522.8475,66.67094,138.78473
"39196",522.8608,66.97612,138.67339
"39197",522.8741,67.25689,138.54716
"39198",522.8874,67.50591,138.39796
"39199",522.9007,67.7232,138.22481
"39200",522.914,67.90631,138.02428
"39201",522.9273,68.052795,137.79283
"39202",522.9406,68.14801,137.5147
"39203",522.9539,68.18463,137.18094
"39204",522.9672,68.15289,136.77997
"39205",522.9805,68.052795,136.30965
"39206",522.99384,67.90875,135.79225
"39207",523.00714,67.85016,135.3558
"39208",523.02045,68.25544,135.38141
"39209",523.03375,69.822845,136.5818
"39210",523.04706,73.32876,139.76968
"39211",523.06036,79.20775,145.4402
"39212",523.07367,87.19615,153.40384
"39213",523.087,96.31251,162.74507
"39214",523.1003,105.14076,172.0831
"39215",523.1136,112.30152,180.02951
"39216",523.1269,116.90608,185.6435
"39217",523.1402,118.81773,188.70847
"39218",523.1535,118.46616,189.56995
"39219",523.1668,116.48127,188.78712
"39220",523.1801,113.4197,186.8656
"39221",523.1934,109.72335,184.21362
"39222",523.2067,105.73647,181.1556
"39223",523.22003,101.74227,177.96565
"39224",523.23334,97.967804,174.87064
"39225",523.24664,94.588844,172.05316
"39226",523.25995,91.69573,169.61595
"39227",523.27325,89.31045,167.59616
"39228",523.28656,87.41833,165.995
"39229",523.29987,85.99252,164.80101
"39230",523.3132,85.013504,164.00926
"39231",523.3265,84.46906,163.62149
"39232",523.3398,84.3299,163.622
"39233",523.3531,84.52277,163.95018
"39234",523.3664,84.92561,164.49435
"39235",523.3797,85.37972,165.10239
"39236",523.393,85.72396,165.61475
"39237",523.4063,85.82651,165.89616
"39238",523.4196,85.59945,165.85118
"39239",523.4329,85.0013,165.42801
"39240",523.4462,84.034485,164.6175
"39241",523.45953,82.738075,163.44716
"39242",523.47284,81.17555,161.9702
"39243",523.48615,79.42748,160.25887
"39244",523.49945,77.576866,158.39035
"39245",523.51276,75.70672,156.44447
"39246",523.52606,73.88785,154.49144
"39247",523.53937,72.17639,152.58897
"39248",523.5527,70.61387,150.78197
"39249",523.566,69.23201,149.1068
"39250",523.5793,68.04791,147.5862
"39251",523.5926,67.06889,146.23367
"39252",523.6059,66.29252,145.0532
"39253",523.6192,65.71145,144.04378
"39254",523.6325,65.31838,143.2042
"39255",523.6458,65.09621,142.52322
"39256",523.6591,65.025406,141.98668
"39257",523.6724,65.084,141.57732
"39258",523.6857,65.254906,141.2821
"39259",523.69904,65.51125,141.07767
"39260",523.71234,65.82376,140.93741
"39261",523.72565,66.17532,140.84596
"39262",523.73895,66.54398,140.78261
"39263",523.75226,66.90288,140.72101
"39264",523.76556,67.23003,140.63887
"39265",523.7789,67.510796,140.52058
"39266",523.7922,67.74273,140.36223
"39267",523.8055,67.92096,140.15742
"39268",523.8188,68.05524,139.91423
"39269",523.8321,68.155334,139.64105
"39270",523.8454,68.2359,139.35147
"39271",523.8587,68.299385,139.04733
"39272",523.872,68.34821,138.73051
"39273",523.8853,68.3946,138.41278
"39274",523.8986,68.4239,138.0794
"39275",523.9119,68.436104,137.72986
"39276",523.92523,68.4239,137.35628
"39277",523.93854,68.38239,136.95302
"39278",523.95184,68.30427,136.51184
"39279",523.96515,68.189514,136.0316
"39280",523.97845,68.069885,135.5429
"39281",523.99176,68.14313,135.24332
"39282",524.00507,68.909744,135.6394
"39283",524.0184,71.13878,137.52187
"39284",524.0317,75.53094,141.63712
"39285",524.045,82.27909,148.2456
"39286",524.0583,90.829025,156.86676
"39287",524.0716,99.97711,166.35326
"39288",524.0849,108.263374,175.26381
"39289",524.0982,114.442665,182.32632
"39290",524.1115,117.91928,186.87927
"39291",524.1248,118.81529,188.96027
"39292",524.1381,117.67513,189.03308
"39293",524.1514,115.123825,187.65912
"39294",524.16473,111.68139,185.3143
"39295",524.17804,107.74822,182.37119
"39296",524.19135,103.6466,179.13669
"39297",524.20465,99.63775,175.86679
"39298",524.21796,95.91455,172.75728
"39299",524.23126,92.62348,169.96353
"39300",524.24457,89.82559,167.56012
"39301",524.2579,87.5404,165.58197
"39302",524.2712,85.78012,164.05733
"39303",524.2845,84.56184,163.01967
"39304",524.2978,83.895325,162.49571
"39305",524.3111,83.78058,162.5027
"39306",524.3244,84.156555,162.99683
"39307",524.3377,84.88899,163.85916
"39308",524.351,85.785,164.90796
"39309",524.3643,86.6395,165.94324
"39310",524.3776,87.259636,166.77086
"39311",524.3909,87.50866,167.24675
"39312",524.40424,87.308464,167.2812
"39313",524.41754,86.6395,166.84064
"39314",524.43085,85.53109,165.93971
"39315",524.44415,84.0589,164.64037
"39316",524.45746,82.31815,163.02646
"39317",524.47076,80.413826,161.19458
"39318",524.4841,78.450905,159.2446
"39319",524.4974,76.5124,157.25768
"39320",524.5107,74.66178,155.29807
"39321",524.524,72.9601,153.42957
"39322",524.5373,71.44152,151.691
"39323",524.5506,70.132904,150.11493
"39324",524.5639,69.05867,148.73235
"39325",524.5772,68.22125,147.55301
"39326",524.5905,67.615776,146.57945
"39327",524.6038,67.23491,145.81158
"39328",524.6171,67.0518,145.22957
"39329",524.63043,67.04204,144.81517
"39330",524.64374,67.176315,144.54451
"39331",524.65704,67.41558,144.38304
"39332",524.67035,67.72564,144.29984
"39333",524.68365,68.07233,144.26295
"39334",524.69696,68.42634,144.24423
"39335",524.71027,68.76082,144.21704
"39336",524.7236,69.065994,144.17099
"39337",524.7369,69.332115,144.09543
"39338",524.7502,69.559166,143.9891
"39339",524.7635,69.75693,143.8606
"39340",524.7768,69.93027,143.71384
"39341",524.7901,70.081635,143.55052
"39342",524.8034,70.20859,143.36752
"39343",524.8167,70.296486,143.14944
"39344",524.83,70.33555,142.88527
"39345",524.8433,70.30869,142.5564
"39346",524.8566,70.20615,142.151
"39347",524.86993,70.0206,141.6594
"39348",524.88324,69.747154,141.0741
"39349",524.89655,69.417564,140.4241
"39350",524.90985,69.153885,139.82973
"39351",524.92316,69.30526,139.64217
"39352",524.93646,70.484474,140.48717
"39353",524.94977,73.37759,143.08292
"39354",524.9631,78.345924,147.8443
"39355",524.9764,85.14778,154.59447
"39356",524.9897,92.93355,162.5411
"39357",525.003,100.47761,170.48933
"39358",525.0163,106.58854,177.24019
"39359",525.0296,110.502174,181.98471
"39360",525.0429,112.08179,184.51752
"39361",525.0562,111.67895,185.11723
"39362",525.0695,109.803925,184.23218
"39363",525.0828,106.93523,182.29486
"39364",525.0961,103.45617,179.65753
"39365",525.10944,99.684135,176.6185
"39366",525.12274,95.870605,173.4201
"39367",525.13605,92.22064,170.2661
"39368",525.14935,88.885635,167.31299
"39369",525.16266,85.94125,164.64629
"39370",525.17596,83.438774,162.32947
"39371",525.1893,81.43435,160.43251
"39372",525.2026,80.0061,159.04909
"39373",525.2159,79.23216,158.27533
"39374",525.2292,79.15404,158.1732
"39375",525.2425,79.725334,158.71806
"39376",525.2558,80.799576,159.78372
"39377",525.2691,82.125275,161.13441
"39378",525.2824,83.42901,162.50456
"39379",525.2957,84.46174,163.64445
"39380",525.309,85.05501,164.37715
"39381",525.3223,85.12581,164.60593
"39382",525.33563,84.66682,164.30711
"39383",525.34894,83.73174,163.51788
"39384",525.36224,82.406044,162.3088
"39385",525.37555,80.799576,160.77753
"39386",525.38885,79.01488,159.01782
"39387",525.40216,77.14961,157.12177
"39388",525.41547,75.29412,155.1772
"39389",525.4288,73.52407,153.26009
"39390",525.4421,71.89807,151.43172
"39391",525.4554,70.46006,149.74052
"39392",525.4687,69.23689,148.21924
"39393",525.482,68.243225,146.88922
"39394",525.4953,67.47173,145.75034
"39395",525.5086,66.91753,144.80463
"39396",525.5219,66.563515,144.0418
"39397",525.5352,66.38773,143.44612
"39398",525.5485,66.36576,142.99876
"39399",525.5618,66.47318,142.68011
"39400",525.57513,66.6807,142.46492
"39401",525.58844,66.966354,142.33435
"39402",525.60175,67.30572,142.26642
"39403",525.61505,67.67193,142.23593
"39404",525.62836,68.04547,142.22423
"39405",525.64166,68.41169,142.21687
"39406",525.65497,68.75838,142.20143
"39407",525.6683,69.07576,142.16751
"39408",525.6816,69.35897,142.10934
"39409",525.6949,69.61776,142.0356
"39410",525.7082,69.84482,141.93822
"39411",525.7215,70.03769,141.81374
"39412",525.7348,70.18173,141.64645
"39413",525.7481,70.26475,141.42265
"39414",525.7614,70.26963,141.1233
"39415",525.7747,70.1915,140.7411
"39416",525.788,70.02792,140.27101
"39417",525.80133,69.81064,139.7421
"39418",525.81464,69.65682,139.26987
"39419",525.82794,69.910736,139.20056
"39420",525.84125,71.21202,140.18655
"39421",525.85455,74.29801,142.99792
"39422",525.86786,79.56664,148.08836
"39423",525.88116,86.76158,155.26976
"39424",525.8945,94.98192,163.7014
"39425",525.9078,102.94591,172.13358
"39426",525.9211,109.383995,179.28873
"39427",525.9344,113.49294,184.31592
"39428",525.9477,115.15556,187.02519
"39429",525.961,114.76494,187.73318
"39430",525.9743,112.885025,186.93967
"39431",525.9876,110.02609,185.1084
"39432",526.0009,106.61295,182.63358
"39433",526.0142,102.98009,179.83237
"39434",526.0275,99.41802,176.98843
"39435",526.04083,96.148926,174.32616
"39436",526.05414,93.33395,172.01584
"39437",526.06744,91.03166,170.13023
"39438",526.08075,89.22011,168.66342
"39439",526.09406,87.818726,167.55017
"39440",526.10736,86.74204,166.71782
"39441",526.12067,85.91928,166.10574
"39442",526.134,85.316246,165.68768
"39443",526.1473,84.9305,165.46806
"39444",526.1606,84.74738,165.43903
"39445",526.1739,84.71076,165.55077
"39446",526.1872,84.74006,165.72728
"39447",526.2005,84.732735,165.86809
"39448",526.2138,84.59846,165.88171
"39449",526.2271,84.26154,165.6885
"39450",526.2404,83.67803,165.23817
"39451",526.2537,82.82597,164.50105
"39452",526.267,81.722435,163.48582
"39453",526.28033,80.411385,162.2286
"39454",526.29364,78.95628,160.78636
"39455",526.30695,77.43038,159.22784
"39456",526.32025,75.894714,157.61188
"39457",526.33356,74.40543,155.99431
"39458",526.34686,73.006485,154.42053
"39459",526.36017,71.71984,152.91534
"39460",526.3735,70.57969,151.51643
"39461",526.3868,69.60311,150.24547
"39462",526.4001,68.80476,149.12222
"39463",526.4134,68.18463,148.15224
"39464",526.4267,67.74273,147.34111
"39465",526.44,67.46441,146.67975
"39466",526.4533,67.335014,146.15862
"39467",526.4666,67.32525,145.75307
"39468",526.4799,67.41558,145.44731
"39469",526.4932,67.5816,145.22006
"39470",526.50653,67.79645,145.04684
"39471",526.51984,68.033264,144.9023
"39472",526.53314,68.27253,144.76761
"39473",526.54645,68.49714,144.62573
"39474",526.55975,68.68757,144.4567
"39475",526.57306,68.84383,144.25945
"39476",526.58636,68.9659,144.03288
"39477",526.5997,69.06111,143.78328
"39478",526.613,69.12947,143.5098
"39479",526.6263,69.1783,143.21892
"39480",526.6396,69.207596,142.91003
"39481",526.6529,69.21736,142.58253
"39482",526.6662,69.19783,142.22604
"39483",526.6795,69.13924,141.82988
"39484",526.6928,69.02449,141.37573
"39485",526.7061,68.85115,140.8594
"39486",526.7327,68.3653,139.66966
"39487",526.74603,68.16754,139.10832
"39488",526.75934,68.336006,138.90703
"39489",526.77264,69.44442,139.65094
"39490",526.78595,72.183716,142.06038
"39491",526.79926,76.95186,146.58426
"39492",526.81256,83.55108,153.08823
"39493",526.82587,91.17326,160.82138
"39494",526.8392,98.61967,168.61694
"39495",526.8525,104.68177,175.26091
"39496",526.8658,108.56855,179.91899
"39497",526.8791,110.135956,182.37917
"39498",526.8924,109.75021,182.93518
"39499",526.9057,107.95575,182.0704
"39500",526.919,105.2604,180.24867
"39501",526.9323,102.07919,177.85686
"39502",526.9456,98.76128,175.22891
"39503",526.9589,95.57763,172.63156
"39504",526.9722,92.7309,170.27164
"39505",526.98553,90.3505,168.28908
"39506",526.99884,88.46082,166.72285
"39507",527.01215,87.00084,165.52727
"39508",527.02545,85.872894,164.6181
"39509",527.03876,84.972,163.90074
"39510",527.05206,84.23712,163.32124
"39511",527.06537,83.65362,162.87015
"39512",527.0787,83.23857,162.56927
"39513",527.092,83.004196,162.43611
"39514",527.1053,82.92607,162.45187
"39515",527.1186,82.930954,162.5482
"39516",527.1319,82.92851,162.63736
"39517",527.1452,82.83086,162.63123
"39518",527.1585,82.55985,162.44868
"39519",527.1718,82.07156,162.04039
"39520",527.1851,81.3489,161.38246
"39521",527.1984,80.411385,160.4871
"39522",527.21173,79.290764,159.37935
"39523",527.22504,78.04074,158.10716
"39524",527.23834,76.71992,156.72511
"39525",527.25165,75.389336,155.29202
"39526",527.26495,74.092926,153.85153
"39527",527.27826,72.87465,152.44865
"39528",527.29156,71.77356,151.1249
"39529",527.3049,70.80675,149.901
"39530",527.3182,69.98886,148.79582
"39531",527.3315,69.32723,147.82135
"39532",527.3448,68.83162,146.99222
"39533",527.3581,68.49958,146.31117
"39534",527.3714,68.316475,145.76868
"39535",527.3847,68.27009,145.35718
"39536",527.398,68.33845,145.05898
"39537",527.4113,68.4947,144.8508
"39538",527.4246,68.714424,144.71098
"39539",527.4379,68.96834,144.61223
"39540",527.45123,69.239334,144.53848
"39541",527.46454,69.5079,144.47078
"39542",527.47784,69.752045,144.38705
"39543",527.49115,69.95712,144.27188
"39544",527.50446,70.1207,144.12161
"39545",527.51776,70.233,143.92519
"39546",527.53107,70.30137,143.68834
"39547",527.5444,70.33311,143.41699
"39548",527.5577,70.33799,143.11978
"39549",527.571,70.33311,142.81296
"39550",527.5843,70.32334,142.5011
"39551",527.5976,70.30625,142.18161
"39552",527.6109,70.276955,141.84938
"39553",527.6242,70.223236,141.49182
"39554",527.6375,70.13046,141.09352
"39555",527.6508,69.98886,140.6435
"39556",527.6641,69.788666,140.13045
"39557",527.6774,69.542076,139.56476
"39558",527.69073,69.32723,139.0231
"39559",527.70404,69.39071,138.75305
"39560",527.71735,70.26231,139.2931
"39561",527.73065,72.61341,141.3399
"39562",527.74396,76.893265,145.38893
"39563",527.75726,82.984665,151.38324
"39564",527.77057,90.17471,158.66656
"39565",527.7839,97.340355,166.15016
"39566",527.7972,103.28283,172.63452
"39567",527.8105,107.16228,177.24156
"39568",527.8238,108.76143,179.68953
"39569",527.8371,108.383,180.2099
"39570",527.8504,106.56168,179.27554
"39571",527.8637,103.80286,177.34677
"39572",527.877,100.526436,174.8142
"39573",527.8903,97.08156,172.01077
"39574",527.9036,93.731895,169.19492
"39575",527.91693,90.67765,166.5698
"39576",527.93024,88.043335,164.26915
"39577",527.94354,85.86801,162.34518
"39578",527.95685,84.1297,160.79025
"39579",527.97015,82.794235,159.58385
"39580",527.98346,81.83963,158.71657
"39581",527.99677,81.27322,158.20764
"39582",528.0101,81.11452,158.08873
"39583",528.0234,81.356224,158.36526
"39584",528.0367,81.934845,158.98627
"39585",528.05,82.72343,159.83531
"39586",528.0633,83.543755,160.74075
"39587",528.0766,84.224915,161.53265
"39588",528.0899,84.63264,162.0724
"39589",528.1032,84.67414,162.25868
"39590",528.1165,84.32014,162.05075
"39591",528.1298,83.59258,161.4582
"39592",528.1431,82.545204,160.5231
"39593",528.15643,81.26101,159.31845
"39594",528.16974,79.83276,157.92961
"39595",528.18304,78.34348,156.4351
"39596",528.19635,76.86641,154.90627
"39597",528.20966,75.45525,153.39719
"39598",528.22296,74.1564,151.95631
"39599",528.23627,73.006485,150.62378
"39600",528.2496,72.025024,149.42377
"39601",528.2629,71.22911,148.37863
"39602",528.2762,70.626076,147.50151
"39603",528.2895,70.21835,146.80086
"39604",528.3028,69.993744,146.27057
"39605",528.3161,69.93027,145.8944
"39606",528.3294,70.01083,145.66028
"39607",528.3427,70.19638,145.53366
"39608",528.356,70.452736,145.48366
"39609",528.3693,70.74082,145.47339
"39610",528.3826,71.0338,145.47702
"39611",528.39594,71.29992,145.46295
"39612",528.40924,71.53185,145.423
"39613",528.42255,71.7174,145.34392
"39614",528.43585,71.86145,145.22914
"39615",528.44916,71.96887,145.08223
"39616",528.46246,72.05188,144.91426
"39617",528.47577,72.11536,144.72935
"39618",528.4891,72.1593,144.5269
"39619",528.5024,72.17395,144.29652
"39620",528.5157,72.15442,144.03242
"39621",528.529,72.09094,143.72377
"39622",528.5423,71.9762,143.36186
"39623",528.5556,71.8053,142.94022
"39624",528.5689,71.57336,142.4522
"39625",528.5822,71.275505,141.891
"39626",528.5955,70.93126,141.27412
"39627",528.6088,70.608986,140.66846
"39628",528.62213,70.56992,140.33592
"39629",528.63544,71.36828,140.83958
"39630",528.64874,73.69253,142.89409
"39631",528.66205,77.979706,146.98416
"39632",528.67535,84.105286,153.0466
"39633",528.68866,91.32708,160.39668
"39634",528.70197,98.49027,167.91385
"39635",528.7153,104.39124,174.39264
"39636",528.7286,108.19501,178.95863
"39637",528.7419,109.69894,181.34366
"39638",528.7552,109.23018,181.803
"39639",528.7685,107.32342,180.80968
"39640",528.7818,104.48402,178.82413
"39641",528.7951,101.14412,176.24936
"39642",528.8084,97.66018,173.42618
"39643",528.8217,94.31541,170.63329
"39644",528.835,91.3222,168.08743
"39645",528.8483,88.80751,165.92656
"39646",528.86163,86.80797,164.20226
"39647",528.87494,85.27718,162.88422
"39648",528.88824,84.137024,161.90897
"39649",528.90155,83.319145,161.22037
"39650",528.91486,82.794235,160.79918
"39651",528.92816,82.54032,160.63258
"39652",528.94147,82.545204,160.71686
"39653",528.9548,82.774704,161.0259
"39654",528.9681,83.140915,161.47882
"39655",528.9814,83.53155,161.9676
"39656",528.9947,83.824524,162.37094
"39657",529.008,83.92462,162.59056
"39658",529.0213,83.76349,162.55208
"39659",529.0346,83.30938,162.21558
"39660",529.0479,82.55741,161.56703
"39661",529.0612,81.55154,160.64108
"39662",529.0745,80.34547,159.4835
"39663",529.0878,79.00755,158.15639
"39664",529.10114,77.611046,156.72887
"39665",529.11444,76.21942,155.26259
"39666",529.12775,74.8864,153.81142
"39667",529.14105,73.65835,152.42357
"39668",529.15436,72.57191,151.13895
"39669",529.16766,71.64416,149.97906
"39670",529.18097,70.889755,148.96355
"39671",529.1943,70.30869,148.0978
"39672",529.2076,69.89365,147.3799
"39673",529.2209,69.63241,146.80284
"39674",529.2342,69.505455,146.3519
"39675",529.2475,69.50057,146.01906
"39676",529.2608,69.58602,145.7764
"39677",529.2741,69.747154,145.61209
"39678",529.2874,69.96445,145.50899
"39679",529.3007,70.20615,145.43707
"39680",529.314,70.452736,145.37761
"39681",529.32733,70.68955,145.31607
"39682",529.34064,70.89708,145.23265
"39683",529.35394,71.07042,145.12152
"39684",529.36725,71.20714,144.97919
"39685",529.38055,71.30236,144.79964
"39686",529.39386,71.36584,144.59131
"39687",529.40717,71.40246,144.35811
"39688",529.4205,71.412224,144.0992
"39689",529.4338,71.40002,143.81862
"39690",529.4471,71.36584,143.51569
"39691",529.4604,71.3048,143.18483
"39692",529.4737,71.21202,142.82033
"39693",529.487,71.07042,142.4041
"39694",529.5003,70.87999,141.93462
"39695",529.5136,70.63828,141.40791
"39696",529.5269,70.381935,140.85901
"39697",529.5402,70.24277,140.41928
"39698",529.5535,70.608986,140.48059
"39699",529.56683,72.14221,141.72035
"39700",529.58014,75.494316,144.8269
"39701",529.59344,80.88014,150.07193
"39702",529.60675,87.87488,157.09418
"39703",529.62006,95.48974,164.95512
"39704",529.63336,102.4625,172.41194
"39705",529.64667,107.66033,178.31172
"39706",529.66,110.504616,182.02039
"39707",529.6733,111.07347,183.54251
"39708",529.6866,109.857635,183.29773
"39709",529.6999,107.41375,181.7869
"39710",529.7132,104.23987,179.4697
"39711",529.7265,100.75105,176.73837
"39712",529.7398,97.2842,173.92
"39713",529.7531,94.11276,171.2887
"39714",529.7664,91.42718,169.04413
"39715",529.7797,89.31045,167.2845
"39716",529.793,87.743034,166.00804
"39717",529.80634,86.607765,165.11475
"39718",529.81964,85.753265,164.46674
"39719",529.83295,85.06966,163.96292
"39720",529.84625,84.488594,163.54028
"39721",529.85956,84.00519,163.19714
"39722",529.87286,83.648735,162.96585
"39723",529.88617,83.441216,162.87236
"39724",529.8995,83.35088,162.88957
"39725",529.9128,83.31182,162.95523
"39726",529.9261,83.243454,162.99036
"39727",529.9394,83.075,162.92326
"39728",529.9527,82.738075,162.68243
"39729",529.966,82.196075,162.226
"39730",529.9793,81.43679,161.53534
"39731",529.9926,80.47486,160.61832
"39732",530.0059,79.34692,159.50522
"39733",530.0192,78.1091,158.247
"39734",530.03253,76.82979,156.90858
"39735",530.04584,75.56512,155.54485
"39736",530.05914,74.35905,154.20018
"39737",530.07245,73.25063,152.91548
"39738",530.08575,72.25941,151.71333
"39739",530.09906,71.414665,150.6267
"39740",530.11237,70.72373,149.66747
"39741",530.1257,70.186615,148.84047
"39742",530.139,69.79599,148.14317
"39743",530.1523,69.542076,147.57039
"39744",530.1656,69.402916,147.10442
"39745",530.1789,69.36141,146.73175
"39746",530.1922,69.41024,146.44812
"39747",530.2055,69.52499,146.23193
"39748",530.2188,69.695885,146.07549
"39749",530.2321,69.89609,145.95369
"39750",530.2454,70.101166,145.84302
"39751",530.2587,70.2916,145.72412
"39752",530.27203,70.44297,145.5721
"39753",530.28534,70.54551,145.37598
"39754",530.29865,70.59678,145.13179
"39755",530.31195,70.606544,144.8477
"39756",530.32526,70.58457,144.53218
"39757",530.33856,70.54551,144.19888
"39758",530.35187,70.49424,143.85216
"39759",530.3652,70.44053,143.50139
"39760",530.3785,70.3917,143.15382
"39761",530.3918,70.3502,142.81206
"39762",530.4051,70.313576,142.47388
"39763",530.4184,70.279396,142.137
"39764",530.4317,70.24277,141.7966
"39765",530.445,70.18417,141.43309
"39766",530.4583,70.09628,141.03845
"39767",530.4716,69.979095,140.61177
"39768",530.4849,69.83261,140.15213
"39769",530.4982,69.67147,139.67326
"39770",530.51154,69.57137,139.2504
"39771",530.52484,69.78378,139.13692
"39772",530.53815,70.87999,139.91386
"39773",530.55145,73.585106,142.33398
"39774",530.56476,78.345924,146.89433
"39775",530.57806,84.99397,153.49069
"39776",530.5914,92.71137,161.36415
"39777",530.6047,100.25788,169.30789
"39778",530.618,106.354164,176.03723
"39779",530.6313,110.14328,180.64992
"39780",530.6446,111.4641,182.91272
"39781",530.6579,110.72434,183.15622
"39782",530.6712,108.524605,181.91663
"39783",530.6845,105.41421,179.69762
"39784",530.6978,101.837494,176.9151
"39785",530.7111,98.17044,173.93047
"39786",530.7244,94.710915,171.03876
"39787",530.73773,91.69573,168.48329
"39788",530.75104,89.254295,166.40735
"39789",530.76434,87.42077,164.86302
"39790",530.77765,86.10971,163.78386
"39791",530.79095,85.1844,163.04948
"39792",530.80426,84.505684,162.53278
"39793",530.81757,83.9881,162.15599
"39794",530.8309,83.59258,161.8851
"39795",530.8442,83.33135,161.73615
"39796",530.8575,83.2166,161.7255
"39797",530.8708,83.228806,161.83823
"39798",530.8841,83.30694,162.01726
"39799",530.8974,83.36309,162.17676
"39800",530.9107,83.31426,162.23303
"39801",530.924,83.08476,162.1071
"39802",530.9373,82.62821,161.74695
"39803",530.9506,81.93729,161.13815
"39804",530.9639,81.01686,160.27827
"39805",530.97723,79.91089,159.20409
"39806",530.99054,78.6804,157.97081
"39807",531.00385,77.383995,156.63316
"39808",531.01715,76.07538,155.2428
"39809",531.03046,74.813156,153.85793
"39810",531.04376,73.62905,152.51173
"39811",531.05707,72.55726,151.24084
"39812",531.0704,71.622185,150.07318
"39813",531.0837,70.83116,149.02036
"39814",531.097,70.19638,148.09904
"39815",531.1103,69.7203,147.3166
"39816",531.1236,69.39071,146.66577
"39817",531.1369,69.207596,146.15112
"39818",531.1502,69.15144,145.7577
"39819",531.1635,69.20027,145.46751
"39820",531.1768,69.332115,145.26187
"39821",531.1901,69.522545,145.11893
"39822",531.2034,69.74471,145.01367
"39823",531.21674,69.979095,144.92758
"39824",531.23004,70.21103,144.84636
"39825",531.24335,70.41856,144.74799
"39826",531.25665,70.58701,144.61702
"39827",531.26996,70.711525,144.44737
"39828",531.28326,70.78233,144.22792
"39829",531.2966,70.80675,143.96428
"39830",531.3099,70.79698,143.66722
"39831",531.3232,70.76524,143.34789
"39832",531.3365,70.728615,143.02267
"39833",531.3498,70.694435,142.69876
"39834",531.3631,70.66514,142.37866
"39835",531.3764,70.640724,142.06253
"39836",531.3897,70.61143,141.74075
"39837",531.403,70.56992,141.40585
"39838",531.4163,70.504005,141.04524
"39839",531.4296,70.41367,140.65816
"39840",531.44293,70.294044,140.23895
"39841",531.45624,70.14023,139.78183
"39842",531.46954,69.962006,139.29549
"39843",531.48285,69.83505,138.85484
"39844",531.49615,70.01572,138.71785
"39845",531.50946,71.046005,139.43613
"39846",531.52277,73.62661,141.73692
"39847",531.5361,78.21164,146.12279
"39848",531.5494,84.647285,152.50255
"39849",531.5627,92.140076,160.14056
"39850",531.576,99.493706,167.87357
"39851",531.5893,105.460594,174.44963
"39852",531.6026,109.19356,178.97824
"39853",531.6159,110.5095,181.20648
"39854",531.6292,109.77463,181.42503
"39855",531.6425,107.55779,180.13866
"39856",531.6558,104.379036,177.82108
"39857",531.6691,100.66804,174.87192
"39858",531.68243,96.78371,171.63347
"39859",531.69574,93.02144,168.39569
"39860",531.70905,89.62539,165.40656
"39861",531.72235,86.751816,162.83377
"39862",531.73566,84.454414,160.74736
"39863",531.74896,82.703896,159.13605
"39864",531.76227,81.444115,157.96077
"39865",531.7756,80.63111,157.1929
"39866",531.7889,80.26246,156.84398
"39867",531.8022,80.34791,156.93764
"39868",531.8155,80.87282,157.47342
"39869",531.8288,81.75418,158.38206
"39870",531.8421,82.84306,159.52577
"39871",531.8554,83.931946,160.7035
"39872",531.8687,84.823074,161.71751
"39873",531.882,85.36996,162.41512
"39874",531.8953,85.4847,162.69768
"39875",531.9086,85.138016,162.52238
"39876",531.92194,84.36408,161.90901
"39877",531.93524,83.23125,160.91255
"39878",531.94855,81.832306,159.6146
"39879",531.96185,80.257576,158.09712
"39880",531.97516,78.6096,156.4572
"39881",531.98846,76.964066,154.76822
"39882",532.0018,75.39178,153.10106
"39883",532.0151,73.95865,151.52393
"39884",532.0284,72.708626,150.08511
"39885",532.0417,71.66369,148.81232
"39886",532.055,70.84337,147.73149
"39887",532.0683,70.237885,146.83986
"39888",532.0816,69.83017,146.12708
"39889",532.0949,69.60067,145.57977
"39890",532.1082,69.52499,145.17911
"39891",532.1215,69.57137,144.89815
"39892",532.1348,69.71786,144.71873
"39893",532.14813,69.93515,144.61472
"39894",532.16144,70.19638,144.56142
"39895",532.17474,70.47227,144.53094
"39896",532.18805,70.74082,144.50175
"39897",532.20135,70.992294,144.46388
"39898",532.21466,71.22179,144.41188
"39899",532.22797,71.4342,144.34998
"39900",532.2413,71.624626,144.27272
"39901",532.2546,71.79065,144.17702
"39902",532.2679,71.91028,144.0401
"39903",532.2812,71.97131,143.84833
"39904",532.2945,71.96399,143.5901
"39905",532.3078,71.87366,143.24864
"39906",532.3211,71.69543,142.81647
"39907",532.3344,71.4342,142.29572
"39908",532.3477,71.114365,141.7082
"39909",532.361,70.821396,141.13756
"39910",532.3743,70.82872,140.85805
"39911",532.38763,71.69787,141.4406
"39912",532.40094,74.12955,143.61284
"39913",532.41425,78.55833,147.85817
"39914",532.42755,84.8304,154.08519
"39915",532.44086,92.16937,161.57512
"39916",532.45416,99.39605,169.18208
"39917",532.46747,105.27749,175.66965
"39918",532.4808,108.978714,180.1608
"39919",532.4941,110.31663,182.4043
"39920",532.5074,109.65499,182.69006
"39921",532.5207,107.543144,181.50493
"39922",532.534,104.49622,179.31873
"39923",532.5473,100.9366,176.52461
"39924",532.5606,97.215836,173.45811
"39925",532.5739,93.61959,170.39987
"39926",532.5872,90.374916,167.58081
"39927",532.6005,87.63317,165.16328
"39928",532.61383,85.45052,163.21918
"39929",532.62714,83.792786,161.73177
"39930",532.64044,82.58427,160.64177
"39931",532.65375,81.75418,159.89244
"39932",532.66705,81.26589,159.45897
"39933",532.68036,81.10719,159.33983
"39934",532.69366,81.26589,159.53313
"39935",532.707,81.69802,160.00482
"39936",532.7203,82.30839,160.66826
"39937",532.7336,82.950485,161.38249
"39938",532.7469,83.48028,162.00449
"39939",532.7602,83.76349,162.39645
"39940",532.7735,83.72198,162.47255
"39941",532.7868,83.30938,162.17627
"39942",532.8001,82.53544,161.50575
"39943",532.8134,81.43679,160.48634
"39944",532.8267,80.09888,159.19333
"39945",532.84,78.607155,157.7047
"39946",532.85333,77.049515,156.10353
"39947",532.86664,75.4992,154.46101
"39948",532.87994,74.02701,152.84818
"39949",532.89325,72.67933,151.31384
"39950",532.90656,71.48791,149.89365
"39951",532.91986,70.467384,148.60712
"39952",532.93317,69.62997,147.4718
"39953",532.9465,68.98299,146.50076
"39954",532.9598,68.51179,145.68529
"39955",532.9731,68.20172,145.01622
"39956",532.9864,68.035706,144.4815
"39957",532.9997,67.999084,144.071
"39958",533.013,68.067444,143.76433
"39959",533.0263,68.209045,143.53304
"39960",533.0396,68.40681,143.36234
"39961",533.0529,68.63874,143.23198
"39962",533.0662,68.87312,143.11133
"39963",533.0795,69.102615,142.9931
"39964",533.09283,69.315025,142.86497
"39965",533.10614,69.51522,142.73126
"39966",533.11945,69.69344,142.58183
"39967",533.13275,69.857025,142.42334
"39968",533.14606,70.00351,142.25285
"39969",533.15936,70.13046,142.06741
"39970",533.17267,70.23056,141.85909
"39971",533.186,70.29893,141.62216
"39972",533.1993,70.32334,141.34341
"39973",533.2126,70.2916,141.00928
"39974",533.2259,70.1915,140.60579
"39975",533.2392,70.0206,140.12837
"39976",533.2525,69.803314,139.59923
"39977",533.2658,69.63973,139.117
"39978",533.2791,69.86923,139.02275
"39979",533.2924,71.13878,139.97571
"39980",533.3057,74.22232,142.78233
"39981",533.31903,79.520256,147.89972
"39982",533.33234,86.7567,155.12117
"39983",533.34564,94.9868,163.56242
"39984",533.35895,102.87999,171.92395
"39985",533.37225,109.12276,178.88171
"39986",533.38556,112.90944,183.57848
"39987",533.39886,114.17166,185.86911
"39988",533.4122,113.36843,186.13374
"39989",533.4255,111.11986,184.92793
"39990",533.4388,107.96796,182.74854
"39991",533.4521,104.359505,180.01408
"39992",533.4654,100.65583,177.07164
"39993",533.4787,97.15724,174.21855
"39994",533.492,94.09323,171.6907
"39995",533.5053,91.61028,169.64816
"39996",533.5186,89.723045,168.12375
"39997",533.5319,88.34852,167.05307
"39998",533.5452,87.3402,166.30565
"39999",533.55853,86.55894,165.75377
"40000",533.57184,85.907074,165.30687
"40001",533.58514,85.35287,164.93726
"40002",533.59845,84.92561,164.67728
"40003",533.61176,84.647285,164.55287
"40004",533.62506,84.505684,164.5565
"40005",533.63837,84.44221,164.63383
"40006",533.6517,84.36652,164.69698
"40007",533.665,84.18829,164.6552
"40008",533.6783,83.83429,164.43208
"40009",533.6916,83.25323,163.97084
"40010",533.7049,82.42802,163.2473
"40011",533.7182,81.36355,162.25871
"40012",533.7315,80.1062,161.04398
"40013",533.7448,78.70725,159.64835
"40014",533.7581,77.23262,158.13332
"40015",533.7714,75.755554,156.56976
"40016",533.7847,74.32731,155.00888
"40017",533.79803,72.99672,153.50102
"40018",533.81134,71.78821,152.07365
"40019",533.82465,70.72617,150.755
"40020",533.83795,69.81552,149.55455
"40021",533.85126,69.06355,148.48431
"40022",533.86456,68.472725,147.55173
"40023",533.87787,68.04303,146.76181
"40024",533.8912,67.76471,146.10983
"40025",533.9045,67.62798,145.59076
"40026",533.9178,67.60601,145.18216
"40027",533.9311,67.67925,144.86809
"40028",533.9444,67.82086,144.62468
"40029",533.9577,68.00885,144.43207
"40030",533.971,68.22125,144.26974
"40031",533.9843,68.42878,144.10919
"40032",533.9976,68.61921,143.93802
"40033",534.0109,68.78279,143.74596
"40034",534.02423,68.91951,143.53214
"40035",534.03754,69.02937,143.29573
"40036",534.05084,69.12459,143.04811
"40037",534.06415,69.21004,142.7937
"40038",534.07745,69.28329,142.52977
"40039",534.09076,69.332115,142.2437
"40040",534.10406,69.34676,141.92497
"40041",534.1174,69.30526,141.55055
"40042",534.1307,69.20027,141.11136
"40043",534.144,69.02449,140.59808
"40044",534.1573,68.79256,140.02316
"40045",534.1706,68.54597,139.42635
"40046",534.1839,68.44343,138.96587
"40047",534.1972,68.88289,139.04419
"40048",534.2105,70.55283,140.36673
"40049",534.2238,74.13443,143.6531
"40050",534.2371,79.85474,149.19011
"40051",534.2504,87.257195,156.58803
"40052",534.26373,95.30663,164.86426
"40053",534.27704,102.674904,172.71086
"40054",534.29034,108.18768,178.93224
"40055",534.30365,111.22972,182.85513
"40056",534.31696,111.886475,184.48782
"40057",534.33026,110.66819,184.26599
"40058",534.34357,108.17792,182.7341
"40059",534.3569,104.92592,180.36266
"40060",534.3702,101.34188,177.55756
"40061",534.3835,97.76761,174.65022
"40062",534.3968,94.4741,171.91196
"40063",534.4101,91.649345,169.53952
"40064",534.4234,89.37881,167.63303
"40065",534.4367,87.64782,166.19513
"40066",534.45,86.363625,165.14993
"40067",534.4633,85.399254,164.38443
"40068",534.4766,84.63996,163.79387
"40069",534.4899,84.02716,163.32607
"40070",534.50323,83.546196,162.97095
"40071",534.51654,83.20683,162.7424
"40072",534.52985,83.018845,162.65463
"40073",534.54315,82.948044,162.67818
"40074",534.55646,82.92119,162.74345
"40075",534.56976,82.84306,162.75662
"40076",534.58307,82.63554,162.63794
"40077",534.5964,82.230255,162.31502
"40078",534.6097,81.59548,161.74994
"40079",534.623,80.72144,160.92577
"40080",534.6363,79.64233,159.8692
"40081",534.6496,78.40452,158.62021
"40082",534.6629,77.05928,157.22511
"40083",534.6762,75.6701,155.74403
"40084",534.6895,74.288246,154.22687
"40085",534.7028,72.96254,152.72267
"40086",534.7161,71.73205,151.27226
"40087",534.72943,70.63096,149.9128
"40088",534.74274,69.678795,148.66785
"40089",534.75604,68.88777,147.55429
"40090",534.76935,68.262764,146.58203
"40091",534.78265,67.80377,145.75626
"40092",534.79596,67.493706,145.06506
"40093",534.80927,67.31304,144.49358
"40094",534.8226,67.247116,144.03119
"40095",534.8359,67.27886,143.66441
"40096",534.8492,67.388725,143.37674
"40097",534.8625,67.5523,143.14621
"40098",534.8758,67.7525,142.95743
"40099",534.8891,67.96979,142.79198
"40100",534.9024,68.18707,142.63332
"40101",534.9157,68.387276,142.46437
"40102",534.929,68.57038,142.28458
"40103",534.9423,68.72419,142.0812
"40104",534.9556,68.85359,141.85825
"40105",534.96893,68.963455,141.61978
"40106",534.98224,69.05623,141.36766
"40107",534.99554,69.13435,141.10379
"40108",535.00885,69.20027,140.83015
"40109",535.02216,69.24422,140.5366
"40110",535.03546,69.25643,140.2127
"40111",535.04877,69.22957,139.85011
"40112",535.0621,69.15633,139.44029
"40113",535.0754,69.02693,138.97203
"40114",535.0887,68.85115,138.45334
"40115",535.102,68.65583,137.90962
"40116",535.1153,68.55573,137.45502
"40117",535.1286,68.87312,137.41478
"40118",535.1419,70.25254,138.44649
"40119",535.1552,73.402,141.29134
"40120",535.1685,78.66819,146.35133
"40121",535.1818,85.72884,153.37036
"40122",535.1951,93.64645,161.467
"40123",535.20844,101.12215,169.36914
"40124",535.22174,106.91325,175.82031
"40125",535.23505,110.277565,180.02567
"40126",535.24835,111.18822,181.88249
"40127",535.26166,110.116425,181.78534
"40128",535.27496,107.6701,180.28015
"40129",535.28827,104.38148,177.85622
"40130",535.3016,100.682686,174.91934
"40131",535.3149,96.92775,171.81075
"40132",535.3282,93.40475,168.81674
"40133",535.3415,90.31876,166.14966
"40134",535.3548,87.782104,163.93546
"40135",535.3681,85.81918,162.21573
"40136",535.3814,84.35676,160.93515
"40137",535.3947,83.299614,160.01416
"40138",535.408,82.564735,159.3824
"40139",535.4213,82.12283,159.02065
"40140",535.43463,81.95438,158.91853
"40141",535.44794,82.054474,159.07971
"40142",535.46124,82.388954,159.4784
"40143",535.47455,82.862595,160.02669
"40144",535.48785,83.35088,160.60443
"40145",535.50116,83.719536,161.0778
"40146",535.51447,83.86359,161.33809
"40147",535.5278,83.70733,161.30257
"40148",535.5411,83.21904,160.93013
"40149",535.5544,82.41093,160.22261
"40150",535.5677,81.32937,159.2164
"40151",535.581,80.05005,157.97862
"40152",535.5943,78.65598,156.58612
"40153",535.6076,77.21553,155.10367
"40154",535.6209,75.79706,153.59818
"40155",535.6342,74.45426,152.12404
"40156",535.6475,73.22133,150.7178
"40157",535.6608,72.12512,149.40976
"40158",535.67413,71.185165,148.22371
"40159",535.68744,70.41367,147.17676
"40160",535.70074,69.81796,146.28148
"40161",535.71405,69.400475,145.5458
"40162",535.72736,69.149,144.9631
"40163",535.74066,69.05379,144.5288
"40164",535.75397,69.09041,144.22334
"40165",535.7673,69.23201,144.02402
"40166",535.7806,69.451744,143.90726
"40167",535.7939,69.71786,143.84373
"40168",535.8072,70.00351,143.80807
"40169",535.8205,70.28672,143.7789
"40170",535.8338,70.56016,143.7488
"40171",535.8471,70.818954,143.7126
"40172",535.8604,71.07286,143.6796
"40173",535.8737,71.312126,143.6399
"40174",535.887,71.53185,143.58812
"40175",535.9003,71.7174,143.50903
"40176",535.91364,71.83948,143.37228
"40177",535.92694,71.87854,143.15633
"40178",535.94025,71.83215,142.85614
"40179",535.95355,71.707634,142.47638
"40180",535.96686,71.505,142.0146
"40181",535.98016,71.23155,141.4757
"40182",535.99347,70.906845,140.87697
"40183",536.0068,70.58457,140.27054
"40184",536.0201,70.43809,139.82982
"40185",536.0334,70.87755,139.97047
"40186",536.0467,72.5597,141.36755
"40187",536.06,76.04608,144.62143
"40188",536.0733,81.446556,149.89835
"40189",536.0866,88.24109,156.73808
"40190",536.0999,95.42138,164.1759
"40191",536.1132,101.75693,170.99338
"40192",536.1265,106.23941,176.15576
"40193",536.13983,108.40986,179.1462
"40194",536.15314,108.42451,180.04865
"40195",536.16644,106.78386,179.29626
"40196",536.17975,104.02258,177.37198
"40197",536.19305,100.594795,174.6949
"40198",536.20636,96.87648,171.62018
"40199",536.21967,93.172806,168.4439
"40200",536.233,89.73281,165.41554
"40201",536.2463,86.72495,162.71184
"40202",536.2596,84.23468,160.43172
"40203",536.2729,82.262,158.59137
"40204",536.2862,80.77028,157.17033
"40205",536.2995,79.73266,156.15678
"40206",536.3128,79.16136,155.57713
"40207",536.3261,79.08324,155.4728
"40208",536.3394,79.49828,155.85919
"40209",536.3527,80.33082,156.67604
"40210",536.366,81.41482,157.77039
"40211",536.37933,82.545204,158.94499
"40212",536.39264,83.50225,159.98158
"40213",536.40594,84.11749,160.70627
"40214",536.41925,84.300606,161.01805
"40215",536.43256,84.0296,160.88144
"40216",536.44586,83.33135,160.30911
"40217",536.45917,82.269325,159.3512
"40218",536.4725,80.94118,158.09396
"40219",536.4858,79.43725,156.61945
"40220",536.4991,77.85031,155.01492
"40221",536.5124,76.265816,153.36325
"40222",536.5257,74.75212,151.73286
"40223",536.539,73.37026,150.18701
"40224",536.5523,72.164185,148.77376
"40225",536.5656,71.15831,147.52301
"40226",536.5789,70.35752,146.44592
"40227",536.5922,69.75693,145.544
"40228",536.6055,69.337,144.80399
"40229",536.61884,69.07576,144.20953
"40230",536.63214,68.94881,143.7412
"40231",536.64545,68.929276,143.37631
"40232",536.65875,68.997635,143.09871
"40233",536.67206,69.13191,142.88916
"40234",536.68536,69.31991,142.73753
"40235",536.69867,69.54452,142.62839
"40236",536.712,69.79355,142.55069
"40237",536.7253,70.05234,142.49052
"40238",536.7386,70.30869,142.43602
"40239",536.7519,70.555275,142.37975
"40240",536.7652,70.78722,142.31654
"40241",536.7785,70.99962,142.24104
"40242",536.7918,71.18761,142.14777
"40243",536.8051,71.343864,142.02864
"40244",536.8184,71.45373,141.868
"40245",536.8317,71.502556,141.64975
"40246",536.84503,71.483025,141.36467
"40247",536.85834,71.38293,140.99841
"40248",536.87164,71.20958,140.55579
"40249",536.88495,71.011826,140.08333
"40250",536.89825,70.97032,139.76094
"40251",536.91156,71.55627,140.06471
"40252",536.92487,73.48989,141.73447
"40253",536.9382,77.38644,145.42757
"40254",536.9515,83.33379,151.29324
"40255",536.9648,90.75578,158.81941
"40256",536.9781,98.53178,166.93152
"40257",536.9914,105.35073,174.32959
"40258",537.0047,110.14084,179.91191
"40259",537.018,112.465096,183.17807
"40260",537.0313,112.533455,184.26096
"40261",537.0446,110.89525,183.63942
"40262",537.0579,108.12909,181.83875
"40263",537.0712,104.71839,179.30708
"40264",537.08453,101.05379,176.41493
"40265",537.09784,97.45022,173.4693
"40266",537.11115,94.15915,170.72354
"40267",537.12445,91.34905,168.35591
"40268",537.13776,89.110245,166.47176
"40269",537.15106,87.41833,165.06453
"40270",537.16437,86.17807,164.05609
"40271",537.1777,85.279625,163.35071
"40272",537.191,84.63508,162.87115
"40273",537.2043,84.19318,162.5741
"40274",537.2176,83.94171,162.45367
"40275",537.2309,83.88312,162.51826
"40276",537.2442,83.9881,162.7446
"40277",537.2575,84.18341,163.06454
"40278",537.2708,84.36164,163.3735
"40279",537.2841,84.41779,163.56596
"40280",537.2974,84.27375,163.55998
"40281",537.3107,83.86603,163.28581
"40282",537.32404,83.177536,162.71814
"40283",537.33734,82.21805,161.85796
"40284",537.35065,81.03883,160.74806
"40285",537.36395,79.68627,159.42796
"40286",537.37726,78.23605,157.96794
"40287",537.39056,76.754105,156.43086
"40288",537.4039,75.30389,154.87921
"40289",537.4172,73.936676,153.36525
"40290",537.4305,72.689095,151.92819
"40291",537.4438,71.59289,150.60352
"40292",537.4571,70.660255,149.40816
"40293",537.4704,69.89853,148.35457
"40294",537.4837,69.297935,147.43831
"40295",537.497,68.84871,146.65465
"40296",537.5103,68.5362,145.99367
"40297",537.5236,68.34821,145.44743
"40298",537.5369,68.26765,145.00275
"40299",537.55023,68.28718,144.65564
"40300",537.56354,68.387276,144.38971
"40301",537.57684,68.54597,144.1855
"40302",537.59015,68.733955,144.01555
"40303",537.60345,68.93416,143.8637
"40304",537.61676,69.12947,143.7132
"40305",537.63007,69.31014,143.55417
"40306",537.6434,69.4786,143.38857
"40307",537.6567,69.63729,143.21846
"40308",537.67,69.7789,143.03624
"40309",537.6833,69.90341,142.84134
"40310",537.6966,70.00351,142.62592
"40311",537.7099,70.0621,142.37212
"40312",537.7232,70.0621,142.06155
"40313",537.7365,70.00107,141.68996
"40314",537.7498,69.86923,141.24565
"40315",537.7631,69.66903,140.72887
"40316",537.7764,69.434654,140.17165
"40317",537.78973,69.2662,139.67302
"40318",537.80304,69.471275,139.54266
"40319",537.81635,70.65537,140.39774
"40320",537.82965,73.53384,142.98418
"40321",537.84296,78.502174,147.75044
"40322",537.85626,85.333336,154.53479
"40323",537.86957,93.16548,162.5336
"40324",537.8829,100.74616,170.5257
"40325",537.8962,106.81804,177.2459
"40326",537.9095,110.58274,181.84866
"40327",537.9228,111.91577,184.1374
"40328",537.9361,111.23216,184.45117
"40329",537.9494,109.11299,183.30801
"40330",537.9627,106.09537,181.20016
"40331",537.976,102.623634,178.54391
"40332",537.9893,99.054245,175.68152
"40333",538.0026,95.672844,172.89557
"40334",538.0159,92.69184,170.40434
"40335",538.02924,90.23331,168.34242
"40336",538.04254,88.3119,166.7408
"40337",538.05585,86.869,165.55765
"40338",538.06915,85.785,164.68831
"40339",538.08246,84.95735,164.04144
"40340",538.09576,84.317696,163.5567
"40341",538.1091,83.85382,163.22775
"40342",538.1224,83.56817,163.06253
"40343",538.1357,83.46319,163.06906
"40344",538.149,83.49737,163.21147
"40345",538.1623,83.595024,163.41843
"40346",538.1756,83.65606,163.59181
"40347",538.1889,83.5877,163.63771
"40348",538.2022,83.31182,163.47395
"40349",538.2155,82.78447,163.0501
"40350",538.2288,81.988556,162.3412
"40351",538.2421,80.9485,161.3633
"40352",538.25543,79.70092,160.14536
"40353",538.26874,78.31663,158.75171
"40354",538.28204,76.86397,157.24644
"40355",538.29535,75.403984,155.68846
"40356",538.30865,73.99527,154.13612
"40357",538.32196,72.67689,152.6301
"40358",538.33527,71.47814,151.2025
"40359",538.3486,70.42588,149.88393
"40360",538.3619,69.53475,148.6936
"40361",538.3752,68.80965,147.64146
"40362",538.3885,68.253,146.73512
"40363",538.4018,67.859924,145.97496
"40364",538.4151,67.613335,145.349
"40365",538.4284,67.50103,144.84961
"40366",538.4417,67.49859,144.45657
"40367",538.455,67.5816,144.14891
"40368",538.4683,67.72808,143.90732
"40369",538.4816,67.91852,143.71426
"40370",538.49493,68.13092,143.54912
"40371",538.50824,68.353096,143.40039
"40372",538.52155,68.57282,143.25615
"40373",538.53485,68.77547,143.1017
"40374",538.54816,68.95857,142.93404
"40375",538.56146,69.11726,142.74768
"40376",538.57477,69.25643,142.54677
"40377",538.5881,69.366295,142.32089
"40378",538.6014,69.454185,142.07648
"40379",538.6147,69.51034,141.80307
"40380",538.628,69.52987,141.4948
"40381",538.6413,69.505455,141.14319
"40382",538.6546,69.434654,140.74443
"40383",538.6679,69.30526,140.28487
"40384",538.6812,69.12459,139.76999
"40385",538.6945,68.91707,139.22261
"40386",538.7078,68.79744,138.75664
"40387",538.7211,69.11238,138.7215
"40388",538.73444,70.51621,139.7851
"40389",538.74774,73.70229,142.6748
"40390",538.76105,79.00267,147.77838
"40391",538.77435,86.09506,154.8396
"40392",538.78766,94.05661,162.99162
"40393",538.80096,101.60311,170.97739
"40394",538.8143,107.511406,177.56078
"40395",538.8276,111.0515,181.9606
"40396",538.8409,112.181885,184.06134
"40397",538.8542,111.344475,184.22961
"40398",538.8675,109.117874,182.98253
"40399",538.8808,106.03189,180.80647
"40400",538.8941,102.51133,178.09941
"40401",538.9074,98.90776,175.19933
"40402",538.9207,95.49462,172.37706
"40403",538.934,92.472115,169.83876
"40404",538.9473,89.952545,167.70894
"40405",538.96063,87.957886,166.0253
"40406",538.97394,86.4271,164.7432
"40407",538.98724,85.2723,163.78925
"40408",539.00055,84.41535,163.09706
"40409",539.01385,83.81476,162.63445
"40410",539.02716,83.455864,162.39476
"40411",539.04047,83.34112,162.38802
"40412",539.0538,83.43389,162.5852
"40413",539.0671,83.65362,162.91225
"40414",539.0804,83.888,163.2608
"40415",539.0937,84.02228,163.51659
"40416",539.107,83.9588,163.57881
"40417",539.1203,83.6292,163.37292
"40418",539.1336,83.004196,162.86133
"40419",539.1469,82.08865,162.03967
"40420",539.1602,80.92653,160.94283
"40421",539.1735,79.571526,159.61678
"40422",539.1868,78.09445,158.12631
"40423",539.20013,76.57099,156.5433
"40424",539.21344,75.054855,154.92001
"40425",539.22675,73.599754,153.31038
"40426",539.24005,72.234985,151.7456
"40427",539.25336,70.992294,150.26025
"40428",539.26666,69.891205,148.87767
"40429",539.27997,68.946365,147.61693
"40430",539.2933,68.16266,146.4878
"40431",539.3066,67.55474,145.50996
"40432",539.3199,67.11284,144.67915
"40433",539.3332,66.83208,143.99567
"40434",539.3465,66.702675,143.45477
"40435",539.3598,66.702675,143.03923
"40436",539.3731,66.80766,142.72868
"40437",539.3864,66.99077,142.49953
"40438",539.3997,67.23003,142.33224
"40439",539.413,67.49615,142.19931
"40440",539.42633,67.76471,142.07713
"40441",539.43964,68.018616,141.94868
"40442",539.45294,68.253,141.80865
"40443",539.46625,68.44831,141.63687
"40444",539.47955,68.60456,141.43213
"40445",539.49286,68.71931,141.19077
"40446",539.50616,68.79988,140.91882
"40447",539.5195,68.860916,140.62985
"40448",539.5328,68.9073,140.32814
"40449",539.5461,68.946365,140.02055
"40450",539.5594,68.97078,139.69954
"40451",539.5727,68.963455,139.34755
"40452",539.586,68.91707,138.95627
"40453",539.5993,68.824295,138.51715
"40454",539.6126,68.68513,138.02875
"40455",539.6259,68.51423,137.50426
"40456",539.6392,68.36042,136.99152
"40457",539.6525,68.40681,136.67416
"40458",539.66583,69.119705,137.02478
"40459",539.67914,71.21202,138.77708
"40460",539.69244,75.30389,142.59433
"40461",539.70575,81.51003,148.65372
"40462",539.71906,89.271385,156.46227
"40463",539.73236,97.46731,164.94792
"40464",539.74567,104.762344,172.78882
"40465",539.759,110.05295,178.85324
"40466",539.7723,112.833755,182.57321
"40467",539.7856,113.26833,184.03384
"40468",539.7989,111.87915,183.6843
"40469",539.8122,109.2375,182.03888
"40470",539.8255,105.83414,179.54918
"40471",539.8388,102.064545,176.5869
"40472",539.8521,98.253456,173.46533
"40473",539.8654,94.66453,170.44682
"40474",539.8787,91.476006,167.71657
"40475",539.892,88.78798,165.38716
"40476",539.90533,86.61509,163.48889
"40477",539.91864,84.91585,161.99637
"40478",539.93195,83.64385,160.87799
"40479",539.94525,82.78447,160.13248
"40480",539.95856,82.34745,159.78247
"40481",539.97186,82.33036,159.83875
"40482",539.98517,82.69657,160.27779
"40483",539.9985,83.34844,161.01393
"40484",540.0118,84.122375,161.8925
"40485",540.0251,84.82063,162.71959
"40486",540.0384,85.28207,163.33167
"40487",540.0517,85.39193,163.6066
"40488",540.065,85.09407,163.47723
"40489",540.0783,84.386055,162.9284
"40490",540.0916,83.31182,161.99124
"40491",540.1049,81.94217,160.72508
"40492",540.1182,80.365,159.2086
"40493",540.13153,78.67307,157.52809
"40494",540.14484,76.946976,155.76053
"40495",540.15814,75.25506,153.9732
"40496",540.17145,73.65835,152.22821
"40497",540.18475,72.20569,150.57738
"40498",540.19806,70.93126,149.05937
"40499",540.21136,69.85214,147.69685
"40500",540.2247,68.97566,146.50325
"40501",540.238,68.299385,145.48247
"40502",540.2513,67.81354,144.63098
"40503",540.2646,67.49859,143.93521
"40504",540.2779,67.34234,143.38829
"40505",540.2912,67.33013,142.98053
"40506",540.3045,67.44244,142.6969
"40507",540.3178,67.649956,142.512
"40508",540.3311,67.92828,142.40439
"40509",540.3444,68.24811,142.34697
"40510",540.3577,68.58503,142.31665
"40511",540.37103,68.909744,142.28465
"40512",540.38434,69.21492,142.24326
"40513",540.39764,69.488365,142.17967
"40514",540.41095,69.72762,142.09044
"40515",540.42426,69.927826,141.96964
"40516",540.43756,70.07675,141.8038
"40517",540.45087,70.16708,141.58403
"40518",540.4642,70.19394,141.3036
"40519",540.4775,70.14755,140.95078
"40520",540.4908,70.03281,140.52814
"40521",540.5041,69.85458,140.03844
"40522",540.5174,69.61776,139.48457
"40523",540.5307,69.35409,138.89645
"40524",540.544,69.18562,138.39531
"40525",540.5573,69.44686,138.3186
"40526",540.5706,70.73106,139.27301
"40527",540.5839,73.69253,141.94482
"40528",540.5972,78.65598,146.71117
"40529",540.61053,85.35531,153.36848
"40530",540.62384,92.93355,161.11407
"40531",540.63715,100.1944,168.7791
"40532",540.65045,105.96353,175.1793
"40533",540.66376,109.51583,179.54297
"40534",540.67706,110.73655,181.68605
"40535",540.69037,109.98947,181.89949
"40536",540.7037,107.80194,180.64914
"40537",540.717,104.66224,178.37825
"40538",540.7303,100.97078,175.45749
"40539",540.7436,97.057144,172.19919
"40540",540.7569,93.19234,168.86742
"40541",540.7702,89.57412,165.66145
"40542",540.7835,86.33921,162.72574
"40543",540.7968,83.5584,160.14304
"40544",540.8101,81.27322,157.96906
"40545",540.8234,79.51537,156.251
"40546",540.83673,78.35081,155.07129
"40547",540.85004,77.840546,154.50949
"40548",540.86334,78.01633,154.61778
"40549",540.87665,78.83177,155.37123
"40550",540.88995,80.128174,156.63112
"40551",540.90326,81.654076,158.16103
"40552",540.91656,83.13359,159.69223
"40553",540.9299,84.30549,160.96205
"40554",540.9432,84.98909,161.7802
"40555",540.9565,85.09407,162.04109
"40556",540.9698,84.62043,161.72664
"40557",540.9831,83.63653,160.88713
"40558",540.9964,82.25468,159.61893
"40559",541.0097,80.59449,158.0292
"40560",541.023,78.77562,156.22891
"40561",541.0363,76.90791,154.32294
"40562",541.0496,75.07683,152.39522
"40563",541.0629,73.34829,150.51283
"40564",541.07623,71.78088,148.73756
"40565",541.08954,70.41367,147.11351
"40566",541.10284,69.2662,145.66646
"40567",541.11615,68.34333,144.40816
"40568",541.12946,67.64263,143.34319
"40569",541.14276,67.1519,142.4663
"40570",541.15607,66.85161,141.7645
"40571",541.1694,66.719765,141.22177
"40572",541.1827,66.73441,140.82141
"40573",541.196,66.87602,140.54848
"40574",541.2093,67.11772,140.38005
"40575",541.2226,67.44488,140.30464
"40576",541.2359,67.828186,140.29561
"40577",541.2492,68.25544,140.3425
"40578",541.2625,68.699776,140.41982
"40579",541.2758,69.13435,140.50127
"40580",541.2891,69.539635,140.567
"40581",541.3024,69.891205,140.59169
"40582",541.31573,70.16708,140.55167
"40583",541.32904,70.34287,140.42018
"40584",541.34235,70.41856,140.19408
"40585",541.35565,70.40147,139.87756
"40586",541.36896,70.35508,139.53122
"40587",541.38226,70.47959,139.35432
"40588",541.39557,71.25109,139.82831
"40589",541.4089,73.36294,141.66675
"40590",541.4222,77.401085,145.49748
"40591",541.4355,83.458305,151.47348
"40592",541.4488,90.985275,159.10852
"40593",541.4621,98.9102,167.37674
"40594",541.4754,105.95865,175.01613
"40595",541.4887,111.078354,180.94704
"40596",541.502,113.795685,184.63556
"40597",541.5153,114.24979,186.14578
"40598",541.5286,112.92409,185.89038
"40599",541.54193,110.35325,184.34842
"40600",541.55524,107.001144,181.94485
"40601",541.56854,103.2633,179.0508
"40602",541.58185,99.459526,175.974
"40603",541.59515,95.86328,172.98587
"40604",541.60846,92.67231,170.29062
"40605",541.62177,89.99649,168.0108
"40606",541.6351,87.86267,166.18938
"40607",541.6484,86.21225,164.78467
"40608",541.6617,84.96956,163.73611
"40609",541.675,84.07355,162.9954
"40610",541.6883,83.49493,162.54408
"40611",541.7016,83.22148,162.37985
"40612",541.7149,83.24101,162.50006
"40613",541.7282,83.49004,162.85037
"40614",541.7415,83.85626,163.32565
"40615",541.7548,84.2005,163.7904
"40616",541.7681,84.39094,164.1121
"40617",541.78143,84.3299,164.1883
"40618",541.79474,83.949036,163.94273
"40619",541.80804,83.226364,163.34348
"40620",541.82135,82.178986,162.39693
"40621",541.83466,80.848404,161.13445
"40622",541.84796,79.30541,159.61797
"40623",541.86127,77.64034,157.93118
"40624",541.8746,75.93866,156.15576
"40625",541.8879,74.27604,154.36623
"40626",541.9012,72.71107,152.62238
"40627",541.9145,71.28771,150.97124
"40628",541.9278,70.02548,149.43675
"40629",541.9411,68.946365,148.04593
"40630",541.9544,68.050354,146.80449
"40631",541.9677,67.34478,145.7255
"40632",541.981,66.82231,144.80756
"40633",541.9943,66.475624,144.04907
"40634",542.0076,66.285194,143.436
"40635",542.02094,66.23636,142.95859
"40636",542.03424,66.29984,142.59196
"40637",542.04755,66.45609,142.32008
"40638",542.06085,66.68803,142.12877
"40639",542.07416,66.97368,141.99843
"40640",542.08746,67.300835,141.91852
"40641",542.10077,67.649956,141.87079
"40642",542.1141,68.001526,141.83643
"40643",542.1274,68.32624,141.7862
"40644",542.1407,68.60456,141.6997
"40645",542.154,68.82185,141.5609
"40646",542.1673,68.95857,141.3483
"40647",542.1806,69.00252,141.0472
"40648",542.1939,68.94881,140.64981
"40649",542.2072,68.81209,140.16774
"40650",542.2205,68.6778,139.68384
"40651",542.2338,68.83894,139.49117
"40652",542.24713,69.87656,140.18
"40653",542.26044,72.50599,142.49307
"40654",542.27374,77.18379,146.93669
"40655",542.28705,83.77814,153.44302
"40656",542.30035,91.52972,161.31267
"40657",542.31366,99.25445,169.3977
"40658",542.32697,105.70718,176.45213
"40659",542.3403,110.013885,181.5622
"40660",542.3536,111.940186,184.42642
"40661",542.3669,111.78882,185.2732
"40662",542.3802,110.08713,184.56491
"40663",542.3935,107.355156,182.77316
"40664",542.4068,104.042114,180.31497
"40665",542.4201,100.52155,177.54573
"40666",542.4334,97.10109,174.76657
"40667",542.4467,94.02243,172.22232
"40668",542.46,91.439384,170.07747
"40669",542.4733,89.38857,168.38414
"40670",542.48663,87.8114,167.10036
"40671",542.49994,86.59312,166.12617
"40672",542.51324,85.626305,165.3654
"40673",542.52655,84.840164,164.75508
"40674",542.53986,84.22247,164.28865
"40675",542.55316,83.790344,163.98848
"40676",542.56647,83.55108,163.86766
"40677",542.5798,83.47295,163.90051
"40678",542.5931,83.47051,164.0066
"40679",542.6064,83.4461,164.09065
"40680",542.6197,83.3045,164.05675
"40681",542.633,82.9749,163.83041
"40682",542.6463,82.40116,163.34964
"40683",542.6596,81.5613,162.58482
"40684",542.6729,80.46998,161.5423
"40685",542.6862,79.17357,160.26057
"40686",542.6995,77.72335,158.78453
"40687",542.7128,76.19501,157.18504
"40688",542.72614,74.649574,155.5207
"40689",542.73944,73.15785,153.86179
"40690",542.75275,71.75647,152.24658
"40691",542.76605,70.486916,150.71942
"40692",542.77936,69.37118,149.3064
"40693",542.79266,68.42878,148.03185
"40694",542.80597,67.66216,146.90363
"40695",542.8193,67.07866,145.93457
"40696",542.8326,66.67094,145.12306
"40697",542.8459,66.426796,144.46239
"40698",542.8592,66.321815,143.93324
"40699",542.8725,66.338905,143.52289
"40700",542.8858,66.44877,143.20584
"40701",542.8991,66.62943,142.96303
"40702",542.9124,66.85649,142.77226
"40703",542.9257,67.107956,142.61299
"40704",542.939,67.371635,142.4738
"40705",542.95233,67.632866,142.3404
"40706",542.96564,67.877014,142.19807
"40707",542.97894,68.104065,142.04628
"40708",542.99225,68.31892,141.88939
"40709",543.00555,68.51179,141.71722
"40710",543.01886,68.6778,141.52423
"40711",543.03217,68.79988,141.2925
"40712",543.0455,68.858475,141.00108
"40713",543.0588,68.84627,140.6407
"40714",543.0721,68.748604,140.19449
"40715",543.0854,68.56794,139.66222
"40716",543.0987,68.33112,139.06815
"40717",543.112,68.12848,138.50085
"40718",543.1253,68.21881,138.2202
"40719",543.1386,69.14656,138.77979
"40720",543.1519,71.624626,140.91869
"40721",543.1652,76.14862,145.18095
"40722",543.1785,82.652626,151.5646
"40723",543.19183,90.43351,159.42839
"40724",543.20514,98.32914,167.65007
"40725",543.21844,105.060196,174.95392
"40726",543.23175,109.69161,180.36847
"40727",543.24506,111.91821,183.52293
"40728",543.25836,111.99878,184.60095
"40729",543.27167,110.46311,184.06525
"40730",543.285,107.84589,182.4
"40731",543.2983,104.61097,180.03526
"40732",543.3116,101.14168,177.33507
"40733",543.3249,97.75784,174.61191
"40734",543.3382,94.70359,172.11258
"40735",543.3515,92.14496,170.01343
"40736",543.3648,90.11856,168.36656
"40737",543.3781,88.55604,167.12024
"40738",543.3914,87.34753,166.17911
"40739",543.4047,86.380714,165.44191
"40740",543.418,85.58968,164.85028
"40741",543.43134,84.962234,164.3975
"40742",543.44464,84.52277,164.11311
"40743",543.45795,84.27131,164.00299
"40744",543.47125,84.173645,164.0388
"40745",543.48456,84.14191,164.1375
"40746",543.49786,84.07843,164.20346
"40747",543.51117,83.89288,164.14537
"40748",543.5245,83.51202,163.88615
"40749",543.5378,82.88945,163.37334
"40750",543.5511,82.022736,162.59692
"40751",543.5644,80.93141,161.56882
"40752",543.5777,79.65453,160.32104
"40753",543.591,78.25315,158.90886
"40754",543.6043,76.80049,157.40161
"40755",543.6176,75.352715,155.85385
"40756",543.6309,73.96109,154.317
"40757",543.6442,72.674446,152.84164
"40758",543.65753,71.51232,151.45059
"40759",543.67084,70.501564,150.17459
"40760",543.69745,68.96834,148.02116
"40761",543.71075,68.455635,147.16373
"40762",543.72406,68.11139,146.45872
"40763",543.73737,67.91852,145.89433
"40764",543.7507,67.859924,145.45819
"40765",543.764,67.911194,145.13008
"40766",543.7773,68.050354,144.89146
"40767",543.7906,68.243225,144.7109
"40768",543.8039,68.46052,144.5608
"40769",543.8172,68.69001,144.42969
"40770",543.8305,68.9073,144.29355
"40771",543.8438,69.102615,144.14221
"40772",543.8571,69.26864,143.9677
"40773",543.8704,69.4078,143.7715
"40774",543.8837,69.51278,143.54547
"40775",543.89703,69.593346,143.29831
"40776",543.91034,69.65438,143.03413
"40777",543.92365,69.695885,142.75233
"40778",543.93695,69.72274,142.45718
"40779",543.95026,69.72274,142.13602
"40780",543.96356,69.691,141.78311
"40781",543.97687,69.61288,141.38283
"40782",543.9902,69.4786,140.92395
"40783",544.0035,69.28573,140.40228
"40784",544.0168,69.04646,139.8282
"40785",544.0301,68.82674,139.26617
"40786",544.0434,68.84627,138.93654
"40787",544.0567,69.58358,139.3253
"40788",544.07,71.707634,141.12384
"40789",544.0833,75.72625,144.88332
"40790",544.0966,81.636986,150.66049
"40791",544.1099,88.80995,157.88461
"40792",544.1232,96.16846,165.51843
"40793",544.13654,102.486916,172.34216
"40794",544.14984,106.82292,177.38089
"40795",544.16315,108.83223,180.22841
"40796",544.17645,108.75166,181.04884
"40797",544.18976,107.10857,180.30423
"40798",544.20306,104.447395,178.4902
"40799",544.2164,101.239334,176.04613
"40800",544.2297,97.865265,173.33578
"40801",544.243,94.63035,170.65915
"40802",544.2563,91.747,168.233
"40803",544.2696,89.359276,166.21237
"40804",544.2829,87.49401,164.63959
"40805",544.2962,86.0853,163.46506
"40806",544.3095,85.02327,162.5932
"40807",544.3228,84.20538,161.9323
"40808",544.3361,83.56817,161.4265
"40809",544.3494,83.09697,161.0668
"40810",544.36273,82.811325,160.87794
"40811",544.37604,82.70878,160.86325
"40812",544.38934,82.75029,160.98941
"40813",544.40265,82.85283,161.1779
"40814",544.41595,82.90898,161.32321
"40815",544.42926,82.8333,161.33844
"40816",544.44257,82.55741,161.1511
"40817",544.4559,82.04471,160.7183
"40818",544.4692,81.287865,160.02536
"40819",544.4825,80.31129,159.08904
"40820",544.4958,79.16136,157.94884
"40821",544.5091,77.89426,156.65552
"40822",544.5224,76.57343,155.26889
"40823",544.5357,75.2575,153.84587
"40824",544.549,73.99771,152.43788
"40825",544.5623,72.8307,151.0833
"40826",544.5756,71.78821,149.81676
"40827",544.5889,70.8922,148.66412
"40828",544.60223,70.15488,147.64218
"40829",544.61554,69.58114,146.76079
"40830",544.62885,69.170975,146.02504
"40831",544.64215,68.92195,145.4376
"40832",544.65546,68.81941,144.98888
"40833",544.66876,68.83894,144.65901
"40834",544.68207,68.95857,144.42986
"40835",544.6954,69.15144,144.27768
"40836",544.7087,69.38827,144.17549
"40837",544.722,69.644615,144.10022
"40838",544.7353,69.90341,144.03542
"40839",544.7486,70.15488,143.97136
"40840",544.7619,70.381935,143.89076
"40841",544.7752,70.57969,143.78795
"40842",544.7885,70.748146,143.66202
"40843",544.8018,70.889755,143.51451
"40844",544.8151,70.994736,143.3348
"40845",544.8284,71.07286,143.1315
"40846",544.84174,71.12169,142.90135
"40847",544.85504,71.14122,142.64343
"40848",544.86835,71.12901,142.35439
"40849",544.88165,71.07286,142.02101
"40850",544.89496,70.96788,141.63705
"40851",544.90826,70.804306,141.19122
"40852",544.9216,70.58457,140.68413
"40853",544.9349,70.31602,140.12134
"40854",544.9482,70.03281,139.5355
"40855",544.9615,69.8497,139.04092
"40856",544.9748,70.07431,138.94833
"40857",544.9881,71.26818,139.83203
"40858",545.0014,74.039215,142.3302
"40859",545.0147,78.675514,146.78023
"40860",545.028,84.893875,152.9572
"40861",545.0413,91.85687,160.07314
"40862",545.0546,98.41947,167.00626
"40863",545.06793,103.4757,172.63809
"40864",545.08124,106.373695,176.2697
"40865",545.09454,107.07439,177.79457
"40866",545.10785,105.9733,177.53955
"40867",545.12115,103.61974,175.99767
"40868",545.13446,100.52155,173.63759
"40869",545.14777,97.10841,170.86575
"40870",545.1611,93.70992,168.00189
"40871",545.1744,90.582436,165.30284
"40872",545.1877,87.89441,162.94551
"40873",545.201,85.70931,161.00711
"40874",545.2143,84.01007,159.48628
"40875",545.2276,82.735634,158.33716
"40876",545.2409,81.829865,157.51688
"40877",545.2542,81.26101,157.0052
"40878",545.2675,81.03395,156.81755
"40879",545.2808,81.146255,156.96217
"40880",545.2941,81.5613,157.41304
"40881",545.30743,82.19119,158.09172
"40882",545.32074,82.90654,158.87555
"40883",545.33405,83.546196,159.60603
"40884",545.34735,83.966125,160.13678
"40885",545.36066,84.07355,160.36815
"40886",545.37396,83.82208,160.24399
"40887",545.38727,83.2166,159.75795
"40888",545.4006,82.30106,158.94293
"40889",545.4139,81.15114,157.86491
"40890",545.4272,79.85474,156.60449
"40891",545.4405,78.50706,155.25227
"40892",545.4538,77.18135,153.87991
"40893",545.4671,75.93866,152.54913
"40894",545.4804,74.82292,151.30647
"40895",545.4937,73.85611,150.17787
"40896",545.507,73.05043,149.18019
"40897",545.5203,72.40101,148.3136
"40898",545.5336,71.902954,147.57808
"40899",545.54694,71.553825,146.97592
"40900",545.56024,71.33654,146.49469
"40901",545.57355,71.24376,146.13118
"40902",545.58685,71.26086,145.87465
"40903",545.60016,71.37072,145.71141
"40904",545.61346,71.54406,145.61508
"40905",545.6268,71.75647,145.56325
"40906",545.6401,71.98352,145.53268
"40907",545.6534,72.20325,145.50189
"40908",545.6667,72.40101,145.45601
"40909",545.68,72.58167,145.3992
"40910",545.6933,72.742805,145.3285
"40911",545.7066,72.87709,145.23601
"40912",545.7199,72.98207,145.1184
"40913",545.7332,73.03822,144.95523
"40914",545.7465,73.043106,144.74255
"40915",545.7598,72.97719,144.45923
"40916",545.77313,72.833145,144.09572
"40917",545.78644,72.60609,143.6447
"40918",545.79974,72.31312,143.12067
"40919",545.81305,71.973755,142.54109
"40920",545.82635,71.70275,142.01927
"40921",545.83966,71.800415,141.85765
"40922",545.85297,72.798965,142.59996
"40923",545.8663,75.250175,144.82614
"40924",545.8796,79.415276,148.8428
"40925",545.8929,85.03792,154.44717
"40926",545.9062,91.353935,160.92062
"40927",545.9195,97.30862,167.23012
"40928",545.9328,101.88144,172.34384
"40929",545.9461,104.47181,175.61801
"40930",545.9594,105.03334,176.94429
"40931",545.9727,103.92493,176.61816
"40932",545.986,101.644615,175.08551
"40933",545.9993,98.66605,172.78334
"40934",546.01263,95.3872,170.0878
"40935",546.02594,92.12787,167.30933
"40936",546.03925,89.1371,164.69756
"40937",546.05255,86.57603,162.42201
"40938",546.06586,84.51545,160.56694
"40939",546.07916,82.93584,159.12843
"40940",546.09247,81.77127,158.05562
"40941",546.1058,80.9485,157.28821
"40942",546.1191,80.4358,156.80515
"40943",546.1324,80.22583,156.6088
"40944",546.1457,80.32105,156.71107
"40945",546.159,80.69459,157.09465
"40946",546.1723,81.26101,157.68279
"40947",546.1856,81.89334,158.35452
"40948",546.1989,82.44999,158.97034
"40949",546.2122,82.80156,159.39847
"40950",546.2255,82.85771,159.54218
"40951",546.23883,82.57206,159.34583
"40952",546.25214,81.951935,158.80608
"40953",546.26544,81.041275,157.95642
"40954",546.27875,79.91333,156.86102
"40955",546.29205,78.65598,155.60097
"40956",546.30536,77.347374,154.25035
"40957",546.31866,76.06073,152.88081
"40958",546.332,74.84978,151.54675
"40959",546.3453,73.760895,150.29692
"40960",546.3586,72.8185,149.15955
"40961",546.3719,72.03479,148.15141
"40962",546.3852,71.41711,147.28482
"40963",546.3985,70.960556,146.56006
"40964",546.4118,70.65293,145.96996
"40965",546.4251,70.47715,145.50208
"40966",546.4384,70.42344,145.15077
"40967",546.4517,70.467384,144.89545
"40968",546.465,70.58701,144.71718
"40969",546.47833,70.76524,144.60126
"40970",546.49164,70.98497,144.5324
"40971",546.50494,71.22423,144.48993
"40972",546.51825,71.465935,144.4574
"40973",546.53156,71.69787,144.42264
"40974",546.54486,71.90784,144.37317
"40975",546.55817,72.08606,144.29851
"40976",546.5715,72.24475,144.20988
"40977",546.5848,72.37415,144.09694
"40978",546.5981,72.47181,143.95628
"40979",546.6114,72.52552,143.77473
"40980",546.6247,72.518196,143.53383
"40981",546.638,72.44251,143.22433
"40982",546.6513,72.29603,142.84167
"40983",546.6646,72.08118,142.38608
"40984",546.6779,71.834595,141.89203
"40985",546.6912,71.66369,141.46596
"40986",546.7045,71.868774,141.41054
"40987",546.71783,72.99428,142.28194
"40988",546.73114,75.650566,144.7193
"40989",546.74445,80.12329,149.0561
"40990",546.75775,86.151215,155.08789
"40991",546.77106,92.93111,162.06001
"40992",546.78436,99.34478,168.87778
"40993",546.79767,104.30091,174.43843
"40994",546.811,107.15495,178.05188
"40995",546.8243,107.86542,179.61093
"40996",546.8376,106.83513,179.45143
"40997",546.8509,104.59388,178.04878
"40998",546.8642,101.65194,175.8754
"40999",546.8775,98.426796,173.32687
"41000",546.8908,95.25048,170.7264
"41001",546.9041,92.38178,168.33427
"41002",546.9174,90.003815,166.34323
"41003",546.9307,88.18494,164.83698
"41004",546.94403,86.88365,163.79147
"41005",546.95734,85.97055,163.09349
"41006",546.97064,85.28695,162.59647
"41007",546.98395,84.70832,162.18306
"41008",546.99725,84.16876,161.79063
"41009",547.01056,83.68047,161.43262
"41010",547.02386,83.28008,161.14725
"41011",547.0372,82.99931,160.96898
"41012",547.0505,82.83574,160.89914
"41013",547.0638,82.738075,160.89009
"41014",547.0771,82.633095,160.87068
"41015",547.0904,82.442665,160.76254
"41016",547.1037,82.10574,160.50195
"41017",547.117,81.58816,160.05017
"41018",547.1303,80.87526,159.3869
"41019",547.1436,79.98901,158.52802
"41020",547.1569,78.975815,157.51447
"41021",547.1702,77.88449,156.39113
"41022",547.18353,76.76387,155.20439
"41023",547.19684,75.665215,154.00461
"41024",547.21014,74.62272,152.82664
"41025",547.22345,73.670555,151.70644
"41026",547.23676,72.833145,150.67123
"41027",547.25006,72.12756,149.74168
"41028",547.26337,71.55627,148.92438
"41029",547.2767,71.12169,148.22594
"41030",547.29,70.81407,147.64087
"41031",547.3033,70.61631,147.15605
"41032",547.3166,70.51133,146.75783
"41033",547.3299,70.486916,146.43689
"41034",547.3432,70.5333,146.18599
"41035",547.3565,70.63584,145.99269
"41036",547.3698,70.77745,145.84167
"41037",547.3831,70.93614,145.71216
"41038",547.3964,71.09239,145.58516
"41039",547.4097,71.23399,145.4484
"41040",547.42303,71.35363,145.2941
"41041",547.43634,71.45373,145.124
"41042",547.44965,71.534294,144.93748
"41043",547.46295,71.60265,144.74129
"41044",547.47626,71.65392,144.53014
"41045",547.48956,71.692986,144.30838
"41046",547.50287,71.707634,144.06343
"41047",547.5162,71.690544,143.7872
"41048",547.5295,71.639275,143.47626
"41049",547.5428,71.53918,143.11488
"41050",547.5561,71.38293,142.69423
"41051",547.5694,71.1754,142.21742
"41052",547.5827,70.93858,141.70483
"41053",547.596,70.74082,141.2239
"41054",547.6093,70.79942,140.99316
"41055",547.6226,71.58556,141.49179
"41056",547.6359,73.724266,143.36754
"41057",547.64923,77.659874,147.10703
"41058",547.66254,83.30694,152.68095
"41059",547.67584,90.02579,159.50314
"41060",547.68915,96.76906,166.55972
"41061",547.70245,102.38926,172.70395
"41062",547.71576,106.05875,177.0731
"41063",547.72906,107.53094,179.35963
"41064",547.7424,107.09392,179.78296
"41065",547.7557,105.2604,178.79613
"41066",547.769,102.555275,176.88039
"41067",547.7823,99.43023,174.46019
"41068",547.7956,96.256355,171.89351
"41069",547.8089,93.32662,169.47179
"41070",547.8222,90.84367,167.40529
"41071",547.8355,88.91005,165.81053
"41072",547.8488,87.5111,164.69002
"41073",547.8621,86.53208,163.94572
"41074",547.8754,85.80942,163.42719
"41075",547.88873,85.21126,163.01057
"41076",547.90204,84.65949,162.62166
"41077",547.91534,84.14679,162.25456
"41078",547.92865,83.71221,161.94957
"41079",547.94196,83.39727,161.75064
"41080",547.95526,83.20195,161.66148
"41081",547.96857,83.08476,161.64436
"41082",547.9819,82.97734,161.63335
"41083",547.9952,82.79912,161.54817
"41084",548.0085,82.48905,161.32558
"41085",548.0218,82.005646,160.91995
"41086",548.0351,81.32937,160.30635
"41087",548.0484,80.465096,159.48363
"41088",548.0617,79.45678,158.48985
"41089",548.075,78.35081,157.3669
"41090",548.0883,77.19844,156.163
"41091",548.1016,76.04852,154.92552
"41092",548.1149,74.94743,153.70094
"41093",548.12823,73.919586,152.5152
"41094",548.14154,72.99672,151.40231
"41095",548.15485,72.198364,150.3851
"41096",548.16815,71.534294,149.47723
"41097",548.18146,71.009384,148.68777
"41098",548.19476,70.62119,148.01863
"41099",548.20807,70.35508,147.45943
"41100",548.2214,70.19882,147.00177
"41101",548.2347,70.132904,146.62956
"41102",548.248,70.14023,146.32854
"41103",548.2613,70.20615,146.08633
"41104",548.2746,70.313576,145.88771
"41105",548.2879,70.44297,145.7144
"41106",548.3012,70.57725,145.55002
"41107",548.3145,70.70176,145.38007
"41108",548.3278,70.80675,145.19449
"41109",548.3411,70.87999,144.98044
"41110",548.35443,70.91417,144.72961
"41111",548.36774,70.91905,144.45056
"41112",548.38104,70.89708,144.1448
"41113",548.39435,70.853134,143.81639
"41114",548.40765,70.79698,143.4744
"41115",548.42096,70.73594,143.12576
"41116",548.43427,70.674904,142.77522
"41117",548.4476,70.608986,142.4179
"41118",548.4609,70.52598,142.04141
"41119",548.4742,70.41856,141.63792
"41120",548.4875,70.27451,141.19446
"41121",548.5008,70.0914,140.70743
"41122",548.5141,69.874115,140.1805
"41123",548.5274,69.68368,139.67363
"41124",548.5407,69.7203,139.38786
"41125",548.554,70.43809,139.78441
"41126",548.5673,72.48646,141.53397
"41127",548.5806,76.37812,145.19083
"41128",548.59393,82.11551,150.81503
"41129",548.60724,89.09071,157.85635
"41130",548.62054,96.23682,165.28654
"41131",548.63385,102.3502,171.90732
"41132",548.64716,106.49088,176.74644
"41133",548.66046,108.33173,179.41513
"41134",548.67377,108.11688,180.08565
"41135",548.6871,106.38102,179.22844
"41136",548.7004,103.66857,177.3404
"41137",548.7137,100.455635,174.8671
"41138",548.727,97.110855,172.16156
"41139",548.7403,93.93698,169.5224
"41140",548.7536,91.14885,167.1698
"41141",548.7669,88.88075,165.2501
"41142",548.7802,87.14732,163.7942
"41143",548.7935,85.8851,162.75534
"41144",548.8068,84.972,162.02615
"41145",548.8201,84.29572,161.50525
"41146",548.83344,83.78302,161.12679
"41147",548.84674,83.41924,160.88123
"41148",548.86005,83.2166,160.78543
"41149",548.87335,83.18486,160.85422
"41150",548.88666,83.28741,161.05629
"41151",548.89996,83.45098,161.3226
"41152",548.91327,83.577934,161.5574
"41153",548.9266,83.56817,161.65945
"41154",548.9399,83.34844,161.55124
"41155",548.9532,82.88457,161.192
"41156",548.9665,82.1741,160.57169
"41157",548.9798,81.24635,159.71188
"41158",548.9931,80.14282,158.64731
"41159",549.0064,78.924545,157.4335
"41160",549.0197,77.65743,156.13278
"41161",549.033,76.39033,154.79247
"41162",549.0463,75.1696,153.45894
"41163",549.05963,74.03433,152.17271
"41164",549.07294,73.01381,150.96576
"41165",549.08624,72.12024,149.85387
"41166",549.09955,71.36828,148.85567
"41167",549.11285,70.75792,147.97557
"41168",549.12616,70.28672,147.21556
"41169",549.13947,69.95224,146.57755
"41170",549.1528,69.752045,146.06335
"41171",549.1661,69.66903,145.6601
"41172",549.1794,69.68612,145.35434
"41173",549.1927,69.78378,145.1297
"41174",549.206,69.94003,144.96669
"41175",549.2193,70.12802,144.8403
"41176",549.2326,70.32334,144.72713
"41177",549.2459,70.51621,144.6176
"41178",549.2592,70.69199,144.49701
"41179",549.2725,70.84581,144.35995
"41180",549.2858,70.975204,144.20328
"41181",549.29913,71.08507,144.03111
"41182",549.31244,71.17784,143.84529
"41183",549.32574,71.25353,143.6453
"41184",549.33905,71.29992,143.41835
"41185",549.35236,71.3048,143.15135
"41186",549.36566,71.25109,142.82591
"41187",549.37897,71.13634,142.43776
"41188",549.3923,70.960556,141.98499
"41189",549.4056,70.7335,141.47545
"41190",549.4189,70.45518,140.90755
"41191",549.4322,70.15732,140.31142
"41192",549.4455,69.942474,139.78899
"41193",549.4588,70.10605,139.63826
"41194",549.4721,71.199814,140.42284
"41195",549.4854,73.85611,142.80412
"41196",549.4987,78.382545,147.13857
"41197",549.512,84.53254,153.238
"41198",549.5253,91.49798,160.3451
"41199",549.53864,98.14603,167.35245
"41200",549.55194,103.36584,173.13931
"41201",549.56525,106.47135,176.975
"41202",549.57855,107.38445,178.71533
"41203",549.59186,106.47135,178.65799
"41204",549.60516,104.25941,177.27327
"41205",549.61847,101.23689,175.00887
"41206",549.6318,97.80423,172.23985
"41207",549.6451,94.29099,169.28299
"41208",549.6584,90.96086,166.39944
"41209",549.6717,87.99939,163.7805
"41210",549.685,85.50912,161.5402
"41211",549.6983,83.50713,159.71039
"41212",549.7116,81.971466,158.28432
"41213",549.7249,80.88014,157.25461
"41214",549.7382,80.23071,156.63269
"41215",549.7515,80.03784,156.44702
"41216",549.76483,80.30152,156.71188
"41217",549.77814,80.972916,157.3927
"41218",549.79144,81.92752,158.37772
"41219",549.80475,82.97978,159.49022
"41220",549.81805,83.93439,160.53795
"41221",549.83136,84.61555,161.34206
"41222",549.84467,84.90364,161.77438
"41223",549.858,84.74494,161.76892
"41224",549.8713,84.14923,161.32149
"41225",549.8846,83.17265,160.47458
"41226",549.8979,81.90799,159.30907
"41227",549.9112,80.45533,157.91603
"41228",549.9245,78.90257,156.3775
"41229",549.9378,77.330284,154.77092
"41230",549.9511,75.7995,153.15671
"41231",549.9644,74.36637,151.59232
"41232",549.9777,73.077286,150.12718
"41233",549.991,71.96643,148.79999
"41234",550.00433,71.043564,147.62607
"41235",550.01764,70.313576,146.6162
"41236",550.03094,69.771576,145.7715
"41237",550.04425,69.400475,145.08076
"41238",550.05756,69.188065,144.53712
"41239",550.07086,69.11482,144.126
"41240",550.08417,69.16121,143.83223
"41241",550.0975,69.29305,143.62537
"41242",550.1108,69.49325,143.49097
"41243",550.1241,69.73983,143.40921
"41244",550.1374,70.01083,143.35959
"41245",550.1507,70.29893,143.33553
"41246",550.164,70.591896,143.32533
"41247",550.1773,70.87999,143.31943
"41248",550.1906,71.13634,143.29077
"41249",550.2039,71.346306,143.22375
"41250",550.2172,71.48791,143.09492
"41251",550.2305,71.54406,142.88507
"41252",550.24384,71.505,142.58176
"41253",550.25714,71.36828,142.17957
"41254",550.27045,71.15831,141.69986
"41255",550.28375,70.923935,141.18918
"41256",550.29706,70.85069,140.8323
"41257",550.31036,71.37072,141.06642
"41258",550.32367,73.14076,142.5668
"41259",550.337,76.70283,145.91452
"41260",550.3503,82.13748,151.24614
"41261",550.3636,88.92714,158.1026
"41262",550.3769,96.078125,165.53256
"41263",550.3902,102.38926,172.34613
"41264",550.4035,106.87663,177.53317
"41265",550.4168,109.11299,180.60942
"41266",550.4301,109.2546,181.66081
"41267",550.4434,107.77753,181.09795
"41268",550.4567,105.2018,179.39026
"41269",550.47003,101.99863,176.97464
"41270",550.48334,98.53422,174.1977
"41271",550.49664,95.116196,171.35887
"41272",550.50995,91.97162,168.68668
"41273",550.52325,89.25918,166.34834
"41274",550.53656,87.044785,164.4233
"41275",550.54987,85.31136,162.91002
"41276",550.5632,84.000305,161.76494
"41277",550.5765,83.04814,160.93779
"41278",550.5898,82.41093,160.39583
"41279",550.6031,82.07156,160.1318
"41280",550.6164,82.02518,160.15016
"41281",550.6297,82.2449,160.43318
"41282",550.643,82.652626,160.91106
"41283",550.6563,83.12871,161.47003
"41284",550.6696,83.53155,161.97064
"41285",550.6829,83.74151,162.29097
"41286",550.6962,83.665825,162.33221
"41287",550.70953,83.26055,162.0415
"41288",550.72284,82.52079,161.40364
"41289",550.73615,81.480736,160.44237
"41290",550.74945,80.19653,159.20444
"41291",550.76276,78.74876,157.7628
"41292",550.77606,77.21309,156.18803
"41293",550.78937,75.66033,154.54819
"41294",550.8027,74.16373,152.91597
"41295",550.816,72.77699,151.34685
"41296",550.8293,71.536736,149.88087
"41297",550.8426,70.469826,148.54948
"41298",550.8559,69.58358,147.36542
"41299",550.8692,68.878006,146.33434
"41300",550.8825,68.33845,145.44722
"41301",550.8958,67.9527,144.69705
"41302",550.9091,67.70855,144.07643
"41303",550.9224,67.5938,143.57758
"41304",550.9357,67.58648,143.18256
"41305",550.94904,67.66949,142.87764
"41306",550.96234,67.83063,142.65346
"41307",550.97565,68.050354,142.49289
"41308",550.98895,68.316475,142.38559
"41309",551.00226,68.61921,142.32321
"41310",551.01556,68.93416,142.28252
"41311",551.0289,69.2491,142.25165
"41312",551.0422,69.542076,142.20866
"41313",551.0555,69.79599,142.13577
"41314",551.0688,69.98886,142.00977
"41315",551.0821,70.10605,141.8141
"41316",551.0954,70.14511,141.54398
"41317",551.1087,70.0914,141.1823
"41318",551.122,69.95224,140.73349
"41319",551.1353,69.74227,140.20953
"41320",551.1486,69.52743,139.67413
"41321",551.1619,69.48592,139.30536
"41322",551.17523,70.07675,139.56763
"41323",551.18854,72.00061,141.18138
"41324",551.20184,75.85565,144.78644
"41325",551.21515,81.739525,150.5408
"41326",551.22845,89.1078,157.96344
"41327",551.24176,96.89845,166.03871
"41328",551.25507,103.82239,173.49072
"41329",551.2684,108.81514,179.22792
"41330",551.2817,111.40795,182.7212
"41331",551.295,111.76929,184.06404
"41332",551.3083,110.40696,183.6945
"41333",551.3216,107.880066,182.11783
"41334",551.3349,104.674446,179.78346
"41335",551.3482,101.18562,177.06572
"41336",551.3615,97.73342,174.27557
"41337",551.3748,94.574196,171.67052
"41338",551.3881,91.89105,169.44281
"41339",551.4014,89.7499,167.67325
"41340",551.41473,88.12634,166.35437
"41341",551.42804,86.905624,165.3876
"41342",551.44135,85.95834,164.65613
"41343",551.45465,85.186844,164.07083
"41344",551.46796,84.54719,163.59326
"41345",551.48126,84.051575,163.23975
"41346",551.49457,83.719536,163.03432
"41347",551.5079,83.55352,162.98454
"41348",551.5212,83.49737,163.03944
"41349",551.5345,83.46563,163.117
"41350",551.5478,83.36309,163.12277
"41351",551.5611,83.106735,162.97151
"41352",551.5744,82.63798,162.59984
"41353",551.5877,81.92264,161.96693
"41354",551.601,80.953384,161.05777
"41355",551.6143,79.766846,159.90103
"41356",551.6276,78.41184,158.53874
"41357",551.6409,76.944534,157.0218
"41358",551.65424,75.43328,155.41507
"41359",551.66754,73.94644,153.78552
"41360",551.68085,72.532845,152.18275
"41361",551.69415,71.236435,150.653
"41362",551.70746,70.07675,149.21945
"41363",551.72076,69.07332,147.90591
"41364",551.7341,68.23346,146.7246
"41365",551.7474,67.55718,145.68062
"41366",551.7607,67.04692,144.78152
"41367",551.774,66.69047,144.0203
"41368",551.7873,66.48051,143.39441
"41369",551.8006,66.390175,142.88159
"41370",551.8139,66.40238,142.46849
"41371",551.8272,66.495155,142.13634
"41372",551.8405,66.651405,141.87056
"41373",551.8538,66.85405,141.65607
"41374",551.8671,67.09819,141.4894
"41375",551.88043,67.371635,141.35966
"41376",551.89374,67.66216,141.25555
"41377",551.90704,67.9527,141.16054
"41378",551.92035,68.223694,141.05505
"41379",551.93365,68.45075,140.91411
"41380",551.94696,68.611885,140.71432
"41381",551.96027,68.69245,140.43901
"41382",551.9736,68.69245,140.08565
"41383",551.9869,68.611885,139.65172
"41384",552.0002,68.45319,139.13715
"41385",552.0135,68.23834,138.56146
"41386",552.0268,68.06012,138.01569
"41387",552.0401,68.17731,137.75975
"41388",552.0534,69.14656,138.35954
"41389",552.0667,71.692986,140.5668
"41390",552.08,76.30732,144.92154
"41391",552.0933,82.899216,151.39804
"41392",552.1066,90.71671,159.30614
"41393",552.11993,98.56107,167.4854
"41394",552.13324,105.13832,174.64268
"41395",552.14655,109.51827,179.80821
"41396",552.15985,111.432365,182.64474
"41397",552.17316,111.19798,183.39262
"41398",552.18646,109.38155,182.55113
"41399",552.19977,106.54215,180.6299
"41400",552.2131,103.13878,178.05597
"41401",552.2264,99.542534,175.18282
"41402",552.2397,96.061035,172.31203
"41403",552.253,92.92378,169.67668
"41404",552.2663,90.27238,167.42914
"41405",552.2796,88.15808,165.63585
"41406",552.2929,86.52964,164.26234
"41407",552.3062,85.28939,163.22615
"41408",552.3195,84.33967,162.44173
"41409",552.3328,83.6292,161.86688
"41410",552.3461,83.14336,161.49445
"41411",552.35944,82.896774,161.3461
"41412",552.37274,82.88457,161.42442
"41413",552.38605,83.053024,161.68303
"41414",552.39935,83.30938,162.03479
"41415",552.41266,83.529106,162.35794
"41416",552.42596,83.59991,162.53903
"41417",552.4393,83.42901,162.48064
"41418",552.4526,82.96025,162.11903
"41419",552.4659,82.17166,161.42296
"41420",552.4792,81.08522,160.40439
"41421",552.4925,79.7522,159.10529
"41422",552.5058,78.25559,157.60094
"41423",552.5191,76.680855,155.97168
"41424",552.5324,75.10857,154.29567
"41425",552.5457,73.599754,152.634
"41426",552.559,72.20325,151.03749
"41427",552.5723,70.94835,149.53894
"41428",552.58563,69.8497,148.15742
"41429",552.59894,68.91707,146.9076
"41430",552.61224,68.157776,145.80196
"41431",552.62555,67.56695,144.84106
"41432",552.63885,67.139694,144.02528
"41433",552.65216,66.87846,143.36217
"41434",552.66547,66.775925,142.84958
"41435",552.6788,66.81499,142.47539
"41436",552.6921,66.97856,142.22693
"41437",552.7054,67.24223,142.08368
"41438",552.7187,67.56451,142.00728
"41439",552.732,67.913635,141.9678
"41440",552.7453,68.265205,141.94168
"41441",552.7586,68.59724,141.907
"41442",552.7719,68.89754,141.85097
"41443",552.7852,69.15144,141.75792
"41444",552.7985,69.35165,141.61911
"41445",552.8118,69.48348,141.41818
"41446",552.82513,69.542076,141.14813
"41447",552.83844,69.51034,140.78958
"41448",552.85175,69.39071,140.34215
"41449",552.86505,69.190506,139.81041
"41450",552.87836,68.95369,139.2358
"41451",552.89166,68.85115,138.78806
"41452",552.90497,69.30038,138.88889
"41453",552.9183,70.94591,140.20006
"41454",552.9316,74.39567,143.36688
"41455",552.9449,79.835205,148.63129
"41456",552.9582,86.820175,155.61111
"41457",552.9715,94.36912,163.37318
"41458",552.9848,101.24422,170.69731
"41459",552.9981,106.36393,176.48091
"41460",553.0114,109.1667,180.10756
"41461",553.0247,109.72335,181.57567
"41462",553.038,108.48554,181.26671
"41463",553.05133,105.99771,179.66905
"41464",553.06464,102.745705,177.22948
"41465",553.07794,99.13481,174.32939
"41466",553.09125,95.4873,171.27985
"41467",553.10455,92.05463,168.33115
"41468",553.11786,89.00282,165.65605
"41469",553.13116,86.40757,163.34213
"41470",553.1445,84.27375,161.40855
"41471",553.1578,82.581825,159.85019
"41472",553.1711,81.322044,158.6711
"41473",553.1844,80.52613,157.9165
"41474",553.1977,80.218506,157.62532
"41475",553.211,80.40406,157.8177
"41476",553.2243,81.024185,158.45045
"41477",553.2376,81.93729,159.39557
"41478",553.2509,82.94072,160.45955
"41479",553.2642,83.826965,161.4377
"41480",553.2775,84.42512,162.15544
"41481",553.29083,84.62287,162.49149
"41482",553.30414,84.36408,162.37717
"41483",553.31744,83.6585,161.80797
"41484",553.33075,82.564735,160.82854
"41485",553.34406,81.17799,159.52194
"41486",553.35736,79.59838,157.97914
"41487",553.37067,77.91867,156.28688
"41488",553.384,76.23163,154.53479
"41489",553.3973,74.60563,152.79103
"41490",553.4106,73.094376,151.1112
"41491",553.4239,71.72961,149.53064
"41492",553.4372,70.54307,148.08565
"41493",553.4505,69.5494,146.79645
"41494",553.4638,68.76814,145.68861
"41495",553.4771,68.19928,144.76875
"41496",553.4904,67.83063,144.03133
"41497",553.5037,67.64019,143.4606
"41498",553.517,67.59136,143.02553
"41499",553.53033,67.64507,142.69147
"41500",553.54364,67.76227,142.42258
"41501",553.55695,67.9234,142.20128
"41502",553.57025,68.13092,142.0314
"41503",553.58356,68.37995,141.90953
"41504",553.59686,68.663155,141.8296
"41505",553.61017,68.97078,141.78296
"41506",553.6235,69.28817,141.75569
"41507",553.6368,69.58846,141.72124
"41508",553.6501,69.84238,141.6498
"41509",553.6634,70.02304,141.51303
"41510",553.6767,70.10849,141.2867
"41511",553.69,70.0914,140.9605
"41512",553.7033,69.98886,140.54831
"41513",553.7166,69.89365,140.14024
"41514",553.7299,70.066986,139.99776
"41515",553.7432,71.05333,140.67369
"41516",553.75653,73.54116,142.88194
"41517",553.76984,77.98459,147.12354
"41518",553.78314,84.298164,153.37413
"41519",553.79645,91.77142,160.9817
"41520",553.80975,99.27154,168.84967
"41521",553.82306,105.57778,175.75815
"41522",553.83636,109.803925,180.7836
"41523",553.8497,111.69848,183.60953
"41524",553.863,111.53979,184.4414
"41525",553.8763,109.84787,183.7351
"41526",553.8896,107.14519,181.96518
"41527",553.9029,103.8761,179.54437
"41528",553.9162,100.39948,176.81389
"41529",553.9295,97.01564,174.06754
"41530",553.9428,93.95651,171.54015
"41531",553.9561,91.371025,169.3908
"41532",553.9694,89.29824,167.67336
"41533",553.9827,87.68932,166.35501
"41534",553.99603,86.44663,165.35262
"41535",554.00934,85.46761,164.57506
"41536",554.02264,84.69367,163.97198
"41537",554.03595,84.11017,163.53516
"41538",554.04926,83.734184,163.28761
"41539",554.06256,83.57549,163.24562
"41540",554.07587,83.5877,163.36957
"41541",554.0892,83.6878,163.58179
"41542",554.1025,83.77081,163.78004
"41543",554.1158,83.72686,163.85393
"41544",554.1291,83.46319,163.70673
"41545",554.1424,82.92851,163.28027
"41546",554.1557,82.11063,162.55391
"41547",554.169,81.02663,161.53587
"41548",554.1823,79.727776,160.2691
"41549",554.1956,78.28245,158.81526
"41550",554.2089,76.773636,157.25278
"41551",554.2222,75.27215,155.65047
"41552",554.23553,73.83414,154.06471
"41553",554.24884,72.50843,152.54633
"41554",554.26215,71.32433,151.12811
"41555",554.27545,70.296486,149.82915
"41556",554.28876,69.42977,148.6592
"41557",554.30206,68.7364,147.6355
"41558",554.31537,68.223694,146.77081
"41559",554.3287,67.87457,146.05368
"41560",554.342,67.681694,145.48189
"41561",554.3553,67.62798,145.04323
"41562",554.3686,67.6939,144.72252
"41563",554.3819,67.84039,144.48445
"41564",554.3952,68.04547,144.30954
"41565",554.4085,68.279854,144.17035
"41566",554.4218,68.51911,144.04335
"41567",554.4351,68.74372,143.90918
"41568",554.4484,68.946365,143.76007
"41569",554.46173,69.12459,143.59286
"41570",554.47504,69.280846,143.40927
"41571",554.48834,69.402916,143.19637
"41572",554.50165,69.48592,142.94821
"41573",554.51495,69.52743,142.66115
"41574",554.52826,69.5201,142.32655
"41575",554.54156,69.46395,141.9429
"41576",554.5549,69.35165,141.50134
"41577",554.5682,69.18562,141.00256
"41578",554.5815,68.97322,140.45221
"41579",554.5948,68.73884,139.87325
"41580",554.6081,68.60212,139.38461
"41581",554.6214,68.926834,139.35315
"41582",554.6347,70.3502,140.43048
"41583",554.648,73.55093,143.32965
"41584",554.6613,78.82689,148.40408
"41585",554.6746,85.838715,155.37924
"41586",554.6879,93.67086,163.39384
"41587",554.70123,101.07576,171.22595
"41588",554.71454,106.879074,177.68788
"41589",554.72784,110.41184,182.06062
"41590",554.74115,111.65453,184.2537
"41591",554.75446,111.01488,184.60324
"41592",554.76776,109.02754,183.58511
"41593",554.78107,106.18082,181.6455
"41594",554.7944,102.89464,179.17746
"41595",554.8077,99.52056,176.51884
"41596",554.821,96.34913,173.95743
"41597",554.8343,93.6025,171.72171
"41598",554.8476,91.38567,169.92996
"41599",554.8609,89.67422,168.57431
"41600",554.8742,88.3534,167.55582
"41601",554.8875,87.28161,166.74507
"41602",554.9008,86.34165,166.03267
"41603",554.9141,85.47738,165.36658
"41604",554.9274,84.70344,164.76381
"41605",554.94073,84.068665,164.27602
"41606",554.95404,83.60967,163.94417
"41607",554.96735,83.30694,163.75424
"41608",554.98065,83.10918,163.65982
"41609",554.99396,82.930954,163.57877
"41610",555.00726,82.686806,163.42621
"41611",555.02057,82.29374,163.11711
"41612",555.0339,81.70046,162.59552
"41613",555.0472,80.87526,161.82346
"41614",555.0605,79.82788,160.80344
"41615",555.0738,78.59251,159.56268
"41616",555.0871,77.22774,158.15393
"41617",555.1004,75.80438,156.64394
"41618",555.1137,74.38102,155.08946
"41619",555.127,73.00893,153.54178
"41620",555.1403,71.72961,152.04399
"41621",555.1536,70.572365,150.6283
"41622",555.16693,69.55428,149.3156
"41623",555.18024,68.69245,148.12733
"41624",555.19354,67.99664,147.07817
"41625",555.20685,67.46197,146.1684
"41626",555.22015,67.088425,145.40305
"41627",555.23346,66.861374,144.7725
"41628",555.24677,66.76616,144.26671
"41629",555.2601,66.775925,143.86292
"41630",555.2734,66.86626,143.54
"41631",555.2867,67.00786,143.27116
"41632",555.3,67.17143,143.02873
"41633",555.3133,67.34234,142.79875
"41634",555.3266,67.50347,142.56433
"41635",555.3399,67.649956,142.3203
"41636",555.3532,67.774475,142.05888
"41637",555.3665,67.8819,141.78426
"41638",555.3798,67.96735,141.49101
"41639",555.3931,68.035706,141.18335
"41640",555.40643,68.08209,140.85585
"41641",555.41974,68.11139,140.51271
"41642",555.43304,68.10895,140.13875
"41643",555.44635,68.07233,139.73053
"41644",555.45966,67.999084,139.28455
"41645",555.47296,67.879456,138.78989
"41646",555.48627,67.71343,138.2451
"41647",555.4996,67.523,137.67072
"41648",555.5129,67.405815,137.16362
"41649",555.5262,67.6524,137.01663
"41650",555.5395,68.85115,137.82953
"41651",555.5528,71.71252,140.3425
"41652",555.5661,76.65156,145.02255
"41653",555.5794,83.48516,151.75151
"41654",555.5927,91.39544,159.7707
"41655",555.606,99.16167,167.89304
"41656",555.6193,105.52407,174.85425
"41657",555.6326,109.64767,179.77547
"41658",555.64594,111.364006,182.41829
"41659",555.65924,111.01976,183.05417
"41660",555.67255,109.17403,182.1778
"41661",555.68585,106.36149,180.27695
"41662",555.69916,103.02159,177.76085
"41663",555.71246,99.525444,174.98413
"41664",555.72577,96.166016,172.23488
"41665",555.7391,93.172806,169.74686
"41666",555.7524,90.667885,167.65358
"41667",555.7657,88.673225,165.9923
"41668",555.779,87.10826,164.69836
"41669",555.7923,85.86801,163.68025
"41670",555.8056,84.86458,162.8602
"41671",555.8189,84.06134,162.20898
"41672",555.8322,83.47295,161.74751
"41673",555.8455,83.12627,161.50935
"41674",555.8588,83.0164,161.4972
"41675",555.87213,83.089645,161.6647
"41676",555.88544,83.245895,161.91751
"41677",555.89874,83.36065,162.1337
"41678",555.91205,83.32891,162.20699
"41679",555.92535,83.070114,162.05222
"41680",555.93866,82.53544,161.61348
"41681",555.95197,81.71755,160.87483
"41682",555.9653,80.638435,159.8494
"41683",555.9786,79.34936,158.58028
"41684",555.9919,77.91623,157.12682
"41685",556.0052,76.4123,155.55777
"41686",556.0185,74.898605,153.93196
"41687",556.0318,73.428856,152.3028
"41688",556.0451,72.05432,150.72292
"41689",556.0584,70.81651,149.2368
"41690",556.0717,69.74471,147.87802
"41691",556.085,68.85115,146.66399
"41692",556.0983,68.140686,145.60512
"41693",556.11163,67.60845,144.70229
"41694",556.12494,67.247116,143.95372
"41695",556.13824,67.037155,143.34523
"41696",556.15155,66.966354,142.86934
"41697",556.16486,67.01518,142.51086
"41698",556.17816,67.16411,142.25401
"41699",556.19147,67.39605,142.08484
"41700",556.2048,67.6939,141.98882
"41701",556.2181,68.04303,141.95338
"41702",556.2314,68.421455,141.95816
"41703",556.2447,68.81209,141.98697
"41704",556.258,69.188065,142.01332
"41705",556.2713,69.522545,142.00993
"41706",556.2846,69.78378,141.94376
"41707",556.2979,69.95712,141.79784
"41708",556.3112,70.02304,141.54991
"41709",556.3245,69.97177,141.18686
"41710",556.3378,69.80087,140.70258
"41711",556.35114,69.53719,140.12018
"41712",556.36444,69.241776,139.4978
"41713",556.37775,69.10506,139.02489
"41714",556.39105,69.556725,139.1361
"41715",556.40436,71.22423,140.47725
"41716",556.41766,74.652016,143.6308
"41717",556.43097,79.9646,148.77626
"41718",556.4443,86.70054,155.5111
"41719",556.4576,93.90036,162.9203
"41720",556.4709,100.39948,169.8538
"41721",556.4842,105.20668,175.2985
"41722",556.4975,107.83124,178.71075
"41723",556.5108,108.35371,180.10295
"41724",556.5241,107.19646,179.83176
"41725",556.5374,104.85756,178.34274
"41726",556.5507,101.78134,176.04332
"41727",556.564,98.34867,173.29132
"41728",556.57733,94.86717,170.38322
"41729",556.59064,91.5761,167.55676
"41730",556.60394,88.621956,164.96437
"41731",556.61725,86.07553,162.68738
"41732",556.63055,83.95636,160.75807
"41733",556.64386,82.262,159.18735
"41734",556.65717,81.01686,158.0129
"41735",556.6705,80.272224,157.30003
"41736",556.6838,80.06958,157.1059
"41737",556.6971,80.396736,157.43523
"41738",556.7104,81.160904,158.21179
"41739",556.7237,82.18387,159.27104
"41740",556.737,83.243454,160.39888
"41741",556.7503,84.119934,161.37672
"41742",556.7636,84.64973,162.03526
"41743",556.7769,84.73029,162.26114
"41744",556.7902,84.332344,162.01102
"41745",556.8035,83.4876,161.30167
"41746",556.81683,82.26444,160.1875
"41747",556.83014,80.762955,158.75677
"41748",556.84344,79.09056,157.10823
"41749",556.85675,77.347374,155.33662
"41750",556.87006,75.62859,153.53494
"41751",556.88336,74.01236,151.7821
"41752",556.89667,72.55482,150.13745
"41753",556.91,71.29015,148.64012
"41754",556.9233,70.240326,147.31812
"41755",556.9366,69.400475,146.17328
"41756",556.9499,68.76814,145.20972
"41757",556.9632,68.32624,144.41682
"41758",556.9765,68.06256,143.78835
"41759",556.9898,67.96979,143.32253
"41760",557.0031,68.035706,143.0125
"41761",557.0164,68.23834,142.84125
"41762",557.0297,68.54597,142.78133
"41763",557.043,68.90242,142.77985
"41764",557.05634,69.2662,142.79683
"41765",557.06964,69.59579,142.79099
"41766",557.08295,69.85947,142.72954
"41767",557.09625,70.03769,142.59087
"41768",557.10956,70.118256,142.3601
"41769",557.12286,70.10361,142.03665
"41770",557.13617,70.01572,141.6395
"41771",557.1495,69.97421,141.28598
"41772",557.1628,70.279396,141.27786
"41773",557.1761,71.47082,142.16551
"41774",557.1894,74.144196,144.57236
"41775",557.2027,78.60227,148.84744
"41776",557.216,84.627754,154.82924
"41777",557.2293,91.48577,161.83188
"41778",557.2426,98.106964,168.812
"41779",557.2559,103.42687,174.69775
"41780",557.2692,106.76433,178.7673
"41781",557.28253,107.98505,180.8244
"41782",557.29584,107.386894,181.10078
"41783",557.30914,105.445946,180.01567
"41784",557.32245,102.63096,177.99586
"41785",557.33575,99.354546,175.42667
"41786",557.34906,95.96338,172.64034
"41787",557.36237,92.7187,169.8945
"41788",557.3757,89.82559,167.39885
"41789",557.389,87.37438,165.25468
"41790",557.4023,85.36996,163.48071
"41791",557.4156,83.76349,162.04205
"41792",557.4289,82.48905,160.88522
"41793",557.4422,81.52712,160.00108
"41794",557.4555,80.88014,159.40182
"41795",557.4688,80.57496,159.12415
"41796",557.4821,80.6067,159.17386
"41797",557.4954,80.93141,159.51753
"41798",557.5087,81.4197,160.03493
"41799",557.52203,81.9202,160.57979
"41800",557.53534,82.27665,160.99625
"41801",557.54865,82.374306,161.16505
"41802",557.56195,82.127716,160.99266
"41803",557.57526,81.5198,160.45123
"41804",557.58856,80.57496,159.5539
"41805",557.60187,79.35912,158.35603
"41806",557.6152,77.96506,156.94194
"41807",557.6285,76.4831,155.3964
"41808",557.6418,74.99626,153.79965
"41809",557.6551,73.568016,152.21504
"41810",557.6684,72.24963,150.69566
"41811",557.6817,71.07042,149.27425
"41812",557.695,70.05234,147.97711
"41813",557.7083,69.19783,146.81174
"41814",557.7216,68.51423,145.79057
"41815",557.7349,67.99664,144.91406
"41816",557.7482,67.64019,144.18251
"41817",557.76154,67.43267,143.58875
"41818",557.77484,67.36431,143.12766
"41819",557.78815,67.42046,142.78894
"41820",557.80145,67.58404,142.5594
"41821",557.81476,67.84039,142.42776
"41822",557.82806,68.155334,142.36272
"41823",557.8414,68.50446,142.3417
"41824",557.8547,68.84871,142.32672
"41825",557.868,69.15633,142.28586
"41826",557.8813,69.38827,142.17894
"41827",557.8946,69.52987,141.98892
"41828",557.9079,69.573814,141.70567
"41829",557.9212,69.54452,141.35056
"41830",557.9345,69.542076,141.02138
"41831",557.9478,69.85458,141.00708
"41832",557.9611,71.0338,141.86925
"41833",557.9744,73.68276,144.23802
"41834",557.98773,78.12619,148.48404
"41835",558.00104,84.15167,154.45096
"41836",558.01434,91.00725,161.43628
"41837",558.02765,97.5967,168.3697
"41838",558.04095,102.8336,174.1565
"41839",558.05426,106.02701,178.06345
"41840",558.06757,107.07683,179.9266
"41841",558.0809,106.33463,180.03056
"41842",558.0942,104.32044,178.83932
"41843",558.1075,101.54452,176.82341
"41844",558.1208,98.439,174.39116
"41845",558.1341,95.33349,171.86186
"41846",558.1474,92.49653,169.50407
"41847",558.1607,90.09415,167.4922
"41848",558.174,88.1947,165.9082
"41849",558.1873,86.751816,164.7214
"41850",558.2006,85.645836,163.82642
"41851",558.2139,84.732735,163.08975
"41852",558.22723,83.91974,162.42465
"41853",558.24054,83.16533,161.79274
"41854",558.25385,82.493935,161.22026
"41855",558.26715,81.96658,160.77084
"41856",558.28046,81.617455,160.48317
"41857",558.29376,81.427025,160.34329
"41858",558.30707,81.33425,160.29512
"41859",558.3204,81.24635,160.24892
"41860",558.3337,81.075455,160.11697
"41861",558.347,80.743416,159.81854
"41862",558.3603,80.20874,159.3071
"41863",558.3736,79.4519,158.55678
"41864",558.3869,78.504616,157.59236
"41865",558.4002,77.41085,156.45186
"41866",558.4135,76.22919,155.18929
"41867",558.4268,75.018234,153.86049
"41868",558.4401,73.831696,152.51826
"41869",558.4534,72.71595,151.20976
"41870",558.46674,71.69543,149.96161
"41871",558.48004,70.78722,148.79388
"41872",558.49335,70.00595,147.72472
"41873",558.50665,69.35409,146.76054
"41874",558.51996,68.82918,145.90295
"41875",558.53326,68.438545,145.16324
"41876",558.5466,68.18463,144.54803
"41877",558.5599,68.06256,144.05673
"41878",558.5732,68.065,143.68613
"41879",558.5865,68.174866,143.42302
"41880",558.5998,68.37507,143.2537
"41881",558.6131,68.64362,143.15897
"41882",558.6264,68.95369,143.11415
"41883",558.6397,69.28329,143.09856
"41884",558.653,69.60067,143.08104
"41885",558.6663,69.86923,143.02463
"41886",558.6796,70.064545,142.90335
"41887",558.69293,70.169525,142.69785
"41888",558.70624,70.17685,142.39796
"41889",558.71954,70.09384,142.00798
"41890",558.73285,69.962006,141.56657
"41891",558.74615,69.89365,141.18452
"41892",558.75946,70.186615,141.16167
"41893",558.77277,71.380486,142.04887
"41894",558.7861,74.019684,144.41872
"41895",558.7994,78.345924,148.55807
"41896",558.8127,84.085754,154.24622
"41897",558.826,90.45548,160.74362
"41898",558.8393,96.40284,167.01772
"41899",558.8526,100.93416,172.06161
"41900",558.8659,103.49767,175.27933
"41901",558.8792,104.0885,176.60446
"41902",558.8925,103.097275,176.366
"41903",558.9058,101.02937,175.01988
"41904",558.9191,98.36576,173.01344
"41905",558.93243,95.4873,170.70891
"41906",558.94574,92.68696,168.39255
"41907",558.95905,90.194244,166.2963
"41908",558.97235,88.148315,164.56894
"41909",558.98566,86.571144,163.2464
"41910",558.99896,85.38949,162.2701
"41911",559.01227,84.473946,161.52298
"41912",559.0256,83.702446,160.8913
"41913",559.0389,82.99687,160.30142
"41914",559.0522,82.34989,159.7481
"41915",559.0655,81.79813,159.26976
"41916",559.0788,81.39529,158.92311
"41917",559.0921,81.15846,158.72989
"41918",559.1054,81.05104,158.65868
"41919",559.1187,80.99977,158.64026
"41920",559.132,80.921646,158.59338
"41921",559.1453,80.73853,158.43907
"41922",559.1586,80.394295,158.11792
"41923",559.17194,79.852295,157.58824
"41924",559.18524,79.1223,156.85364
"41925",559.19855,78.22873,155.93263
"41926",559.21185,77.22041,154.86896
"41927",559.22516,76.14374,153.70541
"41928",559.23846,75.054855,152.49602
"41929",559.2518,73.99283,151.27945
"41930",559.2651,73.00404,150.10294
"41931",559.2784,72.12024,149.0005
"41932",559.2917,71.360954,147.99498
"41933",559.305,70.73594,147.09999
"41934",559.3183,70.240326,146.31488
"41935",559.3316,69.86923,145.6388
"41936",559.3449,69.60555,145.05853
"41937",559.3582,69.44198,144.57013
"41938",559.3715,69.366295,144.1645
"41939",559.3848,69.366295,143.8322
"41940",559.39813,69.42977,143.56337
"41941",559.41144,69.54696,143.35023
"41942",559.42474,69.698326,143.17494
"41943",559.43805,69.874115,143.02881
"41944",559.45135,70.064545,142.9028
"41945",559.46466,70.26231,142.79008
"41946",559.47797,70.46494,142.68842
"41947",559.4913,70.65537,142.58087
"41948",559.5046,70.818954,142.45244
"41949",559.5179,70.94347,142.29004
"41950",559.5312,71.00694,142.0705
"41951",559.5445,70.99962,141.78214
"41952",559.5578,70.923935,141.42519
"41953",559.5711,70.7921,141.00972
"41954",559.5844,70.640724,140.5706
"41955",559.5977,70.58457,140.22197
"41956",559.611,70.92638,140.26955
"41957",559.6243,72.19592,141.25554
"41958",559.63763,74.932785,143.74852
"41959",559.65094,79.344475,148.00186
"41960",559.66425,85.10628,153.74318
"41961",559.67755,91.407646,160.20412
"41962",559.69086,97.18898,166.34193
"41963",559.70416,101.48104,171.17114
"41964",559.71747,103.75891,174.1203
"41965",559.7308,104.061646,175.1655
"41966",559.7441,102.804306,174.66008
"41967",559.7574,100.506905,173.07532
"41968",559.7707,97.64553,170.85478
"41969",559.784,94.608376,168.36905
"41970",559.7973,91.70794,165.92513
"41971",559.8106,89.16884,163.75189
"41972",559.8239,87.115585,161.98517
"41973",559.8372,85.555504,160.64745
"41974",559.8505,84.403145,159.6687
"41975",559.86383,83.529106,158.93227
"41976",559.87714,82.828415,158.34186
"41977",559.89044,82.247345,157.84918
"41978",559.90375,81.7908,157.46288
"41979",559.91705,81.497826,157.22586
"41980",559.93036,81.39773,157.17258
"41981",559.94366,81.46853,157.28706
"41982",559.957,81.64187,157.5063
"41983",559.9703,81.81766,157.7334
"41984",559.9836,81.898224,157.87077
"41985",559.9969,81.79813,157.83
"41986",560.0102,81.47097,157.55904
"41987",560.0235,80.90944,157.04347
"41988",560.0368,80.13794,156.3004
"41989",560.0501,79.20531,155.37207
"41990",560.0634,78.17746,154.31938
"41991",560.0767,77.11055,153.19551
"41992",560.09,76.06317,152.05783
"41993",560.10333,75.07683,150.94846
"41994",560.11664,74.18082,149.89859
"41995",560.12994,73.39712,148.93304
"41996",560.14325,72.7306,148.06018
"41997",560.15656,72.1886,147.29102
"41998",560.16986,71.77112,146.62943
"41999",560.18317,71.47814,146.0793
"42000",560.1965,71.29748,145.63232
"42001",560.2098,71.2169,145.2798
"42002",560.2231,71.22423,145.01265
"42003",560.2364,71.29748,144.81166
"42004",560.2497,71.41955,144.66177
"42005",560.263,71.57824,144.55232
"42006",560.2763,71.76868,144.47958
"42007",560.2896,71.98108,144.43475
"42008",560.3029,72.21057,144.41365
"42009",560.3162,72.43275,144.39241
"42010",560.3295,72.62318,144.34636
"42011",560.34283,72.764786,144.25745
"42012",560.35614,72.833145,144.0997
"42013",560.36945,72.82582,143.86841
"42014",560.38275,72.75502,143.57341
"42015",560.39606,72.6305,143.22249
"42016",560.40936,72.47181,142.8335
"42017",560.42267,72.34486,142.47128
"42018",560.436,72.42298,142.31018
"42019",560.4493,73.06752,142.71794
"42020",560.4626,74.76433,144.1981
"42021",560.4759,77.86252,147.13268
"42022",560.4892,82.31327,151.51663
"42023",560.5025,87.62829,156.90395
"42024",560.5158,92.96773,162.48177
"42025",560.5291,97.408714,167.32799
"42026",560.5424,100.253,170.7163
"42027",560.5557,101.278404,172.3746
"42028",560.56903,100.67292,172.43407
"42029",560.58234,98.844284,171.25146
"42030",560.59564,96.2417,169.23776
"42031",560.60895,93.260704,166.76431
"42032",560.62225,90.21622,164.13422
"42033",560.63556,87.37438,161.61163
"42034",560.64886,84.90608,159.37378
"42035",560.6622,82.89433,157.51535
"42036",560.6755,81.324486,156.03595
"42037",560.6888,80.15015,154.903
"42038",560.7021,79.32006,154.0776
"42039",560.7154,78.81468,153.55098
"42040",560.7287,78.643776,153.34303
"42041",560.742,78.82933,153.4862
"42042",560.7553,79.33959,153.95988
"42043",560.7686,80.07202,154.67168
"42044",560.7819,80.88014,155.48206
"42045",560.7952,81.59548,156.2249
"42046",560.80853,82.074005,156.75328
"42047",560.82184,82.230255,156.97435
"42048",560.83514,82.0325,156.8463
"42049",560.84845,81.50271,156.38002
"42050",560.86176,80.69947,155.62375
"42051",560.87506,79.69848,154.64462
"42052",560.88837,78.57786,153.51457
"42053",560.9017,77.41085,152.30312
"42054",560.915,76.265816,151.07716
"42055",560.9283,75.20622,149.90088
"42056",560.9416,74.26627,148.81113
"42057",560.9549,73.47036,147.83603
"42058",560.9682,72.82826,146.98988
"42059",560.9815,72.34486,146.28236
"42060",560.9948,71.99817,145.69646
"42061",561.0081,71.77356,145.22179
"42062",561.0214,71.658806,144.84996
"42063",561.0347,71.639275,144.56976
"42064",561.04803,71.69787,144.36708
"42065",561.06134,71.817505,144.22728
"42066",561.07465,71.990845,144.14491
"42067",561.08795,72.198364,144.10214
"42068",561.10126,72.42542,144.0854
"42069",561.11456,72.65736,144.08063
"42070",561.12787,72.88197,144.07579
"42071",561.1412,73.074844,144.04622
"42072",561.1545,73.22133,143.97629
"42073",561.1678,73.3019,143.84503
"42074",561.1811,73.304344,143.63815
"42075",561.1944,73.22133,143.3459
"42076",561.2077,73.074844,142.98758
"42077",561.221,72.94545,142.64177
"42078",561.2343,73.07973,142.55559
"42079",561.2476,73.93912,143.19872
"42080",561.2609,76.07538,145.14557
"42081",561.27423,79.801025,148.74857
"42082",561.28754,84.95979,153.90112
"42083",561.30084,90.897385,159.99371
"42084",561.31415,96.64454,166.0814
"42085",561.32745,101.207596,171.16461
"42086",561.34076,103.93469,174.55444
"42087",561.35406,104.71107,176.07878
"42088",561.3674,103.84192,175.98186
"42089",561.3807,101.81308,174.69807
"42090",561.394,99.09575,172.6624
"42091",561.4073,96.09766,170.26105
"42092",561.4206,93.14839,167.81483
"42093",561.4339,90.494545,165.57187
"42094",561.4472,88.30457,163.70985
"42095",561.4605,86.63462,162.29942
"42096",561.4738,85.42855,161.30069
"42097",561.4871,84.55695,160.59874
"42098",561.5004,83.88556,160.06975
"42099",561.51373,83.31182,159.61743
"42100",561.52704,82.80644,159.21555
"42101",561.54034,82.38407,158.88087
"42102",561.55365,82.08621,158.65752
"42103",561.56696,81.934845,158.57135
"42104",561.58026,81.898224,158.5952
"42105",561.59357,81.91531,158.67162
"42106",561.6069,81.90799,158.72415
"42107",561.6202,81.80057,158.67636
"42108",561.6335,81.532005,158.46407
"42109",561.6468,81.06813,158.04807
"42110",561.6601,80.40894,157.42226
"42111",561.6734,79.58129,156.60739
"42112",561.6867,78.63157,155.64458
"42113",561.7,77.61837,154.58861
"42114",561.7133,76.592964,153.48877
"42115",561.7266,75.60662,152.39595
"42116",561.7399,74.69108,151.34311
"42117",561.75323,73.8732,150.35933
"42118",561.76654,73.16518,149.45984
"42119",561.77985,72.57191,148.65298
"42120",561.79315,72.095825,147.94478
"42121",561.80646,71.73205,147.334
"42122",561.81976,71.468376,146.81195
"42123",561.83307,71.29748,146.37444
"42124",561.8464,71.20958,146.01459
"42125",561.8597,71.18761,145.71791
"42126",561.873,71.22179,145.4767
"42127",561.8863,71.3048,145.2854
"42128",561.8996,71.4342,145.14307
"42129",561.9129,71.59533,145.03651
"42130",561.9262,71.78088,144.95943
"42131",561.9395,71.96643,144.88812
"42132",561.9528,72.13245,144.80309
"42133",561.9661,72.256966,144.68175
"42134",561.97943,72.32288,144.50569
"42135",561.99274,72.32044,144.26334
"42136",562.00604,72.24963,143.95255
"42137",562.01935,72.1178,143.5785
"42138",562.03265,71.95178,143.16617
"42139",562.04596,71.888306,142.85118
"42140",562.05927,72.25941,142.9688
"42141",562.0726,73.602196,144.06969
"42142",562.0859,76.41718,146.68474
"42143",562.0992,80.84596,151.00156
"42144",562.1125,86.50767,156.6897
"42145",562.1258,92.58198,162.96738
"42146",562.1391,98.0264,168.80498
"42147",562.1524,101.942474,173.28438
"42148",562.1657,103.89563,175.92323
"42149",562.179,103.98108,176.75542
"42150",562.1923,102.61631,176.14006
"42151",562.2056,100.30427,174.53477
"42152",562.21893,97.49416,172.35918
"42153",562.23224,94.54978,169.96149
"42154",562.24554,91.75433,167.62071
"42155",562.25885,89.31533,165.54903
"42156",562.27216,87.35485,163.87965
"42157",562.28546,85.88022,162.63486
"42158",562.29877,84.805984,161.74438
"42159",562.3121,83.99542,161.08401
"42160",562.3254,83.32647,160.53992
"42161",562.3387,82.72587,160.04327
"42162",562.352,82.176544,159.57913
"42163",562.3653,81.71999,159.1906
"42164",562.3786,81.40505,158.92941
"42165",562.3919,81.24391,158.81218
"42166",562.4052,81.1902,158.79735
"42167",562.4185,81.17555,158.8199
"42168",562.4318,81.11452,158.79561
"42169",562.4451,80.93141,158.64734
"42170",562.45844,80.57252,158.31755
"42171",562.47174,80.01831,157.78123
"42172",562.48505,79.281,157.0445
"42173",562.49835,78.39231,156.13333
"42174",562.51166,77.3962,155.08698
"42175",562.52496,76.3415,153.9509
"42176",562.53827,75.284355,152.77942
"42177",562.5516,74.25651,151.6042
"42178",562.5649,73.29702,150.46523
"42179",562.5782,72.43275,149.39148
"42180",562.5915,71.68566,148.40791
"42181",562.6048,71.05577,147.5182
"42182",562.6181,70.538185,146.72112
"42183",562.6314,70.13046,146.01772
"42184",562.6447,69.822845,145.40167
"42185",562.658,69.607994,144.86879
"42186",562.6713,69.48592,144.42197
"42187",562.68463,69.44686,144.05434
"42188",562.69794,69.48592,143.76361
"42189",562.71124,69.5787,143.52782
"42190",562.72455,69.712975,143.33643
"42191",562.73785,69.857025,143.15901
"42192",562.75116,70.00107,142.98608
"42193",562.76447,70.135345,142.80789
"42194",562.7778,70.26231,142.62659
"42195",562.7911,70.38682,142.4468
"42196",562.8044,70.51133,142.27089
"42197",562.8177,70.63584,142.09888
"42198",562.831,70.750595,141.921
"42199",562.8443,70.836044,141.7174
"42200",562.8576,70.872665,141.46765
"42201",562.8709,70.85069,141.16045
"42202",562.8842,70.76036,140.7842
"42203",562.8975,70.59678,140.33188
"42204",562.9108,70.38438,139.82562
"42205",562.92413,70.21835,139.35912
"42206",562.93744,70.36973,139.20482
"42207",562.95074,71.38537,139.91951
"42208",562.96405,73.90982,142.17476
"42209",562.97736,78.311745,146.38637
"42210",562.99066,84.3885,152.41035
"42211",563.00397,91.3637,159.5227
"42212",563.0173,98.089874,166.60399
"42213",563.0306,103.42443,172.50385
"42214",563.0439,106.62272,176.43414
"42215",563.0572,107.579765,178.22314
"42216",563.0705,106.683754,178.189
"42217",563.0838,104.49378,176.83289
"42218",563.0971,101.52987,174.6344
"42219",563.1104,98.22415,172.0015
"42220",563.1237,94.91356,169.2604
"42221",563.137,91.85687,166.66977
"42222",563.1503,89.2372,164.42062
"42223",563.16364,87.13756,162.60965
"42224",563.17694,85.53109,161.22623
"42225",563.19025,84.3299,160.19789
"42226",563.20355,83.42901,159.43231
"42227",563.21686,82.75517,158.86563
"42228",563.23016,82.2913,158.48785
"42229",563.24347,82.054474,158.32263
"42230",563.2568,82.06424,158.3966
"42231",563.2701,82.29862,158.6955
"42232",563.2834,82.684364,159.15308
"42233",563.2967,83.09697,159.64957
"42234",563.31,83.40215,160.05153
"42235",563.3233,83.48516,160.24086
"42236",563.3366,83.27764,160.14226
"42237",563.3499,82.75273,159.71977
"42238",563.3632,81.94461,158.99768
"42239",563.3765,80.907,158.02084
"42240",563.38983,79.71557,156.85776
"42241",563.40314,78.450905,155.5842
"42242",563.41644,77.17403,154.25891
"42243",563.42975,75.931335,152.9279
"42244",563.44305,74.77409,151.64351
"42245",563.45636,73.7438,150.4499
"42246",563.46967,72.85512,149.36572
"42247",563.483,72.12024,148.40756
"42248",563.4963,71.551384,147.59247
"42249",563.5096,71.148544,146.92561
"42250",563.5229,70.906845,146.4073
"42251",563.5362,70.80675,146.02304
"42252",563.5495,70.836044,145.76505
"42253",563.5628,70.96788,145.6105
"42254",563.5761,71.17296,145.53333
"42255",563.5894,71.41955,145.50407
"42256",563.6027,71.68566,145.50204
"42257",563.616,71.956665,145.51323
"42258",563.62933,72.21057,145.51578
"42259",563.64264,72.43763,145.49942
"42260",563.65594,72.63294,145.4584
"42261",563.66925,72.78676,145.382
"42262",563.68256,72.88197,145.2518
"42263",563.69586,72.90883,145.05621
"42264",563.70917,72.867325,144.7931
"42265",563.7225,72.762344,144.46523
"42266",563.7358,72.601204,144.07791
"42267",563.7491,72.38148,143.62697
"42268",563.7624,72.1178,143.12521
"42269",563.7757,71.851685,142.61278
"42270",563.789,71.75891,142.26537
"42271",563.8023,72.26673,142.51566
"42272",563.8156,73.970856,143.97812
"42273",563.8289,77.34249,147.16135
"42274",563.8422,82.38651,152.12231
"42275",563.8555,88.56336,158.37375
"42276",563.86884,94.91356,164.99155
"42277",563.88214,100.33845,170.88248
"42278",563.89545,103.9884,175.16801
"42279",563.90875,105.56069,177.48994
"42280",563.92206,105.255516,177.98354
"42281",563.93536,103.536736,177.05399
"42282",563.94867,100.895096,175.14787
"42283",563.962,97.75784,172.66359
"42284",563.9753,94.4741,169.93478
"42285",563.9886,91.30999,167.22299
"42286",564.0019,88.45594,164.72238
"42287",564.0152,86.02426,162.55495
"42288",564.0285,84.03204,160.75099
"42289",564.0418,82.44511,159.29005
"42290",564.0551,81.2195,158.14085
"42291",564.0684,80.33814,157.2976
"42292",564.0817,79.823,156.79303
"42293",564.09503,79.69848,156.66298
