"","Time..s.","PPG.trace","Preprocessed.PPG"
"91398",1232.3425,80.25269,136.26035
"91399",1232.3558,79.80347,135.81902
"91400",1232.3691,79.34936,135.35876
"91401",1232.3824,78.91234,134.90141
"91402",1232.3958,78.49973,134.45482
"91403",1232.409,78.12863,134.03683
"91404",1232.4224,77.79904,133.64876
"91405",1232.4357,77.51583,133.29677
"91406",1232.449,77.279015,132.98232
"91407",1232.4623,77.083694,132.70197
"91408",1232.4756,76.93233,132.45946
"91409",1232.4889,76.81758,132.24884
"91410",1232.5022,76.73945,132.07126
"91411",1232.5155,76.68818,131.91809
"91412",1232.5288,76.67597,131.80238
"91413",1232.5421,76.717476,131.74
"91414",1232.5554,76.92256,131.84251
"91415",1232.5687,77.488976,132.31276
"91416",1232.582,78.59251,133.33781
"91417",1232.5953,80.25025,134.95157
"91418",1232.6086,82.286415,136.99556
"91419",1232.622,84.37873,139.15933
"91420",1232.6353,86.151215,141.06865
"91421",1232.6486,87.29626,142.40591
"91422",1232.6619,87.69909,143.03676
"91423",1232.6752,87.4696,143.04787
"91424",1232.6885,86.785995,142.59769
"91425",1232.7018,85.82895,141.8527
"91426",1232.7151,84.73762,140.94353
"91427",1232.7284,83.62188,139.97585
"91428",1232.7417,82.562294,139.02945
"91429",1232.755,81.61501,138.16225
"91430",1232.7683,80.799576,137.39728
"91431",1232.7816,80.10864,136.73134
"91432",1232.7949,79.5227,136.14879
"91433",1232.8082,79.03685,135.64803
"91434",1232.8215,78.677956,135.25903
"91435",1232.8348,78.49485,135.0346
"91436",1232.8481,78.54124,135.03395
"91437",1232.8615,78.83177,135.2789
"91438",1232.8748,79.32006,135.73068
"91439",1232.8881,79.903564,136.29294
"91440",1232.9014,80.46021,136.84657
"91441",1232.9147,80.885025,137.28577
"91442",1232.928,81.112076,137.54048
"91443",1232.9413,81.129166,137.59233
"91444",1232.9546,80.96559,137.46405
"91445",1232.9679,80.66529,137.19392
"91446",1232.9812,80.272224,136.82166
"91447",1232.9945,79.83032,136.38826
"91448",1233.0078,79.364006,135.91664
"91449",1233.0211,78.9099,135.44266
"91450",1233.0344,78.485085,134.98378
"91451",1233.0477,78.101776,134.55313
"91452",1233.061,77.76242,134.15445
"91453",1233.0743,77.47677,133.79887
"91454",1233.0876,77.23262,133.47588
"91455",1233.101,77.03487,133.19164
"91456",1233.1143,76.87373,132.93784
"91457",1233.1276,76.75899,132.72539
"91458",1233.1409,76.680855,132.54597
"91459",1233.1542,76.64179,132.40318
"91460",1233.1675,76.63691,132.29335
"91461",1233.1808,76.6955,132.24684
"91462",1233.1941,76.92012,132.3682
"91463",1233.2074,77.503624,132.85545
"91464",1233.2207,78.59983,133.87364
"91465",1233.234,80.22339,135.45345
"91466",1233.2473,82.196075,137.4331
"91467",1233.2606,84.20538,139.51105
"91468",1233.2739,85.89975,141.33684
"91469",1233.2872,86.98131,142.60277
"91470",1233.3005,87.36462,143.20424
"91471",1233.3138,87.14488,143.21465
"91472",1233.3271,86.50767,142.8007
"91473",1233.3405,85.61654,142.11295
"91474",1233.3538,84.610664,141.2826
"91475",1233.3671,83.59014,140.40616
"91476",1233.3804,82.63554,139.56375
"91477",1233.3937,81.7908,138.80138
"91478",1233.407,81.07301,138.13956
"91479",1233.4203,80.46998,137.57005
"91480",1233.4336,79.96704,137.0818
"91481",1233.4469,79.54955,136.66328
"91482",1233.4602,79.23216,136.33182
"91483",1233.4735,79.044174,136.11983
"91484",1233.4868,79.027084,136.07286
"91485",1233.5001,79.183334,136.1987
"91486",1233.5134,79.49584,136.48569
"91487",1233.5267,79.886475,136.86057
"91488",1233.54,80.26978,137.24033
"91489",1233.5533,80.56519,137.54417
"91490",1233.5667,80.719,137.71565
"91491",1233.58,80.71168,137.7308
"91492",1233.5933,80.552986,137.59436
"91493",1233.6066,80.274666,137.33333
"91494",1233.6199,79.91821,136.98546
"91495",1233.6332,79.51293,136.57762
"91496",1233.6465,79.08568,136.13515
"91497",1233.6598,78.660866,135.68176
"91498",1233.6731,78.25803,135.23708
"91499",1233.6864,77.89426,134.81886
"91500",1233.6997,77.576866,134.43567
"91501",1233.713,77.31075,134.09383
"91502",1233.7263,77.09834,133.79738
"91503",1233.7396,76.93233,133.54068
"91504",1233.7529,76.80293,133.31541
"91505",1233.7662,76.70771,133.12029
"91506",1233.7795,76.63935,132.94904
"91507",1233.7928,76.592964,132.79762
"91508",1233.8062,76.56855,132.66673
"91509",1233.8195,76.58564,132.57658
"91510",1233.8328,76.73701,132.62125
"91511",1233.8461,77.196,132.97827
"91512",1233.8594,78.12619,133.82083
"91513",1233.8727,79.5642,135.20029
"91514",1233.886,81.3782,137.00066
"91515",1233.8993,83.28741,138.95294
"91516",1233.9126,84.95735,140.72562
"91517",1233.9259,86.09506,142.01825
"91518",1233.9392,86.58579,142.69945
"91519",1233.9525,86.49302,142.81248
"91520",1233.9658,85.97055,142.49292
"91521",1233.9791,85.1844,141.89336
"91522",1233.9924,84.263985,141.13495
"91523",1234.0057,83.32159,140.3258
"91524",1234.019,82.42802,139.53604
"91525",1234.0323,81.636986,138.82089
"91526",1234.0457,80.96071,138.19577
"91527",1234.059,80.38697,137.65205
"91528",1234.0723,79.886475,137.16365
"91529",1234.0856,79.449455,136.72308
"91530",1234.0989,79.097885,136.35431
"91531",1234.1122,78.86595,136.09418
"91532",1234.1255,78.79515,135.98793
"91533",1234.1388,78.907455,136.06258
"91534",1234.1521,79.17845,136.29942
"91535",1234.1654,79.53979,136.63509
"91536",1234.1787,79.90845,136.98936
"91537",1234.192,80.19653,137.2746
"91538",1234.2053,80.35767,137.44188
"91539",1234.2186,80.365,137.46039
"91540",1234.2319,80.23071,137.33751
"91541",1234.2452,79.97925,137.09326
"91542",1234.2585,79.64721,136.76057
"91543",1234.2719,79.26635,136.36868
"91544",1234.2852,78.86595,135.94536
"91545",1234.2985,78.467995,135.51196
"91546",1234.3118,78.09201,135.0881
"91547",1234.3251,77.747765,134.68423
"91548",1234.3384,77.452354,134.31844
"91549",1234.3517,77.208206,133.99467
"91550",1234.365,77.01289,133.71211
"91551",1234.3783,76.87373,133.4796
"91552",1234.3916,76.78096,133.28912
"91553",1234.4049,76.72968,133.13725
"91554",1234.4182,76.715034,133.0204
"91555",1234.4315,76.72724,132.92995
"91556",1234.4448,76.756546,132.85698
"91557",1234.4581,76.79317,132.79224
"91558",1234.4714,76.82735,132.7262
"91559",1234.4847,76.86397,132.66367
"91560",1234.498,76.95186,132.65355
"91561",1234.5114,77.23018,132.83661
"91562",1234.5247,77.87961,133.39948
"91563",1234.538,79.01732,134.47092
"91564",1234.5513,80.59205,136.01494
"91565",1234.5646,82.406044,137.84744
"91566",1234.5779,84.14923,139.66582
"91567",1234.5912,85.506676,141.15292
"91568",1234.6045,86.26841,142.08675
"91569",1234.6178,86.414894,142.42912
"91570",1234.6311,86.063324,142.27802
"91571",1234.6444,85.37484,141.779
"91572",1234.6577,84.5008,141.07294
"91573",1234.671,83.56573,140.27852
"91574",1234.6843,82.65507,139.4793
"91575",1234.6976,81.829865,138.73706
"91576",1234.7109,81.10719,138.07158
"91577",1234.7242,80.479744,137.47873
"91578",1234.7375,79.923096,136.93707
"91579",1234.7509,79.432365,136.44394
"91580",1234.7642,79.01976,136.0136
"91581",1234.7775,78.729225,135.69243
"91582",1234.7908,78.61448,135.53796
"91583",1234.8041,78.70237,135.58255
"91584",1234.8174,78.98314,135.82277
"91585",1234.8307,79.39086,136.19872
"91586",1234.844,79.83276,136.62158
"91587",1234.8573,80.21362,136.99722
"91588",1234.8706,80.45777,137.24805
"91589",1234.8839,80.533455,137.33804
"91590",1234.8972,80.445564,137.26683
"91591",1234.9105,80.22095,137.05614
"91592",1234.9238,79.8938,136.7359
"91593",1234.9371,79.50805,136.34683
"91594",1234.9504,79.10033,135.92374
"91595",1234.9637,78.692604,135.4879
"91596",1234.977,78.311745,135.06618
"91597",1234.9904,77.962616,134.66429
"91598",1235.0037,77.65255,134.29056
"91599",1235.017,77.38644,133.95108
"91600",1235.0303,77.16914,133.65211
"91601",1235.0436,76.998245,133.39275
"91602",1235.0569,76.87862,133.1793
"91603",1235.0702,76.81026,133.0134
"91604",1235.0835,76.79317,132.89662
"91605",1235.0968,76.82979,132.83302
"91606",1235.1101,76.912796,132.81696
"91607",1235.1234,77.032425,132.8401
"91608",1235.1367,77.17403,132.88896
"91609",1235.15,77.32052,132.94714
"91610",1235.1633,77.44503,132.98792
"91611",1235.1766,77.5378,133.00084
"91612",1235.19,77.58663,132.97272
"91613",1235.2032,77.593956,132.90462
"91614",1235.2166,77.55978,132.79524
"91615",1235.2299,77.49874,132.65794
"91616",1235.2432,77.44259,132.52362
"91617",1235.2565,77.506065,132.50717
"91618",1235.2698,77.88937,132.81255
"91619",1235.2831,78.77562,133.63283
"91620",1235.2964,80.198975,135.01791
"91621",1235.3097,82.020294,136.84546
"91622",1235.323,83.94171,138.83002
"91623",1235.3363,85.60433,140.61581
"91624",1235.3496,86.70786,141.89449
"91625",1235.3629,87.132675,142.52892
"91626",1235.3762,86.959335,142.57848
"91627",1235.3895,86.3563,142.19292
"91628",1235.4028,85.489586,141.52484
"91629",1235.4161,84.49836,140.70517
"91630",1235.4294,83.49004,139.83743
"91631",1235.4427,82.54032,138.99678
"91632",1235.456,81.67605,138.2119
"91633",1235.4694,80.91432,137.50255
"91634",1235.4827,80.23804,136.85484
"91635",1235.496,79.64721,136.27145
"91636",1235.5093,79.166245,135.77946
"91637",1235.5226,78.839096,135.42625
"91638",1235.5359,78.72678,135.27766
"91639",1235.5492,78.86595,135.37704
"91640",1235.5625,79.23949,135.71513
"91641",1235.5758,79.766846,136.21872
"91642",1235.5891,80.33326,136.77785
"91643",1235.6024,80.81911,137.27411
"91644",1235.6157,81.14137,137.62198
"91645",1235.629,81.253685,137.76996
"91646",1235.6423,81.16823,137.72368
"91647",1235.6556,80.92409,137.51605
"91648",1235.669,80.570076,137.19092
"91649",1235.6823,80.15747,136.79613
"91650",1235.6956,79.72045,136.36403
"91651",1235.7089,79.281,135.91583
"91652",1235.7222,78.85863,135.471
"91653",1235.7355,78.467995,135.0447
"91654",1235.7488,78.116425,134.64525
"91655",1235.7621,77.80881,134.27876
"91656",1235.7754,77.55245,133.95393
"91657",1235.7887,77.347374,133.67236
"91658",1235.802,77.188675,133.43077
"91659",1235.8153,77.09102,133.24525
"91660",1235.8286,77.049515,133.11284
"91661",1235.8419,77.0544,133.02551
"91662",1235.8552,77.10811,132.98717
"91663",1235.8685,77.19356,132.98224
"91664",1235.8818,77.296104,132.99709
"91665",1235.8951,77.40597,133.02245
"91666",1235.9084,77.51095,133.04636
"91667",1235.9218,77.60372,133.06134
"91668",1235.935,77.68185,133.06458
"91669",1235.9484,77.747765,133.05804
"91670",1235.9617,77.7966,133.0365
"91671",1235.975,77.823456,132.99449
"91672",1235.9883,77.83078,132.93379
"91673",1236.0016,77.81857,132.85379
"91674",1236.0149,77.786835,132.75388
"91675",1236.0282,77.738,132.63588
"91676",1236.0415,77.68429,132.51147
"91677",1236.0548,77.628136,132.38295
"91678",1236.0681,77.5671,132.24779
"91679",1236.0814,77.4963,132.10095
"91680",1236.0947,77.41085,131.93726
"91681",1236.108,77.31075,131.75624
"91682",1236.1213,77.21553,131.57698
"91683",1236.1346,77.196,131.47043
"91684",1236.148,77.45968,131.64648
"91685",1236.1613,78.260475,132.36789
"91686",1236.1746,79.72045,133.7735
"91687",1236.1879,81.739525,135.78383
"91688",1236.2012,84.01495,138.11362
"91689",1236.2145,86.13901,140.36314
"91690",1236.2278,87.70397,142.11995
"91691",1236.2411,88.48524,143.14197
"91692",1236.2544,88.50721,143.42911
"91693",1236.2677,87.96765,143.1554
"91694",1236.281,87.07408,142.51082
"91695",1236.2943,85.99252,141.65033
"91696",1236.3076,84.840164,140.68524
"91697",1236.3209,83.70489,139.70122
"91698",1236.3342,82.6453,138.75742
"91699",1236.3475,81.685814,137.8806
"91700",1236.3608,80.831314,137.07878
"91701",1236.3741,80.08911,136.36256
"91702",1236.3875,79.47143,135.74767
"91703",1236.4008,79.02464,135.28436
"91704",1236.4141,78.81224,135.04147
"91705",1236.4274,78.887924,135.08003
"91706",1236.4407,79.256584,135.41394
"91707",1236.454,79.84741,135.98154
"91708",1236.4673,80.533455,136.66281
"91709",1236.4806,81.17311,137.31914
"91710",1236.4939,81.64675,137.82944
"91711",1236.5072,81.88846,138.1226
"91712",1236.5205,81.8909,138.18407
"91713",1236.5338,81.70046,138.05272
"91714",1236.5471,81.36355,137.76895
"91715",1236.5604,80.93141,137.37943
"91716",1236.5737,80.448006,136.92513
"91717",1236.587,79.94995,136.44107
"91718",1236.6003,79.45678,135.94633
"91719",1236.6136,78.98314,135.45572
"91720",1236.627,78.54124,134.98204
"91721",1236.6403,78.133514,134.52873
"91722",1236.6536,77.7673,134.10419
"91723",1236.6669,77.454796,133.72191
"91724",1236.6802,77.208206,133.39578
"91725",1236.6935,77.0251,133.12543
"91726",1236.7068,76.910355,132.91771
"91727",1236.7201,76.859085,132.76988
"91728",1236.7334,76.86153,132.67416
"91729",1236.7467,76.90547,132.62003
"91730",1236.76,76.978714,132.59656
"91731",1236.7733,77.07637,132.5998
"91732",1236.7866,77.19112,132.62317
"91733",1236.7999,77.315636,132.65991
"91734",1236.8132,77.44503,132.70541
"91735",1236.8265,77.57931,132.75984
"91736",1236.8398,77.70626,132.81114
"91737",1236.8531,77.81125,132.84445
"91738",1236.8665,77.89426,132.85905
"91739",1236.8798,77.94797,132.84695
"91740",1236.8931,77.96994,132.8048
"91741",1236.9064,77.95773,132.72914
"91742",1236.9197,77.91867,132.62625
"91743",1236.933,77.85275,132.49529
"91744",1236.9463,77.7673,132.34273
"91745",1236.9596,77.65499,132.16064
"91746",1236.9729,77.523155,131.95552
"91747",1236.9862,77.37423,131.72919
"91748",1236.9995,77.222855,131.49576
"91749",1237.0128,77.11299,131.2991
"91750",1237.0261,77.20332,131.29921
"91751",1237.0394,77.752655,131.76114
"91752",1237.0527,78.98802,132.92627
"91753",1237.066,80.902115,134.80873
"91754",1237.0793,83.250786,137.1856
"91755",1237.0927,85.63119,139.66759
"91756",1237.106,87.589226,141.8016
"91757",1237.1193,88.77333,143.22287
"91758",1237.1326,89.110245,143.83395
"91759",1237.1459,88.75136,143.75977
"91760",1237.1592,87.938354,143.22025
"91761",1237.1725,86.85924,142.3892
"91762",1237.1858,85.64828,141.3926
"91763",1237.1991,84.40559,140.32642
"91764",1237.2124,83.20195,139.26045
"91765",1237.2257,82.091095,138.24966
"91766",1237.239,81.092545,137.31647
"91767",1237.2523,80.2063,136.46437
"91768",1237.2656,79.43969,135.70421
"91769",1237.2789,78.82445,135.07146
"91770",1237.2922,78.416725,134.627
"91771",1237.3055,78.294655,134.45544
"91772",1237.3188,78.5095,134.61699
"91773",1237.3322,79.044174,135.10509
"91774",1237.3455,79.80347,135.8345
"91775",1237.3588,80.62867,136.65356
"91776",1237.3721,81.358665,137.40321
"91777",1237.3854,81.86893,137.95593
"91778",1237.3987,82.10086,138.24628
"91779",1237.412,82.06668,138.27776
"91780",1237.4253,81.82254,138.0982
"91781",1237.4386,81.43435,137.76697
"91782",1237.4519,80.955826,137.33327
"91783",1237.4652,80.428474,136.83578
"91784",1237.4785,79.89136,136.31206
"91785",1237.4918,79.35668,135.77399
"91786",1237.5051,78.84642,135.24362
"91787",1237.5184,78.365456,134.72661
"91788",1237.5317,77.92844,134.23851
"91789",1237.545,77.54269,133.78802
"91790",1237.5583,77.21553,133.38408
"91791",1237.5717,76.95186,133.03339
"91792",1237.585,76.749214,132.73549
"91793",1237.5983,76.60273,132.48741
"91794",1237.6116,76.51728,132.29579
"91795",1237.6249,76.48554,132.15521
"91796",1237.6382,76.50507,132.06491
"91797",1237.6515,76.57099,132.0216
"91798",1237.6648,76.680855,132.0243
"91799",1237.6781,76.81758,132.05731
"91800",1237.6914,76.964066,132.10434
"91801",1237.7047,77.117874,132.16327
"91802",1237.718,77.26925,132.22458
"91803",1237.7313,77.41085,132.28084
"91804",1237.7446,77.53292,132.32199
"91805",1237.7579,77.63302,132.34499
"91806",1237.7712,77.69894,132.33693
"91807",1237.7845,77.72579,132.29187
"91808",1237.7979,77.7087,132.2037
"91809",1237.8112,77.65743,132.08083
"91810",1237.8245,77.576866,131.92705
"91811",1237.8378,77.47677,131.75122
"91812",1237.8511,77.401085,131.59668
"91813",1237.8644,77.4963,131.61067
"91814",1237.8777,78.01633,132.05246
"91815",1237.891,79.19066,133.1648
"91816",1237.9043,81.041275,134.99011
"91817",1237.9176,83.336235,137.31761
"91818",1237.9309,85.677574,139.76321
"91819",1237.9442,87.61608,141.87915
"91820",1237.9575,88.800186,143.30125
"91821",1237.9708,89.1371,143.91318
"91822",1237.9841,88.7831,143.84471
"91823",1237.9974,87.96521,143.3013
"91824",1238.0107,86.87633,142.46133
"91825",1238.024,85.64828,141.44817
"91826",1238.0374,84.37141,140.34781
"91827",1238.0507,83.1165,139.2295
"91828",1238.064,81.93729,138.14769
"91829",1238.0773,80.86305,137.134
"91830",1238.0906,79.903564,136.20149
"91831",1238.1039,79.06615,135.36105
"91832",1238.1172,78.37766,134.64339
"91833",1238.1305,77.88205,134.09708
"91834",1238.1438,77.65255,133.80139
"91835",1238.1571,77.752655,133.82814
"91836",1238.1704,78.204315,134.20956
"91837",1238.1837,78.941635,134.89076
"91838",1238.197,79.823,135.73904
"91839",1238.2103,80.67506,136.58557
"91840",1238.2236,81.33669,137.26831
"91841",1238.2369,81.71755,137.69095
"91842",1238.2502,81.79324,137.82031
"91843",1238.2635,81.61257,137.69568
"91844",1238.2769,81.24391,137.37741
"91845",1238.2902,80.75563,136.92801
"91846",1238.3035,80.198975,136.39497
"91847",1238.3168,79.61059,135.8128
"91848",1238.3301,79.0222,135.21225
"91849",1238.3434,78.45823,134.61772
"91850",1238.3567,77.92844,134.03975
"91851",1238.37,77.44991,133.49649
"91852",1238.3833,77.02998,132.99687
"91853",1238.3966,76.67353,132.5476
"91854",1238.4099,76.385445,132.15556
"91855",1238.4232,76.17059,131.82776
"91856",1238.4365,76.02899,131.56648
"91857",1238.4498,75.95331,131.3667
"91858",1238.4631,75.93622,131.22314
"91859",1238.4764,75.965515,131.12544
"91860",1238.4897,76.03876,131.0726
"91861",1238.503,76.14618,131.05623
"91862",1238.5164,76.28535,131.07497
"91863",1238.5297,76.439156,131.11269
"91864",1238.543,76.60273,131.16498
"91865",1238.5563,76.75899,131.21507
"91866",1238.5696,76.90059,131.25539
"91867",1238.5829,77.01778,131.27571
"91868",1238.5962,77.10811,131.27284
"91869",1238.6095,77.171585,131.24594
"91870",1238.6228,77.21065,131.19661
"91871",1238.6361,77.24727,131.14606
"91872",1238.6494,77.347374,131.16014
"91873",1238.6627,77.71603,131.44589
"91874",1238.676,78.63645,132.29494
"91875",1238.6893,80.26246,133.87833
"91876",1238.7026,82.476845,136.10092
"91877",1238.716,84.95003,138.6515
"91878",1238.7292,87.2401,141.09627
"91879",1238.7426,88.90517,142.9876
"91880",1238.7559,89.69131,144.05202
"91881",1238.7692,89.637596,144.30116
"91882",1238.7825,88.98573,143.95047
"91883",1238.7958,87.96765,143.2132
"91884",1238.8091,86.74937,142.2439
"91885",1238.8224,85.44808,141.15353
"91886",1238.8357,84.14191,140.01761
"91887",1238.849,82.89433,138.89948
"91888",1238.8623,81.74441,137.84
"91889",1238.8756,80.709236,136.85934
"91890",1238.8889,79.80591,135.97818
"91891",1238.9022,79.05394,135.22015
"91892",1238.9155,78.485085,134.62173
"91893",1238.9288,78.16281,134.25212
"91894",1238.9421,78.16037,134.19226
"91895",1238.9554,78.51682,134.49123
"91896",1238.9688,79.202866,135.13092
"91897",1238.982,80.10376,136.0069
"91898",1238.9954,81.04372,136.9501
"91899",1239.0087,81.85184,137.79085
"91900",1239.022,82.391396,138.38828
"91901",1239.0353,82.61845,138.69006
"91902",1239.0486,82.55253,138.70598
"91903",1239.0619,82.262,138.49522
"91904",1239.0752,81.82254,138.12645
"91905",1239.0885,81.29519,137.65605
"91906",1239.1018,80.71412,137.11546
"91907",1239.1151,80.11597,136.53963
"91908",1239.1284,79.5227,135.94998
"91909",1239.1417,78.9514,135.36377
"91910",1239.155,78.416725,134.79633
"91911",1239.1683,77.9382,134.26833
"91912",1239.1816,77.51827,133.78397
"91913",1239.195,77.16182,133.34996
"91914",1239.2083,76.87129,132.97073
"91915",1239.2216,76.654,132.65567
"91916",1239.2349,76.507515,132.40462
"91917",1239.2482,76.42451,132.21246
"91918",1239.2615,76.402534,132.07875
"91919",1239.2748,76.436714,132.0005
"91920",1239.2881,76.5124,131.96483
"91921",1239.3014,76.61494,131.95837
"91922",1239.3147,76.734566,131.97221
"91923",1239.328,76.86153,131.99713
"91924",1239.3413,76.9836,132.02112
"91925",1239.3546,77.09346,132.03671
"91926",1239.3679,77.18379,132.03621
"91927",1239.3812,77.24971,132.01411
"91928",1239.3945,77.30343,131.98189
"91929",1239.4078,77.42794,132.02213
"91930",1239.4211,77.83322,132.34703
"91931",1239.4344,78.77562,133.22171
"91932",1239.4478,80.38209,134.78992
"91933",1239.461,82.528114,136.94789
"91934",1239.4744,84.893875,139.39265
"91935",1239.4877,87.047226,141.69894
"91936",1239.501,88.59022,143.46216
"91937",1239.5143,89.305565,144.44595
"91938",1239.5276,89.24696,144.67815
"91939",1239.5409,88.621956,144.3421
"91940",1239.5542,87.64538,143.63496
"91941",1239.5675,86.45884,142.68735
"91942",1239.5808,85.17952,141.60986
"91943",1239.5941,83.88556,140.47777
"91944",1239.6074,82.6453,139.35893
"91945",1239.6207,81.497826,138.29413
"91946",1239.634,80.46021,137.30333
"91947",1239.6473,79.54955,136.40706
"91948",1239.6606,78.77318,135.61661
"91949",1239.674,78.16525,134.97034
"91950",1239.6873,77.79172,134.53946
"91951",1239.7006,77.73556,134.41429
"91952",1239.7139,78.05051,134.65848
"91953",1239.7272,78.712135,135.25919
"91954",1239.7405,79.62035,136.12715
"91955",1239.7538,80.604256,137.09918
"91956",1239.7671,81.47585,137.98967
"91957",1239.7804,82.09354,138.65347
"91958",1239.7937,82.391396,139.01675
"91959",1239.807,82.374306,139.0744
"91960",1239.8203,82.11551,138.8898
"91961",1239.8336,81.685814,138.52621
"91962",1239.8469,81.15358,138.04666
"91963",1239.8602,80.570076,137.4992
"91964",1239.8735,79.971924,136.91887
"91965",1239.8868,79.37621,136.32228
"91966",1239.9001,78.802475,135.72905
"91967",1239.9135,78.260475,135.14963
"91968",1239.9268,77.76242,134.59721
"91969",1239.9401,77.32052,134.08539
"91970",1239.9534,76.95186,133.633
"91971",1239.9667,76.65644,133.24232
"91972",1239.98,76.4416,132.92299
"91973",1239.9933,76.30244,132.67262
"91974",1240.0066,76.241394,132.49603
"91975",1240.0199,76.24872,132.3859
"91976",1240.0332,76.30488,132.32483
"91977",1240.0465,76.402534,132.307
"91978",1240.0598,76.53437,132.32642
"91979",1240.0731,76.6833,132.36703
"91980",1240.0864,76.83467,132.41476
"91981",1240.0997,76.97139,132.45256
"91982",1240.113,77.086136,132.47266
"91983",1240.1263,77.17891,132.47437
"91984",1240.1396,77.31075,132.51805
"91985",1240.153,77.65743,132.78069
"91986",1240.1663,78.45823,133.50827
"91987",1240.1796,79.85962,134.86148
"91988",1240.1929,81.795685,136.79315
"91989",1240.2062,84.00763,139.06122
"91990",1240.2195,86.11459,141.29343
"91991",1240.2328,87.71862,143.08853
"91992",1240.2461,88.57557,144.18669
"91993",1240.2594,88.67811,144.55722
"91994",1240.2727,88.199585,144.34988
"91995",1240.286,87.33532,143.74185
"91996",1240.2993,86.24887,142.88463
"91997",1240.3126,85.05501,141.88605
"91998",1240.3259,83.84161,140.83063
"91999",1240.3392,82.669716,139.77878
"92000",1240.3525,81.59548,138.78798
"92001",1240.3658,80.638435,137.8808
"92002",1240.3792,79.80591,137.06822
"92003",1240.3925,79.10521,136.36145
"92004",1240.4058,78.56321,135.79149
"92005",1240.4191,78.23117,135.41455
"92006",1240.4324,78.1799,135.308
"92007",1240.4457,78.44846,135.51968
"92008",1240.459,79.01976,136.0425
"92009",1240.4723,79.7937,136.7858
"92010",1240.4856,80.618904,137.60455
"92011",1240.4989,81.33669,138.34169
"92012",1240.5122,81.829865,138.87663
"92013",1240.5255,82.04471,139.14867
"92014",1240.5388,81.99344,139.1613
"92015",1240.5521,81.73464,138.9648
"92016",1240.5654,81.324486,138.60886
"92017",1240.5787,80.81911,138.14487
"92018",1240.592,80.26246,137.61382
"92019",1240.6053,79.68627,137.04584
"92020",1240.6187,79.114975,136.46474
"92021",1240.632,78.56565,135.88776
"92022",1240.6453,78.05539,135.33267
"92023",1240.6586,77.58907,134.80559
"92024",1240.6719,77.18379,134.32497
"92025",1240.6852,76.839554,133.89272
"92026",1240.6985,76.561226,133.51562
"92027",1240.7118,76.34394,133.19087
"92028",1240.7251,76.192566,132.92525
"92029",1240.7384,76.104675,132.71837
"92030",1240.7517,76.07782,132.56978
"92031",1240.765,76.09979,132.46918
"92032",1240.7783,76.16327,132.41077
"92033",1240.7916,76.24872,132.37631
"92034",1240.8049,76.33662,132.34698
"92035",1240.8182,76.4123,132.30818
"92036",1240.8315,76.46357,132.24733
"92037",1240.8448,76.48554,132.15878
"92038",1240.8582,76.51484,132.07825
"92039",1240.8715,76.6833,132.13779
"92040",1240.8848,77.225296,132.57614
"92041",1240.8981,78.35813,133.62227
"92042",1240.9114,80.1062,135.31903
"92043",1240.9247,82.27421,137.49036
"92044",1240.938,84.5008,139.78802
"92045",1240.9513,86.380714,141.8086
"92046",1240.9646,87.58434,143.21162
"92047",1240.9779,88.01648,143.88077
"92048",1240.9912,87.79675,143.91156
"92049",1241.0045,87.132675,143.49113
"92050",1241.0178,86.19516,142.77652
"92051",1241.0311,85.1136,141.88857
"92052",1241.0444,83.97833,140.9131
"92053",1241.0577,82.85527,139.91437
"92054",1241.071,81.7908,138.93913
"92055",1241.0844,80.81911,138.0234
"92056",1241.0977,79.95239,137.1823
"92057",1241.111,79.19066,136.41907
"92058",1241.1243,78.57053,135.77365
"92059",1241.1376,78.135956,135.2944
"92060",1241.1509,77.962616,135.0628
"92061",1241.1642,78.1091,135.14561
"92062",1241.1775,78.5803,135.55772
"92063",1241.1908,79.30297,136.23602
"92064",1241.2041,80.14282,137.0541
"92065",1241.2174,80.938736,137.85446
"92066",1241.2307,81.549095,138.49416
"92067",1241.244,81.898224,138.8917
"92068",1241.2573,81.96658,139.01938
"92069",1241.2706,81.80301,138.91727
"92070",1241.2839,81.46609,138.63669
"92071",1241.2972,81.01442,138.23083
"92072",1241.3105,80.49439,137.74251
"92073",1241.3239,79.94751,137.21107
"92074",1241.3372,79.395744,136.65767
"92075",1241.3505,78.853745,136.09679
"92076",1241.3638,78.34104,135.54826
"92077",1241.3771,77.8674,135.02278
"92078",1241.3904,77.44503,134.53377
"92079",1241.4037,77.086136,134.09503
"92080",1241.417,76.79317,133.711
"92081",1241.4303,76.575874,133.3935
"92082",1241.4436,76.43427,133.14488
"92083",1241.4569,76.37324,132.97241
"92084",1241.4702,76.37812,132.86395
"92085",1241.4835,76.4416,132.81424
"92086",1241.4968,76.544136,132.80557
"92087",1241.5101,76.66621,132.81964
"92088",1241.5234,76.7834,132.83266
"92089",1241.5367,76.88594,132.83467
"92090",1241.55,76.96651,132.81792
"92091",1241.5634,77.04707,132.80368
"92092",1241.5767,77.225296,132.88962
"92093",1241.59,77.69161,133.26923
"92094",1241.6033,78.658424,134.1639
"92095",1241.6166,80.18677,135.65031
"92096",1241.6299,82.14725,137.61664
"92097",1241.6432,84.242004,139.7785
"92098",1241.6565,86.10483,141.7739
"92099",1241.6698,87.40124,143.26108
"92100",1241.6831,87.97986,144.07098
"92101",1241.6964,87.89929,144.23979
"92102",1241.7097,87.33776,143.92511
"92103",1241.723,86.45884,143.2755
"92104",1241.7363,85.401695,142.4202
"92105",1241.7496,84.27619,141.4635
"92106",1241.763,83.16289,140.48383
"92107",1241.7762,82.11795,139.53773
"92108",1241.7896,81.17555,138.66153
"92109",1241.8029,80.343025,137.86574
"92110",1241.8162,79.61791,137.15135
"92111",1241.8295,79.01732,136.53882
"92112",1241.8428,78.58274,136.07353
"92113",1241.8561,78.37278,135.81927
"92114",1241.8694,78.44114,135.83678
"92115",1241.8827,78.79271,136.13963
"92116",1241.896,79.36889,136.67809
"92117",1241.9093,80.05493,137.3444
"92118",1241.9226,80.71412,138.00531
"92119",1241.9359,81.22682,138.54033
"92120",1241.9492,81.52224,138.87408
"92121",1241.9625,81.57839,138.97781
"92122",1241.9758,81.427025,138.87578
"92123",1241.9891,81.112076,138.60542
"92124",1242.0024,80.6775,138.2056
"92125",1242.0157,80.17456,137.72383
"92126",1242.029,79.635,137.18973
"92127",1242.0424,79.08568,136.629
"92128",1242.0557,78.54612,136.06087
"92129",1242.069,78.03342,135.50273
"92130",1242.0823,77.55978,134.96764
"92131",1242.0956,77.137405,134.46901
"92132",1242.1089,76.77608,134.01822
"92133",1242.1222,76.4831,133.6245
"92134",1242.1355,76.26826,133.29974
"92135",1242.1488,76.12909,133.04396
"92136",1242.1621,76.05829,132.85219
"92137",1242.1754,76.053406,132.72412
"92138",1242.1887,76.09979,132.64717
"92139",1242.202,76.18768,132.61317
"92140",1242.2153,76.30488,132.61124
"92141",1242.2286,76.439156,132.63004
"92142",1242.242,76.578316,132.65791
"92143",1242.2552,76.70527,132.67793
"92144",1242.2686,76.80293,132.67264
"92145",1242.2819,76.86397,132.63376
"92146",1242.2952,76.895706,132.56749
"92147",1242.3085,76.95674,132.53151
"92148",1242.3218,77.21553,132.69519
"92149",1242.3351,77.91623,133.30887
"92150",1242.3484,79.22728,134.5548
"92151",1242.3617,81.10231,136.40567
"92152",1242.375,83.302055,138.63986
"92153",1242.3883,85.452965,140.89397
"92154",1242.4016,87.16197,142.77338
"92155",1242.4149,88.15808,143.9933
"92156",1242.4282,88.411995,144.50215
"92157",1242.4415,88.077515,144.43054
"92158",1242.4548,87.33776,143.9432
"92159",1242.4681,86.363625,143.19838
"92160",1242.4814,85.27474,142.30836
"92161",1242.4948,84.16388,141.36234
"92162",1242.508,83.106735,140.43532
"92163",1242.5214,82.14725,139.57292
"92164",1242.5347,81.307396,138.80017
"92165",1242.548,80.587166,138.1208
"92166",1242.5613,79.98413,137.53612
"92167",1242.5746,79.49584,137.04733
"92168",1242.5879,79.15892,136.69466
"92169",1242.6012,79.027084,136.53653
"92170",1242.6145,79.13451,136.61354
"92171",1242.6278,79.46899,136.92097
"92172",1242.6411,79.9646,137.4
"92173",1242.6544,80.52369,137.95798
"92174",1242.6677,81.0193,138.46996
"92175",1242.681,81.358665,138.84117
"92176",1242.6943,81.48806,139.01303
"92177",1242.7076,81.41482,138.9863
"92178",1242.721,81.16579,138.78148
"92179",1242.7343,80.780045,138.43217
"92180",1242.7476,80.29664,137.97314
"92181",1242.7609,79.75952,137.4453
"92182",1242.7742,79.202866,136.88113
"92183",1242.7875,78.6511,136.30446
"92184",1242.8008,78.12131,135.73251
"92185",1242.8141,77.63546,135.18796
"92186",1242.8274,77.205765,134.68437
"92187",1242.8407,76.83223,134.22351
"92188",1242.854,76.524605,133.8169
"92189",1242.8673,76.28779,133.47147
"92190",1242.8806,76.12421,133.19188
"92191",1242.8939,76.02899,132.97554
"92192",1242.9072,75.98993,132.81238
"92193",1242.9205,76.00214,132.69926
"92194",1242.9338,76.04608,132.61827
"92195",1242.9471,76.11688,132.5655
"92196",1242.9604,76.192566,132.51984
"92197",1242.9738,76.265816,132.4741
"92198",1242.987,76.32929,132.42088
"92199",1243.0004,76.383,132.35988
"92200",1243.0137,76.44404,132.30788
"92201",1243.027,76.61738,132.37009
"92202",1243.0403,77.10567,132.75267
"92203",1243.0536,78.12131,133.67786
"92204",1243.0669,79.73266,135.2305
"92205",1243.0802,81.80301,137.2925
"92206",1243.0935,84.03204,139.57788
"92207",1243.1068,86.029144,141.70099
"92208",1243.1201,87.447624,143.30788
"92209",1243.1334,88.12146,144.21445
"92210",1243.1467,88.11658,144.46336
"92211",1243.16,87.606316,144.20674
"92212",1243.1733,86.77135,143.60947
"92213",1243.1866,85.75571,142.80544
"92214",1243.2,84.67902,141.90862
"92215",1243.2133,83.62432,141.00014
"92216",1243.2266,82.66483,140.15392
"92217",1243.2399,81.84451,139.41687
"92218",1243.2532,81.16579,138.79579
"92219",1243.2665,80.60914,138.27557
"92220",1243.2798,80.15991,137.84538
"92221",1243.2931,79.81323,137.5037
"92222",1243.3064,79.588615,137.27324
"92223",1243.3197,79.5227,137.19446
"92224",1243.333,79.62768,137.28452
"92225",1243.3463,79.88159,137.5268
"92226",1243.3596,80.22827,137.86978
"92227",1243.3729,80.57984,138.22849
"92228",1243.3862,80.85329,138.52005
"92229",1243.3995,80.99245,138.68588
"92230",1243.4128,80.972916,138.69737
"92231",1243.4261,80.80202,138.55688
"92232",1243.4395,80.49439,138.27432
"92233",1243.4528,80.08667,137.88205
"92234",1243.4661,79.60815,137.40623
"92235",1243.4794,79.093,136.87885
"92236",1243.4927,78.56809,136.32559
"92237",1243.506,78.05783,135.77058
"92238",1243.5193,77.57931,135.23137
"92239",1243.5326,77.14473,134.72115
"92240",1243.5459,76.76143,134.24861
"92241",1243.5592,76.44404,133.83002
"92242",1243.5725,76.19501,133.46986
"92243",1243.5858,76.019226,133.17517
"92244",1243.5991,75.914246,132.94579
"92245",1243.6124,75.87518,132.77904
"92246",1243.6257,75.88983,132.66478
"92247",1243.639,75.93622,132.58272
"92248",1243.6523,76.00702,132.52652
"92249",1243.6656,76.085144,132.47986
"92250",1243.679,76.1535,132.42587
"92251",1243.6923,76.20233,132.35449
"92252",1243.7056,76.23407,132.26755
"92253",1243.7189,76.24872,132.1645
"92254",1243.7322,76.29267,132.09123
"92255",1243.7455,76.49531,132.17801
"92256",1243.7588,77.086136,132.65932
"92257",1243.7721,78.25559,133.73772
"92258",1243.7854,80.025635,135.45325
"92259",1243.7987,82.196075,137.62448
"92260",1243.812,84.437325,139.93436
"92261",1243.8253,86.346535,141.98224
"92262",1243.8386,87.606316,143.44035
"92263",1243.8519,88.10437,144.1761
"92264",1243.8652,87.94324,144.26823
"92265",1243.8785,87.310905,143.88412
"92266",1243.8918,86.39048,143.19217
"92267",1243.9052,85.32601,142.32741
"92268",1243.9185,84.23956,141.4074
"92269",1243.9318,83.21904,140.51936
"92270",1243.9451,82.31815,139.71907
"92271",1243.9584,81.57107,139.04443
"92272",1243.9717,80.96315,138.48561
"92273",1243.985,80.47242,138.02498
"92274",1243.9983,80.08667,137.65399
"92275",1244.0116,79.81079,137.38083
"92276",1244.0249,79.6643,137.22842
"92277",1244.0382,79.6643,137.21793
"92278",1244.0515,79.81323,137.35637
"92279",1244.0648,80.079346,137.61664
"92280",1244.0781,80.38941,137.92918
"92281",1244.0914,80.66529,138.21724
"92282",1244.1047,80.84108,138.41382
"92283",1244.118,80.8777,138.47673
"92284",1244.1313,80.762955,138.38942
"92285",1244.1447,80.51148,138.16179
"92286",1244.158,80.15015,137.81644
"92287",1244.1713,79.708244,137.37923
"92288",1244.1846,79.219955,136.88182
"92289",1244.1979,78.71458,136.35207
"92290",1244.2112,78.21164,135.80896
"92291",1244.2245,77.730675,135.27211
"92292",1244.2378,77.28634,134.75685
"92293",1244.2511,76.893265,134.27898
"92294",1244.2644,76.55634,133.84497
"92295",1244.2777,76.28779,133.4688
"92296",1244.291,76.085144,133.15015
"92297",1244.3043,75.945984,132.88864
"92298",1244.3176,75.8703,132.68626
"92299",1244.3309,75.860535,132.54744
"92300",1244.3442,75.931335,132.48888
"92301",1244.3575,76.087585,132.51797
"92302",1244.3708,76.32441,132.63254
"92303",1244.3842,76.60761,132.80087
"92304",1244.3975,76.895706,132.98296
"92305",1244.4108,77.14473,133.13496
"92306",1244.4241,77.32052,133.22153
"92307",1244.4374,77.41329,133.23056
"92308",1244.4507,77.44503,133.18146
"92309",1244.464,77.48165,133.13823
"92310",1244.4773,77.66964,133.24751
"92311",1244.4906,78.22873,133.73378
"92312",1244.5039,79.327385,134.77708
"92313",1244.5172,80.97536,136.40404
"92314",1244.5305,82.99199,138.45116
"92315",1244.5438,85.0428,140.59547
"92316",1244.5571,86.766464,142.47673
"92317",1244.5704,87.869995,143.79172
"92318",1244.5837,88.26307,144.43073
"92319",1244.597,88.03601,144.46188
"92320",1244.6104,87.37438,144.05138
"92321",1244.6237,86.44419,143.35164
"92322",1244.637,85.382164,142.491
"92323",1244.6503,84.30549,141.58252
"92324",1244.6636,83.29717,140.70876
"92325",1244.6769,82.406044,139.92067
"92326",1244.6902,81.64919,139.23901
"92327",1244.7035,81.02174,138.6631
"92328",1244.7168,80.50904,138.18233
"92329",1244.7301,80.1062,137.7954
"92330",1244.7434,79.83765,137.53015
"92331",1244.7567,79.73022,137.41765
"92332",1244.77,79.80347,137.48247
"92333",1244.7833,80.042725,137.71558
"92334",1244.7966,80.38941,138.0636
"92335",1244.8099,80.75563,138.44199
"92336",1244.8232,81.05104,138.76102
"92337",1244.8365,81.20485,138.94768
"92338",1244.8499,81.19264,138.97313
"92339",1244.8632,81.01686,138.83463
"92340",1244.8765,80.70435,138.5539
"92341",1244.8898,80.291756,138.16331
"92342",1244.9031,79.818115,137.69879
"92343",1244.9164,79.31762,137.19261
"92344",1244.9297,78.819565,136.67323
"92345",1244.943,78.33616,136.15294
"92346",1244.9563,77.88693,135.65172
"92347",1244.9696,77.48165,135.1804
"92348",1244.9829,77.13252,134.75258
"92349",1244.9962,76.83223,134.36267
"92350",1245.0095,76.59052,134.02197
"92351",1245.0228,76.404976,133.72987
"92352",1245.0361,76.27558,133.48813
"92353",1245.0494,76.19989,133.29605
"92354",1245.0627,76.17059,133.148
"92355",1245.076,76.17792,133.03564
"92356",1245.0894,76.209656,132.94794
"92357",1245.1027,76.26093,132.88077
"92358",1245.116,76.317085,132.82007
"92359",1245.1293,76.36591,132.7538
"92360",1245.1426,76.404976,132.67929
"92361",1245.1559,76.42695,132.58891
"92362",1245.1692,76.42695,132.47725
"92363",1245.1825,76.419624,132.35826
"92364",1245.1958,76.42695,132.2537
"92365",1245.2091,76.53437,132.24945
"92366",1245.2224,76.927444,132.53423
"92367",1245.2357,77.81613,133.32689
"92368",1245.249,79.28832,134.73083
"92369",1245.2623,81.231705,136.65198
"92370",1245.2756,83.372856,138.83162
"92371",1245.289,85.32845,140.89262
"92372",1245.3022,86.746925,142.47762
"92373",1245.3156,87.44518,143.38672
"92374",1245.3289,87.45495,143.62915
"92375",1245.3422,86.93736,143.34453
"92376",1245.3555,86.07553,142.6995
"92377",1245.3688,85.02571,141.83954
"92378",1245.3821,83.90265,140.87354
"92379",1245.3954,82.80156,139.89441
"92380",1245.4087,81.7908,138.9712
"92381",1245.422,80.907,138.14337
"92382",1245.4353,80.15503,137.41975
"92383",1245.4486,79.534904,136.80447
"92384",1245.4619,79.05638,136.31142
"92385",1245.4752,78.75365,135.97919
"92386",1245.4885,78.67063,135.85722
"92387",1245.5018,78.82689,135.97194
"92388",1245.5151,79.202866,136.31125
"92389",1245.5284,79.727776,136.81125
"92390",1245.5417,80.2942,137.36916
"92391",1245.555,80.7776,137.86176
"92392",1245.5684,81.09743,138.20589
"92393",1245.5817,81.214615,138.35738
"92394",1245.595,81.126724,138.30745
"92395",1245.6083,80.867935,138.08388
"92396",1245.6216,80.479744,137.72281
"92397",1245.6349,80.01099,137.26904
"92398",1245.6482,79.500725,136.75912
"92399",1245.6615,78.9807,136.2235
"92400",1245.6748,78.47288,135.68382
"92401",1245.6881,77.99924,135.16246
"92402",1245.7014,77.5671,134.6678
"92403",1245.7147,77.188675,134.21335
"92404",1245.728,76.86641,133.80322
"92405",1245.7413,76.60273,133.44162
"92406",1245.7546,76.39765,133.13037
"92407",1245.768,76.243835,132.86398
"92408",1245.7812,76.13397,132.63673
"92409",1245.7946,76.06317,132.44511
"92410",1245.8079,76.02167,132.28058
"92411",1245.8212,76.00214,132.13672
"92412",1245.8345,75.99237,132.00201
"92413",1245.8478,75.98993,131.87433
"92414",1245.8611,75.99725,131.75633
"92415",1245.8744,76.00458,131.63857
"92416",1245.8877,76.02167,131.53079
"92417",1245.901,76.09003,131.47482
"92418",1245.9143,76.334175,131.59679
"92419",1245.9276,76.964066,132.11212
"92420",1245.9409,78.15793,133.2111
"92421",1245.9542,79.923096,134.9187
"92422",1245.9675,82.06668,137.05988
"92423",1245.9808,84.24689,139.30467
"92424",1245.9941,86.06821,141.25871
"92425",1246.0074,87.22545,142.60559
"92426",1246.0208,87.620964,143.2269
"92427",1246.034,87.36706,143.21115
"92428",1246.0474,86.65171,142.72603
"92429",1246.0607,85.64828,141.93047
"92430",1246.074,84.491035,140.94974
"92431",1246.0873,83.28008,139.87914
"92432",1246.1006,82.09842,138.79997
"92433",1246.1139,81.00221,137.76935
"92434",1246.1272,80.02075,136.81921
"92435",1246.1405,79.17357,135.97269
"92436",1246.1538,78.47776,135.25105
"92437",1246.1671,77.97238,134.6981
"92438",1246.1804,77.7087,134.37106
"92439",1246.1937,77.74044,134.33119
"92440",1246.207,78.08957,134.60971
"92441",1246.2203,78.70725,135.1677
"92442",1246.2336,79.483635,135.90367
"92443",1246.247,80.26734,136.67123
"92444",1246.2603,80.919205,137.33145
"92445",1246.2736,81.341576,137.78255
"92446",1246.2869,81.50027,137.98317
"92447",1246.3002,81.41238,137.94217
"92448",1246.3135,81.12428,137.69821
"92449",1246.3268,80.69459,137.30365
"92450",1246.3401,80.181885,136.81265
"92451",1246.3534,79.62035,136.2568
"92452",1246.3667,79.04906,135.67365
"92453",1246.38,78.49485,135.08972
"92454",1246.3933,77.977264,134.5251
"92455",1246.4066,77.506065,133.99069
"92456",1246.4199,77.0959,133.5026
"92457",1246.4332,76.75166,133.0676
"92458",1246.4465,76.46113,132.67555
"92459",1246.4598,76.226746,132.33058
"92460",1246.4731,76.04608,132.032
"92461",1246.4865,75.911804,131.77415
"92462",1246.4998,75.82147,131.55606
"92463",1246.5131,75.76776,131.37177
"92464",1246.5264,75.74822,131.21997
"92465",1246.5397,75.76044,131.09932
"92466",1246.553,75.79706,131.00345
"92467",1246.5663,75.89227,130.96732
"92468",1246.5796,76.155945,131.10262
"92469",1246.5929,76.80293,131.62947
"92470",1246.6062,78.011444,132.73807
"92471",1246.6195,79.80347,134.46794
"92472",1246.6328,81.98123,136.63956
"92473",1246.6461,84.20538,138.92563
"92474",1246.6594,86.07553,140.9272
"92475",1246.6727,87.2694,142.31093
"92476",1246.686,87.68688,142.95558
"92477",1246.6993,87.43542,142.94434
"92478",1246.7126,86.712746,142.45403
"92479",1246.726,85.694664,141.64572
"92480",1246.7393,84.51545,140.64447
"92481",1246.7526,83.27276,139.5429
"92482",1246.7659,82.039825,138.41223
"92483",1246.7792,80.867935,137.3041
"92484",1246.7925,79.78638,136.24966
"92485",1246.8058,78.82445,135.28107
"92486",1246.8191,78.011444,134.43132
"92487",1246.8324,77.38888,133.74661
"92488",1246.8457,77.02754,133.30368
"92489",1246.859,76.995804,133.17905
"92490",1246.8723,77.332726,133.42209
"92491",1246.8856,78.00656,134.01257
"92492",1246.8989,78.91234,134.85605
"92493",1246.9122,79.88403,135.79375
"92494",1246.9255,80.74586,136.65195
"92495",1246.9388,81.36843,137.29784
"92496",1246.9521,81.68093,137.6531
"92497",1246.9655,81.70046,137.72517
"92498",1246.9788,81.47585,137.55371
"92499",1246.9921,81.08034,137.20432
"92500",1247.0054,80.57984,136.73758
"92501",1247.0187,80.03052,136.20638
"92502",1247.032,79.45922,135.63603
"92503",1247.0453,78.90013,135.06004
"92504",1247.0586,78.3679,134.49344
"92505",1247.0719,77.872284,133.94682
"92506",1247.0852,77.418175,133.42622
"92507",1247.0985,77.01289,132.94026
"92508",1247.1118,76.65888,132.4929
"92509",1247.1251,76.35371,132.08331
"92510",1247.1384,76.10956,131.72522
"92511",1247.1517,75.92401,131.41809
"92512",1247.165,75.789734,131.15643
"92513",1247.1783,75.718925,130.95406
"92514",1247.1917,75.772644,130.874
"92515",1247.205,76.13641,131.10565
"92516",1247.2183,77.06416,131.91266
"92517",1247.2316,78.70481,133.46156
"92518",1247.2449,80.9485,135.66478
"92519",1247.2582,83.48516,138.23108
"92520",1247.2715,85.875336,140.73016
"92521",1247.2848,87.682,142.72043
"92522",1247.2981,88.64393,143.92242
"92523",1247.3114,88.780655,144.32927
"92524",1247.3247,88.292366,144.11537
"92525",1247.338,87.40124,143.48338
"92526",1247.3513,86.275734,142.58917
"92527",1247.3646,85.0428,141.55235
"92528",1247.3779,83.790344,140.45749
"92529",1247.3912,82.58427,139.36986
"92530",1247.4045,81.463646,138.33
"92531",1247.4178,80.445564,137.35767
"92532",1247.4312,79.54467,136.4707
"92533",1247.4445,78.79271,135.70451
"92534",1247.4578,78.24338,135.11745
"92535",1247.4711,77.960175,134.77934
"92536",1247.4844,78.00656,134.76198
"92537",1247.4977,78.397194,135.09032
"92538",1247.511,79.06615,135.70918
"92539",1247.5243,79.88403,136.49788
"92540",1247.5376,80.689705,137.29993
"92541",1247.5509,81.33181,137.9636
"92542",1247.5642,81.71999,138.3934
"92543",1247.5775,81.82742,138.55458
"92544",1247.5908,81.68337,138.46764
"92545",1247.6041,81.35134,138.18822
"92546",1247.6174,80.89723,137.77634
"92547",1247.6307,80.36744,137.27458
"92548",1247.644,79.80347,136.72209
"92549",1247.6573,79.234604,136.1471
"92550",1247.6707,78.677956,135.56653
"92551",1247.684,78.14816,134.99542
"92552",1247.6973,77.659874,134.44926
"92553",1247.7106,77.21797,133.93423
"92554",1247.7239,76.824905,133.45422
"92555",1247.7372,76.4831,133.0132
"92556",1247.7505,76.190125,132.61032
"92557",1247.7638,75.945984,132.24712
"92558",1247.7771,75.76288,131.93732
"92559",1247.7904,75.67254,131.71457
"92560",1247.8037,75.81415,131.72095
"92561",1247.817,76.41718,132.19318
"92562",1247.8303,77.69161,133.35564
"92563",1247.8436,79.64721,135.23909
"92564",1247.8569,82.06668,137.64754
"92565",1247.8702,84.56672,140.21216
"92566",1247.8835,86.70298,142.49113
"92567",1247.8969,88.12634,144.12396
"92568",1247.9102,88.71717,144.96873
"92569",1247.9235,88.5951,145.11908
"92570",1247.9368,87.97742,144.76999
"92571",1247.9501,87.05211,144.09398
"92572",1247.9634,85.97055,143.2328
"92573",1247.9767,84.840164,142.289
"92574",1247.99,83.74395,141.34404
"92575",1248.0033,82.73319,140.45029
"92576",1248.0166,81.829865,139.63237
"92577",1248.0299,81.03151,138.8912
"92578",1248.0432,80.33814,138.23007
"92579",1248.0565,79.76196,137.66446
"92580",1248.0698,79.344475,137.23953
"92581",1248.0831,79.13695,137.01152
"92582",1248.0964,79.17357,137.02116
"92583",1248.1097,79.449455,137.27122
"92584",1248.123,79.906006,137.71057
"92585",1248.1364,80.43824,138.23987
"92586",1248.1497,80.92653,138.74185
"92587",1248.163,81.2781,139.12238
"92588",1248.1763,81.43923,139.32346
"92589",1248.1896,81.392845,139.32205
"92590",1248.2029,81.17067,139.1434
"92591",1248.2162,80.80446,138.81378
"92592",1248.2295,80.34058,138.37505
"92593",1248.2428,79.82544,137.87054
"92594",1248.2561,79.28832,137.32797
"92595",1248.2694,78.75365,136.77106
"92596",1248.2827,78.23605,136.21451
"92597",1248.296,77.747765,135.6711
"92598",1248.3093,77.30099,135.15393
"92599",1248.3226,76.90547,134.67407
"92600",1248.3359,76.57099,134.24289
"92601",1248.3492,76.29511,133.85985
"92602",1248.3625,76.07538,133.52434
"92603",1248.3759,75.914246,133.24055
"92604",1248.3892,75.83856,133.03719
"92605",1248.4025,75.93378,133.00235
"92606",1248.4158,76.387886,133.32939
"92607",1248.4291,77.38644,134.21506
"92608",1248.4424,78.9807,135.72765
"92609",1248.4557,81.02907,137.74416
"92610",1248.469,83.243454,139.9907
"92611",1248.4823,85.262535,142.11115
"92612",1248.4956,86.74937,143.76244
"92613",1248.5089,87.53796,144.76195
"92614",1248.5222,87.66979,145.12935
"92615",1248.5355,87.2987,144.99794
"92616",1248.5488,86.588234,144.51556
"92617",1248.5621,85.6849,143.81812
"92618",1248.5754,84.701,143.01187
"92619",1248.5887,83.734184,142.19197
"92620",1248.602,82.84062,141.4151
"92621",1248.6154,82.054474,140.71773
"92622",1248.6287,81.3782,140.10565
"92623",1248.642,80.80446,139.57498
"92624",1248.6553,80.31617,139.11183
"92625",1248.6686,79.92798,138.73352
"92626",1248.6819,79.66674,138.47003
"92627",1248.6952,79.56664,138.35951
"92628",1248.7085,79.635,138.41432
"92629",1248.7218,79.852295,138.62021
"92630",1248.7351,80.15503,138.91833
"92631",1248.7484,80.46021,139.22836
"92632",1248.7617,80.68726,139.4698
"92633",1248.775,80.78493,139.58894
"92634",1248.7883,80.73365,139.5622
"92635",1248.8016,80.5359,139.38737
"92636",1248.815,80.216064,139.08429
"92637",1248.8282,79.81079,138.68576
"92638",1248.8416,79.35424,138.2233
"92639",1248.8549,78.87816,137.72704
"92640",1248.8682,78.40208,137.2159
"92641",1248.8815,77.943085,136.70697
"92642",1248.8948,77.51583,136.21544
"92643",1248.9081,77.12764,135.74962
"92644",1248.9214,76.78584,135.31805
"92645",1248.9347,76.49531,134.92708
"92646",1248.948,76.25849,134.58073
"92647",1248.9613,76.07294,134.27826
"92648",1248.9746,75.93378,134.01637
"92649",1248.9879,75.83856,133.79408
"92650",1249.0012,75.79462,133.62009
"92651",1249.0145,75.85565,133.5497
"92652",1249.0278,76.155945,133.72047
"92653",1249.0411,76.86885,134.31325
"92654",1249.0544,78.10666,135.4532
"92655",1249.0677,79.82544,137.11281
"92656",1249.081,81.82742,139.10934
"92657",1249.0944,83.80255,141.14159
"92658",1249.1077,85.42367,142.88153
"92659",1249.121,86.468605,144.09596
"92660",1249.1343,86.87877,144.70827
"92661",1249.1476,86.746925,144.79138
"92662",1249.1609,86.22446,144.47975
"92663",1249.1742,85.452965,143.90277
"92664",1249.1875,84.56428,143.1845
"92665",1249.2008,83.665825,142.42868
"92666",1249.2141,82.828415,141.70583
"92667",1249.2274,82.09598,141.06178
"92668",1249.2407,81.47341,140.50471
"92669",1249.254,80.94362,140.02097
"92670",1249.2673,80.48463,139.59146
"92671",1249.2806,80.096436,139.21841
"92672",1249.294,79.79614,138.92114
"92673",1249.3073,79.62035,138.73898
"92674",1249.3206,79.588615,138.69537
"92675",1249.3339,79.69604,138.78993
"92676",1249.3472,79.903564,138.98796
"92677",1249.3605,80.13794,139.21933
"92678",1249.3738,80.33326,139.41896
"92679",1249.3871,80.428474,139.5246
"92680",1249.4004,80.40406,139.51358
"92681",1249.4137,80.25269,139.37485
"92682",1249.427,79.98413,139.11418
"92683",1249.4403,79.63012,138.75967
"92684",1249.4536,79.21263,138.33063
"92685",1249.4669,78.765854,137.85924
"92686",1249.4802,78.314186,137.369
"92687",1249.4935,77.87961,136.88174
"92688",1249.5068,77.47433,136.4102
"92689",1249.5201,77.11055,135.9675
"92690",1249.5334,76.79561,135.56226
"92691",1249.5468,76.52949,135.196
"92692",1249.56,76.32197,134.88002
"92693",1249.5734,76.16815,134.61127
"92694",1249.5867,76.06561,134.38898
"92695",1249.6,76.00946,134.20987
"92696",1249.6133,75.99237,134.06807
"92697",1249.6266,75.99725,133.94771
"92698",1249.6399,76.016785,133.84215
"92699",1249.6532,76.03876,133.73964
"92700",1249.6665,76.053406,133.6305
"92701",1249.6798,76.070496,133.52425
"92702",1249.6931,76.13153,133.46248
"92703",1249.7064,76.36591,133.57597
"92704",1249.7197,76.94942,134.04591
"92705",1249.733,78.02609,135.02725
"92706",1249.7463,79.59838,136.53786
"92707",1249.7596,81.495384,138.4223
"92708",1249.773,83.43633,140.40999
"92709",1249.7863,85.09651,142.17755
"92710",1249.7996,86.219574,143.45988
"92711",1249.8129,86.72251,144.15718
"92712",1249.8262,86.67368,144.31844
"92713",1249.8395,86.21225,144.06555
"92714",1249.8528,85.489586,143.53702
"92715",1249.8661,84.63264,142.85162
"92716",1249.8794,83.76105,142.1248
"92717",1249.8927,82.95293,141.43422
"92718",1249.906,82.247345,140.82092
"92719",1249.9193,81.64675,140.29056
"92720",1249.9326,81.13405,139.82932
"92721",1249.9459,80.689705,139.42041
"92722",1249.9592,80.306404,139.05867
"92723",1249.9725,80.01099,138.77283
"92724",1249.9858,79.835205,138.59738
"92725",1249.9991,79.80591,138.56293
"92726",1250.0125,79.91577,138.66672
"92727",1250.0258,80.11597,138.86429
"92728",1250.0391,80.34058,139.09253
"92729",1250.0524,80.52857,139.29117
"92730",1250.0657,80.62623,139.40535
"92731",1250.079,80.601814,139.40051
"92732",1250.0923,80.448006,139.26552
"92733",1250.1056,80.181885,139.0134
"92734",1250.1189,79.818115,138.6553
"92735",1250.1322,79.38354,138.21504
"92736",1250.1455,78.905014,137.71725
"92737",1250.1588,78.42405,137.20207
"92738",1250.1721,77.960175,136.68895
"92739",1250.1854,77.52804,136.19307
"92740",1250.1987,77.13985,135.72763
"92741",1250.212,76.805374,135.30377
"92742",1250.2253,76.52216,134.92073
"92743",1250.2386,76.29511,134.58499
"92744",1250.252,76.13153,134.30563
"92745",1250.2653,76.033875,134.08708
"92746",1250.2786,76.00702,133.93628
"92747",1250.2919,76.0412,133.84567
"92748",1250.3052,76.12665,133.8074
"92749",1250.3185,76.241394,133.8011
"92750",1250.3318,76.3708,133.81305
"92751",1250.3451,76.49531,133.82414
"92752",1250.3584,76.60273,133.82204
"92753",1250.3717,76.67597,133.78911
"92754",1250.385,76.71015,133.7194
"92755",1250.3983,76.697945,133.60439
"92756",1250.4116,76.63691,133.44016
"92757",1250.4249,76.53681,133.23495
"92758",1250.4382,76.402534,132.99245
"92759",1250.4515,76.243835,132.72133
"92760",1250.4648,76.10956,132.46967
"92761",1250.4781,76.11932,132.35785
"92762",1250.4915,76.48066,132.59792
"92763",1250.5048,77.39864,133.40591
"92764",1250.5181,78.93187,134.85785
"92765",1250.5314,80.93385,136.82645
"92766",1250.5447,83.11894,139.04073
"92767",1250.558,85.103836,141.1231
"92768",1250.5713,86.554054,142.7328
"92769",1250.5846,87.31335,143.69691
"92770",1250.5979,87.42321,144.03532
"92771",1250.6112,87.03746,143.88155
"92772",1250.6245,86.32212,143.38612
"92773",1250.6378,85.43343,142.695
"92774",1250.6511,84.49592,141.92729
"92775",1250.6644,83.595024,141.1669
"92776",1250.6777,82.78447,140.46869
"92777",1250.691,82.08377,139.85501
"92778",1250.7043,81.47585,139.31221
"92779",1250.7177,80.95094,138.83342
"92780",1250.731,80.52369,138.43588
"92781",1250.7443,80.22095,138.1495
"92782",1250.7576,80.07446,138.00992
"92783",1250.7709,80.10864,138.04642
"92784",1250.7842,80.31129,138.25246
"92785",1250.7975,80.618904,138.56981
"92786",1250.8108,80.95094,138.92119
"92787",1250.8241,81.22194,139.22191
"92788",1250.8374,81.36355,139.4017
"92789",1250.8507,81.34402,139.42479
"92790",1250.864,81.160904,139.28368
"92791",1250.8773,80.831314,138.99037
"92792",1250.8906,80.394295,138.57933
"92793",1250.9039,79.89624,138.0936
"92794",1250.9172,79.37133,137.56544
"92795",1250.9305,78.853745,137.02821
"92796",1250.9438,78.365456,136.5041
"92797",1250.9572,77.925995,136.01357
"92798",1250.9705,77.54269,135.56544
"92799",1250.9838,77.222855,135.16882
"92800",1250.9971,76.97627,134.83545
"92801",1251.0104,76.79561,134.56029
"92802",1251.0237,76.67597,134.34052
"92803",1251.037,76.60761,134.16827
"92804",1251.0503,76.58564,134.04028
"92805",1251.0636,76.60273,133.95067
"92806",1251.0769,76.64912,133.89088
"92807",1251.0902,76.71992,133.85696
"92808",1251.1035,76.81514,133.84969
"92809",1251.1168,76.92012,133.85513
"92810",1251.1301,77.02022,133.85898
"92811",1251.1434,77.10811,133.85374
"92812",1251.1567,77.16914,133.8244
"92813",1251.17,77.19356,133.76035
"92814",1251.1833,77.17891,133.65799
"92815",1251.1967,77.12276,133.51367
"92816",1251.21,77.03487,133.33586
"92817",1251.2233,76.91768,133.126
"92818",1251.2366,76.771194,132.8832
"92819",1251.2499,76.60029,132.61139
"92820",1251.2632,76.4123,132.31715
"92821",1251.2765,76.21698,132.00972
"92822",1251.2898,76.068054,131.74257
"92823",1251.3031,76.11932,131.67096
"92824",1251.3164,76.595406,132.02577
"92825",1251.3297,77.69161,133.01558
"92826",1251.343,79.42016,134.67198
"92827",1251.3563,81.60525,136.83894
"92828",1251.3696,83.90265,139.18651
"92829",1251.3829,85.91196,141.31778
"92830",1251.3962,87.30602,142.89659
"92831",1251.4095,87.957886,143.77676
"92832",1251.4229,87.94812,144.01569
"92833",1251.4362,87.44518,143.76112
"92834",1251.4495,86.61753,143.16614
"92835",1251.4628,85.63119,142.3866
"92836",1251.4761,84.6009,141.53229
"92837",1251.4894,83.62188,140.69705
"92838",1251.5027,82.735634,139.924
"92839",1251.516,81.9617,139.23555
"92840",1251.5293,81.290306,138.62546
"92841",1251.5426,80.72144,138.09692
"92842",1251.5559,80.272224,137.67026
"92843",1251.5692,79.98901,137.39555
"92844",1251.5825,79.90845,137.31464
"92845",1251.5958,80.042725,137.44604
"92846",1251.6091,80.35767,137.76233
"92847",1251.6224,80.77272,138.18855
"92848",1251.6357,81.18532,138.6253
"92849",1251.649,81.495384,138.97241
"92850",1251.6624,81.64187,139.16563
"92851",1251.6757,81.602806,139.17789
"92852",1251.689,81.38552,139.0107
"92853",1251.7023,81.024185,138.69266
"92854",1251.7156,80.552986,138.25346
"92855",1251.7289,80.02075,137.73851
"92856",1251.7422,79.46166,137.18007
"92857",1251.7555,78.905014,136.6066
"92858",1251.7688,78.382545,136.04991
"92859",1251.7821,77.91379,135.53061
"92860",1251.7954,77.506065,135.0577
"92861",1251.8087,77.1667,134.6404
"92862",1251.822,76.895706,134.28085
"92863",1251.8353,76.6833,133.97144
"92864",1251.8486,76.53437,133.71886
"92865",1251.8619,76.439156,133.51534
"92866",1251.8752,76.40009,133.36499
"92867",1251.8885,76.40986,133.26225
"92868",1251.9019,76.46113,133.20132
"92869",1251.9152,76.54658,133.17618
"92870",1251.9285,76.654,133.17567
"92871",1251.9418,76.77852,133.19563
"92872",1251.9551,76.90059,133.21703
"92873",1251.9684,77.01289,133.23247
"92874",1251.9817,77.0959,133.22212
"92875",1251.995,77.14473,133.18019
"92876",1252.0083,77.152054,133.09828
"92877",1252.0216,77.117874,132.9751
"92878",1252.0349,77.04463,132.81178
"92879",1252.0482,76.93721,132.612
"92880",1252.0615,76.79561,132.37468
"92881",1252.0748,76.61738,132.09631
"92882",1252.0881,76.41718,131.7904
"92883",1252.1014,76.2121,131.47336
"92884",1252.1147,76.0827,131.22559
"92885",1252.128,76.20233,131.2228
"92886",1252.1414,76.824905,131.72668
"92887",1252.1547,78.10422,132.90677
"92888",1252.168,80.01587,134.75917
"92889",1252.1813,82.31327,137.05707
"92890",1252.1946,84.62531,139.4414
"92891",1252.2079,86.54185,141.50249
"92892",1252.2212,87.7699,142.93497
"92893",1252.2345,88.236206,143.64409
"92894",1252.2478,88.06531,143.73058
"92895",1252.2611,87.43786,143.35516
"92896",1252.2744,86.519875,142.66962
"92897",1252.2877,85.45785,141.81134
"92898",1252.301,84.3592,140.88326
"92899",1252.3143,83.3045,139.96478
"92900",1252.3276,82.34257,139.10612
"92901",1252.341,81.48562,138.32239
"92902",1252.3542,80.740974,137.62418
"92903",1252.3676,80.12329,137.02965
"92904",1252.3809,79.66918,136.57939
"92905",1252.3942,79.432365,136.33223
"92906",1252.4075,79.45434,136.33646
"92907",1252.4208,79.73022,136.59528
"92908",1252.4341,80.2063,137.06293
"92909",1252.4474,80.76784,137.63092
"92910",1252.4607,81.29519,138.18227
"92911",1252.474,81.68337,138.61093
"92912",1252.4873,81.866486,138.84665
"92913",1252.5006,81.829865,138.86836
"92914",1252.5139,81.59304,138.68872
"92915",1252.5272,81.1902,138.33566
"92916",1252.5405,80.66529,137.84795
"92917",1252.5538,80.07446,137.27791
"92918",1252.5671,79.45678,136.66255
"92919",1252.5804,78.84886,136.03766
"92920",1252.5938,78.277565,135.43039
"92921",1252.607,77.75998,134.85898
"92922",1252.6204,77.30343,134.33243
"92923",1252.6337,76.91768,133.86241
"92924",1252.647,76.60273,133.45114
"92925",1252.6603,76.368355,133.1106
"92926",1252.6736,76.20477,132.83353
"92927",1252.6869,76.11688,132.62703
"92928",1252.7002,76.09491,132.4837
"92929",1252.7135,76.13641,132.40317
"92930",1252.7268,76.23407,132.38008
"92931",1252.7401,76.3708,132.39912
"92932",1252.7534,76.53437,132.44928
"92933",1252.7667,76.70527,132.51187
"92934",1252.78,76.86641,132.57005
"92935",1252.7933,76.995804,132.60152
"92936",1252.8066,77.08125,132.59308
"92937",1252.82,77.11543,132.53604
"92938",1252.8333,77.09834,132.4288
"92939",1252.8466,77.02998,132.26976
"92940",1252.8599,76.912796,132.05975
"92941",1252.8732,76.76387,131.81435
"92942",1252.8865,76.592964,131.54231
"92943",1252.8998,76.45869,131.30156
"92944",1252.9131,76.50263,131.23483
"92945",1252.9264,76.96895,131.59186
"92946",1252.9397,78.05783,132.58601
"92947",1252.953,79.7937,134.26118
"92948",1252.9663,82.00076,136.46179
"92949",1252.9796,84.3299,138.85345
"92950",1252.9929,86.36851,141.02737
"92951",1253.0062,87.767456,142.62534
"92952",1253.0195,88.40467,143.50528
"92953",1253.0328,88.3534,143.71666
"92954",1253.0461,87.79675,143.42105
"92955",1253.0594,86.905624,142.77357
"92956",1253.0728,85.83383,141.91759
"92957",1253.086,84.69611,140.96217
"92958",1253.0994,83.577934,139.99075
"92959",1253.1127,82.533,139.05763
"92960",1253.126,81.58816,138.19196
"92961",1253.1393,80.75319,137.40662
"92962",1253.1526,80.04028,136.71725
"92963",1253.1659,79.483635,136.16187
"92964",1253.1792,79.13695,135.79904
"92965",1253.1925,79.05638,135.6915
"92966",1253.2058,79.26635,135.87198
"92967",1253.2191,79.727776,136.31047
"92968",1253.2324,80.34791,136.92209
"92969",1253.2457,80.99489,137.57994
"92970",1253.259,81.529564,138.1457
"92971",1253.2723,81.85916,138.5231
"92972",1253.2856,81.94217,138.66422
"92973",1253.299,81.7908,138.57355
"92974",1253.3123,81.44167,138.28038
"92975",1253.3256,80.953384,137.83714
"92976",1253.3389,80.37965,137.2932
"92977",1253.3522,79.76929,136.6947
"92978",1253.3655,79.14183,136.06003
"92979",1253.3788,78.52903,135.42041
"92980",1253.3921,77.94797,134.79338
"92981",1253.4054,77.420616,134.2019
"92982",1253.4187,76.9543,133.65498
"92983",1253.432,76.561226,133.16673
"92984",1253.4453,76.24628,132.74432
"92985",1253.4586,76.0119,132.39264
"92986",1253.4719,75.860535,132.11664
"92987",1253.4852,75.78729,131.91403
"92988",1253.4985,75.789734,131.78482
"92989",1253.5118,75.860535,131.72404
"92990",1253.5251,75.98505,131.7192
"92991",1253.5385,76.1413,131.74997
"92992",1253.5518,76.314644,131.80273
"92993",1253.5651,76.48798,131.8609
"92994",1253.5784,76.63203,131.89519
"92995",1253.5917,76.74677,131.90468
"92996",1253.605,76.81514,131.87138
"92997",1253.6183,76.83711,131.79382
"92998",1253.6316,76.807816,131.66568
"92999",1253.6449,76.734566,131.49268
"93000",1253.6582,76.63691,131.29297
"93001",1253.6715,76.60029,131.15125
"93002",1253.6848,76.822464,131.26718
"93003",1253.6981,77.557335,131.90276
"93004",1253.7114,78.97093,133.24002
"93005",1253.7247,80.99245,135.22937
"93006",1253.738,83.35088,137.61882
"93007",1253.7513,85.645836,140.0185
"93008",1253.7646,87.464714,142.01381
"93009",1253.778,88.534065,143.31644
"93010",1253.7913,88.82948,143.87854
"93011",1253.8046,88.495,143.81998
"93012",1253.8179,87.728386,143.31883
"93013",1253.8312,86.6981,142.53006
"93014",1253.8445,85.53597,141.57726
"93015",1253.8578,84.33967,140.55396
"93016",1253.8711,83.1873,139.5372
"93017",1253.8844,82.12283,138.57234
"93018",1253.8977,81.160904,137.67676
"93019",1253.911,80.308846,136.86098
"93020",1253.9243,79.59106,136.15285
"93021",1253.9376,79.05882,135.60783
"93022",1253.9509,78.77074,135.29033
"93023",1253.9642,78.7805,135.26167
"93024",1253.9775,79.10765,135.5507
"93025",1253.9908,79.68627,136.10144
"93026",1254.0042,80.396736,136.8021
"93027",1254.0175,81.0901,137.50786
"93028",1254.0308,81.63943,138.09125
"93029",1254.0441,81.95438,138.45743
"93030",1254.0574,82.01053,138.57466
"93031",1254.0707,81.82742,138.45439
"93032",1254.084,81.449,138.13307
"93033",1254.0973,80.93385,137.66321
"93034",1254.1106,80.32838,137.08691
"93035",1254.1239,79.67895,136.44775
"93036",1254.1372,79.0222,135.78098
"93037",1254.1505,78.37766,135.10588
"93038",1254.1638,77.769745,134.44727
"93039",1254.1771,77.21309,133.8209
"93040",1254.1904,76.72724,133.24797
"93041",1254.2037,76.314644,132.7331
"93042",1254.217,75.982605,132.28589
"93043",1254.2303,75.736015,131.91376
"93044",1254.2437,75.57488,131.61937
"93045",1254.257,75.494316,131.40051
"93046",1254.2703,75.48699,131.25238
"93047",1254.2836,75.545586,131.16994
"93048",1254.2969,75.66277,131.14792
"93049",1254.3102,75.81415,131.16376
"93050",1254.3235,75.98505,131.20384
"93051",1254.3368,76.16327,131.25659
"93052",1254.3501,76.317085,131.29051
"93053",1254.3634,76.42939,131.28772
"93054",1254.3767,76.49287,131.23961
"93055",1254.39,76.507515,131.14465
"93056",1254.4033,76.50019,131.02818
"93057",1254.4166,76.58076,130.99937
"93058",1254.4299,76.964066,131.27583
"93059",1254.4432,77.90158,132.11847
"93060",1254.4565,79.50805,133.65936
"93061",1254.4698,81.67849,135.81442
"93062",1254.4832,84.10773,138.29611
"93063",1254.4965,86.380714,140.69746
"93064",1254.5098,88.097046,142.61319
"93065",1254.5231,89.02968,143.79886
"93066",1254.5364,89.18593,144.23729
"93067",1254.5497,88.741585,144.08
"93068",1254.563,87.89197,143.50356
"93069",1254.5763,86.78844,142.64665
"93070",1254.5896,85.56527,141.63562
"93071",1254.6029,84.31281,140.55708
"93072",1254.6162,83.11162,139.49066
"93073",1254.6295,82.005646,138.48193
"93074",1254.6428,81.02174,137.56071
"93075",1254.6561,80.15991,136.73082
"93076",1254.6694,79.44213,136.01804
"93077",1254.6827,78.91966,135.47813
"93078",1254.696,78.64866,135.17337
"93079",1254.7094,78.69016,135.17264
"93080",1254.7227,79.04906,135.4906
"93081",1254.736,79.66918,136.08101
"93082",1254.7493,80.42115,136.82263
"93083",1254.7626,81.15358,137.56822
"93084",1254.7759,81.72976,138.18045
"93085",1254.7892,82.06424,138.56898
"93086",1254.8025,82.12283,138.6921
"93087",1254.8158,81.9324,138.56801
"93088",1254.8291,81.54177,138.23776
"93089",1254.8424,81.01198,137.75615
"93090",1254.8557,80.38941,137.1652
"93091",1254.869,79.725334,136.5133
"93092",1254.8823,79.0515,135.83089
"93093",1254.8956,78.39231,135.14206
"93094",1254.9089,77.7673,134.46681
"93095",1254.9222,77.196,133.82573
"93096",1254.9355,76.700386,133.2425
"93097",1254.9489,76.28779,132.72678
"93098",1254.9622,75.95575,132.27873
"93099",1254.9755,75.7116,131.9082
"93100",1254.9888,75.55047,131.61305
"93101",1255.0021,75.46258,131.38611
"93102",1255.0154,75.44305,131.22478
"93103",1255.0287,75.48455,131.12387
"93104",1255.042,75.57,131.0682
"93105",1255.0553,75.682304,131.04207
"93106",1255.0686,75.809265,131.0341
"93107",1255.0819,75.93378,131.02765
"93108",1255.0952,76.036316,131.00311
"93109",1255.1085,76.10956,130.95248
"93110",1255.1218,76.16327,130.88461
"93111",1255.1351,76.23895,130.8404
"93112",1255.1484,76.49531,130.97922
"93113",1255.1617,77.188675,131.56306
"93114",1255.175,78.52903,132.81557
"93115",1255.1884,80.53101,134.77158
"93116",1255.2017,82.97246,137.22961
"93117",1255.215,85.470055,139.8201
"93118",1255.2283,87.57946,142.10045
"93119",1255.2416,88.95888,143.71672
"93120",1255.2549,89.495995,144.5338
"93121",1255.2682,89.31533,144.64989
"93122",1255.2815,88.619514,144.24518
"93123",1255.2948,87.59411,143.48914
"93124",1255.3081,86.383156,142.5155
"93125",1255.3214,85.09895,141.43077
"93126",1255.3347,83.83185,140.32301
"93127",1255.348,82.63798,139.24889
"93128",1255.3613,81.55398,138.24733
"93129",1255.3746,80.59449,137.33641
"93130",1255.388,79.76929,136.52979
"93131",1255.4012,79.10033,135.8536
"93132",1255.4146,78.641335,135.3665
"93133",1255.4279,78.45823,135.14093
"93134",1255.4412,78.59251,135.22702
"93135",1255.4545,79.03929,135.62982
"93136",1255.4678,79.71557,136.27608
"93137",1255.4811,80.47486,137.02647
"93138",1255.4944,81.16579,137.73224
"93139",1255.5077,81.66628,138.26917
"93140",1255.521,81.90799,138.56294
"93141",1255.5343,81.881134,138.59572
"93142",1255.5476,81.61501,138.38838
"93143",1255.5609,81.17311,137.99695
"93144",1255.5742,80.6067,137.4672
"93145",1255.5875,79.96704,136.8465
"93146",1255.6008,79.28832,136.16675
"93147",1255.6141,78.61204,135.46822
"93148",1255.6274,77.95773,134.77054
"93149",1255.6407,77.34493,134.09392
"93150",1255.654,76.78584,133.45186
"93151",1255.6674,76.299995,132.86557
"93152",1255.6807,75.88495,132.3349
"93153",1255.694,75.545586,131.86694
"93154",1255.7073,75.284355,131.4665
"93155",1255.7206,75.10124,131.13603
"93156",1255.7339,74.9987,130.8804
"93157",1255.7472,74.969406,130.69481
"93158",1255.7605,75.003586,130.57178
"93159",1255.7738,75.08659,130.49864
"93160",1255.7871,75.19646,130.45496
"93161",1255.8004,75.31121,130.4196
"93162",1255.8137,75.423515,130.38538
"93163",1255.827,75.53338,130.35222
"93164",1255.8403,75.665215,130.34447
"93165",1255.8536,75.95575,130.49954
"93166",1255.867,76.64912,131.06653
"93167",1255.8802,77.98215,132.29485
"93168",1255.8936,79.99878,134.24841
"93169",1255.9069,82.50858,136.75818
"93170",1255.9202,85.13313,139.46112
"93171",1255.9335,87.415886,141.90428
"93172",1255.9468,88.98085,143.70099
"93173",1255.9601,89.67666,144.67744
"93174",1255.9734,89.60586,144.90904
"93175",1255.9867,88.988174,144.59154
"93176",1256,88.0116,143.89584
"93177",1256.0133,86.83238,142.967
"93178",1256.0266,85.56283,141.91095
"93179",1256.0399,84.2884,140.81036
"93180",1256.0532,83.06767,139.72365
"93181",1256.0665,81.93729,138.68913
"93182",1256.0798,80.91676,137.72916
"93183",1256.0931,80.01831,136.85936
"93184",1256.1064,79.26391,136.10553
"93185",1256.1198,78.709694,135.5283
"93186",1256.133,78.416725,135.195
"93187",1256.1464,78.44114,135.16994
"93188",1256.1597,78.785385,135.46547
"93189",1256.173,79.395744,136.03787
"93190",1256.1863,80.15259,136.77583
"93191",1256.1996,80.89967,137.52768
"93192",1256.2129,81.4905,138.14662
"93193",1256.2262,81.83963,138.54233
"93194",1256.2395,81.9202,138.68039
"93195",1256.2528,81.74197,138.56216
"93196",1256.2661,81.36355,138.23819
"93197",1256.2794,80.84108,137.75833
"93198",1256.2927,80.233154,137.1767
"93199",1256.306,79.57397,136.5248
"93200",1256.3193,78.89525,135.83276
"93201",1256.3326,78.22629,135.12927
"93202",1256.346,77.591515,134.43907
"93203",1256.3593,77.00557,133.77786
"93204",1256.3726,76.48066,133.15938
"93205",1256.3859,76.036316,132.60506
"93206",1256.3992,75.67742,132.1223
"93207",1256.4125,75.403984,131.71378
"93208",1256.4258,75.211105,131.37727
"93209",1256.4391,75.09392,131.11043
"93210",1256.4524,75.04265,130.90584
"93211",1256.4657,75.04021,130.74847
"93212",1256.479,75.07927,130.63254
"93213",1256.4923,75.14763,130.54712
"93214",1256.5056,75.22575,130.4736
"93215",1256.5189,75.30389,130.40254
"93216",1256.5322,75.39422,130.34612
"93217",1256.5455,75.58465,130.39261
"93218",1256.5588,76.09247,130.76245
"93219",1256.5721,77.19112,131.73898
"93220",1256.5854,79.01732,133.4774
"93221",1256.5988,81.45876,135.88814
"93222",1256.612,84.18341,138.65837
"93223",1256.6254,86.72495,141.33064
"93224",1256.6387,88.64637,143.46222
"93225",1256.652,89.69375,144.7798
"93226",1256.6653,89.88907,145.27805
"93227",1256.6786,89.4374,145.1354
"93228",1256.6919,88.55604,144.54897
"93229",1256.7052,87.415886,143.6762
"93230",1256.7185,86.14633,142.63838
"93231",1256.7318,84.84505,141.52917
"93232",1256.7451,83.58526,140.42079
"93233",1256.7584,82.41825,139.36583
"93234",1256.7717,81.36599,138.38914
"93235",1256.785,80.430916,137.49677
"93236",1256.7983,79.63256,136.71188
"93237",1256.8116,79.00023,136.06807
"93238",1256.825,78.58518,135.62178
"93239",1256.8383,78.450905,135.44328
"93240",1256.8516,78.63157,135.57553
"93241",1256.8649,79.10277,136.00397
"93242",1256.8782,79.76196,136.63512
"93243",1256.8915,80.465096,137.33081
"93244",1256.9048,81.07057,137.95082
"93245",1256.9181,81.478294,138.392
"93246",1256.9314,81.62966,138.58957
"93247",1256.9447,81.529564,138.5404
"93248",1256.958,81.22194,138.28058
"93249",1256.9713,80.76051,137.85735
"93250",1256.9846,80.18921,137.30981
"93251",1256.9979,79.54955,136.67607
"93252",1257.0112,78.88304,135.99548
"93253",1257.0245,78.221405,135.29893
"93254",1257.0378,77.58175,134.6037
"93255",1257.0511,76.99092,133.9373
"93256",1257.0645,76.46357,133.31592
"93257",1257.0778,76.00214,132.74397
"93258",1257.0911,75.613945,132.23085
"93259",1257.1044,75.301445,131.78128
"93260",1257.1177,75.05974,131.39275
"93261",1257.131,74.88884,131.06746
"93262",1257.1443,74.77898,130.79787
"93263",1257.1576,74.720375,130.57611
"93264",1257.1709,74.703285,130.39403
"93265",1257.1842,74.71305,130.23827
"93266",1257.1975,74.74723,130.10722
"93267",1257.2108,74.81804,130.01389
"93268",1257.2241,75.04265,130.07655
"93269",1257.2374,75.65789,130.53688
"93270",1257.2507,76.929886,131.67319
"93271",1257.264,78.9514,133.59875
"93272",1257.2773,81.5613,136.17589
"93273",1257.2906,84.38361,139.047
"93274",1257.304,86.942245,141.74261
"93275",1257.3173,88.80751,143.82483
"93276",1257.3306,89.76456,145.05711
"93277",1257.3439,89.87442,145.47212
"93278",1257.3572,89.359276,145.26555
"93279",1257.3705,88.44129,144.64005
"93280",1257.3838,87.28649,143.74904
"93281",1257.3971,86.029144,142.71939
"93282",1257.4104,84.76448,141.64314
"93283",1257.4237,83.560844,140.5884
"93284",1257.437,82.45243,139.59126
"93285",1257.4503,81.45876,138.67424
"93286",1257.4636,80.57984,137.84091
"93287",1257.4769,79.83276,137.11195
"93288",1257.4902,79.2517,136.52567
"93289",1257.5035,78.887924,136.1385
"93290",1257.5168,78.785385,136.0012
"93291",1257.5302,78.96361,136.14146
"93292",1257.5435,79.38842,136.53389
"93293",1257.5568,79.95239,137.07875
"93294",1257.5701,80.53834,137.66321
"93295",1257.5834,81.024185,138.16588
"93296",1257.5967,81.322044,138.49574
"93297",1257.61,81.392845,138.60786
"93298",1257.6233,81.24147,138.50002
"93299",1257.6366,80.90456,138.2019
"93300",1257.6499,80.42603,137.75165
"93301",1257.6632,79.84985,137.18878
"93302",1257.6765,79.219955,136.5542
"93303",1257.6898,78.57542,135.88528
"93304",1257.7031,77.94064,135.206
"93305",1257.7164,77.33761,134.5386
"93306",1257.7297,76.773636,133.89143
"93307",1257.743,76.263374,133.28035
"93308",1257.7563,75.82147,132.72168
"93309",1257.7697,75.45525,132.22488
"93310",1257.783,75.17204,131.79965
"93311",1257.7963,74.96208,131.43881
"93312",1257.8096,74.827805,131.1471
"93313",1257.8229,74.74967,130.90733
"93314",1257.8362,74.71305,130.70663
"93315",1257.8495,74.70817,130.53653
"93316",1257.8628,74.72282,130.3858
"93317",1257.8761,74.75212,130.2502
"93318",1257.8894,74.830246,130.16432
"93319",1257.9027,75.089035,130.26155
"93320",1257.916,75.775085,130.79413
"93321",1257.9293,77.14229,132.0293
"93322",1257.9426,79.234604,134.0323
"93323",1257.9559,81.85672,136.6305
"93324",1257.9692,84.61799,139.44978
"93325",1257.9825,87.047226,142.02333
"93326",1257.9958,88.741585,143.93791
"93327",1258.0092,89.53506,145.00456
"93328",1258.0225,89.52773,145.29521
"93329",1258.0358,88.93446,144.99968
"93330",1258.0491,87.96521,144.30963
"93331",1258.0624,86.783554,143.37689
"93332",1258.0757,85.521324,142.32664
"93333",1258.089,84.26887,141.24673
"93334",1258.1023,83.09941,140.21068
"93335",1258.1156,82.056915,139.26505
"93336",1258.1289,81.15114,138.42355
"93337",1258.1422,80.38209,137.69048
"93338",1258.1555,79.7522,137.07253
"93339",1258.1688,79.28832,136.6009
"93340",1258.1821,79.03441,136.32475
"93341",1258.1954,79.0222,136.28236
"93342",1258.2087,79.25414,136.48375
"93343",1258.222,79.676506,136.8828
"93344",1258.2354,80.19409,137.39027
"93345",1258.2487,80.68726,137.88951
"93346",1258.262,81.05348,138.2772
"93347",1258.2753,81.22682,138.48347
"93348",1258.2886,81.18288,138.47787
"93349",1258.3019,80.938736,138.2707
"93350",1258.3152,80.53101,137.89232
"93351",1258.3285,80.00122,137.37912
"93352",1258.3418,79.40307,136.781
"93353",1258.3551,78.77562,136.1349
"93354",1258.3684,78.14816,135.46918
"93355",1258.3817,77.540245,134.80339
"93356",1258.395,76.978714,134.165
"93357",1258.4083,76.46845,133.56032
"93358",1258.4216,76.02411,133.00562
"93359",1258.4349,75.64568,132.50294
"93360",1258.4482,75.34539,132.06657
"93361",1258.4615,75.11833,131.69406
"93362",1258.4749,74.95476,131.37793
"93363",1258.4882,74.85222,131.11772
"93364",1258.5015,74.79851,130.90314
"93365",1258.5148,74.77898,130.72105
"93366",1258.5281,74.78386,130.56277
"93367",1258.5414,74.80583,130.42174
"93368",1258.5547,74.83513,130.28871
"93369",1258.568,74.88884,130.18102
"93370",1258.5813,75.04997,130.18242
"93371",1258.5946,75.53338,130.51114
"93372",1258.6079,76.60517,131.44334
"93373",1258.6212,78.40452,133.1366
"93374",1258.6345,80.816666,135.49889
"93375",1258.6478,83.51934,138.22708
"93376",1258.6611,86.05356,140.87128
"93377",1258.6744,87.97742,142.98431
"93378",1258.6877,89.039444,144.29564
"93379",1258.701,89.251854,144.79053
"93380",1258.7144,88.80995,144.63774
"93381",1258.7277,87.93103,144.03413
"93382",1258.741,86.7982,143.14915
"93383",1258.7543,85.54574,142.10913
"93384",1258.7676,84.283516,141.02022
"93385",1258.7809,83.09209,139.96265
"93386",1258.7942,82.020294,138.98749
"93387",1258.8075,81.08278,138.11311
"93388",1258.8208,80.28443,137.3486
"93389",1258.8341,79.62035,136.69342
"93390",1258.8474,79.12718,136.18839
"93391",1258.8607,78.84398,135.8779
"93392",1258.874,78.8098,135.80759
"93393",1258.8873,79.029526,135.99011
"93394",1258.9006,79.45922,136.38948
"93395",1258.914,79.99878,136.91214
"93396",1258.9272,80.52125,137.43457
"93397",1258.9406,80.921646,137.85126
"93398",1258.9539,81.12428,138.0827
"93399",1258.9672,81.10475,138.09831
"93400",1258.9805,80.88014,137.90823
"93401",1258.9938,80.49195,137.54755
"93402",1259.0071,79.98657,137.05754
"93403",1259.0204,79.41039,136.48094
"93404",1259.0337,78.80003,135.85216
"93405",1259.047,78.18967,135.20428
"93406",1259.0603,77.5964,134.55444
"93407",1259.0736,77.04463,133.92757
"93408",1259.0869,76.54658,133.33716
"93409",1259.1002,76.11444,132.7971
"93410",1259.1135,75.75311,132.31435
"93411",1259.1268,75.457695,131.88622
"93412",1259.1401,75.22331,131.50989
"93413",1259.1534,75.04021,131.1775
"93414",1259.1667,74.90837,130.89067
"93415",1259.18,74.81804,130.64122
"93416",1259.1934,74.76433,130.42557
"93417",1259.2067,74.73991,130.23753
"93418",1259.22,74.74235,130.07559
"93419",1259.2333,74.76433,129.93327
"93420",1259.2466,74.85222,129.85754
"93421",1259.2599,75.157394,130.00185
"93422",1259.2732,75.93622,130.62933
"93423",1259.2865,77.40597,131.97209
"93424",1259.2998,79.57641,134.06146
"93425",1259.3131,82.20584,136.67766
"93426",1259.3264,84.88411,139.42487
"93427",1259.3397,87.13756,141.83095
"93428",1259.353,88.59998,143.51642
"93429",1259.3663,89.161514,144.3467
"93430",1259.3796,88.95888,144.43036
"93431",1259.393,88.21912,143.97057
"93432",1259.4062,87.15221,143.1605
"93433",1259.4196,85.907074,142.13889
"93434",1259.4329,84.610664,141.02707
"93435",1259.4462,83.346,139.9065
"93436",1259.4595,82.16922,138.83427
"93437",1259.4728,81.11696,137.84981
"93438",1259.4861,80.20386,136.97162
"93439",1259.4994,79.44213,136.21626
"93440",1259.5127,78.86595,135.62265
"93441",1259.526,78.52903,135.25029
"93442",1259.5393,78.470436,135.14572
"93443",1259.5526,78.709694,135.33717
"93444",1259.5659,79.202866,135.79002
"93445",1259.5792,79.84497,136.40721
"93446",1259.5925,80.499275,137.05667
"93447",1259.6058,81.03883,137.61183
"93448",1259.6191,81.36111,137.96657
"93449",1259.6324,81.43679,138.0848
"93450",1259.6458,81.2781,137.97101
"93451",1259.659,80.92409,137.65694
"93452",1259.6724,80.43336,137.19508
"93453",1259.6857,79.86206,136.63733
"93454",1259.699,79.2517,136.02266
"93455",1259.7123,78.63157,135.37914
"93456",1259.7256,78.0383,134.7431
"93457",1259.7389,77.486534,134.13004
"93458",1259.7522,76.9836,133.54855
"93459",1259.7655,76.53681,133.0075
"93460",1259.7788,76.15106,132.51353
"93461",1259.7921,75.8288,132.07098
"93462",1259.8054,75.56756,131.6794
"93463",1259.8187,75.3576,131.33092
"93464",1259.832,75.20378,131.03203
"93465",1259.8453,75.089035,130.7674
"93466",1259.8586,75.01091,130.5358
"93467",1259.872,74.95964,130.32861
"93468",1259.8853,74.93523,130.14668
"93469",1259.8986,74.95232,130.0055
"93470",1259.9119,75.08171,129.97714
"93471",1259.9252,75.50652,130.24826
"93472",1259.9385,76.48554,131.08685
"93473",1259.9518,78.17502,132.6665
"93474",1259.9651,80.49439,134.92885
"93475",1259.9784,83.13603,137.58594
"93476",1259.9917,85.66781,140.21571
"93477",1260.005,87.640495,142.36552
"93478",1260.0183,88.76601,143.7298
"93479",1260.0316,89.02968,144.26741
"93480",1260.0449,88.604866,144.12477
"93481",1260.0582,87.72106,143.50987
"93482",1260.0715,86.554054,142.58415
"93483",1260.0848,85.24788,141.48279
"93484",1260.0981,83.90753,140.30644
"93485",1260.1115,82.61356,139.13458
"93486",1260.1248,81.409935,138.01263
"93487",1260.1381,80.3357,136.98247
"93488",1260.1514,79.412834,136.0701
"93489",1260.1647,78.677956,135.31686
"93490",1260.178,78.17746,134.77505
"93491",1260.1913,77.96994,134.51057
"93492",1260.2046,78.09445,134.57164
"93493",1260.2179,78.536354,134.954
"93494",1260.2312,79.21019,135.58209
"93495",1260.2445,79.98169,136.3289
"93496",1260.2578,80.69703,137.04367
"93497",1260.2711,81.22682,137.59525
"93498",1260.2844,81.497826,137.90459
"93499",1260.2977,81.495384,137.94896
"93500",1260.311,81.24635,137.74666
"93501",1260.3243,80.81911,137.35837
"93502",1260.3376,80.27711,136.84196
"93503",1260.351,79.6643,136.23782
"93504",1260.3643,79.03441,135.59744
"93505",1260.3776,78.41917,134.95203
"93506",1260.3909,77.838104,134.32156
"93507",1260.4042,77.30587,133.72177
"93508",1260.4175,76.82979,133.1615
"93509",1260.4308,76.41718,132.64983
"93510",1260.4441,76.06073,132.18141
"93511",1260.4574,75.757996,131.75557
"93512",1260.4707,75.50652,131.37154
"93513",1260.484,75.301445,131.02603
"93514",1260.4973,75.142746,130.7205
"93515",1260.5106,75.02556,130.45152
"93516",1260.5239,74.94743,130.21794
"93517",1260.5372,74.91081,130.02342
"93518",1260.5505,74.94743,129.901
"93519",1260.5638,75.1989,129.99457
"93520",1260.5771,75.91913,130.56476
"93521",1260.5905,77.332726,131.85083
"93522",1260.6038,79.45922,133.89397
"93523",1260.6171,82.06912,136.48697
"93524",1260.6304,84.749825,139.23233
"93525",1260.6437,87.01549,141.64642
"93526",1260.657,88.49012,143.34029
"93527",1260.6703,89.04433,144.1598
"93528",1260.6836,88.81239,144.21051
"93529",1260.6969,88.01404,143.68755
"93530",1260.7102,86.86168,142.78563
"93531",1260.7235,85.51644,141.65482
"93532",1260.7368,84.09796,140.40872
"93533",1260.7501,82.69169,139.13051
"93534",1260.7634,81.37087,137.89381
"93535",1260.7767,80.16724,136.73302
"93536",1260.79,79.11253,135.68353
"93537",1260.8033,78.23361,134.77687
"93538",1260.8167,77.57198,134.06004
"93539",1260.83,77.19356,133.60574
"93540",1260.8433,77.1667,133.49118
"93541",1260.8566,77.50851,133.74445
"93542",1260.8699,78.17502,134.3331
"93543",1260.8832,79.044174,135.14522
"93544",1260.8965,79.94751,136.01868
"93545",1260.9098,80.71656,136.78609
"93546",1260.9231,81.231705,137.32362
"93547",1260.9364,81.444115,137.57452
"93548",1260.9497,81.36111,137.53665
"93549",1260.963,81.0486,137.26668
"93550",1260.9763,80.57252,136.82336
"93551",1260.9896,80.00366,136.2724
"93552",1261.0029,79.39086,135.65971
"93553",1261.0162,78.77318,135.023
"93554",1261.0295,78.17258,134.38405
"93555",1261.0428,77.60616,133.76053
"93556",1261.0562,77.07637,133.15593
"93557",1261.0695,76.59785,132.58604
"93558",1261.0828,76.17792,132.0598
"93559",1261.0961,75.82391,131.58635
"93560",1261.1094,75.543144,131.17508
"93561",1261.1227,75.3283,130.82095
"93562",1261.136,75.17204,130.5187
"93563",1261.1493,75.05974,130.25552
"93564",1261.1626,74.98894,130.03033
"93565",1261.1759,74.95476,129.83955
"93566",1261.1892,74.9987,129.72583
"93567",1261.2025,75.28924,129.86008
"93568",1261.2158,76.09735,130.52098
"93569",1261.2291,77.6379,131.93958
"93570",1261.2424,79.8938,134.12166
"93571",1261.2557,82.59403,136.81857
"93572",1261.269,85.29427,139.59988
"93573",1261.2823,87.501335,141.9724
"93574",1261.2957,88.8539,143.55937
"93575",1261.309,89.2665,144.24866
"93576",1261.3223,88.91005,144.18178
"93577",1261.3356,88.03357,143.58374
"93578",1261.3489,86.83971,142.64093
"93579",1261.3622,85.47494,141.4899
"93580",1261.3755,84.04425,140.2303
"93581",1261.3888,82.62333,138.93576
"93582",1261.4021,81.27322,137.66763
"93583",1261.4154,80.03784,136.47205
"93584",1261.4287,78.95384,135.38922
"93585",1261.442,78.06027,134.46295
"93586",1261.4553,77.41573,133.7578
"93587",1261.4686,77.08858,133.34988
"93588",1261.4819,77.137405,133.30772
"93589",1261.4952,77.57198,133.65285
"93590",1261.5085,78.328835,134.33382
"93591",1261.5219,79.276115,135.22887
"93592",1261.5352,80.23804,136.16817
"93593",1261.5485,81.041275,136.97885
"93594",1261.5618,81.57107,137.54118
"93595",1261.5751,81.7908,137.81001
"93596",1261.5884,81.722435,137.7976
"93597",1261.6017,81.42458,137.55359
"93598",1261.615,80.96803,137.14156
"93599",1261.6283,80.4065,136.61028
"93600",1261.6416,79.78882,136.0053
"93601",1261.6549,79.15404,135.36392
"93602",1261.6682,78.53147,134.71492
"93603",1261.6815,77.9382,134.07576
"93604",1261.6948,77.38888,133.462
"93605",1261.7081,76.895706,132.88724
"93606",1261.7214,76.46357,132.3581
"93607",1261.7347,76.09247,131.87648
"93608",1261.748,75.789734,131.45163
"93609",1261.7614,75.55291,131.08324
"93610",1261.7747,75.37713,130.76848
"93611",1261.788,75.25994,130.50682
"93612",1261.8013,75.25262,130.35136
"93613",1261.8146,75.52117,130.47156
"93614",1261.8279,76.33662,131.14703
"93615",1261.8412,77.89914,132.59508
"93616",1261.8545,80.16968,134.79996
"93617",1261.8678,82.85527,137.49084
"93618",1261.8811,85.50912,140.23392
"93619",1261.8944,87.64782,142.54478
"93620",1261.9077,88.92714,144.0631
"93621",1261.921,89.28603,144.70096
"93622",1261.9343,88.91493,144.62004
"93623",1261.9476,88.04578,144.02948
"93624",1261.9609,86.87877,143.1139
"93625",1261.9742,85.55306,142.00316
"93626",1261.9875,84.16388,140.7875
"93627",1262.0009,82.78935,139.5431
"93628",1262.0142,81.47585,138.31677
"93629",1262.0275,80.26734,137.15439
"93630",1262.0408,79.1931,136.0885
"93631",1262.0541,78.29954,135.16972
"93632",1262.0674,77.64767,134.4647
"93633",1262.0807,77.313194,134.05672
"93634",1262.094,77.35714,134.0167
"93635",1262.1073,77.77707,134.35403
"93636",1262.1206,78.519264,135.02676
"93637",1262.1339,79.43725,135.89847
"93638",1262.1472,80.35279,136.79642
"93639",1262.1605,81.10475,137.5594
"93640",1262.1738,81.58083,138.07
"93641",1262.1871,81.75174,138.29031
"93642",1262.2004,81.64431,138.23763
"93643",1262.2137,81.3196,137.96431
"93644",1262.227,80.84596,137.5319
"93645",1262.2404,80.27955,136.99193
"93646",1262.2537,79.66674,136.38786
"93647",1262.267,79.044174,135.75488
"93648",1262.2803,78.42893,135.10977
"93649",1262.2936,77.838104,134.46985
"93650",1262.3069,77.28878,133.85297
"93651",1262.3202,76.78584,133.2653
"93652",1262.3335,76.34638,132.7254
"93653",1262.3468,75.965515,132.23036
"93654",1262.3601,75.65301,131.79178
"93655",1262.3734,75.403984,131.4069
"93656",1262.3867,75.2404,131.0997
"93657",1262.4,75.27459,130.98515
"93658",1262.4133,75.74822,131.31111
"93659",1262.4266,76.92256,132.35258
"93660",1262.44,78.89525,134.2291
"93661",1262.4532,81.480736,136.78006
"93662",1262.4666,84.29328,139.63889
"93663",1262.4799,86.84215,142.32191
"93664",1262.4932,88.67811,144.37169
"93665",1262.5065,89.59365,145.55843
"93666",1262.5198,89.65957,145.92415
"93667",1262.5331,89.10292,145.66936
"93668",1262.5464,88.13855,144.98946
"93669",1262.5597,86.94469,144.04993
"93670",1262.573,85.65072,142.97298
"93671",1262.5863,84.349434,141.84828
"93672",1262.5996,83.104294,140.73906
"93673",1262.6129,81.951935,139.68372
"93674",1262.6262,80.91432,138.7071
"93675",1262.6395,80.00366,137.82503
"93676",1262.6528,79.256584,137.07806
"93677",1262.6661,78.729225,136.52747
"93678",1262.6794,78.48997,136.24849
"93679",1262.6927,78.57786,136.28918
"93680",1262.706,78.97337,136.64026
"93681",1262.7194,79.588615,137.22342
"93682",1262.7327,80.289314,137.91125
"93683",1262.746,80.92897,138.55995
"93684",1262.7593,81.38552,139.04553
"93685",1262.7726,81.59792,139.30124
"93686",1262.7859,81.56863,139.32188
"93687",1262.7992,81.322044,139.12433
"93688",1262.8125,80.90944,138.75304
"93689",1262.8258,80.38697,138.25899
"93690",1262.8391,79.801025,137.68513
"93691",1262.8524,79.185776,137.06366
"93692",1262.8657,78.56565,136.41809
"93693",1262.879,77.9675,135.77512
"93694",1262.8923,77.40353,135.14763
"93695",1262.9056,76.88594,134.5489
"93696",1262.919,76.41474,133.9804
"93697",1262.9323,76.00214,133.45575
"93698",1262.9456,75.64568,132.97437
"93699",1262.9589,75.34783,132.54044
"93700",1262.9722,75.11345,132.16068
"93701",1262.9855,74.966965,131.86148
"93702",1262.9988,75.04021,131.77744
"93703",1263.0121,75.562675,132.14491
"93704",1263.0254,76.76387,133.20744
"93705",1263.0387,78.692604,135.03505
"93706",1263.052,81.17067,137.47226
"93707",1263.0653,83.824524,140.1627
"93708",1263.0786,86.202484,142.66019
"93709",1263.0919,87.91638,144.56792
"93710",1263.1052,88.7831,145.68202
"93711",1263.1185,88.88075,146.05415
"93712",1263.1318,88.40223,145.85315
"93713",1263.1451,87.54528,145.25877
"93714",1263.1584,86.46616,144.41545
"93715",1263.1718,85.296715,143.44807
"93716",1263.185,84.139465,142.45634
"93717",1263.1984,83.06035,141.50659
"93718",1263.2117,82.091095,140.63298
"93719",1263.225,81.24147,139.84871
"93720",1263.2383,80.50172,139.14775
"93721",1263.2516,79.87671,138.53842
"93722",1263.2649,79.40063,138.05849
"93723",1263.2782,79.11986,137.75899
"93724",1263.2915,79.07103,137.68265
"93725",1263.3048,79.256584,137.83917
"93726",1263.3181,79.62524,138.18459
"93727",1263.3314,80.08911,138.63675
"93728",1263.3447,80.53101,139.08144
"93729",1263.358,80.85329,139.4203
"93730",1263.3713,80.99733,139.59102
"93731",1263.3846,80.9485,139.57336
"93732",1263.398,80.719,139.3735
"93733",1263.4113,80.343025,139.02
"93734",1263.4246,79.8645,138.5522
"93735",1263.4379,79.32006,138.00352
"93736",1263.4512,78.74876,137.41096
"93737",1263.4645,78.170135,136.79324
"93738",1263.4778,77.608604,136.17453
"93739",1263.4911,77.07637,135.56757
"93740",1263.5044,76.592964,134.9928
"93741",1263.5177,76.15839,134.45175
"93742",1263.531,75.78485,133.95816
"93743",1263.5443,75.47234,133.51393
"93744",1263.5576,75.21599,133.11609
"93745",1263.5709,75.01579,132.76639
"93746",1263.5842,74.89372,132.48856
"93747",1263.5975,74.92546,132.36072
"93748",1263.6108,75.28924,132.56592
"93749",1263.6241,76.19501,133.32448
"93750",1263.6375,77.75021,134.76077
"93751",1263.6508,79.85962,136.79987
"93752",1263.6641,82.262,139.19786
"93753",1263.6774,84.56672,141.57327
"93754",1263.6907,86.397804,143.54707
"93755",1263.704,87.518425,144.86763
"93756",1263.7173,87.90662,145.49077
"93757",1263.7306,87.68932,145.52055
"93758",1263.7439,87.04967,145.12119
"93759",1263.7572,86.14877,144.4406
"93760",1263.7705,85.118484,143.60246
"93761",1263.7838,84.068665,142.7126
"93762",1263.7971,83.06767,141.83876
"93763",1263.8104,82.159454,141.02641
"93764",1263.8237,81.3489,140.28334
"93765",1263.837,80.63355,139.61015
"93766",1263.8503,80.02319,139.01959
"93767",1263.8636,79.53979,138.53691
"93768",1263.877,79.21507,138.19781
"93769",1263.8903,79.08568,138.04388
"93770",1263.9036,79.16136,138.09099
"93771",1263.9169,79.412834,138.31625
"93772",1263.9302,79.77173,138.6568
"93773",1263.9435,80.14038,139.01831
"93774",1263.9568,80.428474,139.31079
"93775",1263.9701,80.57252,139.46823
"93776",1263.9834,80.54078,139.45439
"93777",1263.9967,80.33082,139.26134
"93778",1264.01,79.971924,138.91278
"93779",1264.0233,79.50561,138.44559
"93780",1264.0366,78.97826,137.90279
"93781",1264.0499,78.42161,137.31421
"93782",1264.0632,77.86984,136.71312
"93783",1264.0765,77.34493,136.12164
"93784",1264.0898,76.859085,135.55283
"93785",1264.1031,76.419624,135.01521
"93786",1264.1165,76.0412,134.5249
"93787",1264.1298,75.72381,134.0838
"93788",1264.1431,75.46746,133.69382
"93789",1264.1564,75.267265,133.35197
"93790",1264.1697,75.12077,133.05759
"93791",1264.183,75.018234,132.80257
"93792",1264.1963,74.94743,132.57608
"93793",1264.2096,74.90837,132.37912
"93794",1264.2229,74.90349,132.21512
"93795",1264.2362,74.984055,132.13641
"93796",1264.2495,75.30877,132.30438
"93797",1264.2628,76.07538,132.9244
"93798",1264.2761,77.4255,134.15187
"93799",1264.2894,79.327385,135.9733
"93800",1264.3027,81.57595,138.20084
"93801",1264.316,83.82941,140.50354
"93802",1264.3293,85.70931,142.50311
"93803",1264.3427,86.94469,143.9169
"93804",1264.356,87.45983,144.64906
"93805",1264.3693,87.34997,144.77232
"93806",1264.3826,86.77867,144.43071
"93807",1264.3959,85.9144,143.77827
"93808",1264.4092,84.9012,142.9499
"93809",1264.4225,83.861145,142.06302
"93810",1264.4358,82.862595,141.18513
"93811",1264.4491,81.951935,140.36394
"93812",1264.4624,81.13649,139.6095
"93813",1264.4757,80.41627,138.92479
"93814",1264.489,79.7937,138.31523
"93815",1264.5023,79.293205,137.80829
"93816",1264.5156,78.958725,137.45172
"93817",1264.5289,78.83421,137.29466
"93818",1264.5422,78.92699,137.351
"93819",1264.5555,79.20775,137.59822
"93820",1264.5688,79.603264,137.96898
"93821",1264.5822,80.01099,138.3643
"93822",1264.5955,80.34058,138.69424
"93823",1264.6088,80.52369,138.888
"93824",1264.6221,80.52369,138.90437
"93825",1264.6354,80.35035,138.7474
"93826",1264.6487,80.02319,138.4312
"93827",1264.662,79.57885,137.98758
"93828",1264.6753,79.0515,137.44707
"93829",1264.6886,78.48264,136.84857
"93830",1264.7019,77.90158,136.2201
"93831",1264.7152,77.332726,135.58566
"93832",1264.7285,76.79805,134.96764
"93833",1264.7418,76.32441,134.39394
"93834",1264.7551,75.92157,133.87624
"93835",1264.7684,75.5993,133.42651
"93836",1264.7817,75.36004,133.04973
"93837",1264.795,75.20378,132.74847
"93838",1264.8083,75.11589,132.5107
"93839",1264.8217,75.09392,132.33609
"93840",1264.835,75.11833,132.20718
"93841",1264.8483,75.18181,132.1181
"93842",1264.8616,75.267265,132.053
"93843",1264.8749,75.36004,131.99786
"93844",1264.8882,75.440605,131.93343
"93845",1264.9015,75.50164,131.85197
"93846",1264.9148,75.526054,131.73581
"93847",1264.9281,75.51629,131.58623
"93848",1264.9414,75.48699,131.41681
"93849",1264.9547,75.53826,131.32704
"93850",1264.968,75.85809,131.50745
"93851",1264.9813,76.680855,132.20078
"93852",1264.9946,78.14084,133.55704
"93853",1265.0079,80.16724,135.52533
"93854",1265.0212,82.49882,137.86214
"93855",1265.0345,84.749825,140.19124
"93856",1265.0479,86.53208,142.12193
"93857",1265.0612,87.603874,143.39786
"93858",1265.0745,87.93591,143.96751
"93859",1265.0878,87.66735,143.94695
"93860",1265.1011,86.976425,143.49562
"93861",1265.1144,86.0267,142.76392
"93862",1265.1277,84.95735,141.8829
"93863",1265.141,83.87335,140.95383
"93864",1265.1543,82.83818,140.0397
"93865",1265.1676,81.883575,139.1738
"93866",1265.1809,81.01686,138.36595
"93867",1265.1942,80.24536,137.62624
"93868",1265.2075,79.588615,136.97716
"93869",1265.2208,79.093,136.46869
"93870",1265.2341,78.82445,136.17178
"93871",1265.2474,78.82689,136.13748
"93872",1265.2607,79.093,136.36693
"93873",1265.274,79.56176,136.80734
"93874",1265.2874,80.12085,137.35274
"93875",1265.3007,80.638435,137.8741
"93876",1265.314,81.01442,138.27003
"93877",1265.3273,81.18288,138.4702
"93878",1265.3406,81.13161,138.4559
"93879",1265.3539,80.88014,138.2398
"93880",1265.3672,80.47486,137.86203
"93881",1265.3805,79.9646,137.36661
"93882",1265.3938,79.395744,136.79665
"93883",1265.4071,78.80492,136.18694
"93884",1265.4204,78.21896,135.56363
"93885",1265.4337,77.659874,134.94888
"93886",1265.447,77.14717,134.36305
"93887",1265.4603,76.700386,133.82712
"93888",1265.4736,76.32685,133.35046
"93889",1265.4869,76.02655,132.93538
"93890",1265.5002,75.80682,132.59148
"93891",1265.5135,75.66277,132.31639
"93892",1265.5269,75.58709,132.10516
"93893",1265.5402,75.56756,131.94772
"93894",1265.5535,75.60662,131.84827
"93895",1265.5668,75.68719,131.79153
"93896",1265.5801,75.792175,131.76175
"93897",1265.5934,75.897156,131.73523
"93898",1265.6067,75.999695,131.70955
"93899",1265.62,76.08026,131.6651
"93900",1265.6333,76.12665,131.58899
"93901",1265.6466,76.13397,131.47527
"93902",1265.6599,76.10956,131.33003
"93903",1265.6732,76.104675,131.20357
"93904",1265.6865,76.25117,131.22833
"93905",1265.6998,76.773636,131.63365
"93906",1265.7131,77.86984,132.62903
"93907",1265.7264,79.58129,134.27391
"93908",1265.7397,81.73464,136.41417
"93909",1265.753,84.01251,138.74625
"93910",1265.7664,86.014496,140.87363
"93911",1265.7797,87.41833,142.46541
"93912",1265.793,88.08484,143.36374
"93913",1265.8063,88.077515,143.60907
"93914",1265.8196,87.555046,143.33902
"93915",1265.8329,86.69077,142.71085
"93916",1265.8462,85.63363,141.8628
"93917",1265.8595,84.5008,140.90602
"93918",1265.8728,83.370415,139.91629
"93919",1265.8861,82.29618,138.94739
"93920",1265.8994,81.30007,138.02304
"93921",1265.9127,80.38941,137.15302
"93922",1265.926,79.59838,136.37416
"93923",1265.9393,78.98802,135.75125
"93924",1265.9526,78.63401,135.36562
"93925",1265.966,78.59739,135.2863
"93926",1265.9792,78.887924,135.533
"93927",1265.9926,79.44457,136.0549
"93928",1266.0059,80.14038,136.73335
"93929",1266.0192,80.82155,137.41891
"93930",1266.0325,81.356224,137.97926
"93931",1266.0458,81.654076,138.3195
"93932",1266.0591,81.70046,138.41759
"93933",1266.0724,81.512474,138.28275
"93934",1266.0857,81.143814,137.96135
"93935",1266.099,80.64576,137.49904
"93936",1266.1123,80.08423,136.95769
"93937",1266.1256,79.48852,136.36461
"93938",1266.1389,78.89281,135.75291
"93939",1266.1522,78.314186,135.1397
"93940",1266.1655,77.77707,134.5499
"93941",1266.1788,77.29122,133.99458
"93942",1266.1921,76.86397,133.48268
"93943",1266.2054,76.5124,133.03311
"93944",1266.2188,76.23163,132.64336
"93945",1266.232,76.02411,132.31807
"93946",1266.2454,75.88495,132.05466
"93947",1266.2587,75.809265,131.85037
"93948",1266.272,75.789734,131.69987
"93949",1266.2853,75.826355,131.60492
"93950",1266.2986,75.90448,131.55261
"93951",1266.3119,76.016785,131.53693
"93952",1266.3252,76.14862,131.54428
"93953",1266.3385,76.280464,131.55577
"93954",1266.3518,76.385445,131.54451
"93955",1266.3651,76.456245,131.50235
"93956",1266.3784,76.48066,131.41602
"93957",1266.3917,76.47822,131.30359
"93958",1266.405,76.541695,131.257
"93959",1266.4183,76.859085,131.46632
"93960",1266.4316,77.659874,132.16896
"93961",1266.445,79.07591,133.51187
"93962",1266.4583,81.0486,135.45567
"93963",1266.4716,83.31426,137.7541
"93964",1266.4849,85.49447,140.03789
"93965",1266.4982,87.2108,141.92592
"93966",1266.5115,88.216675,143.15714
"93967",1266.5248,88.482796,143.68002
"93968",1266.5381,88.14099,143.6033
"93969",1266.5514,87.37194,143.08865
"93970",1266.5647,86.33433,142.28142
"93971",1266.578,85.16243,141.30746
"93972",1266.5913,83.95392,140.26028
"93973",1266.6046,82.777145,139.20708
"93974",1266.6179,81.66628,138.183
"93975",1266.6312,80.64332,137.21211
"93976",1266.6445,79.73266,136.32156
"93977",1266.6578,78.9807,135.56125
"93978",1266.6711,78.46067,135.00937
"93979",1266.6844,78.24826,134.74886
"93980",1266.6978,78.39475,134.8406
"93981",1266.711,78.88304,135.27873
"93982",1266.7244,79.60815,135.96893
"93983",1266.7377,80.42359,136.77213
"93984",1266.751,81.160904,137.52267
"93985",1266.7643,81.685814,138.08386
"93986",1266.7776,81.9324,138.38313
"93987",1266.7909,81.898224,138.40935
"93988",1266.8042,81.62478,138.19522
"93989",1266.8175,81.17311,137.79433
"93990",1266.8308,80.6067,137.26457
"93991",1266.8441,79.974365,136.6512
"93992",1266.8574,79.31518,135.99121
"93993",1266.8707,78.66575,135.32037
"93994",1266.884,78.048065,134.661
"93995",1266.8973,77.47921,134.03114
"93996",1266.9106,76.978714,133.45187
"93997",1266.924,76.5539,132.93265
"93998",1266.9373,76.207214,132.47827
"93999",1266.9506,75.93866,132.09119
"94000",1266.9639,75.75311,131.77872
"94001",1266.9772,75.64324,131.53613
"94002",1266.9905,75.596855,131.35359
"94003",1267.0038,75.6115,131.23064
"94004",1267.0171,75.667656,131.14964
"94005",1267.0304,75.755554,131.10216
"94006",1267.0437,75.862976,131.07693
"94007",1267.057,75.97284,131.05751
"94008",1267.0703,76.06317,131.02199
"94009",1267.0836,76.13153,130.96732
"94010",1267.0969,76.16571,130.8806
"94011",1267.1102,76.175476,130.77054
"94012",1267.1235,76.19745,130.67299
"94013",1267.1368,76.3708,130.72751
"94014",1267.1501,76.93233,131.17563
"94015",1267.1635,78.11154,132.25897
"94016",1267.1768,79.954834,134.04324
"94017",1267.1901,82.286415,136.37341
"94018",1267.2034,84.749825,138.90828
"94019",1267.2167,86.905624,141.21251
"94020",1267.23,88.3827,142.90538
"94021",1267.2433,89.022354,143.80699
"94022",1267.2566,88.91005,143.97664
"94023",1267.2699,88.24841,143.59344
"94024",1267.2832,87.220566,142.82336
"94025",1267.2965,85.980316,141.80876
"94026",1267.3098,84.63996,140.65529
"94027",1267.3231,83.284966,139.4453
"94028",1267.3364,81.969025,138.23201
"94029",1267.3497,80.73853,137.06305
"94030",1267.363,79.63256,135.98016
"94031",1267.3763,78.69749,135.0336
"94032",1267.3896,77.98703,134.28244
"94033",1267.403,77.57931,133.81181
"94034",1267.4163,77.55245,133.7093
"94035",1267.4296,77.925995,134.00636
"94036",1267.4429,78.641335,134.65689
"94037",1267.4562,79.57397,135.54706
"94038",1267.4695,80.53834,136.49811
"94039",1267.4828,81.356224,137.33282
"94040",1267.4961,81.900665,137.91965
"94041",1267.5094,82.11795,138.19633
"94042",1267.5227,82.02762,138.1722
"94043",1267.536,81.69314,137.90108
"94044",1267.5493,81.1902,137.45105
"94045",1267.5626,80.57984,136.87788
"94046",1267.5759,79.91089,136.22705
"94047",1267.5892,79.2224,135.53577
"94048",1267.6025,78.54368,134.83275
"94049",1267.6158,77.8967,134.14026
"94050",1267.6292,77.30099,133.47882
"94051",1267.6425,76.773636,132.86713
"94052",1267.6558,76.32685,132.31952
"94053",1267.6691,75.95819,131.83607
"94054",1267.6824,75.66277,131.41435
"94055",1267.6957,75.44305,131.05908
"94056",1267.709,75.2868,130.76042
"94057",1267.7223,75.194016,130.52036
"94058",1267.7356,75.15251,130.32866
"94059",1267.7489,75.16228,130.18694
"94060",1267.7622,75.211105,130.08458
"94061",1267.7755,75.284355,130.00818
"94062",1267.7888,75.372246,129.9487
"94063",1267.8021,75.46014,129.89197
"94064",1267.8154,75.55047,129.84042
"94065",1267.8287,75.70672,129.85762
"94066",1267.842,76.11932,130.13606
"94067",1267.8553,77.05928,130.95474
"94068",1267.8687,78.69749,132.50105
"94069",1267.882,80.98512,134.74799
"94070",1267.8953,83.62188,137.41553
"94071",1267.9086,86.17563,140.08246
"94072",1267.9219,88.182495,142.28232
"94073",1267.9352,89.342186,143.69771
"94074",1267.9485,89.62051,144.26797
"94075",1267.9618,89.19081,144.13892
"94076",1267.9751,88.27772,143.51303
"94077",1267.9884,87.05699,142.55098
"94078",1268.0017,85.662926,141.37744
"94079",1268.015,84.20538,140.09686
"94080",1268.0283,82.75517,138.77808
"94081",1268.0416,81.375755,137.48476
"94082",1268.0549,80.10376,136.25575
"94083",1268.0682,78.97826,135.13348
"94084",1268.0815,78.028534,134.15182
"94085",1268.0948,77.315636,133.37732
"94086",1268.1082,76.927444,132.90524
"94087",1268.1215,76.944534,132.82631
"94088",1268.1348,77.401085,133.18738
"94089",1268.1481,78.24582,133.9509
"94090",1268.1614,79.33471,134.98497
"94091",1268.1747,80.45777,136.08723
"94092",1268.188,81.409935,137.05371
"94093",1268.2013,82.04715,137.73499
"94094",1268.2146,82.31571,138.06752
"94095",1268.2279,82.2449,138.06908
"94096",1268.2412,81.90555,137.79988
"94097",1268.2545,81.375755,137.32964
"94098",1268.2678,80.73365,136.73053
"94099",1268.2811,80.028076,136.04788
"94100",1268.2944,79.30297,135.32365
"94101",1268.3077,78.59251,134.5914
"94102",1268.321,77.92355,133.87846
"94103",1268.3344,77.31075,133.20078
"94104",1268.3477,76.76875,132.57474
"94105",1268.361,76.299995,132.005
"94106",1268.3743,75.90936,131.49875
"94107",1268.3876,75.596855,131.05841
"94108",1268.4009,75.36492,130.68887
"94109",1268.4142,75.208664,130.38777
"94110",1268.4275,75.11101,130.14038
"94111",1268.4408,75.06218,129.93877
"94112",1268.4541,75.04509,129.76736
"94113",1268.4674,75.04997,129.6174
"94114",1268.4807,75.08171,129.49445
"94115",1268.494,75.18181,129.44084
"94116",1268.5073,75.511406,129.61987
"94117",1268.5206,76.35615,130.32434
"94118",1268.5339,77.94064,131.79497
"94119",1268.5472,80.26978,134.05975
"94120",1268.5605,83.06035,136.85875
"94121",1268.5739,85.872894,139.76694
"94122",1268.5872,88.1947,142.27228
"94123",1268.6005,89.64492,143.97858
"94124",1268.6138,90.125885,144.76094
"94125",1268.6271,89.80362,144.75511
"94126",1268.6404,88.92958,144.18744
"94127",1268.6537,87.71618,143.25308
"94128",1268.667,86.29771,142.07574
"94129",1268.6803,84.78157,140.75641
"94130",1268.6936,83.245895,139.37016
"94131",1268.7069,81.75906,137.98477
"94132",1268.7202,80.37232,136.653
"94133",1268.7335,79.12962,135.42194
"94134",1268.7468,78.0676,134.3327
"94135",1268.7601,77.242386,133.4471
"94136",1268.7734,76.71992,132.83846
"94137",1268.7867,76.578316,132.59435
"94138",1268.8,76.876175,132.78528
"94139",1268.8134,77.60372,133.4152
"94140",1268.8267,78.6511,134.3877
"94141",1268.84,79.83765,135.53209
"94142",1268.8533,80.94118,136.63055
"94143",1268.8666,81.78104,137.49983
"94144",1268.8799,82.24979,138.02425
"94145",1268.8932,82.337685,138.18245
"94146",1268.9065,82.10574,138.02356
"94147",1268.9198,81.64431,137.62793
"94148",1268.9331,81.041275,137.07628
"94149",1268.9464,80.360115,136.42766
"94150",1268.9597,79.64477,135.72357
"94151",1268.973,78.92943,134.99713
"94152",1268.9863,78.23605,134.2703
"94153",1268.9996,77.58907,133.56819
"94154",1269.013,77.00069,132.90446
"94155",1269.0262,76.48554,132.2956
"94156",1269.0396,76.05585,131.75607
"94157",1269.0529,75.71404,131.29102
"94158",1269.0662,75.45037,130.8934
"94159",1269.0795,75.2575,130.55835
"94160",1269.0928,75.123215,130.27586
"94161",1269.1061,75.03044,130.03069
"94162",1269.1194,74.97673,129.82167
"94163",1269.1327,74.97185,129.6598
"94164",1269.146,75.09392,129.62474
"94165",1269.1593,75.579765,129.95728
"94166",1269.1726,76.72724,130.96661
"94167",1269.1859,78.692604,132.8297
"94168",1269.1992,81.341576,135.4378
"94169",1269.2125,84.300606,138.43877
"94170",1269.2258,87.04967,141.32222
"94171",1269.2391,89.0956,143.58846
"94172",1269.2524,90.14786,144.92496
"94173",1269.2657,90.24307,145.3373
"94174",1269.279,89.62783,145.04214
"94175",1269.2924,88.55604,144.27122
"94176",1269.3057,87.21324,143.1958
"94177",1269.319,85.72152,141.92949
"94178",1269.3323,84.18585,140.57262
"94179",1269.3456,82.669716,139.18729
"94180",1269.3589,81.22926,137.83026
"94181",1269.3722,79.903564,136.54298
"94182",1269.3855,78.73655,135.37296
"94183",1269.3988,77.7673,134.36423
"94184",1269.4121,77.06172,133.58887
"94185",1269.4254,76.700386,133.13571
"94186",1269.4387,76.75166,133.08388
"94187",1269.452,77.24971,133.48041
"94188",1269.4653,78.133514,134.27826
"94189",1269.4786,79.25414,135.34056
"94190",1269.492,80.4065,136.4696
"94191",1269.5052,81.38308,137.4589
"94192",1269.5186,82.039825,138.15886
"94193",1269.5319,82.31327,138.49605
"94194",1269.5452,82.24002,138.49509
"94195",1269.5585,81.898224,138.2233
"94196",1269.5718,81.375755,137.76015
"94197",1269.5851,80.743416,137.1708
"94198",1269.5984,80.05249,136.50311
"94199",1269.6117,79.34692,135.79918
"94200",1269.625,78.65354,135.08539
"94201",1269.6383,77.996796,134.38657
"94202",1269.6516,77.38644,133.71361
"94203",1269.6649,76.841995,133.0875
"94204",1269.6782,76.36347,132.51028
"94205",1269.6915,75.96307,131.99625
"94206",1269.7048,75.63592,131.54294
"94207",1269.7181,75.386894,131.15753
"94208",1269.7314,75.208664,130.83514
"94209",1269.7448,75.089035,130.56578
"94210",1269.758,75.01335,130.33662
"94211",1269.7714,75.00603,130.17346
"94212",1269.7847,75.1696,130.18097
"94213",1269.798,75.76532,130.62573
"94214",1269.8113,77.07637,131.80444
"94215",1269.8246,79.19798,133.83469
"94216",1269.8379,81.92996,136.5416
"94217",1269.8512,84.857254,139.5292
"94218",1269.8645,87.45983,142.28357
"94219",1269.8778,89.28115,144.33801
"94220",1269.8911,90.108795,145.45569
"94221",1269.9044,90.040436,145.70323
"94222",1269.9177,89.339745,145.3163
"94223",1269.931,88.22888,144.4973
"94224",1269.9443,86.87877,143.40434
"94225",1269.9576,85.40658,142.14711
"94226",1269.971,83.90753,140.81702
"94227",1269.9843,82.44999,139.48158
"94228",1269.9976,81.08766,138.19582
"94229",1270.0109,79.85962,137.00177
"94230",1270.0242,78.80003,135.9378
"94231",1270.0375,77.95529,135.05556
"94232",1270.0508,77.39132,134.42769
"94233",1270.0641,77.196,134.15085
"94234",1270.0774,77.43038,134.2976
"94235",1270.0907,78.082245,134.86917
"94236",1270.104,79.044174,135.77116
"94237",1270.1173,80.14282,136.83994
"94238",1270.1306,81.160904,137.86249
"94239",1270.1439,81.92264,138.6605
"94240",1270.1572,82.3328,139.13075
"94241",1270.1705,82.39384,139.2647
"94242",1270.1838,82.15701,139.10268
"94243",1270.1971,81.705345,138.71841
"94244",1270.2104,81.11452,138.18088
"94245",1270.2238,80.448006,137.5492
"94246",1270.237,79.744865,136.86006
"94247",1270.2504,79.04173,136.14896
"94248",1270.2637,78.35569,135.43297
"94249",1270.277,77.713585,134.73947
"94250",1270.2903,77.12764,134.08208
"94251",1270.3036,76.610054,133.47473
"94252",1270.3169,76.16327,132.92201
"94253",1270.3302,75.80194,132.44078
"94254",1270.3435,75.526054,132.0337
"94255",1270.3568,75.32586,131.6937
"94256",1270.3701,75.191574,131.41335
"94257",1270.3834,75.10857,131.18007
"94258",1270.3967,75.07683,130.99547
"94259",1270.41,75.18181,130.9466
"94260",1270.4233,75.64568,131.2599
"94261",1270.4366,76.73945,132.21759
"94262",1270.45,78.59495,133.97119
"94263",1270.4633,81.08278,136.41512
"94264",1270.4766,83.85138,139.21756
"94265",1270.4899,86.41978,141.90631
"94266",1270.5032,88.341194,144.02835
"94267",1270.5165,89.35439,145.30222
"94268",1270.5298,89.495995,145.73615
"94269",1270.5431,88.9662,145.5031
"94270",1270.5564,87.99451,144.8116
"94271",1270.5697,86.74937,143.81628
"94272",1270.583,85.36263,142.64047
"94273",1270.5963,83.931946,141.37737
"94274",1270.6096,82.54276,140.11105
"94275",1270.6229,81.24147,138.88922
"94276",1270.6362,80.06714,137.7537
"94277",1270.6495,79.044174,136.73282
"94278",1270.6628,78.21164,135.8704
"94279",1270.6761,77.628136,135.23102
"94280",1270.6895,77.37911,134.90787
"94281",1270.7028,77.51583,134.96268
"94282",1270.7161,78.04074,135.40996
"94283",1270.7294,78.85863,136.16661
"94284",1270.7427,79.801025,137.07333
"94285",1270.756,80.672615,137.9387
"94286",1270.7693,81.31716,138.60428
"94287",1270.7826,81.64431,138.9726
"94288",1270.7959,81.64675,139.02643
"94289",1270.8092,81.373314,138.80446
"94290",1270.8225,80.89479,138.36885
"94291",1270.8358,80.28199,137.78401
"94292",1270.8491,79.59106,137.1019
"94293",1270.8624,78.873276,136.37134
"94294",1270.8757,78.16037,135.62321
"94295",1270.889,77.47433,134.87968
"94296",1270.9023,76.84444,134.17087
"94297",1270.9156,76.27802,133.50584
"94298",1270.929,75.78729,132.8988
"94299",1270.9423,75.38201,132.36188
"94300",1270.9556,75.06462,131.90018
"94301",1270.9689,74.83269,131.514
"94302",1270.9822,74.67887,131.19872
"94303",1270.9955,74.59098,130.94453
"94304",1271.0088,74.55924,130.74376
"94305",1271.0221,74.57389,130.58838
"94306",1271.0354,74.632484,130.4774
"94307",1271.0487,74.79851,130.4757
"94308",1271.062,75.26971,130.78435
"94309",1271.0753,76.30488,131.67169
"94310",1271.0886,78.065155,133.3165
"94311",1271.1019,80.46754,135.65842
"94312",1271.1152,83.20683,138.41232
"94313",1271.1285,85.82895,141.13466
"94314",1271.1418,87.869995,143.35786
"94315",1271.1552,89.039444,144.77325
"94316",1271.1685,89.31777,145.33406
"94317",1271.1818,88.89784,145.2053
"94318",1271.1951,88.00183,144.58736
"94319",1271.2084,86.820175,143.65576
"94320",1271.2217,85.487144,142.53586
"94321",1271.235,84.11505,141.33524
"94322",1271.2483,82.77226,140.12105
"94323",1271.2616,81.51003,138.94545
"94324",1271.2749,80.360115,137.84273
"94325",1271.2882,79.34936,136.84323
"94326",1271.3015,78.519264,135.9928
"94327",1271.3148,77.93576,135.36302
"94328",1271.3281,77.679405,135.04216
"94329",1271.3414,77.79904,135.08928
"94330",1271.3547,78.2971,135.51855
"94331",1271.368,79.08568,136.25392
"94332",1271.3813,80.02075,137.16042
"94333",1271.3947,80.91676,138.05707
"94334",1271.408,81.61501,138.78397
"94335",1271.4213,82.022736,139.24216
"94336",1271.4346,82.11551,139.39815
"94337",1271.4479,81.92996,139.27872
"94338",1271.4612,81.532005,138.94107
"94339",1271.4745,80.990005,138.44695
"94340",1271.4878,80.36256,137.85043
"94341",1271.5011,79.70336,137.20258
"94342",1271.5144,79.044174,136.53412
"94343",1271.5277,78.4094,135.86948
"94344",1271.541,77.81125,135.22162
"94345",1271.5543,77.26925,134.61122
"94346",1271.5676,76.788284,134.04492
"94347",1271.5809,76.37812,133.5344
"94348",1271.5942,76.0412,133.08429
"94349",1271.6075,75.77997,132.69934
"94350",1271.6208,75.596855,132.38435
"94351",1271.6342,75.48455,132.13445
"94352",1271.6475,75.41863,131.92741
"94353",1271.6608,75.3991,131.76471
"94354",1271.6741,75.41131,131.63313
"94355",1271.6874,75.48211,131.56053
"94356",1271.7007,75.72381,131.66104
"94357",1271.714,76.368355,132.17195
"94358",1271.7273,77.62325,133.31335
"94359",1271.7406,79.53002,135.14584
"94360",1271.7539,81.90555,137.50668
"94361",1271.7672,84.39338,140.05406
"94362",1271.7805,86.56138,142.35936
"94363",1271.7938,88.05066,144.05368
"94364",1271.8071,88.70985,144.96445
"94365",1271.8204,88.619514,145.1463
"94366",1271.8337,87.972534,144.76868
"94367",1271.847,86.95445,143.99974
"94368",1271.8604,85.72396,142.98657
"94369",1271.8737,84.403145,141.84464
"94370",1271.887,83.09697,140.67606
"94371",1271.9003,81.87137,139.54724
"94372",1271.9136,80.76784,138.5022
"94373",1271.9269,79.80347,137.56183
"94374",1271.9402,78.992905,136.74512
"94375",1271.9535,78.3679,136.08864
"94376",1271.9668,77.98703,135.65677
"94377",1271.9801,77.90402,135.51085
"94378",1271.9934,78.1384,135.67972
"94379",1272.0067,78.660866,136.14401
"94380",1272.02,79.36645,136.80774
"94381",1272.0333,80.111084,137.53258
"94382",1272.0466,80.75075,138.17572
"94383",1272.0599,81.17555,138.624
"94384",1272.0732,81.34402,138.8292
"94385",1272.0865,81.26345,138.79063
"94386",1272.0999,80.972916,138.53958
"94387",1272.1132,80.52857,138.12564
"94388",1272.1265,79.98657,137.60016
"94389",1272.1398,79.39086,137.00403
"94390",1272.1531,78.7805,136.37463
"94391",1272.1664,78.1799,135.73592
"94392",1272.1797,77.61349,135.11263
"94393",1272.193,77.09346,134.51802
"94394",1272.2063,76.63203,133.96576
"94395",1272.2196,76.23407,133.46255
"94396",1272.2329,75.90448,133.01527
"94397",1272.2462,75.63836,132.62117
"94398",1272.2595,75.44305,132.28955
"94399",1272.2728,75.31121,132.0153
"94400",1272.2861,75.2404,131.79797
"94401",1272.2994,75.21843,131.62726
"94402",1272.3127,75.23308,131.49248
"94403",1272.326,75.26971,131.38014
"94404",1272.3394,75.335625,131.29823
"94405",1272.3527,75.50164,131.31848
"94406",1272.366,75.96796,131.64423
"94407",1272.3793,76.978714,132.52898
"94408",1272.3926,78.6511,134.10695
"94409",1272.4059,80.88747,136.30116
"94410",1272.4192,83.38262,138.82405
"94411",1272.4325,85.71908,141.26622
"94412",1272.4458,87.481804,143.20767
"94413",1272.4591,88.429085,144.38876
"94414",1272.4724,88.57313,144.79622
"94415",1272.4857,88.08728,144.57828
"94416",1272.499,87.17418,143.91791
"94417",1272.5123,86.00473,142.97266
"94418",1272.5256,84.71809,141.87366
"94419",1272.539,83.424126,140.72714
"94420",1272.5522,82.196075,139.6061
"94421",1272.5656,81.0901,138.56876
"94422",1272.5789,80.128174,137.6409
"94423",1272.5922,79.32494,136.84167
"94424",1272.6055,78.69016,136.18579
"94425",1272.6188,78.25559,135.71028
"94426",1272.6321,78.05783,135.45801
"94427",1272.6454,78.14084,135.48032
"94428",1272.6587,78.49241,135.77379
"94429",1272.672,79.05394,136.28821
"94430",1272.6853,79.71557,136.92027
"94431",1272.6986,80.34547,137.54128
"94432",1272.7119,80.82155,138.02815
"94433",1272.7252,81.075455,138.30774
"94434",1272.7385,81.08766,138.35356
"94435",1272.7518,80.88258,138.18248
"94436",1272.7651,80.50904,137.83652
"94437",1272.7784,80.01099,137.35437
"94438",1272.7917,79.44213,136.78586
"94439",1272.805,78.836655,136.16295
"94440",1272.8184,78.22629,135.51622
"94441",1272.8317,77.6379,134.8724
"94442",1272.845,77.08858,134.24927
"94443",1272.8583,76.595406,133.66512
"94444",1272.8716,76.17059,133.13391
"94445",1272.8849,75.81903,132.66267
"94446",1272.8982,75.53826,132.25125
"94447",1272.9115,75.338066,131.91162
"94448",1272.9248,75.20378,131.63165
"94449",1272.9381,75.13054,131.40852
"94450",1272.9514,75.0988,131.22461
"94451",1272.9647,75.10124,131.07388
"94452",1272.978,75.123215,130.94276
"94453",1272.9913,75.18913,130.85628
"94454",1273.0046,75.389336,130.90614
"94455",1273.018,75.931335,131.30406
"94456",1273.0312,77.04219,132.28777
"94457",1273.0446,78.81712,133.97026
"94458",1273.0579,81.12428,136.24045
"94459",1273.0712,83.64629,138.79759
"94460",1273.0845,85.95346,141.2187
"94461",1273.0978,87.64782,143.0991
"94462",1273.1111,88.51209,144.20238
"94463",1273.1244,88.57557,144.53186
"94464",1273.1377,88.0238,144.24808
"94465",1273.151,87.06676,143.54178
"94466",1273.1643,85.875336,142.5712
"94467",1273.1776,84.593575,141.47304
"94468",1273.1909,83.33135,140.35437
"94469",1273.2042,82.1741,139.30122
"94470",1273.2175,81.163345,138.35841
"94471",1273.2308,80.31617,137.54759
"94472",1273.2441,79.62768,136.86899
"94473",1273.2574,79.09544,136.32512
"94474",1273.2708,78.729225,135.93063
"94475",1273.284,78.56565,135.72734
"94476",1273.2974,78.63401,135.75087
"94477",1273.3107,78.922104,135.99628
"94478",1273.324,79.38598,136.42647
"94479",1273.3373,79.92554,136.94684
"94480",1273.3506,80.428474,137.44745
"94481",1273.3639,80.78981,137.82217
"94482",1273.3772,80.955826,138.01288
"94483",1273.3905,80.907,137.99393
"94484",1273.4038,80.66285,137.77812
"94485",1273.4171,80.2649,137.4009
"94486",1273.4304,79.75952,136.9038
"94487",1273.4437,79.18822,136.32498
"94488",1273.457,78.58762,135.69902
"94489",1273.4703,77.99191,135.05917
"94490",1273.4836,77.42306,134.42757
"94491",1273.497,76.90059,133.82457
"94492",1273.5103,76.439156,133.26628
"94493",1273.5236,76.050964,132.76682
"94494",1273.5369,75.736015,132.32846
"94495",1273.5502,75.491875,131.95107
"94496",1273.5635,75.318535,131.63684
"94497",1273.5768,75.211105,131.38312
"94498",1273.5901,75.16228,131.18463
"94499",1273.6034,75.157394,131.02856
"94500",1273.6167,75.18425,130.90408
"94501",1273.63,75.23064,130.79997
"94502",1273.6433,75.28924,130.70953
"94503",1273.6566,75.39422,130.6673
"94504",1273.6699,75.67742,130.80656
"94505",1273.6832,76.36591,131.35997
"94506",1273.6965,77.66964,132.55013
"94507",1273.7098,79.61059,134.41824
"94508",1273.7231,81.99344,136.78893
"94509",1273.7365,84.45197,139.30975
"94510",1273.7498,86.55161,141.54852
"94511",1273.7631,87.940796,143.14244
"94512",1273.7764,88.495,143.9448
"94513",1273.7897,88.307014,144.02228
"94514",1273.803,87.589226,143.56409
"94515",1273.8163,86.539406,142.75143
"94516",1273.8296,85.32601,141.7424
"94517",1273.8429,84.07599,140.65881
"94518",1273.8562,82.89433,139.60454
"94519",1273.8695,81.849396,138.65005
"94520",1273.8828,80.972916,137.83138
"94521",1273.8961,80.255135,137.144
"94522",1273.9094,79.68383,136.58067
"94523",1273.9227,79.2517,136.13866
"94524",1273.936,78.9807,135.84427
"94525",1273.9493,78.89281,135.72452
"94526",1273.9626,79.009995,135.8071
"94527",1273.976,79.31518,136.08134
"94528",1273.9893,79.73998,136.48474
"94529",1274.0026,80.18677,136.9234
"94530",1274.0159,80.55543,137.2979
"94531",1274.0292,80.780045,137.53987
"94532",1274.0425,80.816666,137.60088
"94533",1274.0558,80.67506,137.48479
"94534",1274.0691,80.37476,137.2056
"94535",1274.0824,79.95239,136.79494
"94536",1274.0957,79.44457,136.28563
"94537",1274.109,78.890366,135.71407
"94538",1274.1223,78.32639,135.11542
"94539",1274.1356,77.77707,134.5138
"94540",1274.1489,77.264366,133.93163
"94541",1274.1622,76.805374,133.38715
"94542",1274.1755,76.4123,132.89424
"94543",1274.1888,76.085144,132.45497
"94544",1274.2021,75.826355,132.07384
"94545",1274.2155,75.6408,131.75786
"94546",1274.2288,75.52361,131.50444
"94547",1274.2421,75.46258,131.30351
"94548",1274.2554,75.45281,131.15195
"94549",1274.2687,75.48211,131.03914
"94550",1274.282,75.52361,130.93945
"94551",1274.2953,75.57,130.84595
"94552",1274.3086,75.6115,130.74901
"94553",1274.3219,75.66277,130.66313
"94554",1274.3352,75.76288,130.6277
"94555",1274.3485,76.070496,130.8029
"94556",1274.3618,76.822464,131.43207
"94557",1274.3751,78.19699,132.70729
"94558",1274.3884,80.181885,134.63583
"94559",1274.4017,82.55497,137.0146
"94560",1274.415,84.9305,139.46997
"94561",1274.4283,86.888535,141.58209
"94562",1274.4417,88.10193,143.01076
"94563",1274.455,88.48768,143.64969
"94564",1274.4683,88.17273,143.59998
