"","Time..s.","PPG.trace","Preprocessed.PPG"
"841",25.902153,77.19844,78.32207
"842",25.91549,76.7834,77.81948
"843",25.928818,76.40742,77.34298
"844",25.942154,76.07294,76.89623
"845",25.95549,75.772644,76.47322
"846",25.968819,75.50164,76.070114
"847",25.982155,75.2575,75.6854
"848",25.995491,75.035324,75.315025
"849",26.00882,74.83513,74.95969
"850",26.022156,74.67155,74.634705
"851",26.035484,74.59098,74.38763
"852",26.04882,74.73502,74.36264
"853",26.062157,75.31365,74.77674
"854",26.075485,76.51972,75.836365
"855",26.088821,78.38987,77.597755
"856",26.10215,80.765396,79.922966
"857",26.115486,83.336235,82.51772
"858",26.128822,85.70443,84.99017
"859",26.14215,87.5111,86.975105
"860",26.155487,88.585335,88.28406
"861",26.168823,88.93446,88.901474
"862",26.182152,88.67567,88.921875
"863",26.195488,87.96765,88.48497
"864",26.208824,86.9691,87.73541
"865",26.222153,85.824066,86.80816
"866",26.235489,84.65705,85.82314
"867",26.248817,83.55596,84.867584
"868",26.262154,82.55985,83.9826
"869",26.27549,81.688255,83.190994
"870",26.288818,80.92897,82.48447
"871",26.302155,80.28443,81.86896
"872",26.315483,79.76929,81.3627
"873",26.32882,79.412834,80.99904
"874",26.342155,79.23949,80.80734
"875",26.355484,79.2517,80.79579
"876",26.36882,79.415276,80.93598
"877",26.382156,79.66918,81.171616
"878",26.395485,79.93286,81.42496
"879",26.408821,80.1355,81.625496
"880",26.422157,80.216064,81.7103
"881",26.435486,80.147705,81.64869
"882",26.448822,79.93042,81.43602
"883",26.46215,79.586174,81.0896
"884",26.475487,79.151596,80.64209
"885",26.488823,78.66331,80.12729
"886",26.502151,78.16281,79.58502
"887",26.515488,77.66476,79.02956
"888",26.528816,77.18623,78.47806
"889",26.542152,76.732124,77.93602
"890",26.555489,76.30976,77.41154
"891",26.568817,75.92157,76.90803
"892",26.582153,75.57244,76.43145
"893",26.59549,75.26238,75.98303
"894",26.608818,74.99138,75.56398
"895",26.622154,74.76189,75.17797
"896",26.63549,74.5861,74.83849
"897",26.648819,74.53239,74.6156
"898",26.662155,74.76677,74.67912
"899",26.675484,75.49676,75.245575
"900",26.68882,76.86885,76.476944
"901",26.702156,78.870834,78.38108
"902",26.715485,81.31228,80.78724
"903",26.72882,83.84894,83.36491
"904",26.74215,86.09262,85.72887
"905",26.755486,87.73815,87.56479
"906",26.768822,88.656136,88.724594
"907",26.78215,88.87831,89.21727
"908",26.795486,88.531624,89.148026
"909",26.808823,87.767456,88.65047
"910",26.822151,86.744484,87.870224
"911",26.835487,85.609215,86.94572
"912",26.848824,84.47883,85.990616
"913",26.862152,83.43389,85.08564
"914",26.875488,82.5037,84.26276
"915",26.888817,81.688255,83.52555
"916",26.902153,80.970474,82.86053
"917",26.91549,80.35035,82.27073
"918",26.928818,79.84741,81.77874
"919",26.942154,79.49584,81.4224
"920",26.955482,79.31762,81.228424
"921",26.968819,79.31274,81.20222
"922",26.982155,79.44213,81.310135
"923",26.995483,79.63744,81.488014
"924",27.00882,79.83032,81.66956
"925",27.022156,79.95239,81.78633
"926",27.035484,79.96216,81.79461
"927",27.04882,79.84497,81.67624
"928",27.062157,79.60815,81.43457
"929",27.075485,79.26635,81.08053
"930",27.088821,78.84642,80.63767
"931",27.10215,78.38987,80.14507
"932",27.115486,77.91623,79.62112
"933",27.128822,77.44747,79.08724
"934",27.14215,76.998245,78.55825
"935",27.155487,76.57343,78.039635
"936",27.168816,76.17059,77.52972
"937",27.182152,75.80194,77.0414
"938",27.195488,75.46746,76.57573
"939",27.208817,75.1696,76.13623
"940",27.222153,74.91325,75.728935
"941",27.235489,74.703285,75.36001
"942",27.248817,74.55924,75.050446
"943",27.262154,74.55436,74.87554
"944",27.27549,74.861984,75.01299
"945",27.288818,75.682304,75.67275
"946",27.302155,77.12764,76.98316
"947",27.315483,79.15404,78.9198
"948",27.32882,81.54177,81.2811
"949",27.342155,83.95148,83.73898
"950",27.355484,86.00961,85.9206
"951",27.36882,87.45495,87.553734
"952",27.382149,88.18738,88.519135
"953",27.395485,88.27039,88.858
"954",27.408821,87.82361,88.66966
"955",27.42215,87.00328,88.09383
"956",27.435486,85.95834,87.26774
"957",27.448822,84.82063,86.31622
"958",27.46215,83.702446,85.34868
"959",27.475487,82.65995,84.42188
"960",27.488823,81.71999,83.56505
"961",27.502151,80.88991,82.78871
"962",27.515488,80.17944,82.10606
"963",27.528816,79.603264,81.535484
"964",27.542152,79.19554,81.115364
"965",27.555489,78.992905,80.88759
"966",27.568817,78.99779,80.861
"967",27.582153,79.17601,81.007904
"968",27.595482,79.45434,81.26048
"969",27.608818,79.7522,81.54129
"970",27.622154,79.98657,81.76792
"971",27.635483,80.10132,81.88225
"972",27.648819,80.06714,81.851234
"973",27.662155,79.88403,81.67023
"974",27.675484,79.571526,81.354095
"975",27.68882,79.15892,80.9281
"976",27.702156,78.68772,80.43062
"977",27.715485,78.18967,79.891556
"978",27.72882,77.68917,79.33449
"979",27.74215,77.208206,78.78131
"980",27.755486,76.75166,78.237526
"981",27.768822,76.33173,77.71609
"982",27.78215,75.95087,77.22059
"983",27.795486,75.6115,76.75469
"984",27.808815,75.31121,76.31726
"985",27.822151,75.04997,75.9095
"986",27.835487,74.827805,75.532646
"987",27.848816,74.649574,75.19279
"988",27.862152,74.55924,74.93526
"989",27.875488,74.67155,74.87754
"990",27.888817,75.18181,75.22129
"991",27.902153,76.265816,76.15473
"992",27.91549,77.98459,77.75681
"993",27.928818,80.21118,79.920425
"994",27.942154,82.6746,82.39044
"995",27.955482,85.00374,84.80316
"996",27.968819,86.86168,86.81747
"997",27.982155,88.04089,88.211105
"998",27.995483,88.514534,88.93602
"999",28.00882,88.36561,89.05318
"1000",28.022148,87.73327,88.68227
"1001",28.035484,86.768906,87.959564
"1002",28.04882,85.628746,87.03093
"1003",28.06215,84.439766,86.017845
"1004",28.075485,83.299614,85.01643
"1005",28.088821,82.247345,84.067276
"1006",28.10215,81.304955,83.195114
"1007",28.115486,80.47242,82.40336
"1008",28.128822,79.76929,81.71499
"1009",28.14215,79.23216,81.170654
"1010",28.155487,78.905014,80.81951
"1011",28.168816,78.8098,80.69008
"1012",28.182152,78.93431,80.7774
"1013",28.195488,79.22484,81.03462
"1014",28.208817,79.586174,81.371735
"1015",28.222153,79.91821,81.69084
"1016",28.235481,80.14526,81.91534
"1017",28.248817,80.216064,81.99068
"1018",28.262154,80.113525,81.89489
"1019",28.275482,79.85474,81.63965
"1020",28.288818,79.47387,81.25424
"1021",28.302155,79.012436,80.77637
"1022",28.315483,78.5095,80.24257
"1023",28.32882,77.996796,79.68329
"1024",28.342155,77.49874,79.122635
"1025",28.355484,77.0251,78.57083
"1026",28.36882,76.58564,78.03841
"1027",28.382149,76.192566,77.538635
"1028",28.395485,75.841,77.06809
"1029",28.408821,75.53338,76.6305
"1030",28.42215,75.26238,76.219925
"1031",28.435486,75.02556,75.83505
"1032",28.448814,74.82536,75.47941
"1033",28.46215,74.67155,75.16389
"1034",28.475487,74.62516,74.95099
"1035",28.488815,74.83513,74.993
"1036",28.502151,75.50164,75.49811
"1037",28.515488,76.78584,76.64174
"1038",28.528816,78.695045,78.4505
"1039",28.542152,81.06569,80.780365
"1040",28.555489,83.577934,83.32591
"1041",28.568817,85.85092,85.71071
"1042",28.582153,87.56237,87.604996
"1043",28.595482,88.55848,88.83743
"1044",28.608818,88.851456,89.39786
"1045",28.622154,88.5536,89.3766
"1046",28.635483,87.816284,88.906586
"1047",28.648819,86.80553,88.14009
"1048",28.662148,85.67513,87.22237
"1049",28.675484,84.542305,86.266884
"1050",28.68882,83.49737,85.36389
"1051",28.702148,82.57206,84.547874
"1052",28.715485,81.75906,83.815254
"1053",28.72882,81.0486,83.15976
"1054",28.74215,80.44312,82.58705
"1055",28.755486,79.954834,82.11261
"1056",28.768822,79.62035,81.77672
"1057",28.78215,79.4641,81.608604
"1058",28.795486,79.483635,81.61139
"1059",28.808815,79.63744,81.74906
"1060",28.822151,79.85718,81.957466
"1061",28.835487,80.062256,82.15808
"1062",28.848816,80.19165,82.28942
"1063",28.862152,80.19409,82.29785
"1064",28.87548,80.05737,82.1672
"1065",28.888817,79.781494,81.89311
"1066",28.902153,79.3933,81.49809
"1067",28.915482,78.924545,81.010376
"1068",28.928818,78.41184,80.464066
"1069",28.942154,77.88937,79.89197
"1070",28.955482,77.37667,79.31331
"1071",28.968819,76.88838,78.74304
"1072",28.982155,76.439156,78.19658
"1073",28.995483,76.0412,77.68735
"1074",29.00882,75.68719,77.209625
"1075",29.022148,75.372246,76.75991
"1076",29.035484,75.09636,76.33941
"1077",29.04882,74.847336,75.93715
"1078",29.06215,74.632484,75.56128
"1079",29.075485,74.47135,75.232414
"1080",29.088814,74.459145,75.04744
"1081",29.10215,74.76189,75.17703
"1082",29.115486,75.58221,75.833664
"1083",29.128815,77.03487,77.14827
"1084",29.14215,79.09056,79.111305
"1085",29.155487,81.532005,81.52433
"1086",29.168816,84.01495,84.05515
"1087",29.182152,86.17319,86.33885
"1088",29.195488,87.728386,88.08696
"1089",29.208817,88.57069,89.17078
"1090",29.222153,88.741585,89.60951
"1091",29.235481,88.37049,89.5116
"1092",29.248817,87.60876,89.011444
"1093",29.262154,86.61509,88.255554
"1094",29.275482,85.538414,87.3856
"1095",29.288818,84.491035,86.51129
"1096",29.302147,83.54131,85.70191
"1097",29.315483,82.69657,84.967834
"1098",29.32882,81.951935,84.307465
"1099",29.342148,81.2781,83.694626
"1100",29.355484,80.67994,83.136406
"1101",29.36882,80.16968,82.64739
"1102",29.382149,79.7937,82.27672
"1103",29.395485,79.57885,82.05542
"1104",29.408821,79.53246,81.99587
"1105",29.42215,79.61303,82.06183
"1106",29.435486,79.76196,82.19867
"1107",29.448814,79.903564,82.33283
"1108",29.46215,79.97681,82.40306
"1109",29.475487,79.9353,82.36083
"1110",29.488815,79.766846,82.19035
"1111",29.502151,79.47143,81.88765
"1112",29.51548,79.07347,81.473175
"1113",29.528816,78.59983,80.97058
"1114",29.542152,78.09201,80.41901
"1115",29.555481,77.576866,79.84424
"1116",29.568817,77.083694,79.275345
"1117",29.582153,76.62226,78.72278
"1118",29.595482,76.20477,78.19974
"1119",29.608818,75.8288,77.70516
"1120",29.622154,75.49676,77.242775
"1121",29.635483,75.1989,76.80419
"1122",29.648819,74.94011,76.39537
"1123",29.662148,74.71305,76.01019
"1124",29.675484,74.52018,75.65211
"1125",29.68882,74.36637,75.32706
"1126",29.702148,74.288246,75.07288
"1127",29.715485,74.38834,74.99449
"1128",29.728813,74.84245,75.27324
"1129",29.74215,75.83124,76.10085
"1130",29.755486,77.435265,77.57461
"1131",29.768814,79.57397,79.63316
"1132",29.78215,82.01785,82.063736
"1133",29.795486,84.420235,84.529175
"1134",29.808815,86.431984,86.679054
"1135",29.822151,87.82117,88.26923
"1136",29.835487,88.51209,89.204575
"1137",29.848816,88.568245,89.52673
"1138",29.862152,88.11658,89.34282
"1139",29.87548,87.31579,88.79567
"1140",29.888817,86.32456,88.033066
"1141",29.902153,85.279625,87.18577
"1142",29.915482,84.281075,86.3522
"1143",29.928818,83.38506,85.58997
"1144",29.942146,82.59647,84.907166
"1145",29.955482,81.900665,84.292496
"1146",29.968819,81.2781,83.729324
"1147",29.982147,80.723885,83.21505
"1148",29.995483,80.257576,82.77136
"1149",30.00882,79.91333,82.435165
"1150",30.022148,79.71313,82.232254
"1151",30.035484,79.656975,82.16714
"1152",30.04882,79.708244,82.20769
"1153",30.06215,79.80835,82.298676
"1154",30.075485,79.8938,82.378136
"1155",30.088814,79.91089,82.39191
"1156",30.10215,79.82056,82.29879
"1157",30.115486,79.61059,82.08321
"1158",30.128815,79.28832,81.74878
"1159",30.14215,78.873276,81.31149
"1160",30.15548,78.39231,80.79532
"1161",30.168816,77.87717,80.229935
"1162",30.182152,77.349815,79.636246
"1163",30.19548,76.839554,79.04317
"1164",30.208817,76.35859,78.46344
"1165",30.222153,75.92401,77.91507
"1166",30.235481,75.53826,77.40195
"1167",30.248817,75.208664,76.93292
"1168",30.262154,74.932785,76.50732
"1169",30.275482,74.69596,76.112144
"1170",30.288818,74.50309,75.753525
"1171",30.302147,74.34928,75.42794
"1172",30.315483,74.22232,75.1244
"1173",30.32882,74.11978,74.84131
"1174",30.342148,74.05142,74.589195
"1175",30.355484,74.05142,74.403305
"1176",30.368813,74.232086,74.39808
"1177",30.382149,74.76921,74.75496
"1178",30.395485,75.84833,75.670616
"1179",30.408813,77.540245,77.232796
"1180",30.42215,79.75708,79.372765
"1181",30.435486,82.2449,81.853
"1182",30.448814,84.65217,84.330414
"1183",30.46215,86.6395,86.46313
"1184",30.475487,87.98474,88.01585
"1185",30.488815,88.63172,88.91235
"1186",30.502151,88.65125,89.20163
"1187",30.51548,88.18005,89.00078
"1188",30.528816,87.379265,88.45561
"1189",30.542152,86.39536,87.70232
"1190",30.555481,85.36996,86.87676
"1191",30.568817,84.4007,86.07532
"1192",30.582146,83.53155,85.34368
"1193",30.595482,82.77226,84.694756
"1194",30.608818,82.10086,84.109985
"1195",30.622147,81.495384,83.57016
"1196",30.635483,80.95094,83.07245
"1197",30.648819,80.48463,82.63585
"1198",30.662148,80.130615,82.29698
"1199",30.675484,79.91577,82.08622
"1200",30.68882,79.84253,82.010345
"1201",30.702148,79.87671,82.039604
"1202",30.715485,79.96216,82.1212
"1203",30.728813,80.04028,82.19814
"1204",30.74215,80.042725,82.20184
"1205",30.755486,79.940186,82.10064
"1206",30.768822,79.710686,81.86927
"1207",30.782158,79.37133,81.520874
"1208",30.795486,78.93675,81.06665
"1209",30.808823,78.44114,80.53781
"1210",30.822159,77.90646,79.95442
"1211",30.835487,77.36202,79.34456
"1212",30.848824,76.83223,78.73233
"1213",30.86216,76.334175,78.135284
"1214",30.875496,75.877625,77.56418
"1215",30.888832,75.474785,77.03252
"1216",30.90216,75.13298,76.5493
"1217",30.915497,74.847336,76.111565
"1218",30.928833,74.617836,75.72105
"1219",30.942162,74.44694,75.38196
"1220",30.955498,74.32487,75.08636
"1221",30.968834,74.23941,74.823555
"1222",30.98217,74.18326,74.58739
"1223",30.995506,74.144196,74.366554
"1224",31.008835,74.11734,74.15671
"1225",31.022171,74.10513,73.96067
"1226",31.035507,74.11978,73.79111
"1227",31.048836,74.24185,73.72942
"1228",31.062172,74.63981,73.94744
"1229",31.075508,75.51629,74.65642
"1230",31.088844,77.00069,76.0007
"1231",31.10218,79.07103,77.97732
"1232",31.115509,81.53689,80.41415
"1233",31.128845,84.068665,82.99395
"1234",31.142181,86.28794,85.34037
"1235",31.15551,87.90662,87.15554
"1236",31.168846,88.814835,88.31084
"1237",31.182182,89.04433,88.815796
"1238",31.195518,88.71473,88.76883
"1239",31.208855,87.98474,88.31117
"1240",31.222183,87.01793,87.59389
"1241",31.23552,85.95834,86.75361
"1242",31.248856,84.92561,85.907074
"1243",31.262184,83.9881,85.12348
"1244",31.27552,83.17021,84.43022
"1245",31.288857,82.45487,83.81395
"1246",31.302193,81.81766,83.25345
"1247",31.315529,81.248795,82.74139
"1248",31.328857,80.76051,82.29213
"1249",31.342194,80.38209,81.93747
"1250",31.35553,80.14526,81.712585
"1251",31.368858,80.059814,81.631676
"1252",31.382195,80.093994,81.667725
"1253",31.39553,80.19409,81.77076
"1254",31.408867,80.289314,81.87205
"1255",31.422203,80.325935,81.91771
"1256",31.435532,80.26246,81.86442
"1257",31.448868,80.079346,81.68951
"1258",31.462204,79.77417,81.38681
"1259",31.475533,79.364006,80.96959
"1260",31.488869,78.87572,80.461426
"1261",31.502205,78.34104,79.89162
"1262",31.515541,77.7966,79.295334
"1263",31.528877,77.264366,78.694244
"1264",31.542206,76.76631,78.1107
"1265",31.555542,76.317085,77.560425
"1266",31.568878,75.91913,77.04738
"1267",31.582207,75.56756,76.56828
"1268",31.595543,75.264824,76.12704
"1269",31.60888,75.00603,75.72027
"1270",31.622215,74.78142,75.3396
"1271",31.635551,74.59342,74.988525
"1272",31.64888,74.43717,74.66332
"1273",31.662216,74.3151,74.36742
"1274",31.675552,74.229645,74.10431
"1275",31.68888,74.18326,73.8776
"1276",31.702217,74.212555,73.72513
"1277",31.715553,74.424965,73.75668
"1278",31.72889,74.99138,74.14888
"1279",31.742226,76.09735,75.098335
"1280",31.755554,77.81125,76.69028
"1281",31.76889,80.03784,78.84847
"1282",31.782227,82.530556,81.34237
"1283",31.795555,84.94026,83.831154
"1284",31.808891,86.91539,85.96066
"1285",31.822227,88.24109,87.502464
"1286",31.835564,88.85634,88.375244
"1287",31.8489,88.83681,88.63248
"1288",31.862228,88.31678,88.388596
"1289",31.875565,87.450066,87.781784
"1290",31.8889,86.39048,86.95502
"1291",31.90223,85.279625,86.04386
"1292",31.915565,84.22003,85.149254
"1293",31.928902,83.26055,84.32165
"1294",31.942238,82.406044,83.56903
"1295",31.955574,81.64187,82.88004
"1296",31.968903,80.96559,82.25507
"1297",31.982239,80.38209,81.701744
"1298",31.995575,79.923096,81.25469
"1299",32.008904,79.63256,80.961754
"1300",32.02224,79.52758,80.84529
"1301",32.035576,79.588615,80.89156
"1302",32.048912,79.764404,81.0545
"1303",32.06225,79.97681,81.25954
"1304",32.075577,80.14526,81.42727
"1305",32.088913,80.21362,81.50017
"1306",32.10225,80.14282,81.43604
"1307",32.115578,79.923096,81.22078
"1308",32.128914,79.57397,80.86925
"1309",32.14225,79.12474,80.40671
"1310",32.155586,78.6096,79.86421
"1311",32.168922,78.065155,79.27632
"1312",32.18225,77.51583,78.666534
"1313",32.195587,76.9836,78.05667
"1314",32.208923,76.4831,77.461914
"1315",32.22225,76.02899,76.8979
"1316",32.235588,75.62859,76.37341
"1317",32.248924,75.28191,75.89013
"1318",32.26226,74.986496,75.44727
"1319",32.275597,74.73258,75.03669
"1320",32.288925,74.51774,74.65724
"1321",32.30226,74.339516,74.3077
"1322",32.315598,74.19791,73.989204
"1323",32.328926,74.08804,73.69803
"1324",32.342262,74.02701,73.45225
"1325",32.3556,74.06119,73.299774
"1326",32.368935,74.322426,73.37543
"1327",32.38227,75.00847,73.88405
"1328",32.3956,76.28535,75.004944
"1329",32.408936,78.18967,76.79318
"1330",32.42227,80.587166,79.13411
"1331",32.4356,83.177536,81.74283
"1332",32.448936,85.57992,84.24451
"1333",32.462273,87.45983,86.29879
"1334",32.47561,88.62684,87.69891
"1335",32.488945,89.06874,88.4104
"1336",32.502274,88.883194,88.508255
"1337",32.51561,88.216675,88.11934
"1338",32.528946,87.235214,87.39465
"1339",32.542274,86.09018,86.475716
"1340",32.55561,84.91585,85.4917
"1341",32.568947,83.80011,84.52958
"1342",32.582283,82.78691,83.63513
"1343",32.59562,81.87869,82.814
"1344",32.608948,81.06813,82.06215
"1345",32.622284,80.35035,81.37775
"1346",32.63562,79.75464,80.792984
"1347",32.64895,79.32006,80.35074
"1348",32.662285,79.09056,80.09999
"1349",32.67562,79.078354,80.059364
"1350",32.688957,79.2517,80.20391
"1351",32.702293,79.537346,80.46617
"1352",32.715622,79.835205,80.74957
"1353",32.72896,80.062256,80.97147
"1354",32.742294,80.15747,81.068634
"1355",32.755623,80.096436,81.01252
"1356",32.76896,79.87915,80.79825
"1357",32.782295,79.52758,80.4429
"1358",32.79563,79.07591,79.97647
"1359",32.808968,78.55833,79.43001
"1360",32.822296,78.013885,78.840515
"1361",32.835632,77.46456,78.229126
"1362",32.84897,76.93721,77.62254
"1363",32.862297,76.45136,77.040985
"1364",32.875633,76.00702,76.48575
"1365",32.88897,75.6115,75.965454
"1366",32.902306,75.264824,75.481636
"1367",32.91564,74.96452,75.03336
"1368",32.92897,74.70084,74.61233
"1369",32.942307,74.478676,74.22456
"1370",32.955643,74.29069,73.86404
"1371",32.96897,74.13931,73.53425
"1372",32.982307,74.02945,73.24124
"1373",32.995644,73.99527,73.020485
"1374",33.00898,74.15152,72.98909
"1375",33.022316,74.69596,73.35077
"1376",33.035645,75.826355,74.315414
"1377",33.04898,77.62081,75.97945
"1378",33.062317,79.97925,78.263535
"1379",33.075645,82.62333,80.90697
"1380",33.08898,85.172195,83.53781
"1381",33.102318,87.24254,85.76978
"1382",33.115654,88.60731,87.36088
"1383",33.12899,89.21034,88.232895
"1384",33.14232,89.13954,88.44992
"1385",33.155655,88.52918,88.12517
"1386",33.16899,87.5404,87.40292
"1387",33.18232,86.34165,86.43982
"1388",33.195656,85.067215,85.363556
"1389",33.208992,83.8172,84.27189
"1390",33.22233,82.65507,83.22904
"1391",33.235664,81.60769,82.26463
"1392",33.248993,80.67994,81.38712
"1393",33.26233,79.886475,80.61491
"1394",33.275665,79.26147,79.98635
"1395",33.288994,78.856186,79.55799
"1396",33.30233,78.69749,79.36355
"1397",33.315666,78.78783,79.413185
"1398",33.329002,79.080795,79.668274
"1399",33.34234,79.48608,80.04483
"1400",33.355667,79.8938,80.43649
"1401",33.369003,80.20874,80.748116
"1402",33.38234,80.37232,80.91822
"1403",33.395668,80.36256,80.92009
"1404",33.409004,80.177,80.745865
"1405",33.42234,79.84741,80.42181
"1406",33.435677,79.40307,79.972694
"1407",33.449013,78.88548,79.436455
"1408",33.46234,78.33372,78.84986
"1409",33.475677,77.77219,78.23626
"1410",33.489014,77.222855,77.61731
"1411",33.502342,76.70527,77.01294
"1412",33.51568,76.224304,76.429016
"1413",33.529015,75.789734,75.87646
"1414",33.54235,75.3991,75.354256
"1415",33.555687,75.054855,74.866234
"1416",33.569016,74.76189,74.41873
"1417",33.58235,74.512856,74.00601
"1418",33.595688,74.31022,73.631905
"1419",33.609016,74.17105,73.31493
"1420",33.622353,74.16861,73.13034
"1421",33.63569,74.47135,73.250854
"1422",33.649025,75.29656,73.9033
"1423",33.66236,76.79805,75.257805
"1424",33.67569,78.958725,77.31842
"1425",33.689026,81.57351,79.900665
"1426",33.702362,84.283516,82.65984
"1427",33.71569,86.678566,85.18875
"1428",33.729027,88.43641,87.1553
"1429",33.742363,89.42275,88.40527
"1430",33.7557,89.669334,88.94632
"1431",33.769035,89.30312,88.88228
"1432",33.782364,88.482796,88.35268
"1433",33.7957,87.3695,87.50447
"1434",33.809036,86.10483,86.47009
"1435",33.822365,84.805984,85.36202
"1436",33.8357,83.55596,84.262184
"1437",33.849037,82.391396,83.20874
"1438",33.862373,81.33181,82.223885
"1439",33.87571,80.39185,81.32555
"1440",33.889038,79.61059,80.556526
"1441",33.902374,79.03685,79.97062
"1442",33.91571,78.71946,79.62313
"1443",33.92904,78.68284,79.54649
"1444",33.942375,78.90257,79.72507
"1445",33.95571,79.30297,80.09117
"1446",33.969048,79.77173,80.53815
"1447",33.982384,80.18921,80.948494
"1448",33.995712,80.46998,81.235176
"1449",34.00905,80.56519,81.34508
"1450",34.022385,80.462654,81.2602
"1451",34.035713,80.18921,81.00121
"1452",34.04905,79.77905,80.59697
"1453",34.062386,79.27123,80.082245
"1454",34.07572,78.70237,79.49061
"1455",34.089058,78.11154,78.85923
"1456",34.102386,77.523155,78.21183
"1457",34.115723,76.961624,77.5729
"1458",34.12906,76.436714,76.95304
"1459",34.142387,75.948425,76.3534
"1460",34.155724,75.50408,75.78245
"1461",34.16906,75.0988,75.23667
"1462",34.182396,74.73502,74.719734
"1463",34.195732,74.42252,74.24271
"1464",34.20906,74.18326,73.82915
"1465",34.222397,74.110016,73.574135
"1466",34.235733,74.38834,73.6684
"1467",34.24906,75.245285,74.34998
"1468",34.262398,76.822464,75.77858
"1469",34.275734,79.07347,77.93029
"1470",34.28907,81.76395,80.59181
"1471",34.302406,84.51545,83.39844
"1472",34.315735,86.91539,85.93948
"1473",34.32907,88.653694,87.89389
"1474",34.342407,89.618065,89.12869
"1475",34.355736,89.85733,89.668526
"1476",34.369072,89.498436,89.617676
"1477",34.38241,88.69276,89.108826
"1478",34.395744,87.59899,88.28671
"1479",34.40908,86.37339,87.298584
"1480",34.42241,85.13313,86.25749
"1481",34.435745,83.95392,85.238686
"1482",34.44908,82.865036,84.27336
"1483",34.46241,81.87381,83.371666
"1484",34.475746,80.990005,82.54642
"1485",34.489082,80.233154,81.8205
"1486",34.50242,79.64233,81.23696
"1487",34.515755,79.26391,80.84737
"1488",34.529083,79.13451,80.69496
"1489",34.54242,79.23216,80.76557
"1490",34.555756,79.50317,81.01258
"1491",34.569084,79.85474,81.348625
"1492",34.58242,80.19165,81.681
"1493",34.595757,80.42603,81.92137
"1494",34.609093,80.5066,82.01525
"1495",34.62243,80.40894,81.933426
"1496",34.635757,80.14038,81.67764
"1497",34.649094,79.73998,81.28163
"1498",34.66243,79.24437,80.77789
"1499",34.67576,78.68528,80.19519
"1500",34.689095,78.10422,79.573044
"1501",34.70243,77.52804,78.93762
"1502",34.715767,76.96895,78.301285
"1503",34.729103,76.44404,77.681656
"1504",34.74243,75.96063,77.08713
"1505",34.755768,75.52117,76.52144
"1506",34.769104,75.1281,75.9884
"1507",34.782433,74.77898,75.48704
"1508",34.79577,74.50065,75.045555
"1509",34.809105,74.37614,74.74919
"1510",34.82244,74.5861,74.78341
"1511",34.835777,75.34539,75.37352
"1512",34.849106,76.807816,76.69049
"1513",34.862442,78.94652,78.72944
"1514",34.87578,81.54421,81.29421
"1515",34.889107,84.25178,84.05003
"1516",34.902443,86.661476,86.5926
"1517",34.91578,88.465706,88.604996
"1518",34.929115,89.52773,89.93158
"1519",34.94245,89.8793,90.580894
"1520",34.95578,89.62539,90.63571
"1521",34.969116,88.9247,90.23582
"1522",34.982452,87.93347,89.52348
"1523",34.99578,86.803085,88.64102
"1524",35.009117,85.6556,87.70613
"1525",35.022453,84.57404,86.80131
"1526",35.03579,83.580376,85.95058
"1527",35.049126,82.6746,85.156685
"1528",35.062454,81.846954,84.41262
"1529",35.07579,81.10231,83.72569
"1530",35.089127,80.462654,83.12048
"1531",35.102455,79.974365,82.64665
"1532",35.11579,79.676506,82.34799
"1533",35.129128,79.57641,82.237785
"1534",35.142464,79.64721,82.29535
"1535",35.1558,79.82788,82.465
"1536",35.16913,80.03052,82.662254
"1537",35.182465,80.181885,82.814575
"1538",35.1958,80.218506,82.85688
"1539",35.20913,80.113525,82.75873
"1540",35.222466,79.8645,82.51325
"1541",35.2358,79.48852,82.13303
"1542",35.249138,79.012436,81.64097
"1543",35.262474,78.47288,81.07055
"1544",35.275803,77.8967,80.44665
"1545",35.28914,77.31808,79.8023
"1546",35.302475,76.756546,79.15696
"1547",35.315804,76.224304,78.52336
"1548",35.32914,75.7409,77.92197
"1549",35.342476,75.31609,77.36407
"1550",35.355812,74.94743,76.84904
"1551",35.36915,74.64225,76.38596
"1552",35.382477,74.41764,75.99393
"1553",35.395813,74.34684,75.74868
"1554",35.40915,74.57877,75.803955
"1555",35.422478,75.30877,76.36454
"1556",35.435814,76.66865,77.57782
"1557",35.44915,78.64622,79.45129
"1558",35.462486,81.06569,81.82845
"1559",35.475822,83.62188,84.417946
"1560",35.48915,85.94125,86.8505
"1561",35.502487,87.73571,88.83062
"1562",35.515823,88.85878,90.195435
"1563",35.529152,89.31045,90.923935
"1564",35.54249,89.178604,91.083046
"1565",35.555824,88.59998,90.79126
"1566",35.56916,87.73083,90.19086
"1567",35.582497,86.71763,89.41925
"1568",35.595825,85.6849,88.59644
"1569",35.60916,84.70344,87.79263
"1570",35.622498,83.80255,87.03873
"1571",35.635826,82.9749,86.3299
"1572",35.649162,82.19852,85.646484
"1573",35.6625,81.47341,84.99008
"1574",35.675835,80.82399,84.3867
"1575",35.68917,80.29908,83.88754
"1576",35.7025,79.937744,83.53555
"1577",35.715836,79.764404,83.36027
"1578",35.72917,79.75464,83.34314
"1579",35.7425,79.852295,83.43313
"1580",35.755836,79.98413,83.56035
"1581",35.769173,80.07446,83.650185
"1582",35.78251,80.06714,83.64519
"1583",35.795845,79.93042,83.51057
"1584",35.809174,79.66186,83.23983
"1585",35.82251,79.273674,82.84108
"1586",35.835846,78.80003,82.34474
"1587",35.849174,78.260475,81.767685
"1588",35.86251,77.69405,81.146904
"1589",35.875847,77.1252,80.50599
"1590",35.889183,76.578316,79.86927
"1591",35.90252,76.068054,79.25208
"1592",35.915848,75.61639,78.67754
"1593",35.929184,75.21599,78.14016
"1594",35.94252,74.86931,77.64398
"1595",35.95585,74.57633,77.190674
"1596",35.969185,74.339516,76.78437
"1597",35.98252,74.1857,76.45367
"1598",35.995857,74.19302,76.2793
"1599",36.009193,74.52506,76.42987
"1600",36.022522,75.3576,77.09132
"1601",36.03586,76.788284,78.37693
"1602",36.049194,78.785385,80.27367
"1603",36.062523,81.160904,82.61123
"1604",36.07586,83.597466,85.08407
"1605",36.089195,85.753265,87.35229
"1606",36.10253,87.36462,89.143425
"1607",36.115868,88.31678,90.32573
"1608",36.129196,88.62928,90.89813
"1609",36.142532,88.411995,90.950516
"1610",36.15587,87.801636,90.60303
"1611",36.169197,86.956894,90.00209
"1612",36.182533,86.00717,89.26977
"1613",36.19587,85.05257,88.502884
"1614",36.209206,84.14923,87.75744
"1615",36.22254,83.30694,87.04481
"1616",36.23587,82.513466,86.354675
"1617",36.249207,81.76395,85.6837
"1618",36.262543,81.06325,85.038124
"1619",36.27587,80.44312,84.451225
"1620",36.289207,79.94507,83.96702
"1621",36.302544,79.61059,83.63082
"1622",36.31588,79.449455,83.45752
"1623",36.329216,79.432365,83.423225
"1624",36.342545,79.500725,83.47385
"1625",36.35588,79.58129,83.53881
"1626",36.369217,79.60082,83.54526
"1627",36.382545,79.51537,83.447334
"1628",36.39588,79.29809,83.214905
"1629",36.409218,78.9514,82.84628
"1630",36.422554,78.49729,82.359406
"1631",36.43589,77.96994,81.785095
"1632",36.44922,77.41085,81.16257
"1633",36.462555,76.85176,80.52257
"1634",36.47589,76.31953,79.89195
"1635",36.48922,75.83124,79.28865
"1636",36.502556,75.3991,78.72624
"1637",36.515892,75.020676,78.20404
"1638",36.52923,74.69108,77.71884
"1639",36.542564,74.41276,77.27462
"1640",36.555893,74.18814,76.875404
"1641",36.56923,74.00748,76.51312
"1642",36.582565,73.865875,76.18426
"1643",36.595894,73.75357,75.880264
"1644",36.60923,73.670555,75.60205
"1645",36.622566,73.636375,75.37008
"1646",36.635902,73.73647,75.27132
"1647",36.64924,74.12955,75.46866
"1648",36.662567,75.00847,76.16413
"1649",36.675903,76.48066,77.48034
"1650",36.68924,78.51194,79.40164
"1651",36.702568,80.91188,81.75508
"1652",36.715904,83.36309,84.23479
"1653",36.72924,85.51888,86.495674
"1654",36.742577,87.12047,88.26972
"1655",36.755913,88.05066,89.422424
"1656",36.76924,88.33143,89.95477
"1657",36.782578,88.07019,89.95389
"1658",36.795914,87.42077,89.556656
"1659",36.809242,86.539406,88.907196
"1660",36.82258,85.56527,88.13741
"1661",36.835915,84.6009,87.346954
"1662",36.84925,83.700005,86.589836
"1663",36.862587,82.86748,85.87293
"1664",36.875916,82.09842,85.19348
"1665",36.88925,81.38308,84.54372
"1666",36.902588,80.73853,83.94239
"1667",36.915916,80.198975,83.42591
"1668",36.929253,79.80347,83.03662
"1669",36.94259,79.58373,82.810745
"1670",36.955925,79.52514,82.73914
"1671",36.96926,79.58373,82.7829
"1672",36.98259,79.691154,82.87731
"1673",36.995926,79.77661,82.95312
"1674",37.009262,79.77417,82.943695
"1675",37.02259,79.64965,82.81212
"1676",37.035927,79.395744,82.547264
"1677",37.049263,79.01976,82.1524
"1678",37.0626,78.551,81.65301
"1679",37.075935,78.013885,81.07061
"1680",37.089264,77.44503,80.43969
"1681",37.1026,76.86641,79.78123
"1682",37.115936,76.297554,79.11445
"1683",37.129265,75.76532,78.466515
"1684",37.1426,75.28924,77.8581
"1685",37.155937,74.881516,77.30317
"1686",37.169273,74.53971,76.801414
"1687",37.18261,74.27848,76.36955
"1688",37.19594,74.09537,76.007645
"1689",37.209274,73.98062,75.70838
"1690",37.22261,73.917145,75.4568
"1691",37.23594,73.89761,75.247185
"1692",37.249275,73.90494,75.06381
"1693",37.26261,73.917145,74.88555
"1694",37.275948,73.92447,74.70279
"1695",37.289284,73.917145,74.50561
"1696",37.302612,73.9025,74.30087
"1697",37.31595,73.89029,74.09812
"1698",37.329285,73.95865,73.975555
"1699",37.342613,74.25895,74.08707
"1700",37.35595,74.9987,74.647415
"1701",37.369286,76.32685,75.819275
"1702",37.38262,78.25803,77.63567
"1703",37.395958,80.638435,79.96164
"1704",37.409286,83.16533,82.508484
"1705",37.422623,85.48226,84.92433
"1706",37.43596,87.27917,86.892555
"1707",37.449287,88.40223,88.24309
"1708",37.462624,88.84413,88.947556
"1709",37.47596,88.69764,89.07744
"1710",37.489296,88.10437,88.75597
"1711",37.502632,87.22789,88.13275
"1712",37.51596,86.21225,87.34298
"1713",37.529297,85.18196,86.50682
"1714",37.542633,84.207825,85.69462
"1715",37.55596,83.32403,84.942314
"1716",37.569298,82.51591,84.23807
"1717",37.582634,81.78836,83.58914
"1718",37.59597,81.146255,83.00292
"1719",37.609306,80.621346,82.51383
"1720",37.622635,80.25269,82.1646
"1721",37.63597,80.0647,81.9845
"1722",37.649307,80.05249,81.97431
"1723",37.662636,80.17212,82.09558
"1724",37.675972,80.343025,82.271866
"1725",37.68931,80.48951,82.42907
"1726",37.702644,80.54322,82.49808
"1727",37.71598,80.45533,82.42716
"1728",37.72931,80.216064,82.202126
"1729",37.742645,79.84009,81.8329
"1730",37.75598,79.35668,81.3445
"1731",37.76931,78.79759,80.765305
"1732",37.782646,78.20187,80.13201
"1733",37.795982,77.59884,79.472786
"1734",37.80932,77.00801,78.80692
"1735",37.822655,76.45136,78.15678
"1736",37.835983,75.95331,77.54783
"1737",37.84932,75.52361,76.99168
"1738",37.862656,75.159836,76.488014
"1739",37.875984,74.86931,76.046234
"1740",37.88932,74.649574,75.66617
"1741",37.902657,74.48844,75.33784
"1742",37.915993,74.3859,75.063065
"1743",37.92933,74.32975,74.831474
"1744",37.942657,74.31266,74.63719
"1745",37.955994,74.322426,74.46923
"1746",37.96933,74.339516,74.3089
"1747",37.98266,74.34928,74.14178
"1748",37.995995,74.34928,73.965195
"1749",38.00933,74.32975,73.76908
"1750",38.022667,74.33219,73.59433
"1751",38.036003,74.45426,73.53928
"1752",38.04933,74.879074,73.790794
"1753",38.062668,75.80194,74.553635
"1754",38.076004,77.33761,75.958115
"1755",38.089333,79.447014,77.98432
"1756",38.10267,81.9202,80.44022
"1757",38.116005,84.422676,83.00271
"1758",38.12934,86.60044,85.31868
"1759",38.142677,88.19226,87.11676
"1760",38.156006,89.08095,88.26146
"1761",38.169342,89.305565,88.76985
"1762",38.18268,88.97597,88.73106
"1763",38.196007,88.24597,88.281555
"1764",38.209343,87.274284,87.56755
"1765",38.22268,86.21469,86.735275
"1766",38.236015,85.172195,85.886986
"1767",38.24935,84.210266,85.086685
"1768",38.26268,83.34356,84.35155
"1769",38.276016,82.55985,83.672325
"1770",38.289352,81.84207,83.03454
"1771",38.30268,81.20973,82.45976
"1772",38.316017,80.69215,81.97998
"1773",38.329353,80.32838,81.63784
"1774",38.34269,80.14526,81.46499
"1775",38.356026,80.1355,81.45976
"1776",38.369354,80.25025,81.57875
"1777",38.38269,80.413826,81.750145
"1778",38.396027,80.552986,81.90224
"1779",38.409355,80.604256,81.97079
"1780",38.42269,80.52613,81.911545
"1781",38.436028,80.30396,81.70582
"1782",38.449364,79.94995,81.361305
"1783",38.4627,79.48608,80.89587
"1784",38.47603,78.941635,80.335365
"1785",38.489365,78.35325,79.713905
"1786",38.5027,77.75021,79.05941
"1787",38.51603,77.15938,78.39827
"1788",38.529366,76.60029,77.75041
"1789",38.5427,76.09247,77.13635
"1790",38.556038,75.650566,76.57234
"1791",38.569374,75.27947,76.06533
"1792",38.582703,74.986496,75.62484
"1793",38.59604,74.76677,75.24844
"1794",38.609375,74.615395,74.93353
"1795",38.622704,74.52018,74.67005
"1796",38.63604,74.46647,74.4451
"1797",38.649376,74.442055,74.247765
"1798",38.662712,74.42985,74.061874
"1799",38.67605,74.42252,73.880486
"1800",38.689377,74.42008,73.70375
"1801",38.702713,74.41764,73.52694
"1802",38.71605,74.44938,73.38423
"1803",38.729378,74.60807,73.36947
"1804",38.742714,75.071945,73.66485
"1805",38.75605,76.02655,74.465454
"1806",38.769386,77.58663,75.90137
"1807",38.782722,79.7058,77.94512
"1808",38.79605,82.1741,80.40423
"1809",38.809387,84.664375,82.96244
"1810",38.822723,86.820175,85.264
"1811",38.836052,88.37293,87.029884
"1812",38.84939,89.22987,88.14848
"1813",38.862724,89.42519,88.63223
"1814",38.87606,89.07362,88.5752
"1815",38.889397,88.32899,88.11412
"1816",38.902725,87.34997,87.395386
"1817",38.91606,86.275734,86.55084
"1818",38.929398,85.21858,85.689804
"1819",38.942726,84.244446,84.878746
"1820",38.956062,83.372856,84.13979
"1821",38.9694,82.59159,83.46393
"1822",38.982735,81.89334,82.846664
"1823",38.99607,81.27322,82.285706
"1824",39.0094,80.75319,81.805466
"1825",39.022736,80.377205,81.45302
"1826",39.03607,80.16968,81.25728
"1827",39.0494,80.130615,81.22352
"1828",39.062737,80.218506,81.31549
"1829",39.076073,80.365,81.46881
"1830",39.08941,80.49683,81.61205
"1831",39.102745,80.552986,81.68373
"1832",39.116074,80.48463,81.63265
"1833",39.12941,80.27711,81.44028
"1834",39.142746,79.93286,81.10469
"1835",39.156075,79.47875,80.64848
"1836",39.16941,78.94408,80.09752
"1837",39.182747,78.36057,79.48102
"1838",39.196083,77.76486,78.834076
"1839",39.20942,77.18379,78.18316
"1840",39.222748,76.63447,77.54583
"1841",39.236084,76.13641,76.942604
"1842",39.24942,75.699394,76.38485
"1843",39.26275,75.32342,75.87448
"1844",39.276085,75.01335,75.418274
"1845",39.28942,74.76677,75.01586
"1846",39.302757,74.57145,74.657005
"1847",39.316093,74.42252,74.33844
"1848",39.329422,74.31266,74.05428
"1849",39.34276,74.23453,73.79842
"1850",39.356094,74.178375,73.5621
"1851",39.369423,74.141754,73.34356
"1852",39.38276,74.12955,73.148285
"1853",39.396095,74.175934,73.01122
"1854",39.40943,74.38102,73.03431
"1855",39.422768,74.915695,73.393394
"1856",39.436096,75.965515,74.28433
"1857",39.449432,77.62325,75.815994
"1858",39.46277,79.823,77.94147
"1859",39.476097,82.3328,80.44574
"1860",39.489433,84.81331,82.999146
"1861",39.50277,86.91051,85.24676
"1862",39.516106,88.37049,86.92269
"1863",39.52944,89.12001,87.93379
"1864",39.54277,89.2079,88.30669
"1865",39.556107,88.763565,88.1501
"1866",39.569443,87.94568,87.60608
"1867",39.58277,86.91539,86.8241
"1868",39.596107,85.80209,85.9269
"1869",39.609444,84.715645,85.02177
"1870",39.62278,83.702446,84.15593
"1871",39.636116,82.78691,83.356094
"1872",39.649445,81.9617,82.61797
"1873",39.66278,81.22682,81.9444
"1874",39.676117,80.587166,81.34308
"1875",39.689445,80.08667,80.86093
"1876",39.70278,79.75952,80.53649
"1877",39.716118,79.62524,80.39469
"1878",39.729454,79.674065,80.43181
"1879",39.74279,79.85718,80.60474
"1880",39.75612,80.093994,80.83709
"1881",39.769455,80.29664,81.04267
"1882",39.78279,80.396736,81.15204
"1883",39.79612,80.35523,81.12293
"1884",39.809456,80.15747,80.93627
"1885",39.822792,79.815674,80.599396
"1886",39.83613,79.35912,80.137085
"1887",39.849464,78.82689,79.58482
"1888",39.862793,78.25559,78.97687
"1889",39.87613,77.67452,78.341286
"1890",39.889465,77.11299,77.707085
"1891",39.902794,76.5832,77.087074
"1892",39.91613,76.102234,76.49934
"1893",39.929466,75.67498,75.95028
"1894",39.942802,75.30389,75.44403
"1895",39.95614,74.986496,74.97989
"1896",39.969467,74.72526,74.56198
"1897",39.982803,74.512856,74.184746
"1898",39.99614,74.339516,73.839935
"1899",40.009468,74.20035,73.52388
"1900",40.022804,74.09781,73.240105
"1901",40.03614,74.03189,72.989746
"1902",40.049477,74.005035,72.77639
"1903",40.062813,74.06607,72.650085
"1904",40.07614,74.339516,72.7381
"1905",40.089478,75.020676,73.24237
"1906",40.102814,76.29023,74.35632
"1907",40.116142,78.19699,76.147156
"1908",40.12948,80.61158,78.5054
"1909",40.142815,83.24834,81.16127
"1910",40.15615,85.72152,83.73596
"1911",40.169487,87.682,85.87524
"1912",40.182816,88.92714,87.36044
"1913",40.19615,89.43252,88.14479
"1914",40.209488,89.29092,88.29796
"1915",40.222816,88.64881,87.9462
"1916",40.236153,87.66735,87.235016
"1917",40.24949,86.50034,86.30762
"1918",40.262825,85.279625,85.29003
"1919",40.27616,84.09552,84.27091
"1920",40.28949,83.00664,83.31001
"1921",40.302826,82.020294,82.417625
"1922",40.316162,81.13649,81.596954
"1923",40.32949,80.36256,80.858536
"1924",40.342827,79.73022,80.237526
"1925",40.356163,79.290764,79.78964
"1926",40.3695,79.078354,79.55507
"1927",40.382835,79.10277,79.55068
"1928",40.396164,79.3225,79.74238
"1929",40.4095,79.656975,80.05568
"1930",40.422836,80.00122,80.389206
"1931",40.436165,80.26978,80.65781
"1932",40.4495,80.40406,80.800514
"1933",40.462837,80.36988,80.77896
"1934",40.476173,80.164795,80.585434
"1935",40.48951,79.81079,80.23658
"1936",40.50284,79.33959,79.75947
"1937",40.516174,78.79515,79.19439
"1938",40.52951,78.2092,78.570786
"1939",40.54284,77.62325,77.92888
"1940",40.556175,77.05684,77.28819
"1941",40.56951,76.52949,76.66887
"1942",40.582848,76.04608,76.07701
"1943",40.596184,75.61639,75.52376
"1944",40.609512,75.228195,74.99858
"1945",40.62285,74.88884,74.51011
"1946",40.636185,74.600746,74.062294
"1947",40.649513,74.356606,73.64943
"1948",40.66285,74.1564,73.27287
"1949",40.676186,74.005035,72.938896
"1950",40.68952,73.90494,72.65146
"1951",40.702858,73.89761,72.45367
"1952",40.716187,74.10269,72.46805
"1953",40.729523,74.71549,72.89656
"1954",40.74286,75.93378,73.94971
"1955",40.756187,77.821014,75.70988
"1956",40.769524,80.26246,78.08323
"1957",40.78286,82.97002,80.79899
"1958",40.796196,85.55306,83.474846
"1959",40.809532,87.63561,85.73093
"1960",40.82286,88.98573,87.31966
"1961",40.836197,89.56924,88.18396
"1962",40.849533,89.47646,88.39023
"1963",40.86286,88.84657,88.05648
"1964",40.876198,87.833374,87.31973
"1965",40.889534,86.60044,86.33159
"1966",40.90287,85.279625,85.21703
"1967",40.916206,83.966125,84.06852
"1968",40.929535,82.72343,82.94976
"1969",40.94287,81.58816,81.8996
"1970",40.956207,80.584724,80.94579
"1971",40.969536,79.744865,80.12421
"1972",40.982872,79.11009,79.48146
"1973",40.99621,78.73899,79.08255
"1974",41.009544,78.66575,78.9699
"1975",41.02288,78.87572,79.138176
"1976",41.03621,79.29809,79.52541
"1977",41.049545,79.823,80.02839
"1978",41.06288,80.33082,80.53068
"1979",41.07621,80.719,80.9292
"1980",41.089546,80.921646,81.15431
"1981",41.102882,80.91188,81.17335
"1982",41.11622,80.70191,80.991875
"1983",41.129555,80.31861,80.63051
"1984",41.142883,79.80347,80.12532
"1985",41.15622,79.202866,79.51858
"1986",41.169556,78.55833,78.84913
"1987",41.182884,77.89914,78.14489
"1988",41.19622,77.25948,77.43958
"1989",41.209557,76.65644,76.7509
"1990",41.222893,76.09979,76.08977
"1991",41.23623,75.59197,75.46007
"1992",41.249557,75.13786,74.86821
"1993",41.262894,74.74235,74.320755
"1994",41.27623,74.39811,73.81222
"1995",41.28956,74.110016,73.34907
"1996",41.302895,73.88052,72.93552
"1997",41.31623,73.74624,72.61
"1998",41.329567,73.82193,72.490265
"1999",41.342903,74.31754,72.792816
"2000",41.35623,75.45525,73.75295
"2001",41.369568,77.332726,75.4884
"2002",41.382904,79.84985,77.92218
"2003",41.396233,82.71122,80.778854
"2004",41.40957,85.50179,83.65415
"2005",41.422905,87.80652,86.130806
"2006",41.43624,89.36416,87.9324
"2007",41.449577,90.108795,88.96967
"2008",41.462906,90.13077,89.30755
"2009",41.476242,89.57168,89.06505
"2010",41.48958,88.59266,88.38515
"2011",41.502907,87.34753,87.40854
"2012",41.516243,85.98764,86.27826
"2013",41.52958,84.62531,85.10304
"2014",41.542915,83.336235,83.9585
"2015",41.55625,82.14969,82.87621
"2016",41.56958,81.08034,81.87404
"2017",41.582916,80.14038,80.96784
"2018",41.596252,79.37133,80.20318
"2019",41.60958,78.82933,79.64153
"2020",41.622917,78.57053,79.34615
"2021",41.636253,78.61692,79.34787
"2022",41.64959,78.93187,79.6196
"2023",41.662926,79.41772,80.07207
"2024",41.676254,79.94995,80.586105
"2025",41.68959,80.411385,81.045975
"2026",41.702927,80.709236,81.35668
"2027",41.716255,80.797134,81.46674
"2028",41.72959,80.66773,81.36225
"2029",41.742928,80.35279,81.06818
"2030",41.756264,79.886475,80.612885
"2031",41.7696,79.3225,80.045364
"2032",41.78293,78.69993,79.40162
"2033",41.796265,78.065155,78.72622
"2034",41.8096,77.44259,78.04319
"2035",41.82293,76.85176,77.372444
"2036",41.836266,76.297554,76.71986
"2037",41.8496,75.78729,76.093895
"2038",41.862938,75.318535,75.49349
"2039",41.876274,74.89372,74.922386
"2040",41.889603,74.51774,74.38683
"2041",41.90294,74.21011,73.90789
"2042",41.916275,74.00992,73.526764
"2043",41.929604,74.056305,73.38596
"2044",41.94294,74.581215,73.725136
"2045",41.956276,75.80682,74.78141
"2046",41.969612,77.79904,76.64259
"2047",41.98295,80.428474,79.20325
"2048",41.996277,83.36797,82.156136
"2049",42.009613,86.185394,85.078804
"2050",42.02295,88.465706,87.55241
"2051",42.036278,89.96475,89.31601
"2052",42.049614,90.64835,90.31101
"2053",42.06295,90.61173,90.607155
"2054",42.076286,90.01114,90.33818
"2055",42.089622,89.01259,89.65248
"2056",42.10295,87.77722,88.69876
"2057",42.116287,86.4564,87.62097
"2058",42.129623,85.155106,86.52144
"2059",42.142952,83.93927,85.4667
"2060",42.15629,82.83818,84.48871
"2061",42.169624,81.849396,83.588615
"2062",42.18296,80.98268,82.77969
"2063",42.196297,80.255135,82.082855
"2064",42.209625,79.71313,81.54882
"2065",42.22296,79.395744,81.22247
"2066",42.236298,79.31518,81.123024
"2067",42.249626,79.45678,81.243225
"2068",42.262962,79.744865,81.514336
"2069",42.2763,80.08667,81.84817
"2070",42.289635,80.38697,82.15118
"2071",42.30297,80.570076,82.346375
"2072",42.3163,80.58961,82.38372
"2073",42.329636,80.430916,82.243454
"2074",42.34297,80.10376,81.92976
"2075",42.3563,79.63744,81.46669
"2076",42.369637,79.080795,80.89871
"2077",42.382973,78.47532,80.26451
"2078",42.39631,77.84787,79.58942
"2079",42.409645,77.22774,78.90203
"2080",42.422974,76.627144,78.214806
"2081",42.43631,76.06073,77.54299
"2082",42.449646,75.53338,76.89254
"2083",42.462975,75.052414,76.271996
"2084",42.47631,74.62028,75.68525
"2085",42.489647,74.24429,75.14115
"2086",42.502983,73.96109,74.678085
"2087",42.51632,73.86832,74.3966
"2088",42.529648,74.19058,74.52725
"2089",42.542984,75.16228,75.317406
"2090",42.55632,76.90791,76.911865
"2091",42.56965,79.34692,79.25424
"2092",42.582985,82.20828,82.0952
"2093",42.59632,85.08186,85.03779
"2094",42.609657,87.535515,87.650246
"2095",42.622993,89.27627,89.62648
"2096",42.636322,90.21622,90.856316
"2097",42.64966,90.423744,91.3831
"2098",42.662994,90.02823,91.31333
"2099",42.676323,89.198135,90.79662
"2100",42.68966,88.09216,89.97809
"2101",42.702995,86.86412,89.00293
"2102",42.71633,85.63119,87.9845
"2103",42.729668,84.47883,87.00811
"2104",42.742996,83.43633,86.105576
"2105",42.756332,82.50126,85.277885
"2106",42.76967,81.66384,84.51863
"2107",42.782997,80.92409,83.83087
"2108",42.796333,80.306404,83.242065
"2109",42.80967,79.85718,82.802414
"2110",42.823006,79.61059,82.55136
"2111",42.83634,79.56664,82.49525
"2112",42.84967,79.68627,82.60133
"2113",42.863007,79.88403,82.78929
"2114",42.876343,80.07202,82.973656
"2115",42.88967,80.17944,83.08333
"2116",42.903008,80.15503,83.06452
"2117",42.916344,79.97925,82.893585
"2118",42.92968,79.65942,82.573105
"2119",42.943016,79.219955,82.123
"2120",42.956345,78.68772,81.56639
"2121",42.96968,78.09201,80.92967
"2122",42.983017,77.467,80.24504
"2123",42.996346,76.83711,79.535995
"2124",43.00968,76.22919,78.82923
"2125",43.023018,75.65301,78.135216
"2126",43.036354,75.125656,77.47202
"2127",43.04969,74.64225,76.836296
"2128",43.06302,74.20523,76.23185
"2129",43.076355,73.81705,75.66258
"2130",43.08969,73.494774,75.147095
"2131",43.10302,73.289696,74.73873
"2132",43.116356,73.34829,74.58763
"2133",43.129692,73.89517,74.92665
"2134",43.14303,75.123215,75.96392
"2135",43.156364,77.0959,77.78421
"2136",43.169693,79.67162,80.26918
"2137",43.18303,82.54032,83.12762
"2138",43.196365,85.28695,85.95363
"2139",43.209694,87.52819,88.360085
"2140",43.22303,89.03212,90.09927
"2141",43.236366,89.75235,91.10176
"2142",43.249702,89.776764,91.43094
"2143",43.26304,89.251854,91.211555
"2144",43.276367,88.34608,90.5949
"2145",43.289703,87.220566,89.73021
"2146",43.30304,86.0267,88.761986
"2147",43.31637,84.8719,87.79552
"2148",43.329704,83.807434,86.88329
"2149",43.34304,82.84062,86.03546
"2150",43.356377,81.96414,85.24775
"2151",43.369713,81.163345,84.50833
"2152",43.38304,80.45045,83.83179
"2153",43.396378,79.85718,83.252594
"2154",43.409714,79.429924,82.82088
"2155",43.423042,79.19554,82.56868
"2156",43.43638,79.151596,82.499596
"2157",43.449715,79.24681,82.5683
"2158",43.46305,79.40795,82.7059
"2159",43.476387,79.54467,82.82412
"2160",43.489716,79.5935,82.85872
"2161",43.50305,79.50561,82.758125
"2162",43.516388,79.273674,82.51074
"2163",43.529716,78.90257,82.11694
"2164",43.543053,78.42405,81.604126
"2165",43.55639,77.872284,81.00311
"2166",43.569725,77.279015,80.34335
"2167",43.58306,76.67109,79.6504
"2168",43.59639,76.070496,78.94578
"2169",43.609726,75.48943,78.24192
"2170",43.623062,74.94499,77.556526
"2171",43.63639,74.44938,76.90295
"2172",43.649727,74.005035,76.28515
"2173",43.663063,73.61196,75.704735
"2174",43.6764,73.27749,75.17064
"2175",43.689735,72.99672,74.679794
"2176",43.703064,72.77455,74.23878
"2177",43.7164,72.6598,73.89823
"2178",43.729736,72.781876,73.790924
"2179",43.743065,73.34829,74.131775
"2180",43.7564,74.56657,75.14219
"2181",43.769737,76.52216,76.92799
"2182",43.783073,79.10033,79.39748
"2183",43.79641,82.01053,82.279564
"2184",43.80974,84.857254,85.18912
"2185",43.823074,87.23277,87.71642
"2186",43.83641,88.88808,89.59775
"2187",43.84974,89.75235,90.73978
"2188",43.863075,89.89639,91.18858
"2189",43.87641,89.45937,91.06083
"2190",43.889748,88.602425,90.49949
"2191",43.903084,87.48913,89.655014
"2192",43.916412,86.28306,88.68298
"2193",43.92975,85.09651,87.69278
"2194",43.943085,84.000305,86.75584
"2195",43.956413,83.00908,85.88962
"2196",43.96975,82.11307,85.08764
"2197",43.983086,81.30251,84.34312
"2198",43.99642,80.5774,83.65871
"2199",44.009758,79.974365,83.073715
"2200",44.023087,79.534904,82.63345
"2201",44.036423,79.28832,82.37234
"2202",44.04976,79.22728,82.289055
"2203",44.063087,79.30297,82.3406
"2204",44.076424,79.43481,82.45065
"2205",44.08976,79.54467,82.542854
"2206",44.103096,79.57641,82.56036
"2207",44.116432,79.48119,82.45191
"2208",44.12976,79.24193,82.196434
"2209",44.143097,78.870834,81.80165
"2210",44.156433,78.38499,81.28052
"2211",44.16976,77.81369,80.65875
"2212",44.183098,77.19356,79.9703
"2213",44.196434,76.55634,79.245384
"2214",44.20977,75.928894,78.51032
"2215",44.223106,75.33318,77.78739
"2216",44.236435,74.78874,77.097115
"2217",44.24977,74.305336,76.45086
"2218",44.263107,73.89029,75.85786
"2219",44.276436,73.5436,75.320244
"2220",44.289772,73.25796,74.83284
"2221",44.30311,73.0309,74.395096
"2222",44.316444,72.850235,73.99665
"2223",44.32978,72.708626,73.631615
"2224",44.34311,72.603645,73.29878
"2225",44.356445,72.535286,72.99928
"2226",44.36978,72.5597,72.79042
"2227",44.38311,72.80629,72.804504
"2228",44.396446,73.497215,73.27063
"2229",44.409782,74.84978,74.41998
"2230",44.42312,76.93965,76.348915
"2231",44.436455,79.63744,78.95107
"2232",44.449783,82.63554,81.937836
"2233",44.46312,85.523766,84.908424
"2234",44.476456,87.90173,87.45901
"2235",44.489784,89.52529,89.3295
"2236",44.50312,90.34562,90.447495
"2237",44.516457,90.440834,90.86601
"2238",44.529793,89.95743,90.708885
"2239",44.54313,89.06386,90.12649
"2240",44.556458,87.938354,89.284225
"2241",44.569794,86.73472,88.32866
"2242",44.58313,85.56283,87.367226
"2243",44.59646,84.49348,86.47171
"2244",44.609795,83.53643,85.65508
"2245",44.62313,82.667274,84.89644
"2246",44.636467,81.87869,84.19121
"2247",44.649803,81.17799,83.54922
"2248",44.66313,80.59205,83.000084
"2249",44.676468,80.15747,82.58401
"2250",44.689804,79.90845,82.339905
"2251",44.703133,79.83765,82.26624
"2252",44.71647,79.8938,82.31732
"2253",44.729805,80.008545,82.42875
"2254",44.74314,80.10376,82.52423
"2255",44.756477,80.113525,82.53724
"2256",44.769806,79.9939,82.42116
"2257",44.783142,79.73266,82.15973
"2258",44.79648,79.33471,81.753426
"2259",44.809807,78.82201,81.21993
"2260",44.823143,78.23117,80.592285
"2261",44.83648,77.593956,79.899796
"2262",44.849815,76.93233,79.16298
"2263",44.86315,76.280464,78.41525
"2264",44.87648,75.665215,77.68377
"2265",44.889816,75.10124,76.98434
"2266",44.903152,74.60563,76.33564
"2267",44.91648,74.1857,75.74714
"2268",44.929817,73.83658,75.216324
"2269",44.943153,73.55825,74.74539
"2270",44.95649,73.340965,74.326805
"2271",44.969826,73.17738,73.95513
"2272",44.983154,73.057755,73.6223
"2273",44.99649,72.97719,73.32479
"2274",45.009827,72.92348,73.05162
"2275",45.023155,72.89662,72.80363
"2276",45.03649,72.92348,72.608505
"2277",45.049828,73.109024,72.572914
"2278",45.063164,73.64858,72.89713
"2279",45.0765,74.78142,73.83149
"2280",45.08983,76.63691,75.5239
"2281",45.103165,79.15648,77.93838
"2282",45.1165,82.08865,80.84419
"2283",45.12983,85.0428,83.86361
"2284",45.143166,87.59655,86.57494
"2285",45.1565,89.44717,88.66295
"2286",45.169838,90.48478,89.99579
"2287",45.183174,90.75578,90.594444
"2288",45.196503,90.39689,90.57167
"2289",45.20984,89.57412,90.07381
"2290",45.223175,88.46082,89.259705
"2291",45.236504,87.22301,88.286285
"2292",45.24984,85.98276,87.27175
"2293",45.263176,84.823074,86.29903
"2294",45.276512,83.76837,85.39504
"2295",45.28985,82.81865,84.56308
"2296",45.303177,81.96414,83.79665
"2297",45.316513,81.21217,83.106064
"2298",45.32985,80.59449,82.52626
"2299",45.343178,80.15015,82.100494
"2300",45.356514,79.91089,81.86593
"2301",45.36985,79.86206,81.814316
"2302",45.383186,79.95972,81.90766
"2303",45.396523,80.130615,82.0773
"2304",45.40985,80.28443,82.2352
"2305",45.423187,80.35279,82.31245
"2306",45.436523,80.28199,82.25267
"2307",45.449852,80.0647,82.04419
"2308",45.46319,79.693596,81.67511
"2309",45.476524,79.19554,81.16748
"2310",45.48986,78.60227,80.54907
"2311",45.503197,77.95285,79.85597
"2312",45.516525,77.27413,79.11328
"2313",45.52986,76.60029,78.354256
"2314",45.543198,75.95331,77.601036
"2315",45.556526,75.3576,76.87887
"2316",45.569862,74.830246,76.20644
"2317",45.5832,74.37614,75.59078
"2318",45.596535,74.00015,75.039055
"2319",45.60987,73.69741,74.54882
"2320",45.6232,73.45571,74.11017
"2321",45.636536,73.270164,73.720116
"2322",45.64987,73.128555,73.3682
"2323",45.6632,73.023575,73.04849
"2324",45.676537,72.94789,72.7548
"2325",45.689873,72.90639,72.49292
"2326",45.70321,72.89906,72.26392
"2327",45.716545,72.97719,72.12015
"2328",45.729874,73.28237,72.20587
"2329",45.74321,74.04654,72.76012
"2330",45.756546,75.47723,74.00476
"2331",45.769875,77.6379,76.0241
"2332",45.78321,80.394295,78.70668
"2333",45.796547,83.424126,81.74883
"2334",45.809883,86.29771,84.729416
"2335",45.82322,88.61707,87.24558
"2336",45.836548,90.15274,89.05054
"2337",45.849884,90.86565,90.08072
"2338",45.86322,90.851,90.405624
"2339",45.87655,90.25773,90.15145
"2340",45.889885,89.249405,89.463684
"2341",45.90322,88.00183,88.50516
"2342",45.916557,86.6688,87.42218
"2343",45.929893,85.36019,86.32197
"2344",45.943222,84.14923,85.27851
"2345",45.95656,83.04814,84.30708
"2346",45.969894,82.054474,83.40867
"2347",45.983223,81.16823,82.586624
"2348",45.99656,80.42359,81.878494
"2349",46.009895,79.86694,81.33508
"2350",46.02323,79.54467,81.00865
"2351",46.036568,79.466545,80.9163
"2352",46.049896,79.60082,81.033905
"2353",46.063232,79.85962,81.28023
"2354",46.07657,80.14282,81.559044
"2355",46.089897,80.35523,81.77592
"2356",46.103233,80.43336,81.86514
"2357",46.11657,80.3357,81.78103
"2358",46.129906,80.0647,81.520515
"2359",46.14324,79.63256,81.0904
"2360",46.15657,79.07103,80.51739
"2361",46.169907,78.41917,79.836494
"2362",46.183243,77.71603,79.083954
"2363",46.19657,77.00069,78.29724
"2364",46.209908,76.30732,77.51015
"2365",46.223244,75.65789,76.74532
"2366",46.23658,75.0695,76.02125
"2367",46.249916,74.55192,75.34959
"2368",46.263245,74.10269,74.73011
"2369",46.27658,73.71938,74.16251
"2370",46.289917,73.392235,73.6391
"2371",46.303246,73.11879,73.159164
"2372",46.31658,72.89174,72.71708
"2373",46.329918,72.71595,72.31916
"2374",46.343254,72.59144,71.967026
"2375",46.35659,72.52308,71.667145
"2376",46.36992,72.552376,71.46278
"2377",46.383255,72.80385,71.48152
"2378",46.39659,73.49966,71.95245
"2379",46.40992,74.86687,73.11653
"2380",46.423256,77.00313,75.092384
"2381",46.436592,79.783936,77.77954
"2382",46.44993,82.896774,80.88563
"2383",46.463264,85.90463,83.98401
"2384",46.476593,88.38026,86.64415
"2385",46.48993,90.055084,88.58086
"2386",46.503265,90.86565,89.70564
"2387",46.516594,90.90471,90.08426
"2388",46.52993,90.32365,89.84397
"2389",46.543266,89.28603,89.128975
"2390",46.556602,87.96765,88.100784
"2391",46.56994,86.52964,86.91176
"2392",46.583267,85.09163,85.677795
"2393",46.596603,83.72686,84.47214
"2394",46.60994,82.46708,83.32882
"2395",46.62327,81.32937,82.2682
"2396",46.636604,80.33082,81.311195
"2397",46.64994,79.517815,80.50853
"2398",46.663277,78.96117,79.93681
"2399",46.676613,78.70725,79.65044
"2400",46.68994,78.765854,79.66864
"2401",46.703278,79.08568,79.9499
"2402",46.716606,79.55932,80.394966
"2403",46.729942,80.059814,80.88169
"2404",46.74328,80.462654,81.2864
"2405",46.756607,80.68482,81.523026
"2406",46.769936,80.69215,81.55175
"2407",46.78327,80.48463,81.36586
"2408",46.796608,80.08911,80.98549
"2409",46.809937,79.54467,80.44383
"2410",46.823265,78.90013,79.785065
"2411",46.8366,78.19455,79.04511
"2412",46.849937,77.467,78.26115
"2413",46.863266,76.74433,77.45932
"2414",46.876595,76.05585,76.6691
"2415",46.88993,75.41375,75.90375
"2416",46.903267,74.830246,75.176926
"2417",46.916595,74.305336,74.49046
"2418",46.929924,73.84146,73.84863
"2419",46.969925,72.816055,72.210014
"2420",46.983253,72.601204,71.77067
"2421",46.99659,72.48646,71.42471
"2422",47.009926,72.57923,71.282684
"2423",47.023254,73.11391,71.585464
"2424",47.036583,74.356606,72.612976
"2425",47.04992,76.44404,74.524055
"2426",47.063255,79.26879,77.237686
"2427",47.076584,82.52323,80.46928
"2428",47.089912,85.74349,83.76839
"2429",47.10325,88.45106,86.65543
"2430",47.116585,90.321205,88.78967
"2431",47.129913,91.27825,90.06926
"2432",47.14324,91.41009,90.55354
"2433",47.156578,90.86809,90.36811
"2434",47.169914,89.82559,89.665245
"2435",47.183243,88.45838,88.60509
"2436",47.19657,86.925156,87.33618
"2437",47.209908,85.35531,85.98274
"2438",47.223244,83.83917,84.63396
"2439",47.236572,82.41337,83.328125
"2440",47.2499,81.10475,82.094925
"2441",47.263237,79.94263,80.96732
"2442",47.276573,78.98802,80.010925
"2443",47.2899,78.32151,79.31279
"2444",47.30323,78.013885,78.95271
"2445",47.316566,78.08713,78.96389
"2446",47.329903,78.48997,79.30695
"2447",47.34323,79.10765,79.87745
"2448",47.35656,79.77417,80.51608
"2449",47.369896,80.34791,81.08276
"2450",47.383232,80.72144,81.46717
"2451",47.39656,80.83864,81.60691
"2452",47.40989,80.70191,81.49639
"2453",47.423225,80.34058,81.157
"2454",47.43656,79.80347,80.63052
"2455",47.44989,79.149155,79.97007
"2456",47.46322,78.42405,79.218376
"2457",47.476555,77.67452,78.4196
"2458",47.48989,76.93233,77.60474
"2459",47.50322,76.22186,76.79841
"2460",47.51655,75.560234,76.018715
"2461",47.529884,74.9572,75.27694
"2462",47.54322,74.41764,74.579796
"2463",47.55655,73.934235,73.92194
"2464",47.569878,73.50942,73.30758
"2465",47.583214,73.13832,72.73365
"2466",47.59655,72.8307,72.21161
"2467",47.60988,72.61341,71.77028
"2468",47.623207,72.620735,71.54677
"2469",47.636543,73.09926,71.79469
"2470",47.64988,74.339516,72.819305
"2471",47.663208,76.48554,74.788445
"2472",47.676537,79.447014,77.64009
"2473",47.689873,82.88457,81.06036
"2474",47.70321,86.30015,84.566086
"2475",47.716537,89.19325,87.65607
"2476",47.729866,91.212326,89.96243
"2477",47.743202,92.27192,91.37241
"2478",47.75654,92.474556,91.95855
"2479",47.769867,91.97894,91.85277
"2480",47.783195,90.95354,91.201706
"2481",47.79653,89.58877,90.17924
"2482",47.809868,88.04578,88.9359
"2483",47.823196,86.46128,87.60283
"2484",47.836525,84.9427,86.28616
"2485",47.84986,83.53643,85.03435
"2486",47.863197,82.25712,83.86555
"2487",47.876526,81.11696,82.79592
"2488",47.889854,80.16235,81.87622
"2489",47.90319,79.449455,81.168396
"2490",47.916527,79.03441,80.736145
"2491",47.929855,78.95384,80.625404
"2492",47.943184,79.183334,80.822205
"2493",47.95652,79.62035,81.2337
"2494",47.969856,80.13794,81.739426
"2495",47.983185,80.604256,82.21005
"2496",47.996513,80.91676,82.54144
"2497",48.00985,81.01442,82.66775
"2498",48.023186,80.87282,82.557846
"2499",48.036514,80.51392,82.22623
"2500",48.049843,79.97681,81.70517
"2501",48.06318,79.31274,81.040375
"2502",48.076515,78.572975,80.27914
"2503",48.089844,77.803925,79.46549
"2504",48.103172,77.03487,78.62781
"2505",48.11651,76.29267,77.79295
"2506",48.129845,75.596855,76.981285
"2507",48.143173,74.9572,76.20403
"2508",48.1565,74.38346,75.47271
"2509",48.169838,73.8732,74.786934
"2510",48.183174,73.42153,74.14381
"2511",48.196503,73.0309,73.5476
"2512",48.20983,72.708626,73.007545
"2513",48.223167,72.49134,72.56241
"2514",48.236504,72.51087,72.34729
"2515",48.249832,73.02846,72.630844
"2516",48.26316,74.32487,73.7094
"2517",48.276497,76.52949,75.73667
"2518",48.289833,79.52514,78.62387
"2519",48.30316,82.97734,82.06123
"2520",48.31649,86.39536,85.572296
"2521",48.329826,89.27383,88.65061
"2522",48.343163,91.283134,90.94973
"2523",48.35649,92.350044,92.36924
"2524",48.36982,92.56733,92.972466
"2525",48.383156,92.09613,92.894
"2526",48.396492,91.11467,92.29054
"2527",48.40982,89.8085,91.33171
"2528",48.42315,88.34608,90.175804
"2529",48.436485,86.869,88.95955
"2530",48.44982,85.46029,87.76549
"2531",48.46315,84.16632,86.64215
"2532",48.47648,82.99199,85.598015
"2533",48.489815,81.94217,84.64169
"2534",48.50315,81.024185,83.7844
"2535",48.51648,80.28199,83.07421
"2536",48.529808,79.764404,82.56544
"2537",48.543144,79.50317,82.29684
"2538",48.55648,79.48852,82.26666
"2539",48.56981,79.67162,82.433784
"2540",48.583138,79.95972,82.71162
"2541",48.596474,80.23804,82.98868
"2542",48.60981,80.41871,83.17679
"2543",48.62314,80.44068,83.211845
"2544",48.636467,80.26978,83.05472
"2545",48.649803,79.91089,82.704254
"2546",48.66314,79.38842,82.179
"2547",48.676468,78.74876,81.520226
"2548",48.689796,78.03342,80.765785
"2549",48.703133,77.281456,79.95237
"2550",48.71647,76.53437,79.12033
"2551",48.729797,75.81659,78.29425
"2552",48.743126,75.15007,77.497
"2553",48.756462,74.53727,76.73264
"2554",48.7698,73.987946,76.01261
"2555",48.783127,73.49966,75.33645
"2556",48.796455,73.0724,74.70606
"2557",48.80979,72.7013,74.11848
"2558",48.823128,72.39857,73.58766
"2559",48.836456,72.17639,73.127945
"2560",48.849785,72.12268,72.82974
"2561",48.86312,72.447395,72.908295
"2562",48.876457,73.42397,73.64885
"2563",48.889786,75.245285,75.26466
"2564",48.903114,77.90402,77.77482
"2565",48.91645,81.15846,80.96376
"2566",48.929787,84.57404,84.41554
"2567",48.943115,87.657585,87.64202
"2568",48.956444,90.01358,90.23732
"2569",48.96978,91.4638,92.000465
"2570",48.983116,92.035095,92.93001
"2571",48.996445,91.8642,93.13521
"2572",49.009773,91.121994,92.76376
"2573",49.02311,89.99405,91.98338
"2574",49.036446,88.65125,90.9529
"2575",49.049774,87.24986,89.82187
"2576",49.063103,85.907074,88.705635
"2577",49.07644,84.6717,87.654854
"2578",49.089775,83.55108,86.68022
"2579",49.103104,82.54276,85.782875
"2580",49.116432,81.636986,84.95656
"2581",49.12977,80.85573,84.226456
"2582",49.143105,80.23804,83.635506
"2583",49.156433,79.83032,83.23523
"2584",49.16976,79.64721,83.046814
"2585",49.183098,79.66186,83.05044
"2586",49.196434,79.801025,83.17904
"2587",49.209763,79.974365,83.34616
"2588",49.22309,80.093994,83.46499
"2589",49.236427,80.096436,83.47037
"2590",49.249763,79.94507,83.322014
"2591",49.263092,79.62524,83.000465
"2592",49.27642,79.15892,82.52244
"2593",49.289757,78.572975,81.91021
"2594",49.303093,77.90158,81.19422
"2595",49.31642,77.18623,80.4133
"2596",49.32975,76.46601,79.60515
"2597",49.343086,75.76532,78.79402
"2598",49.356422,75.11101,78.00738
"2599",49.36975,74.51774,77.26133
"2600",49.38308,73.987946,76.56022
"2601",49.396416,73.52163,75.90603
"2602",49.40975,73.126114,75.30807
"2603",49.42308,72.79408,74.76123
"2604",49.43641,72.52308,74.265045
"2605",49.449745,72.30579,73.8141
"2606",49.46308,72.13489,73.402756
"2607",49.47641,72.02258,73.04466
"2608",49.48974,72.027466,72.80025
"2609",49.503075,72.30335,72.826996
"2610",49.51641,73.109024,73.39215
"2611",49.52974,74.666664,74.73445
"2612",49.543068,77.03975,76.94087
"2613",49.556404,80.0647,79.873314
"2614",49.56974,83.387505,83.19814
"2615",49.58307,86.54185,86.45834
"2616",49.596397,89.10048,89.221405
"2617",49.609734,90.81682,91.22214
"2618",49.62307,91.646904,92.39025
"2619",49.6364,91.69817,92.80549
"2620",49.649727,91.11955,92.59244
"2621",49.663063,90.09415,91.91452
"2622",49.6764,88.80263,90.938446
"2623",49.689728,87.40856,89.81946
"2624",49.703056,86.03891,88.68132
"2625",49.716393,84.76692,87.598045
"2626",49.72973,83.60967,86.58976
"2627",49.743057,82.562294,85.65518
"2628",49.756386,81.62966,84.80262
"2629",49.769722,80.831314,84.0552
"2630",49.78306,80.2063,83.45616
"2631",49.796387,79.801025,83.057335
"2632",49.809715,79.62524,82.87533
"2633",49.82305,79.65453,82.892914
"2634",49.836388,79.818115,83.0457
"2635",49.849716,80.02075,83.24265
"2636",49.863045,80.17456,83.39711
"2637",49.87638,80.20874,83.436745
"2638",49.889717,80.08667,83.3212
"2639",49.903046,79.78882,83.026054
"2640",49.916374,79.327385,82.55802
"2641",49.92971,78.73899,81.94861
"2642",49.943047,78.06027,81.230484
"2643",49.956375,77.330284,80.43988
"2644",49.969704,76.58564,79.61181
"2645",49.98304,75.86542,78.78489
"2646",49.996376,75.191574,77.98184
"2647",50.009705,74.58366,77.22366
"2648",50.023033,74.056305,76.527054
"2649",50.03637,73.61196,75.89697
"2650",50.049706,73.253075,75.33846
"2651",50.063034,72.97475,74.8493
"2652",50.076363,72.7599,74.41492
"2653",50.0897,72.601204,74.02997
"2654",50.103035,72.49622,73.69377
"2655",50.116364,72.42542,73.38847
"2656",50.129692,72.379036,73.10538
"2657",50.14303,72.36439,72.85257
"2658",50.156364,72.410774,72.66034
"2659",50.169693,72.64759,72.65999
"2660",50.18302,73.304344,73.086975
"2661",50.196358,74.62272,74.19611
"2662",50.209694,76.71992,76.125275
"2663",50.223022,79.50317,78.80602
"2664",50.23635,82.67704,81.96437
"2665",50.249687,85.8143,85.18529
"2666",50.263023,88.47547,88.02815
"2667",50.276352,90.36271,90.18025
"2668",50.28968,91.393,91.53438
"2669",50.303017,91.62005,92.11746
"2670",50.316353,91.18547,92.04601
"2671",50.32968,90.267494,91.477585
"2672",50.34301,89.041885,90.57284
"2673",50.356346,87.682,89.495514
"2674",50.369682,86.31968,88.37326
"2675",50.38301,85.0428,87.29387
"2676",50.39634,83.87579,86.28445
"2677",50.409676,82.81865,85.34842
"2678",50.42301,81.87625,84.4941
"2679",50.43634,81.07057,83.747055
"2680",50.44967,80.44312,83.15306
"2681",50.463005,80.042725,82.76651
"2682",50.47634,79.871826,82.59695
"2683",50.48967,79.906006,82.62712
"2684",50.503,80.0647,82.782875
"2685",50.516335,80.255135,82.975334
"2686",50.52967,80.394295,83.12247
"2687",50.543,80.42115,83.161644
"2688",50.556328,80.29664,83.05029
"2689",50.569664,80.0061,82.76903
"2690",50.583,79.56176,82.324875
"2691",50.59633,78.98558,81.735
"2692",50.609657,78.31663,81.03435
"2693",50.622993,77.593956,80.25907
"2694",50.63633,76.85664,79.44657
"2695",50.64966,76.138855,78.630554
"2696",50.662987,75.4699,77.84094
"2697",50.676323,74.87175,77.10123
"2698",50.68966,74.35905,76.42827
"2699",50.702988,73.92935,75.822296
"2700",50.716316,73.582664,75.285904
"2701",50.729652,73.304344,74.807045
"2702",50.74299,73.08949,74.38296
"2703",50.756317,72.92592,74.00343
"2704",50.769646,72.81117,73.667625
"2705",50.78298,72.72816,73.35996
"2706",50.796318,72.672005,73.07657
"2707",50.809647,72.637825,72.813385
"2708",50.822975,72.63294,72.57843
"2709",50.83631,72.72083,72.4361
"2710",50.849648,73.06996,72.557755
"2711",50.862976,73.92447,73.1957
"2712",50.876305,75.494316,74.57569
"2713",50.88964,77.81857,76.75915
"2714",50.902977,80.73365,79.60606
"2715",50.916306,83.89044,82.785774
"2716",50.929634,86.83971,85.85661
"2717",50.94297,89.18593,88.41657
"2718",50.956306,90.70939,90.2271
"2719",50.969635,91.393,91.24538
"2720",50.982964,91.33196,91.540375
"2721",50.9963,90.68986,91.252396
"2722",51.009636,89.64004,90.53664
"2723",51.022964,88.360725,89.55858
"2724",51.036293,87.00572,88.46484
"2725",51.04963,85.697105,87.37515
"2726",51.062965,84.491035,86.347115
"2727",51.076294,83.39971,85.39613
"2728",51.089622,82.41581,84.51847
"2729",51.10296,81.54421,83.72237
"2730",51.116295,80.80202,83.02843
"2731",51.129623,80.235596,82.48707
"2732",51.142952,79.888916,82.14775
"2733",51.15629,79.77173,82.02709
"2734",51.169624,79.84985,82.09808
"2735",51.182953,80.042725,82.28626
"2736",51.19628,80.26246,82.50733
"2737",51.209618,80.41627,82.66934
"2738",51.222954,80.43336,82.69944
"2739",51.236282,80.28199,82.561615
"2740",51.24961,79.957275,82.24571
"2741",51.262947,79.483635,81.77074
"2742",51.276283,78.88548,81.15645
"2743",51.28961,78.2092,80.445335
"2744",51.30294,77.49142,79.67159
"2745",51.316277,76.76387,78.865654
"2746",51.329613,76.05829,78.058945
"2747",51.34294,75.39422,77.2717
"2748",51.35627,74.80095,76.5345
"2749",51.369606,74.288246,75.85933
"2750",51.382942,73.85855,75.251144
"2751",51.39627,73.514305,74.71498
"2752",51.4096,73.25063,74.248634
"2753",51.422935,73.057755,73.84484
"2754",51.43627,72.92592,73.49606
"2755",51.4496,72.84047,73.18955
"2756",51.46293,72.79164,72.91699
"2757",51.476265,72.76723,72.66732
"2758",51.4896,72.7599,72.433975
"2759",51.50293,72.77455,72.222374
"2760",51.51626,72.85268,72.07471
"2761",51.529594,73.128555,72.127235
"2762",51.54293,73.83414,72.61809
"2763",51.55626,75.20622,73.79749
"2764",51.569588,77.349815,75.79128
"2765",51.582924,80.147705,78.506355
"2766",51.59626,83.29229,81.655556
"2767",51.60959,86.348976,84.815125
"2768",51.622917,88.885635,87.550186
"2769",51.636253,90.633705,89.57593
"2770",51.64959,91.51995,90.79448
"2771",51.662918,91.62493,91.25946
"2772",51.676247,91.10246,91.10027
"2773",51.689583,90.125885,90.47065
"2774",51.70292,88.866104,89.527306
"2775",51.716248,87.48669,88.42496
"2776",51.729576,86.11948,87.2917
"2777",51.742912,84.840164,86.20362
"2778",51.75625,83.67315,85.18786
"2779",51.769577,82.62089,84.25038
"2780",51.782906,81.67849,83.389885
"2781",51.79624,80.87526,82.63911
"2782",51.809578,80.255135,82.04633
"2783",51.822906,79.8645,81.66367
"2784",51.836235,79.73266,81.527596
"2785",51.84957,79.835205,81.62179
"2786",51.862907,80.08667,81.8681
"2787",51.876236,80.38209,82.16623
"2788",51.889565,80.621346,82.41743
"2789",51.9029,80.72877,82.544266
"2790",51.916237,80.655525,82.4938
"2791",51.929565,80.396736,82.25549
"2792",51.942894,79.96216,81.83331
"2793",51.95623,79.38354,81.25351
"2794",51.969566,78.70237,80.55308
"2795",51.982895,77.962616,79.77277
"2796",51.996223,77.208206,78.9547
"2797",52.00956,76.47822,78.13747
"2798",52.022896,75.79706,77.34625
"2799",52.036224,75.18425,76.602104
"2800",52.049553,74.649574,75.91694
"2801",52.06289,74.195465,75.29563
"2802",52.076225,73.812164,74.73094
"2803",52.089554,73.494774,74.220184
"2804",52.102882,73.24574,73.76787
"2805",52.11622,73.057755,73.36881
"2806",52.129555,72.92348,73.01759
"2807",52.142883,72.83559,72.708565
"2808",52.15621,72.79408,72.44318
"2809",52.169548,72.78676,72.21067
"2810",52.182884,72.85268,72.05118
"2811",52.196213,73.1017,72.07685
"2812",52.20954,73.75845,72.518036
"2813",52.222878,75.06462,73.62916
"2814",52.236214,77.14229,75.5526
"2815",52.249542,79.906006,78.22701
"2816",52.26287,83.05791,81.37598
"2817",52.276207,86.170746,84.58437
"2818",52.289543,88.800186,87.40665
"2819",52.30287,90.64103,89.52249
"2820",52.3162,91.598076,90.81207
"2821",52.329536,91.74456,91.321
"2822",52.342873,91.21965,91.16311
"2823",52.3562,90.20157,90.49564
"2824",52.36953,88.866104,89.47898
"2825",52.382866,87.38903,88.27898
"2826",52.396202,85.90463,87.02548
"2827",52.40953,84.51057,85.81593
"2828",52.42286,83.23857,84.68489
"2829",52.436195,82.09598,83.6435
"2830",52.44953,81.09743,82.71045
"2831",52.46286,80.26246,81.909775
"2832",52.47619,79.639885,81.2954
"2833",52.489525,79.28588,80.930145
"2834",52.50286,79.2224,80.844345
"2835",52.51619,79.41772,81.015366
"2836",52.52952,79.78638,81.36583
"2837",52.542854,80.20874,81.78152
"2838",52.55619,80.56519,82.14449
"2839",52.56952,80.765396,82.36236
"2840",52.582848,80.75563,82.37651
"2841",52.596184,80.52857,82.173065
"2842",52.60952,80.10132,81.76233
"2843",52.62285,79.517815,81.18199
"2844",52.636177,78.82933,80.47844
"2845",52.649513,78.09445,79.70698
"2846",52.66285,77.349815,78.902794
"2847",52.676178,76.63203,78.10219
"2848",52.689507,75.95819,77.323105
"2849",52.702843,75.34295,76.58156
"2850",52.71618,74.78874,75.88182
"2851",52.729507,74.29557,75.2258
"2852",52.742836,73.86832,74.620285
"2853",52.756172,73.51186,74.07222
"2854",52.76951,73.21889,73.57649
"2855",52.782837,72.98695,73.13265
"2856",52.796165,72.81117,72.73772
"2857",52.8095,72.691536,72.39343
"2858",52.822838,72.64271,72.11621
"2859",52.836166,72.71839,71.961975
"2860",52.849495,73.09682,72.112854
"2861",52.86283,74.03189,72.83221
"2862",52.876167,75.733574,74.34739
"2863",52.889496,78.23117,76.71166
"2864",52.902824,81.32937,79.754585
"2865",52.91616,84.63996,83.10672
"2866",52.929497,87.682,86.293755
"2867",52.942825,90.040436,88.89226
"2868",52.956154,91.50286,90.66845
"2869",52.96949,92.07172,91.59677
"2870",52.982826,91.86664,91.768936
"2871",52.996155,91.06096,91.33409
"2872",53.009483,89.84268,90.46147
"2873",53.02282,88.39002,89.3164
"2874",53.036156,86.86656,88.05513
"2875",53.049484,85.384605,86.78775
"2876",53.062813,84.01007,85.58148
"2877",53.07615,82.75273,84.449455
"2878",53.089485,81.62234,83.40508
"2879",53.102814,80.635994,82.46944
"2880",53.116142,79.84741,81.70073
"2881",53.12948,79.31518,81.16373
"2882",53.142815,79.08568,80.91283
"2883",53.156143,79.151596,80.95017
"2884",53.16947,79.4519,81.22396
"2885",53.182808,79.86694,81.62188
"2886",53.196144,80.274666,82.025444
"2887",53.209473,80.56275,82.32211
"2888",53.2228,80.66041,82.437355
"2889",53.236137,80.54322,82.340805
"2890",53.249474,80.218506,82.033066
"2891",53.262802,79.71313,81.534515
"2892",53.27613,79.078354,80.89078
"2893",53.289467,78.35813,80.141754
"2894",53.302803,77.60372,79.33604
"2895",53.31613,76.85176,78.50919
"2896",53.32946,76.1413,77.70035
"2897",53.342796,75.48211,76.92058
"2898",53.356133,74.88884,76.18613
"2899",53.36946,74.35905,75.49661
"2900",53.38279,73.89761,74.8589
"2901",53.396126,73.50942,74.280014
"2902",53.409462,73.18471,73.75247
"2903",53.42279,72.921036,73.275826
"2904",53.43612,72.71351,72.847084
"2905",53.449455,72.56458,72.47046
"2906",53.46279,72.46693,72.14044
"2907",53.47612,72.4596,71.897705
"2908",53.48945,72.674446,71.87691
"2909",53.502785,73.34829,72.32182
"2910",53.51612,74.73502,73.500694
"2911",53.52945,76.95674,75.557884
"2912",53.542778,79.903564,78.40961
"2913",53.556114,83.250786,81.753815
"2914",53.56945,86.52964,85.134254
"2915",53.58278,89.25918,88.06784
"2916",53.596107,91.13176,90.229774
"2917",53.609444,92.06439,91.51028
"2918",53.62278,92.14496,91.96786
"2919",53.63611,91.52972,91.73215
"2920",53.649437,90.41154,90.97427
"2921",53.662773,88.973526,89.861626
"2922",53.67611,87.398796,88.56732
"2923",53.689438,85.821625,87.22136
"2924",53.702766,84.332344,85.914
"2925",53.716103,82.9749,84.69194
"2926",53.72944,81.75662,83.56663
"2927",53.742767,80.69947,82.56437
"2928",53.756096,79.84985,81.73661
"2929",53.769432,79.26635,81.148415
"2930",53.78277,78.99779,80.856926
"2931",53.796097,79.04906,80.87688
"2932",53.809425,79.36889,81.16699
"2933",53.82276,79.83765,81.61603
"2934",53.836098,80.323494,82.0968
"2935",53.849426,80.71168,82.495094
"2936",53.862755,80.91676,82.72242
"2937",53.87609,80.902115,82.73642
"2938",53.889427,80.66773,82.53023
"2939",53.902756,80.24048,82.12384
"2940",53.916084,79.65453,81.54541
"2941",53.92942,78.958725,80.838806
"2942",53.942757,78.20187,80.049416
"2943",53.956085,77.43282,79.224174
"2944",53.969414,76.6833,78.394424
"2945",53.98275,75.98016,77.58765
"2946",53.996086,75.335625,76.81749
"2947",54.009415,74.76189,76.09799
"2948",54.022743,74.251625,75.42404
"2949",54.049416,73.41421,74.21332
"2950",54.062744,73.07973,73.673035
"2951",54.076073,72.80629,73.18334
"2952",54.08941,72.59876,72.751015
"2953",54.102745,72.49622,72.41719
"2954",54.116074,72.61097,72.29744
"2955",54.129402,73.17006,72.625626
"2956",54.14274,74.43717,73.679306
"2957",54.156075,76.53925,75.60755
"2958",54.169403,79.39086,78.35101
"2959",54.18273,82.686806,81.62792
"2960",54.196068,85.96323,84.988304
"2961",54.209404,88.744026,87.95545
"2962",54.222733,90.68986,90.17453
"2963",54.23606,91.700615,91.51935
"2964",54.249397,91.84955,92.03393
"2965",54.262733,91.28802,91.8427
"2966",54.276062,90.194244,91.10168
"2967",54.28939,88.76601,89.99201
"2968",54.302727,87.1693,88.669235
"2969",54.316063,85.54818,87.272156
"2970",54.32939,83.99298,85.890335
"2971",54.34272,82.55253,84.57466
"2972",54.356056,81.24391,83.34581
"2973",54.369392,80.10376,82.24453
"2974",54.38272,79.18822,81.33223
"2975",54.39605,78.56809,80.68674
"2976",54.409386,78.3093,80.3832
"2977",54.42272,78.416725,80.43779
"2978",54.43605,78.836655,80.80824
"2979",54.44938,79.43481,81.37004
"2980",54.462715,80.06958,81.98715
"2981",54.47605,80.584724,82.50447
"2982",54.48938,80.885025,82.823044
"2983",54.50271,80.92653,82.892204
"2984",54.516045,80.71656,82.71119
"2985",54.52938,80.289314,82.306335
"2986",54.54271,79.69848,81.72454
"2987",54.556038,79.00023,81.01687
"2988",54.569374,78.24582,80.23122
"2989",54.58271,77.471886,79.402466
"2990",54.59604,76.715034,78.56661
"2991",54.609367,75.999695,77.74862
"2992",54.622704,75.34295,76.966866
"2993",54.63604,74.75212,76.23051
"2994",54.64937,74.2272,75.541595
"2995",54.662697,73.77066,74.904655
"2996",54.676033,73.3727,74.312035
"2997",54.68937,73.03578,73.76801
"2998",54.702698,72.77211,73.28671
"2999",54.716026,72.62562,72.91435
"3000",54.729362,72.73304,72.79132
"3001",54.7427,73.35317,73.18436
"3002",54.756027,74.74723,74.370705
"3003",54.769356,77.01289,76.47222
"3004",54.782692,80.01587,79.38185
"3005",54.79603,83.41192,82.7784
"3006",54.809357,86.71519,86.188286
"3007",54.822685,89.45205,89.134995
"3008",54.83602,91.319756,91.29808
"3009",54.849358,92.245056,92.577126
"3010",54.862686,92.32319,93.03792
"3011",54.876015,91.717705,92.817535
"3012",54.88935,90.60685,92.07286
"3013",54.902687,89.181046,90.97852
"3014",54.916016,87.620964,89.70535
"3015",54.929344,86.065765,88.388306
"3016",54.94268,84.59846,87.11055
"3017",54.956017,83.25567,85.91146
"3018",54.969345,82.04959,84.80712
"3019",54.982674,80.990005,83.811584
"3020",54.99601,80.12573,82.97825
"3021",55.009346,79.50561,82.36205
"3022",55.022675,79.18089,82.02189
"3023",55.036003,79.17113,81.98653
"3024",55.04934,79.42748,82.21698
"3025",55.062675,79.852295,82.6239
"3026",55.076004,80.31129,83.07828
"3027",55.089333,80.68726,83.46398
"3028",55.10267,80.89479,83.692986
"3029",55.116005,80.88258,83.70874
"3030",55.129333,80.6482,83.50194
"3031",55.142662,80.21118,83.085175
"3032",55.156,79.61547,82.49606
"3033",55.169334,78.91234,81.780914
"3034",55.182663,78.150604,80.98519
"3035",55.19599,77.37179,80.14858
"3036",55.209328,76.610054,79.30472
"3037",55.222664,75.894714,78.483444
"3038",55.235992,75.23552,77.69596
"3039",55.24932,74.64469,76.956245
"3040",55.262657,74.124664,76.26887
"3041",55.275993,73.66811,75.628716
"3042",55.28932,73.27993,75.04266
"3043",55.30265,72.969864,74.5226
"3044",55.315987,72.781876,74.11492
"3045",55.329323,72.850235,73.95772
"3046",55.34265,73.41909,74.30315
"3047",55.35598,74.73014,75.40855
"3048",55.369316,76.89082,77.40455
"3049",55.382652,79.783936,80.2005
"3050",55.39598,83.09453,83.50434
"3051",55.40931,86.363625,86.87014
"3052",55.422646,89.12489,89.83027
"3053",55.43598,91.073166,92.06369
"3054",55.44931,92.12543,93.46199
"3055",55.46264,92.34272,94.058205
"3056",55.475975,91.8764,93.9776
"3057",55.48931,90.90959,93.38193
"3058",55.50264,89.64004,92.4533
"3059",55.51597,88.23865,91.353165
"3060",55.529305,86.8568,90.228775
"3061",55.54264,85.57748,89.16373
"3062",55.55597,84.42756,88.1881
"3063",55.569298,83.387505,87.28641
"3064",55.582634,82.44511,86.44987
"3065",55.59597,81.60769,85.68886
"3066",55.6093,80.91432,85.04573
"3067",55.622627,80.40894,84.568924
"3068",55.635963,80.13306,84.30582
"3069",55.6493,80.076904,84.25382
"3070",55.66263,80.18677,84.36609
"3071",55.675957,80.377205,84.56236
"3072",55.689293,80.54322,84.740166
"3073",55.70263,80.604256,84.81818
"3074",55.715958,80.50904,84.741844
"3075",55.729286,80.233154,84.481865
"3076",55.742622,79.77417,84.03017
"3077",55.75596,79.17113,83.42007
"3078",55.769287,78.46311,82.68615
"3079",55.782616,77.70138,81.87639
"3080",55.79595,76.927444,81.030624
"3081",55.809288,76.1828,80.189964
"3082",55.822617,75.48699,79.37487
"3083",55.835945,74.85466,78.60151
"3084",55.84928,74.29313,77.87919
"3085",55.862617,73.8024,77.21012
"3086",55.875946,73.38003,76.59408
"3087",55.889275,73.02846,76.03564
"3088",55.90261,72.742805,75.53213
"3089",55.915947,72.54261,75.10515
"3090",55.929276,72.48646,74.81595
"3091",55.942604,72.7306,74.82529
"3092",55.95594,73.50454,75.372055
"3093",55.969276,75.01091,76.675446
"3094",55.982605,77.296104,78.80473
"3095",55.995934,80.20386,81.62799
"3096",56.00927,83.39239,84.82289
"3097",56.022606,86.4271,87.963615
"3098",56.035934,88.90028,90.63764
"3099",56.049263,90.579994,92.59549
"3100",56.0626,91.41741,93.763535
"3101",56.075935,91.50042,94.20334
"3102",56.089264,90.97795,94.04026
"3103",56.102592,90.03067,93.43604
"3104",56.11593,88.849014,92.56785
"3105",56.129265,87.59899,91.59436
"3106",56.142593,86.397804,90.630646
"3107",56.155922,85.3016,89.73437
"3108",56.16926,84.31281,88.911255
"3109",56.182594,83.39483,88.128044
"3110",56.195923,82.52079,87.36009
"3111",56.20925,81.69558,86.613655
"3112",56.222588,80.96803,85.939095
"3113",56.235924,80.38453,85.38584
"3114",56.249252,79.99634,85.00967
"3115",56.26258,79.80835,84.82156
"3116",56.275917,79.77173,84.77895
"3117",56.289253,79.80591,84.806
"3118",56.30258,79.83032,84.82435
"3119",56.31591,79.77661,84.765335
"3120",56.329247,79.59106,84.5728
"3121",56.342583,79.256584,84.22555
"3122",56.35591,78.77074,83.71647
"3123",56.36924,78.16525,83.07257
"3124",56.382576,77.47921,82.32919
"3125",56.395912,76.756546,81.527756
"3126",56.40924,76.02899,80.698845
"3127",56.42257,75.338066,79.88383
"3128",56.435905,74.70573,79.105804
"3129",56.44924,74.13931,78.37395
"3130",56.46257,73.64614,77.69763
"3131",56.4759,73.22865,77.08159
"3132",56.489235,72.87465,76.51598
"3133",56.50257,72.58167,76.00034
"3134",56.5159,72.33997,75.526825
"3135",56.52923,72.16174,75.10922
"3136",56.542564,72.061646,74.764175
"3137",56.5559,72.12512,74.579575
"3138",56.56923,72.52552,74.73389
"3139",56.582558,73.48257,75.45735
"3140",56.595894,75.16228,76.933395
"3141",56.60923,77.5671,79.18704
"3142",56.62256,80.49683,82.04075
"3143",56.635887,83.597466,85.156906
"3144",56.649223,86.43931,88.11117
"3145",56.66256,88.66102,90.5341
"3146",56.675888,90.074615,92.21835
"3147",56.689217,90.67765,93.13622
"3148",56.702553,90.579994,93.372246
"3149",56.71589,89.9501,93.07298
"3150",56.729218,88.973526,92.40735
"3151",56.742546,87.83826,91.552505
"3152",56.755882,86.693214,90.652405
"3153",56.76922,85.628746,89.7971
"3154",56.782547,84.66682,89.01106
"3155",56.795876,83.78058,88.27066
"3156",56.80921,82.92363,87.53185
"3157",56.822548,82.08133,86.780914
"3158",56.835876,81.26833,86.03296
"3159",56.849205,80.54566,85.34992
"3160",56.86254,79.98169,84.803
"3161",56.875877,79.61791,84.43865
"3162",56.889206,79.44457,84.25337
"3163",56.902534,79.40307,84.19451
"3164",56.91587,79.41772,84.190506
"3165",56.929207,79.40551,84.1601
"3166",56.942535,79.30053,84.036545
"3167",56.955864,79.05638,83.77054
"3168",56.9692,78.66575,83.35042
"3169",56.982536,78.1384,82.78137
"3170",56.995865,77.4963,82.0811
"3171",57.009193,76.77852,81.28508
"3172",57.02253,76.03143,80.437325
"3173",57.035866,75.29412,79.576
"3174",57.049194,74.598305,78.73312
"3175",57.062523,73.9733,77.939316
"3176",57.07586,73.43618,77.21387
"3177",57.089195,72.99672,76.56929
"3178",57.102524,72.654915,76.00864
"3179",57.115852,72.40833,75.53252
"3180",57.12919,72.25208,75.13902
"3181",57.142525,72.17395,74.81877
"3182",57.155853,72.1593,74.559555
"3183",57.16918,72.17883,74.33406
"3184",57.182518,72.21301,74.123825
"3185",57.195854,72.24475,73.91222
"3186",57.209183,72.26185,73.686966
"3187",57.22251,72.26673,73.45003
"3188",57.235847,72.30335,73.24498
"3189",57.249184,72.49378,73.194885
"3190",57.262512,73.06996,73.5365
"3191",57.27584,74.27116,74.52113
"3192",57.289177,76.243835,76.31479
"3193",57.302513,78.924545,78.87812
"3194",57.31584,82.04715,81.96712
"3195",57.32917,85.19417,85.17811
"3196",57.342506,87.91882,88.06508
"3197",57.355843,89.89639,90.290115
"3198",57.36917,91.01457,91.71756
"3199",57.3825,91.319756,92.36695
"3200",57.395836,90.96086,92.3618
"3201",57.409172,90.13565,91.87912
"3202",57.4225,89.04677,91.10698
"3203",57.43583,87.87976,90.22269
"3204",57.449165,86.768906,89.35808
"3205",57.4625,85.78256,88.58326
"3206",57.47583,84.90608,87.88748
"3207",57.48916,84.09552,87.23023
"3208",57.502495,83.30694,86.56963
"3209",57.51583,82.54032,85.90636
"3210",57.52916,81.8201,85.26552
"3211",57.54249,81.21706,84.71935
"3212",57.555824,80.782486,84.322815
"3213",57.56916,80.53101,84.095795
"3214",57.58249,80.42115,84.002525
"3215",57.595818,80.39185,83.98639
"3216",57.609154,80.36256,83.96934
"3217",57.62249,80.26734,83.88545
"3218",57.63582,80.05737,83.68384
"3219",57.649147,79.72045,83.34871
"3220",57.662483,79.24437,82.86389
"3221",57.67582,78.65598,82.25189
"3222",57.689148,77.98215,81.53606
"3223",57.702477,77.2546,80.74545
"3224",57.715813,76.507515,79.912575
"3225",57.72915,75.77997,79.07589
"3226",57.742477,75.10124,78.26529
"3227",57.755806,74.493324,77.50429
"3228",57.769142,73.9733,76.81218
"3229",57.78248,73.54604,76.196594
"3230",57.795807,73.21889,75.667755
"3231",57.809135,72.98451,75.22147
"3232",57.82247,72.84535,74.86308
"3233",57.835808,72.79164,74.58579
"3234",57.849136,72.80873,74.377625
"3235",57.862465,72.87953,74.2237
"3236",57.8758,72.97963,74.10129
"3237",57.889137,73.08461,73.986885
"3238",57.902466,73.17738,73.863556
"3239",57.915794,73.233536,73.706505
"3240",57.92913,73.2433,73.50482
"3241",57.942467,73.20424,73.254616
"3242",57.955795,73.131,72.96901
"3243",57.969124,73.05531,72.67867
"3244",57.98246,73.091934,72.498276
"3245",57.995796,73.45571,72.64618
"3246",58.009125,74.424965,73.41093
"3247",58.022453,76.18524,74.99699
"3248",58.03579,78.73411,77.42664
"3249",58.049126,81.83963,80.49261
"3250",58.062454,85.101395,83.81186
"3251",58.075783,88.03357,86.90345
"3252",58.08912,90.25773,89.37866
"3253",58.102455,91.595634,91.037125
"3254",58.115784,92.07416,91.87801
"3255",58.129112,91.825134,92.00631
"3256",58.14245,91.05119,91.601906
"3257",58.155785,89.95499,90.85105
"3258",58.169113,88.72938,89.93654
"3259",58.18244,87.52575,89.00571
"3260",58.195778,86.434425,88.14957
"3261",58.209114,85.46761,87.38383
"3262",58.222443,84.593575,86.68065
"3263",58.23577,83.77814,86.00876
"3264",58.249107,83.00908,85.357765
"3265",58.262444,82.29862,84.74134
"3266",58.275772,81.705345,84.219894
"3267",58.2891,81.27322,83.84106
"3268",58.302437,81.0193,83.62693
"3269",58.315773,80.91188,83.55136
"3270",58.3291,80.89235,83.560326
"3271",58.34243,80.88014,83.576004
"3272",58.355766,80.80934,83.53271
"3273",58.369102,80.62623,83.374886
"3274",58.38243,80.306404,83.07463
"3275",58.39576,79.84497,82.62277
"3276",58.409096,79.25414,82.0271
"3277",58.422432,78.56321,81.31286
"3278",58.43576,77.81857,80.52332
"3279",58.44909,77.051956,79.68854
"3280",58.462425,76.297554,78.84201
"3281",58.47576,75.59441,78.02317
"3282",58.48909,74.9572,77.24828
"3283",58.50242,74.39811,76.53161
"3284",58.515755,73.92203,75.88047
"3285",58.52909,73.53872,75.30723
"3286",58.54242,73.2433,74.8099
"3287",58.555748,73.03334,74.388794
"3288",58.569084,72.91127,74.04902
"3289",58.58242,72.867325,73.783554
"3290",58.59575,72.89662,73.58996
"3291",58.609077,72.98207,73.45343
"3292",58.622414,73.10414,73.35619
"3293",58.63575,73.24574,73.2823
"3294",58.64908,73.38003,73.20552
"3295",58.662407,73.48989,73.10851
"3296",58.675743,73.55581,72.97099
"3297",58.68908,73.565575,72.77938
"3298",58.702408,73.514305,72.52704
"3299",58.715736,73.402,72.21206
"3300",58.729073,73.24574,71.84962
"3301",58.74241,73.0724,71.46521
"3302",58.755737,72.96742,71.143745
"3303",58.769066,73.131,71.087555
"3304",58.782402,73.863434,71.60534
"3305",58.79574,75.421074,72.971214
"3306",58.809067,77.88205,75.2891
"3307",58.822395,81.06081,78.40167
"3308",58.83573,84.559395,81.93341
"3309",58.849068,87.86023,85.376724
"3310",58.862396,90.4921,88.25423
"3311",58.875725,92.20355,90.29356
"3312",58.88906,92.97505,91.44642
"3313",58.902397,92.93355,91.81039
"3314",58.915726,92.26948,91.55049
"3315",58.929054,91.19768,90.862114
"3316",58.94239,89.92081,89.93517
"3317",58.955727,88.60975,88.93414
"3318",58.969055,87.38415,87.9776
"3319",58.982384,86.29038,87.11459
"3320",58.99572,85.32113,86.34191
"3321",59.009056,84.43,85.617065
"3322",59.022385,83.60235,84.92785
"3323",59.035713,82.845505,84.28358
"3324",59.04905,82.20096,83.72795
"3325",59.062386,81.72732,83.32309
"3326",59.075714,81.45632,83.10607
"3327",59.089043,81.37087,83.06613
"3328",59.10238,81.409935,83.14803
"3329",59.115715,81.48806,83.27022
"3330",59.129044,81.51736,83.346016
"3331",59.142372,81.43191,83.30798
"3332",59.15571,81.197525,83.11835
"3333",59.169044,80.799576,82.75782
"3334",59.182373,80.25025,82.23348
"3335",59.1957,79.58373,81.57478
"3336",59.209038,78.836655,80.8147
"3337",59.222374,78.05051,79.992195
"3338",59.235703,77.264366,79.145134
"3339",59.24903,76.50996,78.30524
"3340",59.262367,75.81415,77.50037
"3341",59.275703,75.191574,76.74699
"3342",59.289032,74.65446,76.05961
"3343",59.30236,74.20767,75.44578
"3344",59.315697,73.85123,74.908325
"3345",59.329033,73.585106,74.45006
"3346",59.34236,73.411766,74.076256
"3347",59.35569,73.321434,73.780045
"3348",59.369026,73.306786,73.556694
"3349",59.382362,73.36294,73.40369
"3350",59.39569,73.463036,73.29638
"3351",59.40902,73.58755,73.21661
"3352",59.422356,73.7145,73.14318
"3353",59.43569,73.81705,73.04931
"3354",59.44902,73.882965,72.92201
"3355",59.46235,73.900055,72.74795
"3356",59.475685,73.85611,72.51338
"3357",59.48902,73.74624,72.21152
"3358",59.50235,73.58755,71.8574
"3359",59.51568,73.40688,71.47635
"3360",59.529015,73.3019,71.16534
"3361",59.54235,73.480125,71.13425
"3362",59.55568,74.25895,71.70933
"3363",59.569008,75.88983,73.160805
"3364",59.582344,78.433815,75.57635
"3365",59.59568,81.68093,78.77452
"3366",59.60901,85.21614,82.36226
"3367",59.622337,88.50477,85.81389
"3368",59.635674,91.087814,88.662704
"3369",59.64901,92.71381,90.6352
"3370",59.66234,93.37789,91.69659
"3371",59.675667,93.21675,91.95351
"3372",59.689003,92.42817,91.57795
"3373",59.70234,91.22209,90.760254
"3374",59.715668,89.80362,89.692474
"3375",59.728996,88.35584,88.55106
"3376",59.742332,87.00328,87.459625
"3377",59.75567,85.80698,86.48217
"3378",59.768997,84.7596,85.61626
"3379",59.782326,83.82941,84.8348
"3380",59.795662,82.99199,84.11705
"3381",59.809,82.252235,83.470795
"3382",59.822327,81.64431,82.93325
"3383",59.835655,81.22682,82.56715
"3384",59.84899,81.02663,82.40529
"3385",59.862328,81.02174,82.43249
"3386",59.875656,81.143814,82.58649
"3387",59.888985,81.29519,82.773605
"3388",59.90232,81.38552,82.90441
"3389",59.915657,81.33669,82.89888
"3390",59.928986,81.11452,82.718475
"3391",59.942314,80.71168,82.350464
"3392",59.95565,80.15503,81.816055
"3393",59.968987,79.47631,81.14218
"3394",59.982315,78.71702,80.36652
"3395",59.995644,77.91867,79.52808
"3396",60.00898,77.117874,78.66225
"3397",60.022316,76.33906,77.793365
"3398",60.035645,75.613945,76.95385
"3399",60.048973,74.96452,76.167366
"3400",60.06231,74.40299,75.44848
"3401",60.075645,73.94644,74.817024
"3402",60.088974,73.599754,74.281166
"3403",60.102303,73.35561,73.83702
"3404",60.11564,73.2018,73.47557
"3405",60.128975,73.126114,73.18745
"3406",60.142303,73.111465,72.95799
"3407",60.155632,73.13588,72.76714
"3408",60.16897,73.1725,72.589264
"3409",60.182304,73.20912,72.41253
"3410",60.195633,73.233536,72.22473
"3411",60.20896,73.23598,72.015724
"3412",60.222298,73.22865,71.79703
"3413",60.235634,73.2604,71.61717
"3414",60.248962,73.4728,71.618965
"3415",60.26229,74.11734,72.05953
"3416",60.275627,75.4699,73.228264
"3417",60.288963,77.66476,75.281555
"3418",60.30229,80.59693,78.140755
"3419",60.31562,83.93683,81.499306
"3420",60.328957,87.20592,84.89142
"3421",60.342293,89.915924,87.82661
"3422",60.35562,91.747,89.96756
"3423",60.36895,92.6186,91.20625
"3424",60.382286,92.62348,91.60547
"3425",60.395622,91.93744,91.31391
"3426",60.40895,90.760666,90.510185
"3427",60.42228,89.2958,89.38159
"3428",60.435616,87.73327,88.10956
"3429",60.44895,86.222015,86.839966
"3430",60.46228,84.84993,85.662315
"3431",60.47561,83.64141,84.605354
"3432",60.488945,82.5745,83.65224
"3433",60.50228,81.62722,82.78541
"3434",60.51561,80.8069,82.01594
"3435",60.52894,80.15503,81.38928
"3436",60.542274,79.73266,80.971756
"3437",60.55561,79.57885,80.80959
"3438",60.56894,79.67895,80.89653
"3439",60.582268,79.954834,81.162384
"3440",60.595604,80.29908,81.50522
"3441",60.60894,80.59693,81.812416
"3442",60.62227,80.743416,81.977554
"3443",60.635597,80.68726,81.94463
"3444",60.648933,80.41871,81.697556
"3445",60.66227,79.94507,81.237
"3446",60.6756,79.30297,80.593185
"3447",60.688927,78.54368,79.81211
"3448",60.702263,77.72579,78.948715
"3449",60.7156,76.89082,78.04268
"3450",60.728928,76.07294,77.12763
"3451",60.742256,75.30877,76.240746
"3452",60.755592,74.61295,75.39833
"3453",60.76893,74.00015,74.61719
"3454",60.782257,73.47036,73.8999
"3455",60.795586,73.02602,73.25151
"3456",60.80892,72.66956,72.677124
"3457",60.822258,72.396126,72.17461
"3458",60.835587,72.19348,71.734344
"3459",60.848915,72.05188,71.348785
"3460",60.86225,71.97131,71.01984
"3461",60.875587,71.93469,70.732315
"3462",60.888916,71.93469,70.48027
"3463",60.902245,71.98108,70.27461
"3464",60.91558,72.14465,70.18759
"3465",60.928917,72.601204,70.39867
"3466",60.942245,73.63882,71.20506
"3467",60.955574,75.51385,72.88131
"3468",60.96891,78.2678,75.49507
"3469",60.982246,81.68337,78.856514
"3470",60.995575,85.32357,82.54932
"3471",61.008904,88.64637,86.038475
"3472",61.02224,91.18059,88.842896
"3473",61.035576,92.6894,90.7011
"3474",61.048904,93.18257,91.59082
"3475",61.062233,92.82857,91.64877
"3476",61.07557,91.82025,91.04135
"3477",61.088905,90.372475,89.96296
"3478",61.102234,88.68299,88.59762
"3479",61.115562,86.93492,87.120895
"3480",61.1289,85.25765,85.66034
"3481",61.142235,83.73174,84.29873
"3482",61.155563,82.374306,83.05791
"3483",61.16889,81.18532,81.943115
"3484",61.182228,80.164795,80.95963
"3485",61.195564,79.35668,80.15667
"3486",61.208893,78.82201,79.60189
"3487",61.22222,78.61936,79.362434
"3488",61.235558,78.75365,79.453575
"3489",61.248894,79.1638,79.82478
"3490",61.262222,79.72289,80.35774
"3491",61.27555,80.28687,80.91306
"3492",61.288887,80.72144,81.3566
"3493",61.302223,80.9485,81.6062
"3494",61.31555,80.919205,81.606544
"3495",61.32888,80.63355,81.34962
"3496",61.342216,80.12329,80.85915
"3497",61.355553,79.43725,80.17696
"3498",61.36888,78.63401,79.35614
"3499",61.38221,77.77219,78.45163
"3500",61.395546,76.90547,77.5153
"3501",61.408882,76.068054,76.58118
"3502",61.42221,75.2868,75.67705
"3503",61.43554,74.57145,74.814415
"3504",61.448875,73.92691,74.00024
"3505",61.46221,73.358055,73.2416
"3506",61.47554,72.86244,72.53843
"3507",61.48887,72.44007,71.89301
"3508",61.502205,72.09094,71.30763
"3509",61.51554,71.81262,70.78215
"3510",61.52887,71.60754,70.32121
"3511",61.5422,71.47814,69.92955
"3512",61.555534,71.47082,69.655914
"3513",61.56887,71.74914,69.667694
"3514",61.5822,72.61097,70.27168
"3515",61.595528,74.36393,71.79373
"3516",61.608864,77.10567,74.359344
"3517",61.6222,80.64576,77.80899
"3518",61.63553,84.54475,81.72816
"3519",61.648857,88.21912,85.54455
"3520",61.662193,91.11711,88.69939
"3521",61.67553,92.92622,90.85591
"3522",61.688858,93.63424,91.96787
"3523",61.702187,93.39498,92.154686
"3524",61.715523,92.42817,91.60647
"3525",61.72886,90.948654,90.515335
"3526",61.742188,89.161514,89.07034
"3527",61.755516,87.25231,87.44743
"3528",61.768852,85.37728,85.79904
"3529",61.78219,83.617,84.206795
"3530",61.795517,82.01053,82.713356
"3531",61.808846,80.5774,81.343056
"3532",61.82218,79.33471,80.11841
"3533",61.835518,78.345924,79.10883
"3534",61.848846,77.69894,78.41016
"3535",61.862175,77.471886,78.1112
"3536",61.87551,77.68917,78.24948
"3537",61.888847,78.277565,78.76566
"3538",61.902176,79.09056,79.52483
"3539",61.915504,79.9353,80.341156
"3540",61.92884,80.63355,81.037384
"3541",61.942177,81.06813,81.49176
"3542",61.955505,81.180435,81.63744
"3543",61.968834,80.98268,81.47658
"3544",61.98217,80.51392,81.03853
"3545",61.995506,79.84253,80.383194
"3546",62.008835,79.027084,79.56283
"3547",62.022163,78.133514,78.638855
"3548",62.0355,77.21065,77.65766
"3549",62.048836,76.299995,76.65984
"3550",62.062164,75.42596,75.67018
"3551",62.075493,74.617836,74.719124
"3552",62.08883,73.88785,73.820946
"3553",62.102165,73.2433,72.9854
"3554",62.115494,72.68421,72.215164
"3555",62.128822,72.215454,71.51779
"3556",62.14216,71.82971,70.88878
"3557",62.155495,71.51232,70.31607
"3558",62.168823,71.275505,69.81401
"3559",62.18215,71.18028,69.44615
"3560",62.195488,71.431755,69.42201
"3561",62.208824,72.393684,70.11618
"3562",62.222153,74.390785,71.87558
"3563",62.23548,77.4963,74.80581
"3564",62.248817,81.444115,78.675385
"3565",62.262154,85.69955,82.975945
"3566",62.275482,89.60342,87.05792
"3567",62.28881,92.57954,90.33415
"3568",62.302147,94.34959,92.497314
"3569",62.315483,94.95506,93.551216
"3570",62.32881,94.61326,93.67676
"3571",62.34214,93.55367,93.07384
"3572",62.355476,91.998474,91.94219
"3573",62.368813,90.15274,90.47141
"3574",62.38214,88.19714,88.83309
"3575",62.39547,86.275734,87.16785
"3576",62.408806,84.47883,85.567055
"3577",62.422142,82.845505,84.07369
"3578",62.43547,81.38796,82.70507
"3579",62.4488,80.12573,81.48621
"3580",62.462135,79.11742,80.48183
"3581",62.47547,78.44114,79.77797
"3582",62.4888,78.167694,79.45581
"3583",62.50213,78.314186,79.545044
"3584",62.515465,78.82201,80.00018
"3585",62.5288,79.54467,80.686035
"3586",62.54213,80.30396,81.4311
"3587",62.555458,80.93141,82.06805
"3588",62.568794,81.31228,82.47802
"3589",62.58213,81.38796,82.59471
"3590",62.59546,81.160904,82.411026
"3591",62.608788,80.67017,81.95657
"3592",62.622124,79.97681,81.28415
"3593",62.63546,79.14427,80.45089
"3594",62.64879,78.23605,79.51593
"3595",62.662117,77.298546,78.5233
"3596",62.675453,76.3708,77.51113
"3597",62.68879,75.48455,76.511475
"3598",62.702118,74.6569,75.54272
"3599",62.715446,73.90982,74.62867
"3600",62.728783,73.24086,73.769394
"3601",62.74212,72.65003,72.96735
"3602",62.755447,72.13977,72.2274
"3603",62.768776,71.70519,71.547195
"3604",62.782112,71.35607,70.93886
"3605",62.79545,71.18028,70.49295
"3606",62.808777,71.414665,70.45172
"3607",62.822105,72.430305,71.199066
"3608",62.83544,74.527504,73.05971
"3609",62.848778,77.73556,76.09675
"3610",62.862106,81.75174,80.04217
"3611",62.875435,86.01694,84.36211
"3612",62.88877,89.864655,88.39785
"3613",62.902107,92.74555,91.58702
"3614",62.915436,94.42039,93.66016
"3615",62.928764,94.95506,94.64547
"3616",62.9421,94.56931,94.727066
"3617",62.955437,93.49508,94.10812
"3618",62.968765,91.96185,92.99662
"3619",62.982094,90.18204,91.590614
"3620",62.99543,88.341194,90.06796
"3621",63.008766,86.58091,88.568344
"3622",63.022095,84.981766,87.17485
"3623",63.035423,83.5584,85.907166
"3624",63.04876,82.30106,84.761024
"3625",63.062096,81.19264,83.72451
"3626",63.075424,80.257576,82.82671
"3627",63.088753,79.54467,82.12186
"3628",63.10209,79.11009,81.67305
"3629",63.115425,78.98802,81.52317
"3630",63.128754,79.149155,81.65268
"3631",63.142082,79.50317,81.9801
"3632",63.15542,79.92554,82.38695
"3633",63.168755,80.291756,82.75084
"3634",63.182083,80.499275,82.967476
"3635",63.19541,80.48707,82.97087
"3636",63.208748,80.233154,82.73218
"3637",63.222084,79.74975,82.25606
"3638",63.235413,79.08324,81.581726
"3639",63.24874,78.29221,80.762054
"3640",63.262077,77.42794,79.84441
"3641",63.275414,76.53925,78.87535
"3642",63.288742,75.66033,77.88828
"3643",63.30207,74.810715,76.90305
"3644",63.315407,74.01236,75.942535
"3645",63.328743,73.27505,75.01811
"3646",63.34207,72.61097,74.14388
"3647",63.3554,72.027466,73.32947
"3648",63.368736,71.52209,72.57495
"3649",63.382072,71.09483,71.88277
"3650",63.3954,70.77257,71.28221
"3651",63.40873,70.674904,70.896194
"3652",63.422066,71.07042,71.0003
"3653",63.435402,72.325325,71.97615
"3654",63.44873,74.683754,74.09474
"3655",63.46206,78.08469,77.329544
"3656",63.475395,82.15701,81.34202
"3657",63.48873,86.31724,85.56965
"3658",63.50206,89.92813,89.37795
"3659",63.51539,92.51606,92.27614
"3660",63.528725,93.92966,94.080864
"3661",63.54206,94.28611,94.87262
"3662",63.55539,93.79782,94.83077
"3663",63.568718,92.69184,94.155975
"3664",63.582054,91.18547,93.04623
"3665",63.59539,89.47158,91.681885
"3666",63.60872,87.7235,90.2298
"3667",63.622047,86.063324,88.810974
"3668",63.635384,84.55207,87.4892
"3669",63.64872,83.20195,86.28133
"3670",63.66205,81.99588,85.175316
"3671",63.675377,80.92409,84.16589
"3672",63.688713,80.01343,83.28411
"3673",63.70205,79.32006,82.59116
"3674",63.715378,78.89525,82.1451
"3675",63.728706,78.76097,81.9763
"3676",63.742043,78.887924,82.06454
"3677",63.75538,79.183334,82.325195
"3678",63.768707,79.52514,82.64148
"3679",63.782036,79.79126,82.89276
"3680",63.795372,79.89868,82.99366
"3681",63.80871,79.798584,82.890396
"3682",63.822037,79.46899,82.554504
"3683",63.835365,78.941635,82.01056
"3684",63.8487,78.25803,81.293884
"3685",63.862038,77.46212,80.443535
"3686",63.875366,76.60517,79.50728
"3687",63.888695,75.733574,78.529594
"3688",63.90203,74.87663,77.53933
"3689",63.915367,74.06119,76.56378
"3690",63.928696,73.3019,75.61891
"3691",63.942024,72.61097,74.718666
"3692",63.95536,71.990845,73.86763
"3693",63.968697,71.4464,73.07291
"3694",63.982025,70.975204,72.33441
"3695",63.995354,70.58701,71.6642
"3696",64.00869,70.28184,71.064865
"3697",64.022026,70.098724,70.57806
"3698",64.035355,70.17197,70.34188
"3699",64.04868,70.80919,70.671974
"3700",64.06202,72.34974,71.92531
"3701",64.075356,74.97185,74.30835
"3702",64.088684,78.555885,77.73526
"3703",64.10201,82.69169,81.825935
"3704",64.11535,86.77867,85.99703
"3705",64.128685,90.20401,89.6342
"3706",64.14201,92.55756,92.30663
"3707",64.15534,93.7441,93.8856
"3708",64.16868,93.907684,94.47868
"3709",64.182014,93.260704,94.26632
"3710",64.19534,92.03021,93.450226
"3711",64.20867,90.43595,92.23191
"3712",64.22201,88.67811,90.80019
"3713",64.235344,86.92027,89.31355
"3714",64.24867,85.27718,87.88672
"3715",64.262,83.80255,86.576996
"3716",64.27534,82.493935,85.38721
"3717",64.28867,81.341576,84.31278
"3718",64.302,80.343025,83.356155
"3719",64.31533,79.53002,82.55387
"3720",64.32867,78.95384,81.963005
"3721",64.342,78.660866,81.63734
"3722",64.35533,78.64622,81.58084
"3723",64.36866,78.853745,81.74606
"3724",64.381996,79.17601,82.03251
"3725",64.39533,79.49096,82.32171
"3726",64.40866,79.70092,82.51576
"3727",64.42199,79.73266,82.538155
"3728",64.435326,79.551994,82.34914
"3729",64.44866,79.1638,81.946945
"3730",64.46199,78.59495,81.35196
"3731",64.47532,77.88449,80.597595
"3732",64.488655,77.08125,79.72825
"3733",64.50199,76.23407,78.789856
"3734",64.51532,75.38445,77.822556
"3735",64.52865,74.56168,76.85555
"3736",64.541985,73.78531,75.90923
"3737",64.55532,73.06752,74.99724
"3738",64.56865,72.41566,74.12874
"3739",64.58198,71.83948,73.31555
"3740",64.595314,71.343864,72.564926
"3741",64.60865,70.92638,71.87694
"3742",64.62198,70.58457,71.25159
"3743",64.63531,70.31602,70.6888
"3744",64.64864,70.132904,70.20306
"3745",64.66198,70.11337,69.875175
"3746",64.67531,70.48936,69.9422
"3747",64.68864,71.61242,70.76805
"3748",64.70197,73.763336,72.65686
"3749",64.71531,76.96895,75.66758
"3750",64.72864,80.938736,79.54265
"3751",64.74197,85.1429,83.776146
"3752",64.7553,88.94667,87.74063
"3753",64.76864,91.825134,90.89868
"3754",64.78197,93.54391,92.98699
"3755",64.795296,94.15427,94.0206
"3756",64.80863,93.84665,94.155304
"3757",64.82197,92.85054,93.5919
"3758",64.8353,91.38567,92.52862
"3759",64.848625,89.66445,91.1632
"3760",64.86196,87.87488,89.675644
"3761",64.8753,86.168304,88.215164
"3762",64.888626,84.62043,86.86005
"3763",64.901955,83.24834,85.63234
"3764",64.91529,82.037384,84.522896
"3765",64.92863,80.972916,83.522095
"3766",64.941956,80.07446,82.654045
"3767",64.955284,79.39086,81.97277
"3768",64.96862,78.975815,81.53869
"3769",64.98196,78.84886,81.37973
"3770",64.995285,78.97826,81.47315
"3771",65.00861,79.26879,81.73176
"3772",65.02195,79.60082,82.04094
"3773",65.035286,79.85962,82.28726
"3774",65.048615,79.9646,82.387856
"3775",65.06194,79.871826,82.293976
"3776",65.07528,79.56176,81.979904
"3777",65.088615,79.05638,81.46083
"3778",65.101944,78.38743,80.76239
"3779",65.11527,77.60372,79.92829
"3780",65.12861,76.74433,78.99402
"3781",65.141945,75.862976,78.010925
"3782",65.15527,74.99382,77.01249
"3783",65.1686,74.16617,76.0284
"3784",65.18194,73.39956,75.07948
"3785",65.195274,72.708626,74.18229
"3786",65.2086,72.10559,73.351395
"3787",65.22193,71.58556,72.58467
"3788",65.23527,71.150986,71.887146
"3789",65.248604,70.804306,71.26393
"3790",65.26193,70.53086,70.703125
"3791",65.27526,70.3209,70.19725
"3792",65.2886,70.17929,69.75317
"3793",65.30193,70.132904,69.39988
"3794",65.31526,70.30869,69.26732
"3795",65.32859,70.98253,69.6383
"3796",65.34193,72.51087,70.88484
"3797",65.35526,75.09148,73.231415
"3798",65.36859,78.641335,76.627884
"3799",65.38192,82.78935,80.733444
"3800",65.395256,86.956894,84.98815
"3801",65.40859,90.52628,88.77494
"3802",65.42192,93.05562,91.633224
"3803",65.43525,94.41306,93.39866
"3804",65.448586,94.70603,94.14204
"3805",65.46192,94.13962,94.03519
"3806",65.47525,92.94331,93.28075
"3807",65.48858,91.34417,92.08608
"3808",65.501915,89.55215,90.64857
"3809",65.51525,87.745476,89.1404
"3810",65.52858,86.05356,87.69054
"3811",65.54191,84.53254,86.35869
"3812",65.555244,83.1873,85.15509
"3813",65.56858,82.01053,84.07792
"3814",65.58191,81.00221,83.13243
"3815",65.59524,80.19653,82.35807
"3816",65.608574,79.64233,81.810005
"3817",65.62191,79.37377,81.53027
"3818",65.63524,79.38842,81.52535
"3819",65.64857,79.622795,81.740616
"3820",65.6619,79.96216,82.06819
"3821",65.67524,80.28199,82.38684
"3822",65.68857,80.479744,82.59341
"3823",65.7019,80.48951,82.618164
"3824",65.71523,80.27711,82.42106
"3825",65.72857,79.84253,81.99514
"3826",65.7419,79.2224,81.37009
"3827",65.755226,78.46311,80.5865
"3828",65.76856,77.61593,79.69129
"3829",65.7819,76.72968,78.730545
"3830",65.79523,75.84833,77.746994
"3831",65.808556,74.9987,76.76763
"3832",65.82189,74.195465,75.808105
"3833",65.83523,73.45571,74.88696
"3834",65.84856,72.78676,74.013504
"3835",65.861885,72.19592,73.19726
"3836",65.87522,71.67834,72.43579
"3837",65.88856,71.24376,71.741165
"3838",65.901886,70.87755,71.10132
"3839",65.915215,70.58457,70.52327
"3840",65.92855,70.364845,70.00931
"3841",65.94189,70.2501,69.59346
"3842",65.955215,70.34287,69.381546
"3843",65.968544,70.906845,69.64373
"3844",65.98188,72.27894,70.73166
"3845",65.99522,74.69596,72.907394
"3846",66.008545,78.11154,76.15723
"3847",66.02187,82.17166,80.15833
"3848",66.03521,86.312355,84.36689
"3849",66.048546,89.915924,88.16772
"3850",66.061874,92.508736,91.070404
"3851",66.0752,93.924774,92.87734
"3852",66.08854,94.261696,93.649414
"3853",66.101875,93.73922,93.57262
"3854",66.115204,92.57954,92.842285
"3855",66.12853,91.00481,91.66067
"3856",66.14187,89.215225,90.21499
"3857",66.155205,87.38171,88.66945
"3858",66.16853,85.626305,87.14473
"3859",66.18186,84.01007,85.704315
"3860",66.1952,82.54276,84.36232
"3861",66.208534,81.231705,83.13072
"3862",66.22186,80.09888,82.036385
"3863",66.23519,79.202866,81.14346
"3864",66.24853,78.607155,80.52284
"3865",66.26186,78.3679,80.24006
"3866",66.27519,78.48264,80.3038
"3867",66.28852,78.86595,80.639694
"3868",66.30186,79.38354,81.12184
"3869",66.31519,79.88403,81.60307
"3870",66.32852,80.235596,81.95101
"3871",66.34185,80.35035,82.07313
"3872",66.35519,80.198975,81.9327
"3873",66.36852,79.7937,81.533646
"3874",66.38185,79.18089,80.91439
"3875",66.39518,78.4094,80.1173
"3876",66.408516,77.54513,79.20332
"3877",66.42185,76.64179,78.223274
"3878",66.43518,75.736015,77.212555
"3879",66.44851,74.85466,76.19795
"3880",66.461845,74.02945,75.21195
"3881",66.47518,73.27505,74.27097
"3882",66.48851,72.59632,73.382095
"3883",66.50184,71.99817,72.55258
"3884",66.515175,71.47814,71.7825
"3885",66.52851,71.0338,71.07185
"3886",66.54184,70.66758,70.425446
"3887",66.55517,70.37705,69.84328
"3888",66.568504,70.16464,69.33015
"3889",66.58184,70.05966,68.91781
"3890",66.59517,70.18906,68.736565
"3891",66.6085,70.8336,69.07452
"3892",66.62183,72.35706,70.31152
"3893",66.63517,74.97673,72.69235
"3894",66.6485,78.59983,76.15848
"3895",66.66183,82.828415,80.34331
"3896",66.67516,87.06676,84.67004
"3897",66.6885,90.667885,88.492
"3898",66.70183,93.170364,91.32785
"3899",66.71516,94.45457,93.02363
"3900",66.72849,94.642555,93.66332
"3901",66.74183,93.961395,93.43974
"3902",66.75516,92.65278,92.56742
"3903",66.768486,90.948654,91.2587
"3904",66.78182,89.04677,89.69896
"3905",66.79516,87.12291,88.057816
"3906",66.80849,85.2723,86.429794
"3907",66.821815,83.5584,84.88065
"3908",66.83515,81.988556,83.422005
"3909",66.84849,80.59205,82.08764
"3910",66.86182,79.412834,80.926926
"3911",66.875145,78.53391,80.029655
"3912",66.88848,78.030975,79.4809
"3913",66.90182,77.9382,79.3266
"3914",66.915146,78.22629,79.550255
"3915",66.928474,78.78783,80.056366
"3916",66.94181,79.4519,80.682556
"3917",66.95515,80.05005,81.26358
"3918",66.968475,80.46021,81.67531
"3919",66.981804,80.59693,81.82641
"3920",66.99514,80.43824,81.68637
"3921",67.00848,80.008545,81.27037
"3922",67.021805,79.35424,80.61633
"3923",67.03513,78.538795,79.78071
"3924",67.04847,77.63058,78.82683
"3925",67.061806,76.67841,77.80062
"3926",67.075134,75.733574,76.75198
"3927",67.08846,74.830246,75.71533
"3928",67.1018,73.97818,74.70171
"3929",67.115135,73.19203,73.72739
"3930",67.12846,72.481575,72.804184
"3931",67.14179,71.851685,71.93935
"3932",67.15513,71.29748,71.13051
"3933",67.168465,70.82628,70.38736
"3934",67.18179,70.43809,69.712494
"3935",67.19512,70.12802,69.103615
"3936",67.20846,69.910736,68.57783
"3937",67.221794,69.86435,68.21615
"3938",67.23512,70.203705,68.23876
"3939",67.24845,71.30724,69.03616
"3940",67.26179,73.5021,70.959366
"3941",67.27512,76.84444,74.09865
"3942",67.28845,81.041275,78.19688
"3943",67.30178,85.521324,82.709465
"3944",67.31512,89.59853,86.95921
"3945",67.32845,92.66987,90.330505
"3946",67.34178,94.46189,92.51846
"3947",67.35511,95.03563,93.544136
"3948",67.36845,94.625465,93.603836
"3949",67.38178,93.48531,92.92073
"3950",67.39511,91.84711,91.70394
"3951",67.40844,89.92569,90.15275
"3952",67.421776,87.89197,88.42921
"3953",67.43511,85.88754,86.6714
"3954",67.44844,83.98566,84.9535
"3955",67.46177,82.21805,83.31044
"3956",67.475105,80.61402,81.77573
"3957",67.48844,79.23216,80.413055
"3958",67.50177,78.170135,79.327034
"3959",67.5151,77.5256,78.62531
"3960",67.528435,77.37179,78.39418
"3961",67.54177,77.69405,78.634315
"3962",67.5551,78.38743,79.25563
"3963",67.56843,79.26147,80.07928
"3964",67.581764,80.113525,80.90826
"3965",67.5951,80.7776,81.57588
"3966",67.60843,81.146255,81.968834
"3967",67.62176,81.17799,82.03639
"3968",67.63509,80.88991,81.78512
"3969",67.64843,80.33082,81.25384
"3970",67.66176,79.57397,80.507324
"3971",67.67509,78.68772,79.607765
"3972",67.68842,77.730675,78.60971
"3973",67.70176,76.75899,77.56711
"3974",67.71509,75.80194,76.50878
"3975",67.72842,74.88396,75.45961
"3976",67.74175,74.01724,74.43302
"3977",67.75509,73.214005,73.442825
"3978",67.76842,72.47669,72.493454
"3979",67.781746,71.81995,71.60161
"3980",67.79508,71.24864,70.77467
"3981",67.80842,70.76524,70.01779
"3982",67.82175,70.39658,69.36055
"3983",67.835075,70.24765,68.91151
"3984",67.84841,70.591896,68.95099
"3985",67.86175,71.81995,69.88503
"3986",67.87508,74.212555,72.02202
"3987",67.888405,77.733116,75.361725
"3988",67.90174,82.00809,79.56586
"3989",67.91508,86.41245,84.032974
"3990",67.928406,90.24307,88.06398
"3991",67.941734,92.97017,91.111176
"3992",67.95507,94.40818,92.954506
"3993",67.96841,94.68162,93.6782
"3994",67.981735,94.03708,93.49246
"3995",67.99506,92.72358,92.61762
"3996",68.0084,90.965744,91.2574
"3997",68.021736,88.95888,89.593216
"3998",68.035065,86.85924,87.773544
"3999",68.04839,84.77669,85.90534
"4000",68.06173,82.78203,84.05995
"4001",68.075066,80.92653,82.29139
"4002",68.088394,79.281,80.67481
"4003",68.10172,77.9382,79.30955
"4004",68.11506,77.02754,78.33446
"4005",68.128395,76.65888,77.87291
"4006",68.14172,76.86397,77.97359
"4007",68.15505,77.56466,78.57628
"4008",68.16839,78.58518,79.5207
"4009",68.181725,79.68627,80.577576
"4010",68.19505,80.64332,81.52482
"4011",68.20838,81.30251,82.20412
"4012",68.22172,81.5906,82.532906
"4013",68.235054,81.51003,82.502045
"4014",68.24838,81.112076,82.151276
"4015",68.26171,80.462654,81.536606
"4016",68.27505,79.635,80.72341
"4017",68.28838,78.695045,79.77205
"4018",68.30171,77.7087,78.74493
"4019",68.31504,76.717476,77.6821
"4020",68.32838,75.76532,76.627365
"4021",68.34171,74.87175,75.60146
"4022",68.35504,74.04654,74.616
"4023",68.36837,73.29946,73.68288
"4024",68.38171,72.63294,72.80697
"4025",68.39504,72.042114,71.985916
"4026",68.40837,71.536736,71.23186
"4027",68.4217,71.13878,70.56943
"4028",68.435036,70.95323,70.106964
"4029",68.44837,71.26574,70.136765
"4030",68.4617,72.47669,71.07477
"4031",68.47503,74.861984,73.22496
"4032",68.488365,78.38743,76.58984
"4033",68.5017,82.669716,80.82174
"4034",68.51503,87.09117,85.32662
"4035",68.52836,90.951096,89.40814
"4036",68.541695,93.72457,92.52384
"4037",68.55503,95.2285,94.456665
"4038",68.56836,95.58251,95.28657
"4039",68.58169,95.02586,95.21687
"4040",68.595024,93.79782,94.45839
"4041",68.60836,92.1181,93.209854
"4042",68.62169,90.1918,91.66225
"4043",68.63502,88.182495,89.971436
"4044",68.64835,86.21225,88.2569
"4045",68.66169,84.35432,86.593094
"4046",68.67502,82.64774,85.02259
"4047",68.68835,81.12428,83.58187
"4048",68.70168,79.852295,82.34502
"4049",68.71502,78.92699,81.41509
"4050",68.72835,78.43626,80.89083
"4051",68.74168,78.41428,80.81999
"4052",68.75501,78.81468,81.17084
"4053",68.76835,79.50805,81.82716
"4054",68.78168,80.308846,82.61259
"4055",68.795006,81.024185,83.33758
"4056",68.80834,81.514915,83.86031
"4057",68.82168,81.705345,84.09808
"4058",68.83501,81.57595,84.02198
"4059",68.848335,81.15358,83.64886
"4060",68.86167,80.48951,83.020836
"4061",68.87501,79.65209,82.198715
"4062",68.888336,78.70237,81.23812
"4063",68.901665,77.70138,80.19658
"4064",68.915,76.700386,79.12376
"4065",68.92834,75.73113,78.05139
"4066",68.941666,74.82536,77.01222
"4067",68.954994,74.002594,76.02775
"4068",68.96833,73.270164,75.1079
"4069",68.98167,72.62318,74.25061
"4070",68.994995,72.059204,73.456116
"4071",69.00832,71.59045,72.73921
"4072",69.02166,71.255974,72.14194
"4073",69.034996,71.22911,71.84183
"4074",69.048325,71.834595,72.17322
"4075",69.06165,73.411766,73.495224
"4076",69.07499,76.104675,75.982254
"4077",69.088326,79.74975,79.5056
"4078",69.101654,83.90021,83.64824
"4079",69.11498,87.940796,87.81071
"4080",69.12832,91.26116,91.37923
"4081",69.141655,93.4902,93.960175
"4082",69.15498,94.56443,95.45598
"4083",69.16831,94.63279,95.97948
"4084",69.18165,93.910126,95.71409
"4085",69.194984,92.62348,94.86214
"4086",69.20831,90.9926,93.62574
"4087",69.22164,89.21278,92.189445
"4088",69.23498,87.447624,90.71219
"4089",69.248314,85.79233,89.28963
"4090",69.26164,84.283516,87.96182
"4091",69.27497,82.92119,86.73335
"4092",69.28831,81.71023,85.61368
"4093",69.30164,80.68238,84.639275
"4094",69.31497,79.888916,83.867134
"4095",69.3283,79.39086,83.36561
"4096",69.34164,79.219955,83.17567
"4097",69.35497,79.34203,83.27337
"4098",69.3683,79.66674,83.577515
"4099",69.38163,80.0647,83.96506
"4100",69.394966,80.39918,84.30156
"4101",69.4083,80.57496,84.489815
"4102",69.42163,80.52857,84.461395
"4103",69.43496,80.24536,84.1947
"4104",69.448296,79.73022,83.687225
"4105",69.46163,79.04173,82.99031
"4106",69.47496,78.22629,82.14492
"4107",69.48829,77.34005,81.203255
"4108",69.501625,76.419624,80.19971
"4109",69.51496,75.508965,79.17716
"4110",69.52829,74.632484,78.16034
"4111",69.54162,73.812164,77.17229
"4112",69.554955,73.06264,76.22939
"4113",69.56829,72.396126,75.34609
"4114",69.58162,71.81262,74.52496
"4115",69.59495,71.31457,73.77106
"4116",69.608284,70.91173,73.0968
"4117",69.62162,70.6627,72.56377
"4118",69.63495,70.75548,72.36475
"4119",69.64828,71.50744,72.82782
"4120",69.66161,73.214005,74.269
"4121",69.67495,75.965515,76.80845
"4122",69.68828,79.5642,80.28106
"4123",69.70161,83.55352,84.25676
"4124",69.71494,87.35241,88.166695
"4125",69.72828,90.41154,91.45558
"4126",69.74161,92.4184,93.78781
"4127",69.75494,93.34615,95.10364
"4128",69.76827,93.34615,95.520706
"4129",69.78161,92.61616,95.20778
"4130",69.79494,91.37347,94.359344
"4131",69.808266,89.830475,93.171776
"4132",69.8216,88.17761,91.82612
"4133",69.83494,86.56138,90.46544
"4134",69.84827,85.06477,89.173874
"4135",69.861595,83.70977,87.97714
"4136",69.87493,82.48905,86.87235
"4137",69.88827,81.38796,85.849045
"4138",69.901596,80.42603,84.93049
"4139",69.914925,79.65209,84.16986
"4140",69.92826,79.12474,83.63164
"4141",69.9416,78.873276,83.35282
"4142",69.954926,78.8806,83.324936
"4143",69.968254,79.05882,83.46818
"4144",69.98159,79.30541,83.685356
"4145",69.99493,79.50805,83.86629
"4146",70.008255,79.57885,83.921715
"4147",70.02158,79.466545,83.79625
"4148",70.03492,79.149155,83.46219
"4149",70.048256,78.63401,82.920456
"4150",70.061584,77.95773,82.20149
"4151",70.07491,77.16426,81.3442
"4152",70.08825,76.30732,80.39864
"4153",70.101585,75.440605,79.416534
"4154",70.114914,74.59342,78.42687
"4155",70.12824,73.797516,77.46201
"4156",70.14158,73.074844,76.54552
"4157",70.154915,72.42054,75.674805
"4158",70.16824,71.83948,74.85689
"4159",70.18157,71.33166,74.094055
"4160",70.19491,70.89952,73.39104
"4161",70.208244,70.538185,72.745316
"4162",70.22157,70.259865,72.17131
"4163",70.2349,70.0914,71.69846
"4164",70.24824,70.14511,71.44253
"4165",70.26157,70.657814,71.64726
"4166",70.2749,71.93469,72.632195
"4167",70.28823,74.175934,74.6214
"4168",70.30157,77.33517,77.59863
"4169",70.3149,81.10231,81.2825
"4170",70.32823,84.97444,85.18908
"4171",70.34156,88.39246,88.76255
"4172",70.3549,90.9218,91.55415
"4173",70.36823,92.39643,93.370094
"4174",70.38156,92.88228,94.24333
"4175",70.39489,92.542915,94.30654
"4176",70.408226,91.58831,93.743904
"4177",70.42156,90.23575,92.75348
"4178",70.43489,88.687874,91.525475
"4179",70.44822,87.12047,90.22957
"4180",70.461555,85.64828,88.97989
"4181",70.47489,84.30793,87.81605
"4182",70.48822,83.104294,86.74703
"4183",70.50155,82.01053,85.750275
"4184",70.514885,81.02663,84.8292
"4185",70.52822,80.17944,84.0141
"4186",70.54155,79.53246,83.37273
