"","Time..s.","PPG.trace","Preprocessed.PPG"
"59685",810.3336,76.93721,143.29189
"59686",810.3469,77.120316,143.37927
"59687",810.3602,77.67452,143.84349
"59688",810.37354,78.692604,144.7889
"59689",810.38684,80.13306,146.18849
"59690",810.40015,81.79813,147.85773
"59691",810.41345,83.39971,149.5155
"59692",810.42676,84.64973,150.87177
"59693",810.44006,85.35775,151.7251
"59694",810.45337,85.50179,152.03658
"59695",810.4667,85.17708,151.88379
"59696",810.48,84.5301,151.39859
"59697",810.4933,83.69512,150.70518
"59698",810.5066,82.78203,149.90756
"59699",810.5199,81.866486,149.07896
"59700",810.5332,81.00221,148.27303
"59701",810.5465,80.21362,147.51576
"59702",810.5598,79.51049,146.8193
"59703",810.5731,78.90013,146.19365
"59704",810.5864,78.416725,145.67587
"59705",810.59973,78.101776,145.31145
"59706",810.61304,77.99924,145.14958
"59707",810.62634,78.12863,145.21645
"59708",810.63965,78.47288,145.50221
"59709",810.65295,78.95384,145.93546
"59710",810.66626,79.4641,146.41302
"59711",810.67957,79.90845,146.84062
"59712",810.6929,80.20874,147.13806
"59713",810.7062,80.33326,147.2691
"59714",810.7195,80.291756,147.23802
"59715",810.7328,80.11597,147.07135
"59716",810.7461,79.84985,146.80887
"59717",810.7594,79.52758,146.4819
"59718",810.7727,79.17601,146.11557
"59719",810.786,78.81468,145.72849
"59720",810.7993,78.46311,145.33987
"59721",810.8126,78.12619,144.95493
"59722",810.8259,77.821014,144.59119
"59723",810.83923,77.55245,144.25453
"59724",810.85254,77.32052,143.9461
"59725",810.86584,77.120316,143.66217
"59726",810.87915,76.946976,143.39883
"59727",810.89246,76.83467,143.19112
"59728",810.90576,76.88838,143.1459
"59729",810.91907,77.2839,143.44418
"59730",810.9324,78.170135,144.24554
"59731",810.9457,79.56664,145.58487
"59732",810.959,81.324486,147.32916
"59733",810.9723,83.160446,149.20651
"59734",810.9856,84.74738,150.89221
"59735",810.9989,85.824066,152.11725
"59736",811.0122,86.28306,152.75824
"59737",811.0255,86.19272,152.86424
"59738",811.0388,85.697105,152.56215
"59739",811.0521,84.945145,151.98822
"59740",811.0654,84.06622,151.26384
"59741",811.07874,83.15312,150.47781
"59742",811.09204,82.27421,149.69743
"59743",811.10535,81.47341,148.96771
"59744",811.11865,80.765396,148.30574
"59745",811.13196,80.15015,147.71442
"59746",811.14526,79.62768,147.19664
"59747",811.15857,79.2224,146.77972
"59748",811.1719,78.95628,146.4893
"59749",811.1852,78.86107,146.36147
"59750",811.1985,78.95384,146.41864
"59751",811.2118,79.21019,146.64229
"59752",811.2251,79.5642,146.97162
"59753",811.2384,79.92798,147.32178
"59754",811.2517,80.22095,147.61249
"59755",811.265,80.38941,147.78786
"59756",811.2783,80.40894,147.81956
"59757",811.2916,80.289314,147.71272
"59758",811.30493,80.059814,147.49226
"59759",811.31824,79.75952,147.19385
"59760",811.33154,79.4226,146.84941
"59761",811.34485,79.07591,146.48468
"59762",811.35815,78.729225,146.10912
"59763",811.37146,78.40208,145.74225
"59764",811.38477,78.09689,145.38713
"59765",811.3981,77.823456,145.05421
"59766",811.4114,77.57931,144.74205
"59767",811.4247,77.37179,144.45888
"59768",811.438,77.19844,144.2034
"59769",811.4513,77.051956,143.96936
"59770",811.4646,76.9543,143.77957
"59771",811.4779,76.995804,143.72589
"59772",811.4912,77.33517,143.97137
"59773",811.5045,78.116425,144.66936
"59774",811.5178,79.37133,145.8654
"59775",811.5311,80.98268,147.4571
"59776",811.54443,82.70634,149.21147
"59777",811.55774,84.2298,150.8195
"59778",811.57104,85.296715,152.0186
"59779",811.58435,85.79233,152.67973
"59780",811.59766,85.76059,152.82901
"59781",811.61096,85.32357,152.572
"59782",811.62427,84.627754,152.04256
"59783",811.6376,83.792786,151.3522
"59784",811.6509,82.91875,150.5967
"59785",811.6642,82.07889,149.84805
"59786",811.6775,81.31472,149.14885
"59787",811.6908,80.64576,148.52098
"59788",811.7041,80.07446,147.96986
"59789",811.7174,79.5935,147.49123
"59790",811.7307,79.21263,147.09766
"59791",811.744,78.96605,146.82646
"59792",811.7573,78.870834,146.69893
"59793",811.7706,78.941635,146.73444
"59794",811.78394,79.15648,146.9162
"59795",811.79724,79.45922,147.19258
"59796",811.81055,79.766846,147.4833
"59797",811.82385,80.01587,147.72504
"59798",811.83716,80.15503,147.86469
"59799",811.85046,80.16968,147.88419
"59800",811.8638,80.062256,147.78207
"59801",811.8771,79.852295,147.57407
"59802",811.8904,79.57397,147.29112
"59803",811.9037,79.26147,146.9653
"59804",811.917,78.93675,146.61751
"59805",811.9303,78.6218,146.26933
"59806",811.9436,78.32395,145.9284
"59807",811.9569,78.05295,145.60503
"59808",811.9702,77.80881,145.30003
"59809",811.9835,77.58907,145.01183
"59810",811.9968,77.39376,144.74117
"59811",812.01013,77.222855,144.48882
"59812",812.02344,77.07881,144.25798
"59813",812.03674,76.961624,144.0495
"59814",812.05005,76.91524,143.90816
"59815",812.06335,77.051956,143.94847
"59816",812.07666,77.53292,144.33731
"59817",812.08997,78.46311,145.1904
"59818",812.1033,79.82056,146.49982
"59819",812.1166,81.45388,148.12753
"59820",812.1299,83.09697,149.81606
"59821",812.1432,84.45197,151.26784
"59822",812.1565,85.30404,152.25903
"59823",812.1698,85.59457,152.71532
"59824",812.1831,85.40902,152.7046
"59825",812.1964,84.874344,152.33896
"59826",812.2097,84.12726,151.7442
"59827",812.223,83.29229,151.03821
"59828",812.2363,82.459755,150.30856
"59829",812.24963,81.68093,149.60661
"59830",812.26294,80.98512,148.96333
"59831",812.27625,80.38453,148.39352
"59832",812.28955,79.87427,147.89528
"59833",812.30286,79.4519,147.46898
"59834",812.31616,79.14183,147.14178
"59835",812.32947,78.96605,146.93918
"59836",812.3428,78.94408,146.88489
"59837",812.3561,79.07347,146.98128
"59838",812.3694,79.31518,147.19403
"59839",812.3827,79.60815,147.46559
"59840",812.396,79.87671,147.72191
"59841",812.4093,80.0647,147.90604
"59842",812.4226,80.1355,147.97885
"59843",812.4359,80.08911,147.9367
"59844",812.4492,79.93042,147.78079
"59845",812.4625,79.68871,147.53691
"59846",812.4758,79.398186,147.23665
"59847",812.48914,79.09056,146.91022
"59848",812.50244,78.785385,146.57661
"59849",812.51575,78.49729,146.25056
"59850",812.52905,78.23361,145.93993
"59851",812.54236,77.99924,145.65034
"59852",812.55566,77.789276,145.37785
"59853",812.569,77.60128,145.12077
"59854",812.5823,77.435265,144.87979
"59855",812.5956,77.28878,144.65315
"59856",812.6089,77.15938,144.43903
"59857",812.6222,77.06416,144.25504
"59858",812.6355,77.04463,144.14375
"59859",812.6488,77.22041,144.22717
"59860",812.6621,77.74532,144.66522
"59861",812.6754,78.709694,145.55913
"59862",812.6887,80.08179,146.8909
"59863",812.702,81.68337,148.49504
"59864",812.71533,83.25323,150.11751
"59865",812.72864,84.51301,151.47896
"59866",812.74194,85.26742,152.3744
"59867",812.75525,85.48226,152.75386
"59868",812.76855,85.23567,152.67859
"59869",812.78186,84.66682,152.27335
"59870",812.79517,83.912415,151.66478
"59871",812.8085,83.08476,150.9594
"59872",812.8218,82.27177,150.2428
"59873",812.8351,81.529564,149.5716
"59874",812.8484,80.88014,148.96997
"59875",812.8617,80.32105,148.43839
"59876",812.875,79.84253,147.9699
"59877",812.8883,79.449455,147.5719
"59878",812.9016,79.166245,147.27148
"59879",812.9149,79.0222,147.10138
"59880",812.9282,79.03441,147.08302
"59881",812.9415,79.19798,147.21642
"59882",812.95483,79.46166,147.45503
"59883",812.96814,79.75952,147.73607
"59884",812.98145,80.01831,147.98734
"59885",812.99475,80.184326,148.15393
"59886",813.00806,80.22339,148.19876
"59887",813.02136,80.14038,148.12274
"59888",813.03467,79.957275,147.94403
"59889",813.048,79.69604,147.68146
"59890",813.0613,79.395744,147.37166
"59891",813.0746,79.080795,147.03783
"59892",813.0879,78.768295,146.6966
"59893",813.1012,78.47288,146.36269
"59894",813.1145,78.2092,146.05128
"59895",813.1278,77.97238,145.7585
"59896",813.1411,77.76486,145.48761
"59897",813.1544,77.58663,145.23953
"59898",813.1677,77.437706,145.01518
"59899",813.181,77.313194,144.8106
"59900",813.19434,77.205765,144.6192
"59901",813.20764,77.120316,144.44643
"59902",813.22095,77.07149,144.3076
"59903",813.23425,77.13985,144.28444
"59904",813.24756,77.46212,144.51733
"59905",813.26086,78.167694,145.1436
"59906",813.2742,79.28588,146.20453
"59907",813.2875,80.73121,147.62753
"59908",813.3008,82.286415,149.2056
"59909",813.3141,83.67559,150.66623
"59910",813.3274,84.65461,151.76012
"59911",813.3407,85.12581,152.37677
"59912",813.354,85.10628,152.51743
"59913",813.3673,84.70588,152.2766
"59914",813.3806,84.051575,151.76935
"59915",813.3939,83.26299,151.10738
"59916",813.4072,82.4329,150.37926
"59917",813.42053,81.62966,149.65205
"59918",813.43384,80.89479,148.96811
"59919",813.44714,80.25025,148.35153
"59920",813.46045,79.693596,147.8027
"59921",813.47375,79.23216,147.3317
"59922",813.48706,78.88304,146.95857
"59923",813.50037,78.677956,146.71858
"59924",813.5137,78.643776,146.64308
"59925",813.527,78.78783,146.74475
"59926",813.5403,79.07103,146.99007
"59927",813.5536,79.42748,147.31749
"59928",813.5669,79.77173,147.64384
"59929",813.5802,80.03052,147.89551
"59930",813.5935,80.16235,148.02829
"59931",813.6068,80.15747,148.02847
"59932",813.6201,80.03052,147.90643
"59933",813.6334,79.80591,147.68277
"59934",813.6467,79.52514,147.39594
"59935",813.66003,79.21507,147.07103
"59936",813.67334,78.89769,146.72911
"59937",813.68665,78.59251,146.38948
"59938",813.69995,78.311745,146.06473
"59939",813.71326,78.06027,145.7605
"59940",813.72656,77.838104,145.4777
"59941",813.73987,77.642784,145.21483
"59942",813.7532,77.47433,144.9727
"59943",813.7665,77.32784,144.74728
"59944",813.7798,77.20088,144.53682
"59945",813.7931,77.09102,144.33948
"59946",813.8064,77.00557,144.16312
"59947",813.8197,76.99092,144.05489
"59948",813.833,77.16914,144.13907
"59949",813.8463,77.67696,144.55843
"59950",813.8596,78.607155,145.41602
"59951",813.8729,79.91821,146.68355
"59952",813.8862,81.446556,148.20934
"59953",813.89954,82.930954,149.73894
"59954",813.91284,84.11017,151.00975
"59955",813.92615,84.79866,151.82669
"59956",813.93945,84.97444,152.15244
"59957",813.95276,84.715645,152.04909
"59958",813.96606,84.159,151.6398
"59959",813.9794,83.421684,151.03246
"59960",813.9927,82.60868,150.32639
"59961",814.006,81.78836,149.58759
"59962",814.0193,81.01686,148.87198
"59963",814.0326,80.31861,148.2055
"59964",814.0459,79.70336,147.60022
"59965",814.0592,79.183334,147.07092
"59966",814.0725,78.77562,146.63768
"59967",814.0858,78.51194,146.33574
"59968",814.0991,78.41917,146.19646
"59969",814.1124,78.51438,146.24226
"59970",814.12573,78.78294,146.4644
"59971",814.13904,79.17113,146.81454
"59972",814.15234,79.59106,147.20857
"59973",814.16565,79.957275,147.56201
"59974",814.17896,80.2063,147.8097
"59975",814.19226,80.31373,147.92357
"59976",814.20557,80.272224,147.89188
"59977",814.2189,80.10864,147.7368
"59978",814.2322,79.86206,147.49362
"59979",814.2455,79.571526,147.19878
"59980",814.2588,79.26147,146.87532
"59981",814.2721,78.9514,146.54218
"59982",814.2854,78.65354,146.21155
"59983",814.2987,78.380104,145.89603
"59984",814.312,78.133514,145.59882
"59985",814.3253,77.91623,145.3232
"59986",814.3386,77.72823,145.07008
"59987",814.3519,77.574425,144.84528
"59988",814.36523,77.437706,144.63275
"59989",814.37854,77.31808,144.43304
"59990",814.39185,77.22774,144.2589
"59991",814.40515,77.21797,144.16249
"59992",814.41846,77.420616,144.2782
"59993",814.43176,77.98215,144.75912
"59994",814.44507,78.975815,145.68973
"59995",814.4584,80.35035,147.03226
"59996",814.4717,81.92508,148.61794
"59997",814.485,83.43633,150.18935
"59998",814.4983,84.610664,151.47107
"59999",814.5116,85.28451,152.289
"60000",814.5249,85.43832,152.60796
"60001",814.5382,85.16731,152.5069
"60002",814.5515,84.59846,152.09952
"60003",814.5648,83.85626,151.50102
"60004",814.5781,83.04814,150.81342
"60005",814.59143,82.24246,150.103
"60006",814.60474,81.48806,149.41867
"60007",814.61804,80.814224,148.79134
"60008",814.63135,80.22583,148.2284
"60009",814.64465,79.71801,147.72763
"60010",814.65796,79.30785,147.30865
"60011",814.67126,79.012436,146.99161
"60012",814.6846,78.870834,146.81914
"60013",814.6979,78.90013,146.81314
"60014",814.7112,79.10277,146.9814
"60015",814.7245,79.42504,147.27563
"60016",814.7378,79.79614,147.62877
"60017",814.7511,80.130615,147.95688
"60018",814.7644,80.35767,148.18802
"60019",814.7777,80.44312,148.28465
"60020",814.791,80.38209,148.23747
"60021",814.8043,80.20386,148.07118
"60022",814.8176,79.94751,147.8212
"60023",814.83093,79.64233,147.51437
"60024",814.84424,79.32006,147.18092
"60025",814.85754,79.00023,146.83984
"60026",814.87085,78.695045,146.50342
"60027",814.88416,78.416725,146.18431
"60028",814.89746,78.167694,145.8858
"60029",814.91077,77.95529,145.61613
"60030",814.9241,77.77219,145.36913
"60031",814.9374,77.61349,145.14081
"60032",814.9507,77.47677,144.9295
"60033",814.964,77.35958,144.73346
"60034",814.9773,77.29122,144.58258
"60035",814.9906,77.36935,144.57605
"60036",815.0039,77.738,144.86249
"60037",815.0172,78.52659,145.58038
"60038",815.0305,79.742424,146.75017
"60039",815.0438,81.26345,148.26314
"60040",815.0571,82.85039,149.88956
"60041",815.07043,84.224915,151.35316
"60042",815.08374,85.15999,152.42027
"60043",815.09705,85.57259,152.99413
"60044",815.11035,85.50912,153.1048
"60045",815.12366,85.09407,152.86191
"60046",815.13696,84.44953,152.37656
"60047",815.15027,83.6878,151.75388
"60048",815.1636,82.896774,151.0781
"60049",815.1769,82.14969,150.42154
"60050",815.1902,81.48562,149.82465
"60051",815.2035,80.91432,149.29977
"60052",815.2168,80.430916,148.84494
"60053",815.2301,80.028076,148.45557
"60054",815.2434,79.69848,148.12685
"60055",815.2567,79.45678,147.87572
"60056",815.27,79.327385,147.72934
"60057",815.2833,79.327385,147.70831
"60058",815.29663,79.45434,147.81424
"60059",815.30994,79.67162,148.01447
"60060",815.32324,79.923096,148.25568
"60061",815.33655,80.14526,148.47543
"60062",815.34985,80.289314,148.62402
"60063",815.36316,80.31373,148.65749
"60064",815.37646,80.22339,148.57695
"60065",815.3898,80.03052,148.39105
"60066",815.4031,79.764404,148.12589
"60067",815.4164,79.4519,147.80602
"60068",815.4297,79.12718,147.46417
"60069",815.443,78.81224,147.12195
"60070",815.4563,78.519264,146.79185
"60071",815.4696,78.25559,146.4819
"60072",815.4829,78.02365,146.19545
"60073",815.4962,77.823456,145.93349
"60074",815.5095,77.645226,145.68724
"60075",815.5228,77.49874,145.46716
"60076",815.53613,77.36935,145.2596
"60077",815.54944,77.25948,145.06752
"60078",815.56274,77.19356,144.91595
"60079",815.57605,77.2546,144.8893
"60080",815.58936,77.58663,145.13553
"60081",815.60266,78.32395,145.79742
"60082",815.61597,79.49096,146.91205
"60083",815.6293,80.98512,148.3903
"60084",815.6426,82.59159,150.02756
"60085",815.6559,84.02472,151.54167
"60086",815.6692,85.050125,152.69286
"60087",815.6825,85.56039,153.36093
"60088",815.6958,85.58968,153.564
"60089",815.7091,85.24788,153.39687
"60090",815.7224,84.661934,152.97491
"60091",815.7357,83.963684,152.42235
"60092",815.749,83.243454,151.82599
"60093",815.7623,82.57206,151.25595
"60094",815.77563,81.991,150.75526
"60095",815.78894,81.497826,150.32431
"60096",815.80225,81.08522,149.95851
"60097",815.81555,80.726326,149.63353
"60098",815.82886,80.40406,149.33397
"60099",815.84216,80.11597,149.0585
"60100",815.85547,79.88159,148.82776
"60101",815.8688,79.73266,148.67513
"60102",815.8821,79.68139,148.6155
"60103",815.8954,79.72045,148.64459
"60104",815.9087,79.82056,148.73596
"60105",815.922,79.93286,148.84265
"60106",815.9353,80.01587,148.92355
"60107",815.9486,80.0354,148.94357
"60108",815.9619,79.97925,148.88852
"60109",815.9752,79.84985,148.75848
"60110",815.9885,79.65942,148.56335
"60111",816.00183,79.42016,148.31345
"60112",816.01514,79.14671,148.02188
"60113",816.02844,78.86351,147.712
"60114",816.04175,78.58518,147.39816
"60115",816.05505,78.32151,147.09027
"60116",816.06836,78.08469,146.801
"60117",816.08167,77.88205,146.5385
"60118",816.095,77.7087,146.29897
"60119",816.1083,77.56222,146.08087
"60120",816.1216,77.437706,145.88017
"60121",816.1349,77.330284,145.69267
"60122",816.1482,77.242386,145.52135
"60123",816.1615,77.21309,145.40587
"60124",816.1748,77.33761,145.4433
"60125",816.1881,77.76486,145.78735
"60126",816.2014,78.59251,146.54515
"60127",816.2147,79.81079,147.71945
"60128",816.228,81.28542,149.18817
"60129",816.24133,82.794235,150.73715
"60130",816.25464,84.071106,152.10135
"60131",816.26794,84.92561,153.08308
"60132",816.28125,85.29183,153.60323
"60133",816.29456,85.22591,153.70267
"60134",816.30786,84.84505,153.48512
"60135",816.32117,84.27375,153.06523
"60136",816.3345,83.6292,152.55424
"60137",816.3478,82.98955,152.028
"60138",816.3611,82.41825,151.55013
"60139",816.3744,81.9324,151.13985
"60140",816.3877,81.529564,150.7974
"60141",816.401,81.18288,150.4985
"60142",816.4143,80.86305,150.21565
"60143",816.4276,80.55787,149.93744
"60144",816.4409,80.272224,149.66924
"60145",816.4542,80.025635,149.43115
"60146",816.4675,79.84009,149.2464
"60147",816.48083,79.73266,149.13397
"60148",816.49414,79.70092,149.09387
"60149",816.50745,79.72045,149.10405
"60150",816.52075,79.75952,149.13438
"60151",816.53406,79.781494,149.14883
"60152",816.54736,79.75708,149.11758
"60153",816.56067,79.67162,149.02454
"60154",816.574,79.5227,148.86534
"60155",816.5873,79.32006,148.64778
"60156",816.6006,79.07347,148.37994
"60157",816.6139,78.81224,148.08975
"60158",816.6272,78.54368,147.78407
"60159",816.6405,78.28245,147.47733
"60160",816.6538,78.03586,147.17706
"60161",816.6671,77.81125,146.89107
"60162",816.6804,77.61349,146.62491
"60163",816.6937,77.452354,146.38919
"60164",816.70703,77.32296,146.18018
"60165",816.72034,77.225296,145.99886
"60166",816.73364,77.154495,145.84134
"60167",816.74695,77.09834,145.69626
"60168",816.76025,77.051956,145.55919
"60169",816.77356,77.00557,145.42067
"60170",816.78687,76.964066,145.28558
"60171",816.8002,76.946976,145.17361
"60172",816.8135,77.04219,145.17342
"60173",816.8268,77.37911,145.41791
"60174",816.8401,78.08957,146.04646
"60175",816.8534,79.20531,147.1025
"60176",816.8667,80.635994,148.50835
"60177",816.88,82.16922,150.06145
"60178",816.8933,83.55596,151.51598
"60179",816.9066,84.56184,152.63298
"60180",816.9199,85.084305,153.298
"60181",816.9332,85.155106,153.5277
"60182",816.94653,84.88411,153.4178
"60183",816.95984,84.39094,153.07726
"60184",816.97314,83.80011,152.62364
"60185",816.98645,83.20195,152.14424
"60186",816.99976,82.652626,151.69498
"60187",817.01306,82.18387,151.30911
"60188",817.02637,81.80301,150.9965
"60189",817.0397,81.480736,150.73058
"60190",817.053,81.18532,150.48143
"60191",817.0663,80.89723,150.2304
"60192",817.0796,80.604256,149.96545
"60193",817.0929,80.31129,149.69138
"60194",817.1062,80.05493,149.44475
"60195",817.1195,79.86206,149.2536
"60196",817.1328,79.7522,149.13943
"60197",817.1461,79.71801,149.0975
"60198",817.1594,79.73998,149.11066
"60199",817.1727,79.77661,149.13916
"60200",817.18604,79.78882,149.14438
"60201",817.19934,79.7522,149.10117
"60202",817.21265,79.656975,148.9982
"60203",817.22595,79.50317,148.83366
"60204",817.23926,79.30297,148.61794
"60205",817.25256,79.06859,148.36177
"60206",817.26587,78.81224,148.07631
"60207",817.2792,78.551,147.77795
"60208",817.2925,78.28977,147.47144
"60209",817.3058,78.04562,147.17384
"60210",817.3191,77.8259,146.89304
"60211",817.3324,77.63058,146.62978
"60212",817.3457,77.46212,146.38727
"60213",817.359,77.3254,146.17123
"60214",817.3723,77.21797,145.98022
"60215",817.3856,77.14473,145.82004
"60216",817.3989,77.09834,145.68442
"60217",817.41223,77.07149,145.56688
"60218",817.42554,77.05684,145.46071
"60219",817.43884,77.04219,145.35408
"60220",817.45215,77.02754,145.247
"60221",817.46545,77.00313,145.12968
"60222",817.47876,76.97139,145.00429
"60223",817.49207,76.925,144.86325
"60224",817.5054,76.87373,144.71588
"60225",817.5187,76.84444,144.58888
"60226",817.532,76.93965,144.58548
"60227",817.5453,77.313194,144.86339
"60228",817.5586,78.09689,145.56313
"60229",817.5719,79.310295,146.71706
"60230",817.5852,80.84596,148.23117
"60231",817.5985,82.47929,149.89093
"60232",817.6118,83.931946,151.42107
"60233",817.6251,84.97688,152.58888
"60234",817.6384,85.51156,153.27908
"60235",817.65173,85.5848,153.52457
"60236",817.66504,85.30648,153.42078
"60237",817.67834,84.81087,153.09099
"60238",817.69165,84.21271,152.64317
"60239",817.70496,83.60235,152.16446
"60240",817.71826,83.038376,151.71306
"60241",817.73157,82.55253,151.32216
"60242",817.7449,82.14969,150.99908
"60243",817.7582,81.81033,150.72691
"60244",817.7715,81.50271,150.47586
"60245",817.7848,81.20729,150.2274
"60246",817.7981,80.90944,149.96729
"60247",817.8114,80.61402,149.70029
"60248",817.8247,80.34547,149.45093
"60249",817.838,80.12573,149.24199
"60250",817.8513,79.96704,149.08722
"60251",817.8646,79.87427,148.99341
"60252",817.8779,79.82788,148.94308
"60253",817.89124,79.80835,148.91818
"60254",817.90454,79.79126,148.89511
"60255",817.91785,79.744865,148.8422
"60256",817.93115,79.64965,148.739
"60257",817.94446,79.500725,148.57912
"60258",817.95776,79.30785,148.37064
"60259",817.97107,79.07591,148.11707
"60260",817.9844,78.82445,147.83672
"60261",817.9977,78.572975,147.54851
"60262",818.011,78.33372,147.26465
"60263",818.0243,78.10666,146.98552
"60264",818.0376,77.90402,146.72371
"60265",818.0509,77.72579,146.47998
"60266",818.0642,77.56954,146.25266
"60267",818.0775,77.435265,146.04242
"60268",818.0908,77.3254,145.8524
"60269",818.1041,77.23018,145.6736
"60270",818.11743,77.154495,145.51135
"60271",818.13074,77.09102,145.35895
"60272",818.14404,77.04707,145.22409
"60273",818.15735,77.01778,145.10251
"60274",818.17065,76.98848,144.98001
"60275",818.18396,76.94209,144.83951
"60276",818.19727,76.87129,144.67314
"60277",818.2106,76.7834,144.48747
"60278",818.2239,76.68818,144.29173
"60279",818.2372,76.60029,144.10034
"60280",818.2505,76.54902,143.94283
"60281",818.2638,76.61494,143.9009
"60282",818.2771,76.92256,144.10274
"60283",818.2904,77.59884,144.68285
"60284",818.3037,78.70725,145.71622
"60285",818.317,80.16724,147.1358
"60286",818.3303,81.78836,148.76215
"60287",818.3436,83.302055,150.33173
"60288",818.35693,84.46174,151.5946
"60289",818.37024,85.12581,152.3981
"60290",818.38354,85.3016,152.73407
"60291",818.39685,85.09163,152.68977
"60292",818.41016,84.627754,152.38501
"60293",818.42346,84.03693,151.9388
"60294",818.43677,83.4168,151.44482
"60295",818.4501,82.84062,150.97542
"60296",818.4634,82.34257,150.56613
"60297",818.4767,81.9324,150.22917
"60298",818.49,81.58816,149.94531
"60299",818.5033,81.29275,149.69954
"60300",818.5166,81.024185,149.47137
"60301",818.5299,80.77028,149.24948
"60302",818.5432,80.54322,149.0465
"60303",818.5565,80.35523,148.87549
"60304",818.5698,80.22095,148.7523
"60305",818.5831,80.15015,148.68842
"60306",818.59644,80.128174,148.67114
"60307",818.60974,80.14038,148.68735
"60308",818.62305,80.15015,148.7015
"60309",818.63635,80.13306,148.68912
"60310",818.64966,80.07202,148.63223
"60311",818.66296,79.95972,148.52219
"60312",818.6763,79.79614,148.35736
"60313",818.6896,79.586174,148.14102
"60314",818.7029,79.35668,147.89859
"60315",818.7162,79.11009,147.6319
"60316",818.7295,78.86107,147.35506
"60317",818.7428,78.61692,147.07532
"60318",818.7561,78.382545,146.79771
"60319",818.7694,78.15793,146.52255
"60320",818.7827,77.95529,146.26234
"60321",818.796,77.78195,146.0251
"60322",818.8093,77.64034,145.81418
"60323",818.82263,77.53048,145.63057
"60324",818.83594,77.437706,145.46062
"60325",818.84924,77.366905,145.30974
"60326",818.86255,77.313194,145.17374
"60327",818.87585,77.27169,145.04826
"60328",818.88916,77.24727,144.93858
"60329",818.90247,77.23262,144.8379
"60330",818.9158,77.22041,144.73921
"60331",818.9291,77.19356,144.62549
"60332",818.9424,77.154495,144.49872
"60333",818.9557,77.103226,144.35852
"60334",818.969,77.03975,144.20451
"60335",818.9823,76.9836,144.05585
"60336",818.9956,76.98604,143.96402
"60337",819.0089,77.16426,144.04805
"60338",819.0222,77.65743,144.4526
"60339",819.0355,78.56077,145.28273
"60340",819.0488,79.84985,146.52684
"60341",819.06213,81.36599,148.03828
"60342",819.07544,82.87724,149.59222
"60343",819.08875,84.11749,150.9224
"60344",819.10205,84.90852,151.8421
"60345",819.11536,85.21126,152.29823
"60346",819.12866,85.09651,152.34634
"60347",819.14197,84.69123,152.10033
"60348",819.1553,84.11505,151.67075
"60349",819.1686,83.47295,151.15724
"60350",819.1819,82.84062,150.63344
"60351",819.1952,82.266884,150.14847
"60352",819.2085,81.76639,149.71881
"60353",819.2218,81.33669,149.34431
"60354",819.2351,80.96071,149.0101
"60355",819.2484,80.621346,148.70076
"60356",819.2617,80.306404,148.40524
"60357",819.275,80.025635,148.13405
"60358",819.2883,79.79614,147.90536
"60359",819.30164,79.63744,147.7403
"60360",819.31494,79.56176,147.65327
"60361",819.32825,79.56176,147.63957
"60362",819.34155,79.603264,147.66737
"60363",819.35486,79.66186,147.71356
"60364",819.36816,79.70336,147.74449
"60365",819.3815,79.69604,147.72789
"60366",819.3948,79.63012,147.65247
"60367",819.4081,79.50317,147.51395
"60368",819.4214,79.32006,147.3153
"60369",819.4347,79.097885,147.07188
"60370",819.448,78.853745,146.79955
"60371",819.4613,78.59739,146.50737
"60372",819.4746,78.35081,146.21695
"60373",819.4879,78.12131,145.93591
"60374",819.5012,77.91623,145.67212
"60375",819.5145,77.73556,145.42633
"60376",819.52783,77.57931,145.19931
"60377",819.54114,77.44991,144.99426
"60378",819.55444,77.34493,144.80959
"60379",819.56775,77.25704,144.63872
"60380",819.58105,77.18623,144.4822
"60381",819.59436,77.13008,144.3381
"60382",819.60767,77.086136,144.20447
"60383",819.621,77.0544,144.08167
"60384",819.6343,77.03975,143.97496
"60385",819.6476,77.02754,143.87024
"60386",819.6609,77.01289,143.7627
"60387",819.6742,76.99092,143.64737
"60388",819.6875,76.961624,143.52403
"60389",819.7008,76.978714,143.44617
"60390",819.7141,77.16182,143.53485
"60391",819.7274,77.65499,143.93933
"60392",819.7407,78.551,144.76205
"60393",819.754,79.823,145.98877
"60394",819.76733,81.31716,147.4774
"60395",819.78064,82.791794,148.9932
"60396",819.79395,83.99542,150.28407
"60397",819.80725,84.75716,151.17067
"60398",819.82056,85.03548,151.59766
"60399",819.83386,84.9012,151.62074
"60400",819.84717,84.471504,151.34421
"60401",819.8605,83.86847,150.8809
"60402",819.8738,83.18486,150.31819
"60403",819.8871,82.50614,149.739
"60404",819.9004,81.87625,149.18742
"60405",819.9137,81.324486,148.69429
"60406",819.927,80.850845,148.26204
"60407",819.9403,80.43824,147.87602
"60408",819.9536,80.0647,147.51617
"60409",819.9669,79.73754,147.19104
"60410",819.9802,79.47631,146.9216
"60411",819.9935,79.293205,146.72212
"60412",820.00684,79.217514,146.62434
"60413",820.02014,79.24925,146.63162
"60414",820.03345,79.36645,146.72536
"60415",820.04675,79.520256,146.85936
"60416",820.06006,79.6643,146.9884
"60417",820.07336,79.75708,147.0707
"60418",820.0867,79.77417,147.0802
"60419",820.1,79.69848,146.99745
"60420",820.1133,79.54955,146.8391
"60421",820.1266,79.344475,146.61993
"60422",820.1399,79.10277,146.35774
"60423",820.1532,78.8513,146.07823
"60424",820.1665,78.59983,145.79086
"60425",820.1798,78.35813,145.5054
"60426",820.1931,78.1384,145.23436
"60427",820.2064,77.945526,144.9833
"60428",820.2197,77.786835,144.7604
"60429",820.23303,77.65743,144.56184
"60430",820.24634,77.557335,144.38853
"60431",820.25964,77.47433,144.22919
"60432",820.27295,77.40597,144.0819
"60433",820.28625,77.34005,143.9349
"60434",820.29956,77.27413,143.78586
"60435",820.31287,77.21065,143.63719
"60436",820.3262,77.152054,143.49142
"60437",820.3395,77.100784,143.35115
"60438",820.3528,77.049515,143.20927
"60439",820.3661,77.00557,143.07312
"60440",820.3794,76.99092,142.96489
"60441",820.3927,77.103226,142.98315
"60442",820.406,77.48165,143.27106
"60443",820.4193,78.25071,143.96141
"60444",820.4326,79.42748,145.08351
"60445",820.4459,80.90456,146.5427
"60446",820.4592,82.44999,148.1164
"60447",820.47253,83.80499,149.54796
"60448",820.48584,84.749825,150.6117
"60449",820.49915,85.19661,151.20691
"60450",820.51245,85.189285,151.36198
"60451",820.52576,84.83772,151.17259
"60452",820.53906,84.263985,150.75003
"60453",820.55237,83.57305,150.19235
"60454",820.5657,82.845505,149.57646
"60455",820.579,82.142365,148.96225
"60456",820.5923,81.49294,148.37978
"60457",820.6056,80.921646,147.85513
"60458",820.6189,80.42359,147.38588
"60459",820.6322,79.9939,146.96942
"60460",820.6455,79.63256,146.6079
"60461",820.6588,79.35424,146.31808
"60462",820.6721,79.17113,146.11479
"60463",820.6854,79.10277,146.02052
"60464",820.6987,79.14671,146.03642
"60465",820.71204,79.28344,146.14648
"60466",820.72534,79.46166,146.3023
"60467",820.73865,79.63744,146.46126
"60468",820.75195,79.76929,146.58177
"60469",820.76526,79.83032,146.63559
"60470",820.77856,79.80835,146.6083
"60471",820.7919,79.71313,146.5071
"60472",820.8052,79.55688,146.34187
"60473",820.8185,79.35912,146.13026
"60474",820.8318,79.13451,145.88562
"60475",820.8451,78.89769,145.62175
"60476",820.8584,78.660866,145.35048
"60477",820.8717,78.4387,145.08646
"60478",820.885,78.23605,144.83502
"60479",820.8983,78.05783,144.60167
"60480",820.9116,77.90402,144.38716
"60481",820.9249,77.77463,144.19226
"60482",820.93823,77.67208,144.02017
"60483",820.95154,77.58907,143.86441
"60484",820.96484,77.52071,143.7207
"60485",820.97815,77.46212,143.58463
"60486",820.99146,77.41085,143.45404
"60487",821.00476,77.3547,143.31697
"60488",821.01807,77.29122,143.17082
"60489",821.0314,77.222855,143.0178
"60490",821.0447,77.19356,142.90172
"60491",821.058,77.30587,142.92633
"60492",821.0713,77.7087,143.24496
"60493",821.0846,78.52659,143.99124
"60494",821.0979,79.75952,145.17813
"60495",821.1112,81.28298,146.69408
"60496",821.1245,82.865036,148.31622
"60497",821.1378,84.23468,149.7754
"60498",821.1511,85.16731,150.84038
"60499",821.1644,85.58968,151.42422
"60500",821.17773,85.55306,151.56229
"60501",821.19104,85.15999,151.34274
"60502",821.20435,84.53742,150.88142
"60503",821.21765,83.790344,150.27614
"60504",821.23096,83.0164,149.62065
"60505",821.24426,82.269325,148.96783
"60506",821.25757,81.59304,148.36247
"60507",821.2709,81.00221,147.82143
"60508",821.2842,80.49195,147.34248
"60509",821.2975,80.05249,146.9184
"60510",821.3108,79.67895,146.5465
"60511",821.3241,79.38842,146.24593
"60512",821.3374,79.202866,146.04126
"60513",821.3507,79.13939,145.95287
"60514",821.364,79.202866,145.98944
"60515",821.3773,79.36645,146.12811
"60516",821.3906,79.586174,146.32803
"60517",821.40393,79.79614,146.52507
"60518",821.41724,79.954834,146.6774
"60519",821.43054,80.03052,146.75168
"60520",821.44385,80.0061,146.72821
"60521",821.45715,79.88403,146.60632
"60522",821.47046,79.68871,146.40738
"60523",821.48376,79.449455,146.15839
"60524",821.4971,79.18822,145.87994
"60525",821.5104,78.92699,145.59334
"60526",821.5237,78.6804,145.31322
"60527",821.537,78.45335,145.04492
"60528",821.5503,78.24582,144.78906
"60529",821.5636,78.06027,144.54869
"60530",821.5769,77.90158,144.32938
"60531",821.5902,77.769745,144.13196
"60532",821.6035,77.65743,143.94995
"60533",821.6168,77.55978,143.77908
"60534",821.6301,77.471886,143.61493
"60535",821.64343,77.38644,143.45047
"60536",821.65674,77.30343,143.28578
"60537",821.67004,77.22041,143.1185
"60538",821.68335,77.15694,142.96815
"60539",821.69666,77.171585,142.89395
"60540",821.70996,77.39864,143.03262
"60541",821.72327,77.994354,143.54704
"60542",821.7366,79.03197,144.52197
"60543",821.7499,80.46021,145.91997
"60544",821.7632,82.08621,147.56035
"60545",821.7765,83.64385,149.18318
"60546",821.7898,84.86214,150.51534
"60547",821.8031,85.57748,151.38261
"60548",821.8164,85.78256,151.762
"60549",821.8297,85.56771,151.72784
"60550",821.843,85.05257,151.38669
"60551",821.8563,84.351875,150.84389
"60552",821.8696,83.5584,150.18642
"60553",821.88293,82.74052,149.47974
"60554",821.89624,81.94217,148.76703
"60555",821.90955,81.20485,148.09041
"60556",821.92285,80.53834,147.46155
"60557",821.93616,79.94995,146.88998
"60558",821.94946,79.449455,146.38792
"60559",821.96277,79.05638,145.97765
"60560",821.9761,78.79515,145.68692
"60561",821.9894,78.692604,145.54672
"60562",822.0027,78.76097,145.57423
"60563",822.016,78.975815,145.75035
"60564",822.0293,79.281,146.02353
"60565",822.0426,79.61303,146.33308
"60566",822.0559,79.90112,146.60909
"60567",822.0692,80.09155,146.79642
"60568",822.0825,80.15503,146.86276
"60569",822.0958,80.10376,146.81635
"60570",822.10913,79.95239,146.66821
"60571",822.12244,79.7351,146.44943
"60572",822.13574,79.47387,146.17992
"60573",822.14905,79.19554,145.88515
"60574",822.16235,78.91478,145.57924
"60575",822.17566,78.64866,145.2792
"60576",822.18896,78.399635,144.98795
"60577",822.2023,78.1799,144.7182
"60578",822.2156,77.98459,144.466
"60579",822.2289,77.81857,144.237
"60580",822.2422,77.679405,144.02966
"60581",822.2555,77.55978,143.83751
"60582",822.2688,77.45724,143.6587
"60583",822.2821,77.36202,143.48402
"60584",822.2954,77.26925,143.3088
"60585",822.3087,77.19844,143.15266
"60586",822.322,77.23506,143.10173
"60587",822.3353,77.52804,143.3083
"60588",822.34863,78.22873,143.93175
"60589",822.36194,79.38842,145.03609
"60590",822.37524,80.91432,146.54288
"60591",822.38855,82.59159,148.24872
"60592",822.40186,84.13214,149.87025
"60593",822.41516,85.28207,151.1493
"60594",822.42847,85.90219,151.9345
"60595",822.4418,86.00961,152.22636
"60596",822.4551,85.714195,152.11874
"60597",822.4684,85.14046,151.72357
"60598",822.4817,84.40803,151.15178
"60599",822.495,83.597466,150.47897
"60600",822.5083,82.774704,149.76863
"60601",822.5216,81.986115,149.06676
"60602",822.5349,81.253685,148.3964
"60603",822.5482,80.587166,147.76906
"60604",822.5615,79.99878,147.19902
"60605",822.5748,79.50317,146.70337
"60606",822.58813,79.1223,146.30698
"60607",822.60144,78.88304,146.04028
"60608",822.61475,78.8098,145.93213
"60609",822.62805,78.905014,145.99014
"60610",822.64136,79.13451,146.18541
"60611",822.65466,79.44213,146.46599
"60612",822.66797,79.75708,146.7635
"60613",822.6813,80.01099,147.00983
"60614",822.6946,80.16235,147.16153
"60615",822.7079,80.19653,147.20078
"60616",822.7212,80.11841,147.12878
"60617",822.7345,79.954834,146.9689
"60618",822.7478,79.727776,146.74043
"60619",822.7611,79.46899,146.47313
"60620",822.7744,79.19066,146.1782
"60621",822.7877,78.9099,145.87215
"60622",822.801,78.641335,145.56952
"60623",822.81433,78.39475,145.28047
"60624",822.82764,78.17502,145.01057
"60625",822.84094,77.979706,144.75822
"60626",822.85425,77.81125,144.52663
"60627",822.86755,77.662315,144.3093
"60628",822.88086,77.53048,144.1044
"60629",822.89417,77.41573,143.91248
"60630",822.9075,77.32296,143.73894
"60631",822.9208,77.30099,143.6333
"60632",822.9341,77.47433,143.72229
"60633",822.9474,77.994354,144.16339
"60634",822.9607,78.96849,145.07484
"60635",822.974,80.36256,146.43668
"60636",822.9873,82.005646,148.0911
"60637",823.0006,83.63409,149.78221
"60638",823.0139,84.972,151.23369
"60639",823.0272,85.821625,152.2387
"60640",823.0405,86.14633,152.74533
"60641",823.05383,86.02182,152.8129
"60642",823.06714,85.575035,152.55429
"60643",823.08044,84.92073,152.0742
"60644",823.09375,84.14923,151.45648
"60645",823.10706,83.33868,150.77559
"60646",823.12036,82.54276,150.08401
"60647",823.13367,81.79324,149.41396
"60648",823.147,81.10231,148.77907
"60649",823.1603,80.4773,148.1885
"60650",823.1736,79.92798,147.6541
"60651",823.1869,79.47631,147.20018
"60652",823.2002,79.149155,146.85666
"60653",823.2135,78.975815,146.65672
"60654",823.2268,78.97093,146.61983
"60655",823.2401,79.114975,146.7317
"60656",823.2534,79.35668,146.94576
"60657",823.2667,79.635,147.20396
"60658",823.28,79.886475,147.44403
"60659",823.29333,80.059814,147.61383
"60660",823.30664,80.12573,147.68161
"60661",823.31995,80.08667,147.64648
"60662",823.33325,79.954834,147.51736
"60663",823.34656,79.75464,147.31577
"60664",823.35986,79.50561,147.05907
"60665",823.37317,79.237045,146.77505
"60666",823.3865,78.97093,146.48509
"60667",823.3998,78.71458,146.19658
"60668",823.4131,78.47288,145.9147
"60669",823.4264,78.24582,145.63992
"60670",823.4397,78.0383,145.37758
"60671",823.453,77.838104,145.11607
"60672",823.4663,77.65011,144.86052
"60673",823.4796,77.48165,144.61862
"60674",823.4929,77.332726,144.39099
"60675",823.5062,77.222855,144.19777
"60676",823.51953,77.2546,144.14273
"60677",823.53284,77.58175,144.38408
"60678",823.54614,78.33616,145.06291
"60679",823.55945,79.54467,146.21942
"60680",823.57275,81.092545,147.75307
"60681",823.58606,82.7454,149.44006
"60682",823.59937,84.21515,150.9956
"60683",823.6127,85.26498,152.17715
"60684",823.626,85.79477,152.87148
"60685",823.6393,85.8436,153.1014
"60686",823.6526,85.521324,152.96173
"60687",823.6659,84.95491,152.56786
"60688",823.6792,84.25422,152.022
"60689",823.6925,83.50469,151.40543
"60690",823.7058,82.774704,150.78496
"60691",823.7191,82.091095,150.18806
"60692",823.7324,81.47097,149.63329
"60693",823.7457,80.919205,149.12749
"60694",823.75903,80.42359,148.6606
"60695",823.77234,79.98901,148.23926
"60696",823.78564,79.639885,147.88979
"60697",823.79895,79.40063,147.63927
"60698",823.81226,79.293205,147.5131
"60699",823.82556,79.31762,147.51543
"60700",823.83887,79.449455,147.62593
"60701",823.8522,79.64233,147.80159
"60702",823.8655,79.83765,147.98573
"60703",823.8788,79.98657,148.12958
"60704",823.8921,80.05493,148.19751
"60705",823.9054,80.03052,148.1748
"60706",823.9187,79.91089,148.05612
"60707",823.932,79.71801,147.86046
"60708",823.9453,79.47631,147.60994
"60709",823.9586,79.20775,147.32501
"60710",823.9719,78.93675,147.02925
"60711",823.9852,78.677956,146.73723
"60712",823.99854,78.44114,146.45909
"60713",824.01184,78.22629,146.19553
"60714",824.02515,78.030975,145.94478
"60715",824.03845,77.85031,145.70258
"60716",824.05176,77.68429,145.46938
"60717",824.06506,77.53292,145.24564
"60718",824.07837,77.401085,145.0367
"60719",824.0917,77.29122,144.84561
"60720",824.105,77.2546,144.72433
"60721",824.1183,77.40841,144.79234
"60722",824.1316,77.90402,145.20697
"60723",824.1449,78.82933,146.06677
"60724",824.1582,80.15259,147.35344
"60725",824.1715,81.71267,148.91829
"60726",824.1848,83.25811,150.51726
"60727",824.1981,84.52033,151.8813
"60728",824.2114,85.32601,152.82825
"60729",824.22473,85.63363,153.3023
"60730",824.23804,85.53109,153.37582
"60731",824.25134,85.13313,153.15071
"60732",824.26465,84.55451,152.7325
"60733",824.27795,83.88556,152.20587
"60734",824.29126,83.20439,151.64613
"60735",824.30457,82.547646,151.08952
"60736",824.3179,81.93729,150.55878
"60737",824.3312,81.38308,150.06511
"60738",824.3445,80.885025,149.61028
"60739",824.3578,80.42603,149.17894
"60740",824.3711,80.01587,148.78209
"60741",824.3844,79.676506,148.44322
"60742",824.3977,79.432365,148.18896
"60743",824.411,79.30053,148.03938
"60744",824.4243,79.28832,148.00531
"60745",824.4376,79.37621,148.07095
"60746",824.4509,79.517815,148.19305
"60747",824.46423,79.66674,148.3269
"60748",824.47754,79.77417,148.42392
"60749",824.49084,79.81079,148.45349
"60750",824.50415,79.76196,148.39874
"60751",824.51746,79.63012,148.25946
"60752",824.53076,79.43481,148.05258
"60753",824.54407,79.19798,147.7981
"60754",824.5574,78.94408,147.51912
"60755",824.5707,78.68772,147.22977
"60756",824.584,78.433815,146.93484
"60757",824.5973,78.19211,146.6442
"60758",824.6106,77.96994,146.36552
"60759",824.6239,77.769745,146.10188
"60760",824.6372,77.593956,145.8564
"60761",824.6505,77.44259,145.62984
"60762",824.6638,77.30831,145.41563
"60763",824.6771,77.188675,145.21188
"60764",824.6904,77.11055,145.0459
"60765",824.70374,77.16914,145.01419
"60766",824.71704,77.51095,145.26753
"60767",824.73035,78.25559,145.93439
"60768",824.74365,79.41772,147.04199
"60769",824.75696,80.89479,148.50087
"60770",824.77026,82.4622,150.09624
"60771",824.78357,83.8587,151.56969
"60772",824.7969,84.86214,152.69371
"60773",824.8102,85.37728,153.3608
"60774",824.8235,85.4432,153.59476
"60775",824.8368,85.16243,153.48409
"60776",824.8501,84.644844,153.12782
"60777",824.8634,83.99786,152.62599
"60778",824.8767,83.3167,152.06976
"60779",824.89,82.65751,151.51422
"60780",824.9033,82.056915,150.99667
"60781",824.9166,81.52712,150.53116
"60782",824.92993,81.06813,150.11989
"60783",824.94324,80.655525,149.74066
"60784",824.95654,80.28443,149.39006
"60785",824.96985,79.95239,149.06691
"60786",824.98315,79.676506,148.78954
"60787",824.99646,79.47387,148.57678
"60788",825.00977,79.36645,148.45291
"60789",825.0231,79.3518,148.41846
"60790",825.0364,79.40795,148.45435
"60791",825.0497,79.50561,148.5335
"60792",825.063,79.60082,148.61325
"60793",825.0763,79.65453,148.65448
"60794",825.0896,79.64233,148.63147
"60795",825.1029,79.55688,148.53484
"60796",825.1162,79.40063,148.36473
"60797",825.1295,79.18822,148.13359
"60798",825.1428,78.94652,147.86652
"60799",825.1561,78.68528,147.57236
"60800",825.16943,78.42893,147.27492
"60801",825.18274,78.187225,146.98412
"60802",825.19604,77.9675,146.70773
"60803",825.20935,77.77707,146.45378
"60804",825.22266,77.61593,146.22318
"60805",825.23596,77.471886,146.00462
"60806",825.24927,77.34493,145.79866
"60807",825.2626,77.22774,145.5985
"60808",825.2759,77.11299,145.39711
"60809",825.2892,77.015335,145.20923
"60810",825.3025,76.99336,145.09398
"60811",825.3158,77.171585,145.17824
"60812",825.3291,77.68917,145.60744
"60813",825.3424,78.63157,146.47762
"60814",825.3557,79.96216,147.76544
"60815",825.369,81.52468,149.32678
"60816",825.3823,83.06523,150.91498
"60817",825.3956,84.32746,152.273
"60818",825.40894,85.135574,153.21634
"60819",825.42224,85.46273,153.70398
"60820",825.43555,85.37728,153.78925
"60821",825.44885,84.998856,153.57886
"60822",825.46216,84.44709,153.1833
"60823",825.47546,83.824524,152.6997
"60824",825.4888,83.20439,152.1991
"60825",825.5021,82.63065,151.7255
"60826",825.5154,82.125275,151.30232
"60827",825.5287,81.688255,150.93172
"60828",825.542,81.30007,150.5963
"60829",825.5553,80.936295,150.27315
"60830",825.5686,80.58961,149.95572
"60831",825.5819,80.26002,149.64456
"60832",825.5952,79.971924,149.3646
"60833",825.6085,79.744865,149.13666
"60834",825.6218,79.60082,148.98463
"60835",825.63513,79.53979,148.91112
"60836",825.64844,79.551994,148.90894
"60837",825.66174,79.60082,148.94376
"60838",825.67505,79.65453,148.98499
"60839",825.68835,79.67895,148.9986
"60840",825.70166,79.64721,148.95682
"60841",825.71497,79.54711,148.84569
"60842",825.7283,79.378654,148.66307
"60843",825.7416,79.1638,148.4288
"60844",825.7549,78.91722,148.15608
"60845",825.7682,78.65598,147.86101
"60846",825.7815,78.39475,147.55777
"60847",825.7948,78.14816,147.26102
"60848",825.8081,77.91867,146.97365
"60849",825.8214,77.72091,146.71085
"60850",825.8347,77.55001,146.46872
"60851",825.848,77.40353,146.24567
"60852",825.8613,77.2839,146.04489
"60853",825.87463,77.17647,145.85258
"60854",825.88794,77.08125,145.66913
"60855",825.90125,76.9836,145.48026
"60856",825.91455,76.90303,145.30542
"60857",825.92786,76.893265,145.19887
"60858",825.94116,77.07881,145.28732
"60859",825.95447,77.59884,145.71606
"60860",825.9678,78.54368,146.58586
"60861",825.9811,79.871826,147.8685
"60862",825.9944,81.41726,149.40993
"60863",826.0077,82.93828,150.97523
"60864",826.021,84.18097,152.30975
"60865",826.0343,84.97688,153.23633
"60866",826.0476,85.29916,153.71413
"60867",826.0609,85.223465,153.80403
"60868",826.0742,84.86458,153.60838
"60869",826.0875,84.33967,153.23549
"60870",826.1008,83.74883,152.78027
"60871",826.11414,83.16289,152.31148
"60872",826.12744,82.62577,151.8732
"60873",826.14075,82.159454,151.48894
"60874",826.15405,81.75418,151.15115
"60875",826.16736,81.392845,150.84464
"60876",826.18066,81.04616,150.54147
"60877",826.194,80.69947,150.22748
"60878",826.2073,80.36256,149.91243
"60879",826.2206,80.05249,149.6137
"60880",826.2339,79.79614,149.35898
"60881",826.2472,79.61547,149.17194
"60882",826.2605,79.51537,149.05981
"60883",826.2738,79.483635,149.01292
"60884",826.2871,79.49828,149.01143
"60885",826.3004,79.520256,149.01772
"60886",826.3137,79.5227,149.00516
"60887",826.327,79.48119,148.94873
"60888",826.34033,79.38354,148.83485
"60889",826.35364,79.22484,148.65689
"60890",826.36694,79.01732,148.42514
"60891",826.38025,78.77562,148.15273
"60892",826.39355,78.519264,147.85811
"60893",826.40686,78.25559,147.54816
"60894",826.42017,78.00168,147.23973
"60895",826.4335,77.77219,146.94778
"60896",826.4468,77.57198,146.67796
"60897",826.4601,77.40353,146.43362
"60898",826.4734,77.27169,146.22064
"60899",826.4867,77.1667,146.0304
"60900",826.5,77.08125,145.8564
"60901",826.5133,77.01045,145.69438
"60902",826.5266,76.9543,145.5448
"60903",826.5399,76.90547,145.40079
"60904",826.5532,76.85664,145.25525
"60905",826.5665,76.80049,145.10086
"60906",826.57983,76.74189,144.94228
"60907",826.59314,76.71992,144.81848
"60908",826.60645,76.839554,144.83562
"60909",826.61975,77.25216,145.14946
"60910",826.63306,78.07248,145.88391
"60911",826.64636,79.310295,147.0615
"60912",826.65967,80.84108,148.57072
"60913",826.673,82.44022,150.19615
"60914",826.6863,83.84161,151.6738
"60915",826.6996,84.83528,152.78752
"60916",826.7129,85.33578,153.43912
"60917",826.7262,85.39193,153.66202
"60918",826.7395,85.11116,153.54974
"60919",826.7528,84.61799,153.2163
"60920",826.7661,84.02716,152.76978
"60921",826.7794,83.424126,152.29259
"60922",826.7927,82.8748,151.85027
"60923",826.806,82.40116,151.46646
"60924",826.81934,82.00076,151.1411
"60925",826.83264,81.654076,150.85693
"60926",826.84595,81.32693,150.58148
"60927",826.85925,80.99977,150.29579
"60928",826.87256,80.66529,149.99255
"60929",826.88586,80.33082,149.67888
"60930",826.8992,80.03052,149.38892
"60931",826.9125,79.79126,149.1506
"60932",826.9258,79.635,148.98782
"60933",826.9391,79.55932,148.90073
"60934",826.9524,79.54467,148.8723
"60935",826.9657,79.56664,148.88004
"60936",826.979,79.588615,148.88846
"60937",826.9923,79.57641,148.86339
"60938",827.0056,79.50805,148.78178
"60939",827.0189,79.381096,148.63945
"60940",827.0322,79.19798,148.437
"60941",827.04553,78.97337,148.18732
"60942",827.05884,78.729225,147.91109
"60943",827.07214,78.47776,147.6199
"60944",827.08545,78.23605,147.33063
"60945",827.09875,78.00168,147.04112
"60946",827.11206,77.786835,146.76382
"60947",827.12537,77.58907,146.4969
"60948",827.1387,77.418175,146.25066
"60949",827.152,77.27413,146.02592
"60950",827.1653,77.16426,145.83087
"60951",827.1786,77.08858,145.66656
"60952",827.1919,77.04463,145.53163
"60953",827.2052,77.015335,145.40997
"60954",827.2185,77.00069,145.30205
"60955",827.2318,76.9836,145.19122
"60956",827.2451,76.95674,145.0701
"60957",827.2584,76.912796,144.93105
"60958",827.2717,76.85176,144.77353
"60959",827.28503,76.7834,144.60678
"60960",827.29834,76.754105,144.47696
"60961",827.31165,76.86153,144.48294
"60962",827.32495,77.2546,144.77794
"60963",827.33826,78.05295,145.4905
"60964",827.35156,79.273674,146.65038
"60965",827.36487,80.797134,148.15114
"60966",827.3782,82.39628,149.77519
"60967",827.3915,83.807434,151.26123
"60968",827.4048,84.81087,152.38365
"60969",827.4181,85.31869,153.04181
"60970",827.4314,85.37972,153.26906
"60971",827.4447,85.101395,153.15884
"60972",827.458,84.613106,152.82997
"60973",827.4713,84.02716,152.38818
"60974",827.4846,83.42901,151.91588
"60975",827.4979,82.86992,151.46394
"60976",827.5112,82.38163,151.06534
"60977",827.52454,81.96658,150.72472
"60978",827.53784,81.60525,150.42484
"60979",827.55115,81.27322,150.14297
"60980",827.56445,80.94362,149.85316
"60981",827.57776,80.61158,149.55061
"60982",827.59106,80.289314,149.24747
"60983",827.6044,80.00366,148.97086
"60984",827.6177,79.77905,148.74637
"60985",827.631,79.63012,148.59053
"60986",827.6443,79.551994,148.50084
"60987",827.6576,79.534904,148.46974
"60988",827.6709,79.554436,148.47473
"60989",827.6842,79.57397,148.48033
"60990",827.6975,79.56176,148.4548
"60991",827.7108,79.50317,148.3825
"60992",827.7241,79.38598,148.24979
"60993",827.7374,79.21263,148.05725
"60994",827.75073,78.995346,147.81535
"60995",827.76404,78.75365,147.54225
"60996",827.77734,78.504616,147.25427
"60997",827.79065,78.25803,146.96095
"60998",827.80396,78.02365,146.67213
"60999",827.81726,77.81369,146.4004
"61000",827.83057,77.628136,146.14653
"61001",827.8439,77.469444,145.91371
"61002",827.8572,77.33761,145.70279
"61003",827.8705,77.23506,145.51704
"61004",827.8838,77.15938,145.35495
"61005",827.8971,77.09834,145.20514
"61006",827.9104,77.04707,145.06319
"61007",827.9237,77.00313,144.92696
"61008",827.937,76.95186,144.78203
"61009",827.9503,76.89082,144.62573
"61010",827.9636,76.82002,144.45776
"61011",827.9769,76.76875,144.30711
"61012",827.99023,76.807816,144.2452
"61013",828.00354,77.069046,144.40666
"61014",828.01685,77.68185,144.92787
"61015",828.03015,78.70237,145.87595
"61016",828.04346,80.0647,147.19772
"61017",828.05676,81.58572,148.72076
"61018",828.07007,83.0164,150.201
"61019",828.0834,84.122375,151.40125
"61020",828.0967,84.77425,152.18195
"61021",828.11,84.97444,152.53134
"61022",828.1233,84.805984,152.51834
"61023",828.1366,84.39338,152.25592
"61024",828.1499,83.85626,151.8561
"61025",828.1632,83.28008,151.40042
"61026",828.1765,82.73075,150.9536
"61027",828.1898,82.247345,150.55553
"61028",828.2031,81.83719,150.2156
"61029",828.21643,81.4905,149.92633
"61030",828.22974,81.18532,149.66772
"61031",828.24304,80.89235,149.4118
"61032",828.25635,80.59693,149.14427
"61033",828.26965,80.2942,148.8602
"61034",828.28296,80.00366,148.57886
"61035",828.29626,79.74975,148.32506
"61036",828.3096,79.55688,148.12436
"61037",828.3229,79.43969,147.99332
"61038",828.3362,79.39086,147.92697
"61039",828.3495,79.3933,147.91037
"61040",828.3628,79.42016,147.91826
"61041",828.3761,79.432365,147.91234
"61042",828.3894,79.398186,147.86041
"61043",828.4027,79.30785,147.75127
"61044",828.416,79.15892,147.5807
"61045",828.4293,78.96361,147.3591
"61046",828.4426,78.73899,147.1021
"61047",828.45593,78.50706,146.83075
"61048",828.46924,78.27512,146.55215
"61049",828.48254,78.048065,146.2712
"61050",828.49585,77.82834,145.99046
"61051",828.50916,77.62325,145.71751
"61052",828.52246,77.44015,145.46013
"61053",828.53577,77.2839,145.22388
"61054",828.5491,77.15694,145.01204
"61055",828.5624,77.05928,144.82553
"61056",828.5757,76.99092,144.66527
"61057",828.589,76.946976,144.52728
"61058",828.6023,76.92012,144.40501
"61059",828.6156,76.90791,144.29655
"61060",828.6289,76.90303,144.19504
"61061",828.6422,76.893265,144.08849
"61062",828.6555,76.87373,143.97186
"61063",828.6688,76.839554,143.83998
"61064",828.6821,76.78584,143.6875
"61065",828.69543,76.74433,143.54555
"61066",828.70874,76.78584,143.48532
"61067",828.72205,77.049515,143.64854
"61068",828.73535,77.662315,144.16914
"61069",828.74866,78.675514,145.10928
"61070",828.76196,80.01831,146.41069
"61071",828.77527,81.51003,147.90298
"61072",828.7886,82.90166,149.3418
"61073",828.8019,83.97101,150.50183
"61074",828.8152,84.59113,151.24605
"61075",828.8285,84.76936,151.56775
"61076",828.8418,84.596016,151.54344
"61077",828.8551,84.19318,151.28423
"61078",828.8684,83.66827,150.89035
"61079",828.8817,83.10918,150.44589
"61080",828.895,82.57694,150.01082
"61081",828.9083,82.10574,149.62015
"61082",828.92163,81.705345,149.28555
"61083",828.93494,81.373314,149.00682
"61084",828.94824,81.08278,148.7592
"61085",828.96155,80.814224,148.52449
"61086",828.97485,80.5481,148.28381
"61087",828.98816,80.27711,148.02995
"61088",829.00146,80.01587,147.77737
"61089",829.0148,79.79614,147.55814
"61090",829.0281,79.635,147.39062
"61091",829.0414,79.54223,147.28644
"61092",829.0547,79.51537,147.24527
"61093",829.068,79.53002,147.24477
"61094",829.0813,79.554436,147.25449
"61095",829.0946,79.5642,147.25032
"61096",829.1079,79.53002,147.20251
"61097",829.1212,79.44457,147.10237
"61098",829.1345,79.30785,146.94829
"61099",829.1478,79.13451,146.75331
"61100",829.16113,78.93431,146.52606
"61101",829.17444,78.71946,146.27791
"61102",829.18774,78.49729,146.01572
"61103",829.20105,78.27512,145.74658
"61104",829.21436,78.06027,145.47783
"61105",829.22766,77.86252,145.21945
"61106",829.24097,77.69161,144.98175
"61107",829.2543,77.55489,144.77289
"61108",829.2676,77.44503,144.58661
"61109",829.2809,77.35958,144.42131
"61110",829.2942,77.29122,144.27043
"61111",829.3075,77.23018,144.12474
"61112",829.3208,77.18379,143.99179
"61113",829.3341,77.14473,143.86472
"61114",829.3474,77.11299,143.74374
"61115",829.3607,77.08858,143.6291
"61116",829.374,77.06416,143.5137
"61117",829.3873,77.03487,143.39265
"61118",829.40063,76.99092,143.25604
"61119",829.41394,76.946976,143.11806
"61120",829.42725,76.95186,143.02753
"61121",829.44055,77.117874,143.09828
"61122",829.45386,77.57198,143.46233
"61123",829.46716,78.40208,144.21654
"61124",829.48047,79.57885,145.34337
"61125",829.4938,80.96315,146.71451
"61126",829.5071,82.340126,148.12158
"61127",829.5204,83.48028,149.33487
"61128",829.5337,84.2298,150.19315
"61129",829.547,84.54963,150.64516
"61130",829.5603,84.505684,150.7434
"61131",829.5736,84.20294,150.58145
"61132",829.5869,83.74883,150.25868
"61133",829.6002,83.23125,149.85825
"61134",829.6135,82.7161,149.44408
"61135",829.62683,82.25712,149.06998
"61136",829.64014,81.864044,148.74744
"61137",829.65344,81.53445,148.47609
"61138",829.66675,81.25124,148.24084
"61139",829.68005,80.990005,148.0187
"61140",829.69336,80.73609,147.79573
"61141",829.70667,80.48463,147.56728
"61142",829.72,80.25025,147.34805
"61143",829.7333,80.05005,147.15567
"61144",829.7466,79.90112,147.0083
"61145",829.7599,79.815674,146.91977
"61146",829.7732,79.79126,146.88959
"61147",829.7865,79.80591,146.8977
"61148",829.7998,79.83765,146.92337
"61149",829.8131,79.85718,146.93784
"61150",829.8264,79.84009,146.91629
"61151",829.8397,79.77173,146.84293
"61152",829.853,79.65209,146.71616
"61153",829.86633,79.48608,146.53926
"61154",829.87964,79.293205,146.33032
"61155",829.89294,79.08324,146.09827
"61156",829.90625,78.870834,145.85721
"61157",829.91956,78.658424,145.60951
"61158",829.93286,78.46067,145.36983
"61159",829.94617,78.28001,145.14105
"61160",829.9595,78.118866,144.92616
"61161",829.9728,77.97482,144.72333
"61162",829.9861,77.855194,144.5404
"61163",829.9994,77.75754,144.37572
"61164",830.0127,77.68429,144.23239
"61165",830.026,77.63058,144.10631
"61166",830.0393,77.591515,143.9932
"61167",830.0526,77.56222,143.88863
"61168",830.0659,77.53536,143.78558
"61169",830.0792,77.51095,143.68414
"61170",830.0925,77.486534,143.58194
"61171",830.10583,77.467,143.48386
"61172",830.11914,77.44259,143.38028
"61173",830.13245,77.41573,143.2735
"61174",830.14575,77.383995,143.161
"61175",830.15906,77.347374,143.04262
"61176",830.17236,77.35714,142.96948
"61177",830.18567,77.523155,143.0529
"61178",830.199,77.97482,143.42717
"61179",830.2123,78.79271,144.18176
"61180",830.2256,79.957275,145.3086
"61181",830.2389,81.341576,146.69156
"61182",830.2522,82.72831,148.12022
"61183",830.2655,83.888,149.36517
"61184",830.2788,84.661934,150.2606
"61185",830.2921,85.00862,150.75298
"61186",830.3054,84.98421,150.88509
"61187",830.3187,84.68391,150.74054
"61188",830.33203,84.21515,150.41815
"61189",830.34534,83.66827,150.00299
"61190",830.35864,83.11894,149.5683
"61191",830.37195,82.61356,149.16039
"61192",830.38525,82.1741,148.8026
"61193",830.39856,81.80301,148.49945
"61194",830.41187,81.48806,148.24084
"61195",830.4252,81.20729,148.00658
"61196",830.4385,80.94362,147.78064
"61197",830.4518,80.69215,147.55865
"61198",830.4651,80.462654,147.3508
"61199",830.4784,80.26978,147.1724
"61200",830.4917,80.128174,147.03922
"61201",830.505,80.05005,146.96509
"61202",830.5183,80.028076,146.94467
"61203",830.5316,80.045166,146.96265
"61204",830.5449,80.076904,146.99579
"61205",830.5582,80.096436,147.01773
"61206",830.57153,80.08423,147.00854
"61207",830.58484,80.01831,146.94525
"61208",830.59814,79.89868,146.8262
"61209",830.61145,79.73022,146.65457
"61210",830.62476,79.53002,146.44594
"61211",830.63806,79.31762,146.21884
"61212",830.65137,79.10765,145.98755
"61213",830.6647,78.905014,145.75702
"61214",830.678,78.71702,145.5348
"61215",830.6913,78.54856,145.32625
"61216",830.7046,78.39475,145.12708
"61217",830.7179,78.26292,144.94507
"61218",830.7312,78.14816,144.77603
"61219",830.7445,78.05539,144.62538
"61220",830.7578,77.98215,144.49136
"61221",830.7711,77.92844,144.37459
"61222",830.7844,77.88937,144.27078
"61223",830.7977,77.86496,144.1804
"61224",830.81104,77.84299,144.0917
"61225",830.82434,77.81857,143.99988
"61226",830.83765,77.78439,143.89752
"61227",830.85095,77.738,143.78189
"61228",830.86426,77.68429,143.65749
"61229",830.87756,77.63302,143.53384
"61230",830.89087,77.61349,143.44034
"61231",830.9042,77.71603,143.46829
"61232",830.9175,78.06027,143.74117
"61233",830.9308,78.74876,144.36903
"61234",830.9441,79.78882,145.37
"61235",830.9574,81.0901,146.66467
"61236",830.9707,82.4622,148.07083
"61237",830.984,83.68047,149.36606
"61238",830.9973,84.559395,150.36
"61239",831.0106,85.02327,150.96635
"61240",831.0239,85.09163,151.1917
"61241",831.03723,84.857254,151.11644
"61242",831.05054,84.422676,150.83365
"61243",831.06384,83.88556,150.43474
"61244",831.07715,83.32647,149.99707
"61245",831.09045,82.79668,149.57123
"61246",831.10376,82.32548,149.18742
"61247",831.11707,81.9202,148.85481
"61248",831.1304,81.57107,148.56569
"61249",831.1437,81.25613,148.29985
"61250",831.157,80.96071,148.04369
"61251",831.1703,80.68238,147.79538
"61252",831.1836,80.43336,147.56769
"61253",831.1969,80.22095,147.36882
"61254",831.2102,80.06958,147.22437
"61255",831.2235,79.98657,147.14352
"61256",831.2368,79.971924,147.12845
"61257",831.2501,80.00122,147.15686
"61258",831.2634,80.05493,147.2106
"61259",831.27673,80.096436,147.25381
"61260",831.29004,80.10864,147.26904
"61261",831.30334,80.06714,147.23093
"61262",831.31665,79.96704,147.13293
"61263",831.32996,79.815674,146.98053
"61264",831.34326,79.63256,146.79166
"61265",831.35657,79.429924,146.57753
"61266",831.3699,79.219955,146.34975
"61267",831.3832,79.01488,146.12029
"61268",831.3965,78.82201,145.89662
"61269",831.4098,78.63889,145.6767
"61270",831.4231,78.470436,145.4657
"61271",831.4364,78.31907,145.26653
"61272",831.4497,78.19211,145.08704
"61273",831.463,78.08713,144.92555
"61274",831.4763,78.00656,144.7852
"61275",831.4896,77.94797,144.6643
"61276",831.5029,77.89914,144.55135
"61277",831.51624,77.855194,144.44174
"61278",831.52954,77.81125,144.33076
"61279",831.54285,77.769745,144.22086
"61280",831.55615,77.730675,144.11209
"61281",831.56946,77.69161,144.0021
"61282",831.58276,77.65255,143.8909
"61283",831.59607,77.61349,143.77847
"61284",831.6094,77.60128,143.69168
"61285",831.6227,77.7087,143.72414
"61286",831.636,78.05295,143.99678
"61287",831.6493,78.74143,144.62442
"61288",831.6626,79.78882,145.63248
"61289",831.6759,81.10719,146.94424
"61290",831.6892,82.513466,148.38512
"61291",831.7025,83.775696,149.72589
"61292",831.7158,84.701,150.76918
"61293",831.7291,85.20149,151.41658
"61294",831.74243,85.29916,151.67679
"61295",831.75574,85.07698,151.62021
"61296",831.76904,84.63752,151.3394
"61297",831.78235,84.08087,150.92767
"61298",831.79565,83.49493,150.46925
"61299",831.80896,82.92607,150.00961
"61300",831.82227,82.408485,149.58347
"61301",831.8356,81.951935,149.20218
"61302",831.8489,81.55642,148.86766
"61303",831.8622,81.20729,148.56717
"61304",831.8755,80.89235,148.28996
"61305",831.8888,80.59693,148.02243
"61306",831.9021,80.33326,147.77742
"61307",831.9154,80.10864,147.56322
"61308",831.9287,79.94507,147.40305
"61309",831.942,79.84985,147.30612
"61310",831.9553,79.823,147.27457
"61311",831.9686,79.84741,147.29346
"61312",831.98193,79.8938,147.33508
"61313",831.99524,79.93042,147.36838
"61314",832.00854,79.937744,147.37354
"61315",832.02185,79.89868,147.33252
"61316",832.03516,79.80591,147.23657
"61317",832.04846,79.67162,147.09622
"61318",832.06177,79.50561,146.91994
"61319",832.0751,79.32006,146.71893
"61320",832.0884,79.12474,146.50237
"61321",832.1017,78.924545,146.27481
"61322",832.115,78.72434,146.041
"61323",832.1283,78.53147,145.80826
"61324",832.1416,78.35081,145.5817
"61325",832.1549,78.18967,145.36902
"61326",832.1682,78.05295,145.17572
"61327",832.1815,77.94064,145.00256
"61328",832.1948,77.84543,144.84299
"61329",832.2081,77.769745,144.69997
"61330",832.22144,77.70626,144.56679
"61331",832.23474,77.64767,144.43651
"61332",832.24805,77.59884,144.31416
"61333",832.26135,77.56222,144.2025
"61334",832.27466,77.52804,144.09213
"61335",832.28796,77.49142,143.97826
"61336",832.3013,77.454796,143.86324
"61337",832.3146,77.44015,143.76904
"61338",832.3279,77.51827,143.76717
"61339",832.3412,77.806366,143.9777
"61340",832.3545,78.42405,144.52684
"61341",832.3678,79.412834,145.46637
"61342",832.3811,80.709236,146.74442
"61343",832.3944,82.14725,148.20459
"61344",832.4077,83.50469,149.62914
"61345",832.421,84.576485,150.81046
"61346",832.4343,85.23811,151.6151
"61347",832.44763,85.47738,152.01805
"61348",832.46094,85.36019,152.07204
"61349",832.47424,84.98909,151.86844
"61350",832.48755,84.456856,151.49211
"61351",832.50085,83.85626,151.03079
"61352",832.51416,83.25567,150.5507
"61353",832.52747,82.69657,150.09335
"61354",832.5408,82.2034,149.68445
"61355",832.5541,81.778595,149.3285
"61356",832.5674,81.40749,149.01299
"61357",832.5807,81.07301,148.72249
"61358",832.594,80.762955,148.44597
"61359",832.6073,80.47486,148.18172
"61360",832.6206,80.22339,147.94508
"61361",832.6339,80.02319,147.75186
"61362",832.6472,79.888916,147.61832
"61363",832.6605,79.82056,147.54648
"61364",832.6738,79.80591,147.52621
"61365",832.68713,79.82788,147.54211
"61366",832.70044,79.85718,147.56604
"61367",832.71375,79.869385,147.57379
"61368",832.72705,79.84009,147.5404
"61369",832.74036,79.75952,147.45483
"61370",832.75366,79.63012,147.31792
"61371",832.76697,79.46166,147.1379
"61372",832.7803,79.27123,146.93063
"61373",832.7936,79.07591,146.71254
"61374",832.8069,78.87816,146.4859
"61375",832.8202,78.68772,146.2604
"61376",832.8335,78.49729,146.02896
"61377",832.8468,78.311745,145.79645
"61378",832.8601,78.135956,145.5679
"61379",832.8734,77.98215,145.35583
"61380",832.8867,77.84787,145.1585
"61381",832.9,77.74044,144.98381
"61382",832.9133,77.65499,144.82774
"61383",832.92664,77.58663,144.6861
"61384",832.93994,77.5256,144.54964
"61385",832.95325,77.47433,144.42104
"61386",832.96655,77.43282,144.3006
"61387",832.97986,77.38888,144.17642
"61388",832.99316,77.34249,144.04843
"61389",833.0065,77.29366,143.91655
"61390",833.0198,77.264366,143.80267
"61391",833.0331,77.32784,143.78065
"61392",833.0464,77.60616,143.97546
"61393",833.0597,78.21652,144.51102
"61394",833.073,79.21263,145.45139
"61395",833.0863,80.53101,146.74516
"61396",833.0996,82.00809,148.23883
"61397",833.1129,83.421684,149.71518
"61398",833.1262,84.542305,150.94273
"61399",833.1395,85.243,151.78537
"61400",833.15283,85.51156,152.21777
"61401",833.16614,85.4139,152.29236
"61402",833.17944,85.05257,152.1002
"61403",833.19275,84.53742,151.74295
"61404",833.20605,83.95636,151.30368
"61405",833.21936,83.36553,150.83649
"61406",833.23267,82.811325,150.38745
"61407",833.246,82.31571,149.97969
"61408",833.2593,81.87869,149.61504
"61409",833.2726,81.48562,149.28067
"61410",833.2859,81.129166,148.97064
"61411",833.2992,80.79469,148.67146
"61412",833.3125,80.48707,148.38867
"61413",833.3258,80.216064,148.13289
"61414",833.3391,80.00366,147.92725
"61415",833.3524,79.8645,147.78821
"61416",833.3657,79.798584,147.71805
"61417",833.379,79.79126,147.70444
"61418",833.39233,79.823,147.72964
"61419",833.40564,79.85962,147.76074
"61420",833.41895,79.87427,147.771
"61421",833.43225,79.852295,147.74509
"61422",833.44556,79.77417,147.66235
"61423",833.45886,79.65209,147.53322
"61424",833.47217,79.4934,147.36365
"61425",833.4855,79.30297,147.15738
"61426",833.4988,79.09544,146.92807
"61427",833.5121,78.8806,146.68495
"61428",833.5254,78.660866,146.43024
"61429",833.5387,78.450905,146.17842
"61430",833.552,78.26292,145.94202
"61431",833.5653,78.09201,145.71683
"61432",833.5786,77.945526,145.51071
"61433",833.5919,77.81613,145.31711
"61434",833.6052,77.70626,145.13899
"61435",833.6185,77.60616,144.96721
"61436",833.63184,77.52071,144.80695
"61437",833.64514,77.44259,144.65134
"61438",833.65845,77.36935,144.49817
"61439",833.67175,77.296104,144.34271
"61440",833.68506,77.22041,144.18253
"61441",833.69836,77.152054,144.0273
"61442",833.7117,77.134964,143.9212
"61443",833.725,77.24971,143.94641
"61444",833.7383,77.63058,144.24133
"61445",833.7516,78.3679,144.9046
"61446",833.7649,79.47631,145.962
"61447",833.7782,80.85817,147.3275
"61448",833.7915,82.320595,148.81674
"61449",833.8048,83.6292,150.19788
"61450",833.8181,84.593575,151.27567
"61451",833.8314,85.12825,151.95389
"61452",833.8447,85.24544,152.23134
"61453",833.85803,85.033035,152.18286
"61454",833.87134,84.596016,151.90312
"61455",833.88464,84.034485,151.48521
"61456",833.89795,83.421684,150.99849
"61457",833.91125,82.81865,150.50238
"61458",833.92456,82.25956,150.03137
"61459",833.93787,81.75418,149.5966
"61460",833.9512,81.304955,149.2022
"61461",833.9645,80.89723,148.83525
"61462",833.9778,80.52125,148.4873
"61463",833.9911,80.181885,148.16423
"61464",834.0044,79.886475,147.87451
"61465",834.0177,79.6643,147.64879
"61466",834.031,79.5227,147.49669
"61467",834.0443,79.466545,147.42561
"61468",834.0576,79.483635,147.42603
"61469",834.0709,79.54467,147.47092
"61470",834.0842,79.61547,147.52748
"61471",834.09753,79.66186,147.56184
"61472",834.11084,79.66918,147.5586
"61473",834.12415,79.62035,147.49942
"61474",834.13745,79.517815,147.38501
"61475",834.15076,79.364006,147.21613
"61476",834.16406,79.17357,147.00581
"61477",834.17737,78.96361,146.77002
"61478",834.1907,78.751205,146.52522
"61479",834.204,78.54612,146.28111
"61480",834.2173,78.35081,146.04036
"61481",834.2306,78.167694,145.80571
"61482",834.2439,77.99924,145.57999
"61483",834.2572,77.84299,145.3612
"61484",834.2705,77.696495,145.14731
"61485",834.2838,77.5671,144.94592
"61486",834.2971,77.454796,144.75758
"61487",834.3104,77.35714,144.58038
"61488",834.3237,77.26681,144.40746
"61489",834.33704,77.188675,144.24391
"61490",834.35034,77.117874,144.08525
"61491",834.36365,77.051956,143.92926
"61492",834.37695,77.02022,143.80539
"61493",834.39026,77.10567,143.79771
"61494",834.40356,77.43038,144.03198
"61495",834.4169,78.10666,144.62796
"61496",834.4302,79.166245,145.62837
"61497",834.4435,80.533455,146.96953
"61498",834.4568,82.022736,148.47548
"61499",834.4701,83.39971,149.91566
"61500",834.4834,84.4593,151.0815
"61501",834.4967,85.08919,151.85074
"61502",834.51,85.28939,152.20998
"61503",834.5233,85.13313,152.21901
"61504",834.5366,84.72053,151.96681
"61505",834.5499,84.16144,151.55524
"61506",834.56323,83.53399,151.05783
"61507",834.57654,82.9041,150.53838
"61508",834.58984,82.30595,150.03098
"61509",834.60315,81.75174,149.54883
"61510",834.61646,81.24635,149.09819
"61511",834.62976,80.78493,148.67572
"61512",834.64307,80.36744,148.28276
"61513",834.6564,80.00122,147.92802
"61514",834.6697,79.708244,147.63509
"61515",834.683,79.50561,147.42332
"61516",834.6963,79.40307,147.30533
"61517",834.7096,79.40307,147.28667
"61518",834.7229,79.483635,147.34857
"61519",834.7362,79.60082,147.44962
"61520",834.7495,79.72045,147.55676
"61521",834.7628,79.80347,147.63104
"61522",834.7761,79.82056,147.642
"61523",834.7894,79.77417,147.59
"61524",834.80273,79.66674,147.47551
"61525",834.81604,79.50561,147.30396
"61526",834.82935,79.310295,147.09319
"61527",834.84265,79.10033,146.86166
"61528",834.85596,78.88548,146.6187
"61529",834.86926,78.67063,146.36902
"61530",834.88257,78.467995,146.12483
"61531",834.8959,78.28001,145.88896
"61532",834.9092,78.1091,145.6643
"61533",834.9225,77.95285,145.44896
"61534",834.9358,77.80881,145.24094
"61535",834.9491,77.679405,145.04306
"61536",834.9624,77.56222,144.85335
"61537",834.9757,77.44991,144.66486
"61538",834.989,77.34493,144.48018
"61539",835.0023,77.24971,144.30199
"61540",835.0156,77.16426,144.13058
"61541",835.02893,77.103226,143.98093
"61542",835.04224,77.14961,143.93678
"61543",835.05554,77.420616,144.11871
"61544",835.06885,78.0383,144.65579
"61545",835.08215,79.04173,145.59792
"61546",835.09546,80.365,146.89124
"61547",835.10876,81.83719,148.37483
"61548",835.1221,83.228806,149.82387
"61549",835.1354,84.31037,151.00633
"61550",835.1487,84.96712,151.79778
"61551",835.162,85.189285,152.17517
"61552",835.1753,85.04768,152.19574
"61553",835.1886,84.64973,151.95552
"61554",835.2019,84.085754,151.53685
"61555",835.2152,83.4461,151.02487
"61556",835.2285,82.791794,150.47826
"61557",835.2418,82.159454,149.93317
"61558",835.2551,81.56374,149.40494
"61559",835.26843,81.01442,148.90448
"61560",835.28174,80.51392,148.43568
"61561",835.29504,80.06958,148.0074
"61562",835.30835,79.691154,147.63115
"61563",835.32166,79.40063,147.33096
"61564",835.33496,79.21507,147.12668
"61565",835.34827,79.14671,147.03378
"61566",835.3616,79.18089,147.04129
"61567",835.3749,79.28832,147.12312
"61568",835.3882,79.42504,147.2376
"61569",835.4015,79.554436,147.34901
"61570",835.4148,79.64233,147.42297
"61571",835.4281,79.66674,147.4362
"61572",835.4414,79.61791,147.37695
"61573",835.4547,79.50561,147.2527
"61574",835.468,79.34203,147.07367
"61575",835.4813,79.14427,146.85535
"61576",835.4946,78.93187,146.6162
"61577",835.50793,78.71458,146.36552
"61578",835.52124,78.504616,146.11539
"61579",835.53455,78.30686,145.8709
"61580",835.54785,78.12375,145.63487
"61581",835.56116,77.95285,145.40533
"61582",835.57446,77.7966,145.1851
"61583",835.58777,77.65011,144.96976
"61584",835.6011,77.51827,144.76448
"61585",835.6144,77.39864,144.56729
"61586",835.6277,77.29366,144.38101
"61587",835.641,77.20088,144.20366
"61588",835.6543,77.11299,144.02829
"61589",835.6676,77.03731,143.86238
"61590",835.6809,77.02022,143.7527
"61591",835.6942,77.16914,143.8085
"61592",835.7075,77.628136,144.17903
"61593",835.7208,78.4802,144.95697
"61594",835.73413,79.708244,146.13751
"61595",835.74744,81.18532,147.60547
"61596",835.76074,82.68925,149.14644
"61597",835.77405,83.97101,150.51224
"61598",835.78735,84.84993,151.51526
"61599",835.80066,85.27474,152.09163
"61600",835.81396,85.28695,152.26868
"61601",835.8273,84.979324,152.12627
"61602",835.8406,84.4593,151.76184
"61603",835.8539,83.8172,151.2591
"61604",835.8672,83.13115,150.69234
"61605",835.8805,82.44999,150.10902
"61606",835.8938,81.80057,149.53616
"61607",835.9071,81.20485,148.99672
"61608",835.9204,80.66529,148.49481
"61609",835.9337,80.17944,148.02975
"61610",835.947,79.76196,147.61789
"61611",835.9603,79.432365,147.28085
"61612",835.97363,79.21019,147.04094
"61613",835.98694,79.11253,146.9186
"61614",836.00024,79.13695,146.91527
"61615",836.01355,79.259026,147.01038
"61616",836.02686,79.429924,147.15811
"61617",836.04016,79.605705,147.31607
"61618",836.05347,79.73754,147.43558
"61619",836.0668,79.798584,147.48842
"61620",836.0801,79.77905,147.46259
"61621",836.0934,79.68139,147.35802
"61622",836.1067,79.52514,147.1918
"61623",836.12,79.32006,146.97188
"61624",836.1333,79.09056,146.72113
"61625",836.1466,78.85863,146.46077
"61626",836.1599,78.63401,146.20049
"61627",836.1732,78.42649,145.95027
"61628",836.1865,78.24094,145.71555
"61629",836.1998,78.07492,145.49455
"61630",836.21313,77.91623,145.2757
"61631",836.22644,77.769745,145.06409
"61632",836.23975,77.63302,144.85767
"61633",836.25305,77.50851,144.65918
"61634",836.26636,77.39376,144.46657
"61635",836.27966,77.2839,144.27525
"61636",836.29297,77.18623,144.09271
"61637",836.3063,77.11543,143.93398
"61638",836.3196,77.14229,143.87068
"61639",836.3329,77.39376,144.03285
"61640",836.3462,78.00412,144.56177
"61641",836.3595,79.01488,145.51015
"61642",836.3728,80.36744,146.83192
"61643",836.3861,81.881134,148.3571
"61644",836.3994,83.3167,149.85146
"61645",836.4127,84.44709,151.0855
"61646",836.426,85.138016,151.91539
"61647",836.43933,85.37972,152.31766
"61648",836.45264,85.24544,152.35149
"61649",836.46594,84.83528,152.10526
"61650",836.47925,84.25178,151.67285
"61651",836.49255,83.577934,151.13188
"61652",836.50586,82.879684,150.54544
"61653",836.51917,82.20096,149.95671
"61654",836.5325,81.56863,149.39316
"61655",836.5458,80.987564,148.86111
"61656",836.5591,80.46021,148.36462
"61657",836.5724,79.9939,147.91269
"61658",836.5857,79.60815,147.52675
"61659",836.599,79.32494,147.2313
"61660",836.6123,79.1638,147.04906
"61661",836.6256,79.13451,146.99362
"61662",836.6389,79.2224,147.05446
"61663",836.6522,79.38842,147.19618
"61664",836.6655,79.58129,147.36993
"61665",836.67883,79.74975,147.5253
"61666",836.69214,79.85718,147.62491
"61667",836.70544,79.88403,147.64731
"61668",836.71875,79.82544,147.58508
"61669",836.73206,79.69848,147.45267
"61670",836.74536,79.517815,147.26257
"61671",836.75867,79.31274,147.04242
"61672",836.772,79.08812,146.79633
"61673",836.7853,78.86351,146.54321
"61674",836.7986,78.643776,146.28796
"61675",836.8119,78.433815,146.03561
"61676",836.8252,78.238495,145.79135
"61677",836.8385,78.06027,145.55807
"61678",836.8518,77.8967,145.33388
"61679",836.8651,77.752655,145.1241
"61680",836.8784,77.62325,144.92447
"61681",836.8917,77.506065,144.733
"61682",836.905,77.38888,144.53787
"61683",836.91833,77.279015,144.3464
"61684",836.93164,77.188675,144.17104
"61685",836.94495,77.18623,144.08073
"61686",836.95825,77.39864,144.20522
"61687",836.97156,77.960175,144.68546
"61688",836.98486,78.92943,145.59096
"61689",836.99817,80.2478,146.87587
"61690",837.0115,81.74685,148.38266
"61691",837.0248,83.18486,149.87526
"61692",837.0381,84.334785,151.12471
"61693",837.0514,85.050125,151.97551
"61694",837.0647,85.32113,152.40433
"61695",837.078,85.2137,152.46318
"61696",837.0913,84.825516,152.23793
"61697",837.1046,84.25422,151.81743
"61698",837.1179,83.5877,151.28386
"61699",837.1312,82.89433,150.7026
"61700",837.14453,82.21805,150.11678
"61701",837.15784,81.58572,149.55376
"61702",837.17114,81.00221,149.0198
"61703",837.18445,80.46998,148.51889
"61704",837.19775,80.00366,148.06726
"61705",837.21106,79.62035,147.68407
"61706",837.22437,79.34692,147.39876
"61707",837.2377,79.202866,147.2343
"61708",837.251,79.19798,147.2045
"61709",837.2643,79.30785,147.2893
"61710",837.2776,79.4934,147.45322
"61711",837.2909,79.69848,147.64246
"61712",837.3042,79.87427,147.80882
"61713",837.3175,79.98169,147.91232
"61714",837.3308,80.0061,147.93616
"61715",837.3441,79.94995,147.88019
"61716",837.3574,79.82544,147.75412
"61717",837.3707,79.64477,147.568
"61718",837.38403,79.42748,147.3396
"61719",837.39734,79.19554,147.08977
"61720",837.41064,78.96117,146.83025
"61721",837.42395,78.73411,146.57072
"61722",837.43726,78.51682,146.31387
"61723",837.45056,78.32151,146.0722
"61724",837.46387,78.14328,145.84152
"61725",837.4772,77.979706,145.61992
"61726",837.4905,77.83078,145.40785
"61727",837.5038,77.69894,145.20822
"61728",837.5171,77.576866,145.01424
"61729",837.5304,77.45968,144.82132
"61730",837.5437,77.35226,144.6345
"61731",837.557,77.27657,144.47607
"61732",837.5703,77.30099,144.41537
"61733",837.5836,77.55978,144.58981
"61734",837.5969,78.170135,145.12392
"61735",837.6102,79.17357,146.07016
"61736",837.62354,80.48707,147.35783
"61737",837.63684,81.93729,148.82327
"61738",837.65015,83.284966,150.23149
"61739",837.66345,84.32014,151.36932
"61740",837.67676,84.9305,152.11469
"61741",837.69006,85.120926,152.4592
"61742",837.70337,84.962234,152.46054
"61743",837.7167,84.55451,152.20789
"61744",837.73,83.983215,151.77892
"61745",837.7433,83.33379,151.25397
"61746",837.7566,82.66483,150.6892
"61747",837.7699,82.020294,150.12793
"61748",837.7832,81.4197,149.59047
"61749",837.7965,80.87282,149.08795
"61750",837.8098,80.38209,148.6245
"61751",837.8231,79.96704,148.22139
"61752",837.8364,79.63744,147.89076
"61753",837.84973,79.42016,147.66214
"61754",837.86304,79.327385,147.55124
"61755",837.87634,79.361565,147.56439
"61756",837.88965,79.49096,147.67383
"61757",837.90295,79.67162,147.83858
"61758",837.91626,79.85962,148.01631
"61759",837.92957,80.00122,148.15353
"61760",837.9429,80.06714,148.21948
"61761",837.9562,80.045166,148.19962
"61762",837.9695,79.94507,148.10092
"61763",837.9828,79.77905,147.9332
"61764",837.9961,79.569084,147.71632
"61765",838.0094,79.33959,147.47336
"61766",838.0227,79.10033,147.21346
"61767",838.036,78.86839,146.9534
"61768",838.0493,78.64866,146.6983
"61769",838.0626,78.450905,146.45831
"61770",838.0759,78.27268,146.23167
"61771",838.08923,78.12375,146.02876
"61772",838.10254,77.994354,145.84073
"61773",838.11584,77.874725,145.65842
"61774",838.12915,77.76242,145.47969
"61775",838.14246,77.65743,145.30478
"61776",838.15576,77.55245,145.12659
"61777",838.16907,77.454796,144.95244
"61778",838.1824,77.40841,144.8265
"61779",838.1957,77.506065,144.84317
"61780",838.209,77.86984,145.12901
"61781",838.2223,78.58762,145.78023
"61782",838.2356,79.65209,146.80055
"61783",838.2489,80.96071,148.0983
"61784",838.2622,82.31815,149.48576
"61785",838.2755,83.49981,150.73987
"61786",838.2888,84.332344,151.68178
"61787",838.3021,84.75227,152.23709
"61788",838.3154,84.78157,152.4149
"61789",838.32874,84.49836,152.28111
"61790",838.34204,84.000305,151.92363
"61791",838.35535,83.38018,151.42851
"61792",838.36865,82.70878,150.86275
"61793",838.38196,82.04471,150.28333
"61794",838.39526,81.42214,149.72466
"61795",838.40857,80.850845,149.1978
"61796",838.4219,80.33814,148.71169
"61797",838.4352,79.89136,148.27547
"61798",838.4485,79.53246,147.91318
"61799",838.4618,79.276115,147.64221
"61800",838.4751,79.14427,147.48775
"61801",838.4884,79.14427,147.461
"61802",838.5017,79.26147,147.55145
"61803",838.515,79.449455,147.71635
"61804",838.5283,79.65942,147.9091
"61805",838.5416,79.84009,148.07913
"61806",838.55493,79.94751,148.18155
"61807",838.56824,79.96216,148.19455
"61808",838.58154,79.89136,148.12256
"61809",838.59485,79.74975,147.97755
"61810",838.60815,79.55688,147.77686
"61811",838.62146,79.33959,147.54572
"61812",838.63477,79.11009,147.29558
"61813",838.6481,78.87816,147.03583
"61814",838.6614,78.6511,146.77371
"61815",838.6747,78.44602,146.52647
"61816",838.688,78.25803,146.28992
"61817",838.7013,78.08957,146.06702
"61818",838.7146,77.94064,145.85838
"61819",838.7279,77.81125,145.66463
"61820",838.7412,77.69161,145.4766
"61821",838.7545,77.57931,145.29214
"61822",838.7678,77.47677,145.11395
"61823",838.7811,77.38644,144.94476
"61824",838.79443,77.3547,144.83134
"61825",838.80774,77.469444,144.86342
"61826",838.82104,77.85275,145.16765
"61827",838.83435,78.59495,145.84274
"61828",838.84766,79.68139,146.88527
"61829",838.86096,80.99977,148.1937
"61830",838.87427,82.357216,149.58238
"61831",838.8876,83.53155,150.83038
"61832",838.9009,84.349434,151.75864
"61833",838.9142,84.749825,152.29495
"61834",838.9275,84.76936,152.46292
"61835",838.9408,84.48615,152.32875
"61836",838.9541,84.000305,151.9831
"61837",838.9674,83.39483,151.50262
"61838",838.9807,82.74784,150.96173
"61839",838.994,82.10086,150.40062
"61840",839.0073,81.48562,149.85103
"61841",839.0206,80.91676,149.3286
"61842",839.03394,80.40162,148.8421
"61843",839.04724,79.95239,148.40543
"61844",839.06055,79.588615,148.04016
"61845",839.07385,79.32983,147.76851
"61846",839.08716,79.1931,147.61084
"61847",839.10046,79.1931,147.58562
"61848",839.1138,79.30541,147.67271
"61849",839.1271,79.49096,147.83655
"61850",839.1404,79.70092,148.0306
"61851",839.1537,79.87671,148.19704
"61852",839.167,79.98901,148.30548
"61853",839.1803,80.01343,148.32956
"61854",839.1936,79.95239,148.26895
"61855",839.2069,79.81323,148.1283
"61856",839.2202,79.62035,147.92958
"61857",839.2335,79.39086,147.68822
"61858",839.2468,79.14427,147.42259
"61859",839.26013,78.90257,147.15414
"61860",839.27344,78.675514,146.89279
"61861",839.28674,78.467995,146.64388
"61862",839.30005,78.28245,146.41045
"61863",839.31335,78.12375,146.19807
"61864",839.32666,77.98215,145.99783
"61865",839.33997,77.85275,145.80537
"61866",839.3533,77.73556,145.62108
"61867",839.3666,77.62325,145.438
"61868",839.3799,77.51827,145.25874
"61869",839.3932,77.43038,145.09329
"61870",839.4065,77.4255,145.0081
"61871",839.4198,77.62325,145.1254
"61872",839.4331,78.14328,145.57115
"61873",839.4464,79.03441,146.40425
"61874",839.4597,80.2478,147.58746
"61875",839.473,81.6321,148.9795
"61876",839.4863,82.97002,150.36842
"61877",839.49963,84.04913,151.54036
"61878",839.51294,84.732735,152.3505
"61879",839.52625,84.99397,152.75963
"61880",839.53955,84.89143,152.81316
"61881",839.55286,84.51301,152.58759
"61882",839.56616,83.963684,152.17929
"61883",839.57947,83.33379,151.67326
"61884",839.5928,82.69413,151.13779
"61885",839.6061,82.08377,150.61162
"61886",839.6194,81.52224,150.1152
"61887",839.6327,81.007095,149.64763
"61888",839.646,80.54566,149.21767
"61889",839.6593,80.14282,148.83188
"61890",839.6726,79.815674,148.50919
"61891",839.6859,79.588615,148.27637
"61892",839.6992,79.47387,148.14876
"61893",839.7125,79.47387,148.13231
"61894",839.7258,79.571526,148.21352
"61895",839.73914,79.73266,148.36125
"61896",839.75244,79.91089,148.53113
"61897",839.76575,80.062256,148.67972
"61898",839.79236,80.14282,148.76678
"61899",839.80566,80.05493,148.68335
"61900",839.819,79.888916,148.51904
"61901",839.8323,79.66918,148.29584
"61902",839.8456,79.41772,148.03403
"61903",839.8589,79.15648,147.7546
"61904",839.8722,78.905014,147.47676
"61905",839.8855,78.66819,147.20572
"61906",839.8988,78.44846,146.94437
"61907",839.9121,78.25071,146.69812
"61908",839.9254,78.0798,146.47255
"61909",839.9387,77.925995,146.25873
"61910",839.952,77.789276,146.05719
"61911",839.96533,77.662315,145.86115
"61912",839.97864,77.54269,145.66846
"61913",839.99194,77.437706,145.48668
"61914",840.00525,77.40353,145.37242
"61915",840.01855,77.5378,145.42555
"61916",840.03186,77.96506,145.77586
"61917",840.04517,78.751205,146.49841
"61918",840.0585,79.869385,147.57756
"61919",840.0718,81.19508,148.89917
"61920",840.0851,82.528114,150.26955
"61921",840.0984,83.65362,151.47406
"61922",840.1117,84.41535,152.34998
"61923",840.125,84.771805,152.8444
"61924",840.1383,84.75716,152.97888
"61925",840.1516,84.456856,152.82724
"61926",840.1649,83.97589,152.48555
"61927",840.1782,83.40948,152.04338
"61928",840.1915,82.828415,151.56886
"61929",840.20483,82.28397,151.11281
"61930",840.21814,81.7908,150.69101
"61931",840.23145,81.35134,150.30751
"61932",840.24475,80.953384,149.95178
"61933",840.25806,80.59205,149.62024
"61934",840.27136,80.26734,149.31404
"61935",840.28467,79.9939,149.04895
"61936",840.298,79.7937,148.84857
"61937",840.3113,79.67895,148.72737
"61938",840.3246,79.65942,148.6978
"61939",840.3379,79.71557,148.7433
"61940",840.3512,79.815674,148.83452
"61941",840.3645,79.91577,148.92886
"61942",840.3778,79.98169,148.99216
"61943",840.3911,79.98413,148.99402
"61944",840.4044,79.90845,148.91785
"61945",840.4177,79.764404,148.77094
"61946",840.431,79.569084,148.56825
"61947",840.44434,79.34203,148.32773
"61948",840.45764,79.097885,148.06302
"61949",840.47095,78.856186,147.79312
"61950",840.48425,78.624245,147.52544
"61951",840.49756,78.4094,147.2676
"61952",840.51086,78.21164,147.02013
"61953",840.5242,78.03342,146.78601
"61954",840.5375,77.87717,146.5683
"61955",840.5508,77.74044,146.36523
"61956",840.5641,77.61837,146.17255
"61957",840.5774,77.506065,145.98581
"61958",840.5907,77.40597,145.80777
"61959",840.604,77.332726,145.65346
"61960",840.6173,77.3547,145.59207
"61961",840.6306,77.58175,145.73645
"61962",840.6439,78.1091,146.18823
"61963",840.6572,78.97093,146.99097
"61964",840.67053,80.113525,148.1014
"61965",840.68384,81.392845,149.38426
"61966",840.69714,82.6038,150.63875
"61967",840.71045,83.56573,151.68205
"61968",840.72375,84.16388,152.39163
"61969",840.73706,84.39338,152.75125
"61970",840.75037,84.30549,152.80066
"61971",840.7637,83.99298,152.6227
"61972",840.777,83.546196,152.30069
"61973",840.7903,83.05058,151.9159
"61974",840.8036,82.562294,151.52293
"61975",840.8169,82.11307,151.15378
"61976",840.8302,81.71511,150.82185
"61977",840.8435,81.36355,150.5239
"61978",840.8568,81.041275,150.24423
"61979",840.8701,80.73609,149.97159
"61980",840.8834,80.45289,149.7114
"61981",840.8967,80.198975,149.47163
"61982",840.91003,79.9939,149.27277
"61983",840.92334,79.85962,149.1383
"61984",840.93665,79.798584,149.07288
"61985",840.94995,79.801025,149.06903
"61986",840.96326,79.84497,149.10675
"61987",840.97656,79.903564,149.16049
"61988",840.98987,79.940186,149.19409
"61989",841.0032,79.92798,149.18002
"61990",841.0165,79.86206,149.11185
"61991",841.0298,79.73266,148.97813
"61992",841.0431,79.54467,148.78178
"61993",841.0564,79.32494,148.54782
"61994",841.0697,79.09056,148.29234
"61995",841.083,78.8513,148.02466
"61996",841.0963,78.61936,147.75682
"61997",841.1096,78.41184,147.50615
"61998",841.1229,78.22385,147.26852
"61999",841.1362,78.05539,147.04456
"62000",841.14954,77.908905,146.8373
"62001",841.16284,77.78439,146.64743
"62002",841.17615,77.67452,146.46832
"62003",841.18945,77.574425,146.29555
"62004",841.20276,77.48165,146.12697
"62005",841.21606,77.39864,145.96526
"62006",841.2294,77.35958,145.8449
"62007",841.2427,77.44503,145.84782
"62008",841.256,77.76486,146.08781
"62009",841.2693,78.39475,146.64786
"62010",841.2826,79.34692,147.54985
"62011",841.2959,80.533455,148.71597
"62012",841.3092,81.795685,149.99487
"62013",841.3225,82.930954,151.18626
"62014",841.3358,83.77814,152.12505
"62015",841.3491,84.26154,152.72652
"62016",841.3624,84.39338,152.99153
"62017",841.37573,84.24689,152.98233
"62018",841.38904,83.914856,152.78302
"62019",841.40234,83.49004,152.48055
"62020",841.41565,83.04082,152.14038
"62021",841.42896,82.61845,151.81303
"62022",841.44226,82.2449,151.52132
"62023",841.45557,81.92264,151.26921
"62024",841.4689,81.636986,151.04364
"62025",841.4822,81.36843,150.82625
"62026",841.4955,81.09743,150.598
"62027",841.5088,80.82643,150.36131
"62028",841.5221,80.56519,150.1259
"62029",841.5354,80.33814,149.91652
"62030",841.5487,80.164795,149.75374
"62031",841.562,80.0647,149.65878
"62032",841.5753,80.028076,149.62418
"62033",841.5886,80.04028,149.63727
"62034",841.6019,80.07202,149.67026
"62035",841.61523,80.09155,149.69205
"62036",841.62854,80.06714,149.6705
"62037",841.64185,79.98169,149.58716
"62038",841.65515,79.83765,149.44254
"62039",841.66846,79.635,149.23482
"62040",841.68176,79.395744,148.98415
"62041",841.69507,79.14183,148.71135
"62042",841.7084,78.887924,148.43062
"62043",841.7217,78.643776,148.15172
"62044",841.735,78.42161,147.88716
"62045",841.7483,78.22385,147.64008
"62046",841.7616,78.05539,147.4161
"62047",841.7749,77.91135,147.21129
"62048",841.7882,77.786835,147.0215
"62049",841.8015,77.68673,146.85223
"62050",841.8148,77.59884,146.69205
"62051",841.8281,77.52071,146.53888
"62052",841.84143,77.452354,146.39304
"62053",841.85474,77.38888,146.24994
"62054",841.86804,77.332726,146.11218
"62055",841.88135,77.28878,145.98488
"62056",841.89465,77.31808,145.92944
"62057",841.90796,77.51339,146.04094
"62058",841.92126,77.98459,146.43443
"62059",841.9346,78.7805,147.16736
"62060",841.9479,79.869385,148.21812
"62061",841.9612,81.129166,149.47382
"62062",841.9745,82.36454,150.74448
"62063",841.9878,83.387505,151.84134
"62064",842.0011,84.07355,152.63324
"62065",842.0144,84.39338,153.08037
"62066",842.0277,84.39094,153.21523
"62067",842.041,84.159,153.1205
"62068",842.0543,83.790344,152.88182
"62069",842.0676,83.36553,152.57545
"62070",842.08093,82.95293,152.26802
"62071",842.09424,82.59159,151.99896
"62072",842.10754,82.29374,151.7821
"62073",842.12085,82.04471,151.60475
"62074",842.13416,81.812775,151.43672
"62075",842.14746,81.56374,151.24434
"62076",842.16077,81.28054,151.01001
"62077",842.1741,80.970474,150.73996
"62078",842.1874,80.66285,150.46266
"62079",842.2007,80.38941,150.20995
"62080",842.214,80.181885,150.01459
"62081",842.2273,80.05249,149.89087
"62082",842.2406,79.98657,149.8266
"62083",842.2539,79.96704,149.80664
"62084",842.2672,79.96704,149.8056
"62085",842.2805,79.95239,149.78992
"62086",842.2938,79.90112,149.73715
"62087",842.3071,79.7937,149.62665
"62088",842.32043,79.63256,149.45906
"62089",842.33374,79.4226,149.23761
"62090",842.34705,79.19066,148.98763
"62091",842.36035,78.941635,148.7133
"62092",842.37366,78.692604,148.4312
"62093",842.38696,78.44602,148.14375
"62094",842.40027,78.21164,147.86081
"62095",842.4136,77.99191,147.58519
"62096",842.4269,77.79416,147.32468
"62097",842.4402,77.61593,147.07751
"62098",842.4535,77.45968,146.84676
"62099",842.4668,77.330284,146.63797
"62100",842.4801,77.23262,146.45688
"62101",842.4934,77.16426,146.30203
"62102",842.5067,77.11543,146.16458
"62103",842.52,77.08858,146.04758
"62104",842.5333,77.069046,145.93706
"62105",842.54663,77.051956,145.82837
"62106",842.55994,77.03487,145.71915
"62107",842.57324,77.02754,145.61916
"62108",842.58655,77.02266,145.52138
"62109",842.59985,77.02022,145.42589
"62110",842.61316,77.00557,145.31812
"62111",842.62646,76.97139,145.19035
"62112",842.6398,76.92012,145.04443
"62113",842.6531,76.85176,144.87982
"62114",842.6664,76.79561,144.72528
"62115",842.6797,76.82002,144.64955
"62116",842.693,77.04463,144.77478
"62117",842.7063,77.593956,145.23175
"62118",842.7196,78.51682,146.07942
"62119",842.7329,79.75708,147.27333
"62120",842.7462,81.16579,148.67444
"62121",842.7595,82.530556,150.07564
"62122",842.7728,83.63897,151.26314
"62123",842.78613,84.36164,152.09953
"62124",842.79944,84.68391,152.5581
"62125",842.81274,84.664375,152.68495
"62126",842.82605,84.39826,152.5646
"62127",842.83936,83.99054,152.29433
"62128",842.85266,83.53887,151.96736
"62129",842.86597,83.11162,151.6507
"62130",842.8793,82.74296,151.37927
"62131",842.8926,82.44999,151.17203
"62132",842.9059,82.210724,151.00932
"62133",842.9192,81.986115,150.8538
"62134",842.9325,81.74441,150.67416
"62135",842.9458,81.47097,150.45525
"62136",842.9591,81.17067,150.20091
"62137",842.9724,80.867935,149.93477
"62138",842.9857,80.59449,149.68845
"62139",842.999,80.38209,149.49463
"62140",843.0123,80.24536,149.36984
"62141",843.02563,80.177,149.30914
"62142",843.03894,80.15259,149.29025
"62143",843.05225,80.14526,149.28769
"62144",843.06555,80.128174,149.27515
"62145",843.07886,80.07446,149.22543
"62146",843.09216,79.96704,149.12033
"62147",843.10547,79.80591,148.95816
"62148",843.1188,79.59594,148.74213
"62149",843.1321,79.35424,148.4878
"62150",843.1454,79.10033,148.2137
"62151",843.1587,78.84398,147.92923
"62152",843.172,78.60227,147.6514
"62153",843.1853,78.37278,147.37822
"62154",843.1986,78.15793,147.11252
"62155",843.2119,77.962616,146.85963
"62156",843.2252,77.79416,146.6275
"62157",843.2385,77.65011,146.41452
"62158",843.25183,77.53048,146.22145
"62159",843.26514,77.437706,146.0515
"62160",843.27844,77.36935,145.90306
"62161",843.29175,77.313194,145.7647
"62162",843.30505,77.27169,145.63922
"62163",843.31836,77.24971,145.53198
"62164",843.33167,77.239944,145.43626
"62165",843.345,77.239944,145.35
"62166",843.3583,77.242386,145.26619
"62167",843.3716,77.24483,145.18245
"62168",843.3849,77.242386,145.0939
"62169",843.3982,77.23506,145.0004
"62170",843.4115,77.21309,144.89201
"62171",843.4248,77.18135,144.77318
"62172",843.4381,77.134964,144.6387
"62173",843.4514,77.07881,144.49301
"62174",843.4647,77.032425,144.35533
"62175",843.478,77.06172,144.29189
"62176",843.49133,77.279015,144.41736
"62177",843.50464,77.79416,144.84747
"62178",843.51794,78.66575,145.65013
"62179",843.53125,79.84253,146.78522
"62180",843.54456,81.1902,148.12796
"62181",843.55786,82.50614,149.4811
"62182",843.57117,83.595024,150.6483
"62183",843.5845,84.32502,151.49065
"62184",843.5978,84.67414,151.97493
"62185",843.6111,84.69611,152.14297
"62186",843.6244,84.48127,152.07489
"62187",843.6377,84.119934,151.85359
"62188",843.651,83.702446,151.56485
"62189",843.6643,83.299614,151.27773
"62190",843.6776,82.94316,151.02438
"62191",843.6909,82.650185,150.82338
"62192",843.7042,82.408485,150.6645
"62193",843.7175,82.18875,150.52003
"62194",843.73083,81.95926,150.35895
"62195",843.74414,81.7029,150.16382
"62196",843.75745,81.42458,149.93872
"62197",843.77075,81.143814,149.70247
"62198",843.78406,80.88747,149.48187
"62199",843.79736,80.689705,149.31184
"62200",843.81067,80.56275,149.20645
"62201",843.824,80.50416,149.16545
"62202",843.8373,80.49195,149.169
"62203",843.8506,80.499275,149.19171
"62204",843.8639,80.49195,149.2
"62205",843.8772,80.43824,149.16167
"62206",843.8905,80.32838,149.0655
"62207",843.9038,80.15991,148.9073
"62208",843.9171,79.94507,148.69745
"62209",843.9304,79.708244,148.45891
"62210",843.9437,79.45922,148.20076
"62211",843.95703,79.20775,147.93239
"62212",843.97034,78.96117,147.66104
"62213",843.98364,78.73167,147.39908
"62214",843.99695,78.521706,147.14948
"62215",844.01025,78.33616,146.91772
"62216",844.02356,78.1799,146.70947
"62217",844.03687,78.05051,146.5232
"62218",844.0502,77.945526,146.35728
"62219",844.0635,77.857635,146.20518
"62220",844.0768,77.79416,146.07475
"62221",844.0901,77.747765,145.95943
"62222",844.1034,77.71603,145.8573
"62223",844.1167,77.69161,145.7615
"62224",844.13,77.67452,145.67227
"62225",844.1433,77.659874,145.58495
"62226",844.1566,77.642784,145.49472
"62227",844.1699,77.61837,145.39664
"62228",844.1832,77.58907,145.29291
"62229",844.19653,77.55001,145.1785
"62230",844.20984,77.49874,145.05066
"62231",844.22314,77.43282,144.90657
"62232",844.23645,77.36446,144.75798
"62233",844.24976,77.330284,144.64143
"62234",844.26306,77.41085,144.63857
"62235",844.27637,77.72823,144.87503
"62236",844.2897,78.3679,145.4437
"62237",844.303,79.33959,146.36438
"62238",844.3163,80.552986,147.55713
"62239",844.3296,81.849396,148.87082
"62240",844.3429,83.02373,150.10295
"62241",844.3562,83.90997,151.0837
"62242",844.3695,84.43,151.7259
"62243",844.3828,84.6009,152.03525
"62244",844.3961,84.491035,152.06917
"62245",844.4094,84.19318,151.91165
"62246",844.4227,83.79523,151.64474
"62247",844.43604,83.38018,151.3483
"62248",844.44934,82.99199,151.06573
"62249",844.46265,82.66239,150.82964
"62250",844.47595,82.39384,150.64429
"62251",844.48926,82.161896,150.48715
"62252",844.50256,81.94217,150.33499
"62253",844.51587,81.7029,150.15642
"62254",844.5292,81.43679,149.94353
"62255",844.5425,81.15114,149.70277
"62256",844.5558,80.87282,149.46043
"62257",844.5691,80.638435,149.25333
"62258",844.5824,80.46754,149.10239
"62259",844.5957,80.37476,149.02423
"62260",844.609,80.343025,149.00421
"62261",844.6223,80.34058,149.0125
"62262",844.6356,80.33814,149.0207
"62263",844.6489,80.308846,149.00198
"62264",844.66223,80.23071,148.9335
"62265",844.67554,80.09888,148.80887
"62266",844.68884,79.91577,148.62885
"62267",844.70215,79.70336,148.4138
"62268",844.71545,79.4641,148.16527
"62269",844.72876,79.217514,147.90193
"62270",844.74207,78.97093,147.63089
"62271",844.7554,78.73411,147.36191
"62272",844.7687,78.51682,147.10506
"62273",844.782,78.32151,146.86339
"62274",844.7953,78.14816,146.63759
"62275",844.8086,78.00412,146.43567
"62276",844.8219,77.88693,146.2561
"62277",844.8352,77.79172,146.09485
"62278",844.8485,77.71603,145.95015
"62279",844.8618,77.65255,145.81529
"62280",844.8751,77.60372,145.6931
"62281",844.8884,77.56466,145.57915
"62282",844.90173,77.53536,145.47374
"62283",844.91504,77.51339,145.37474
"62284",844.92834,77.49874,145.28238
"62285",844.94165,77.48409,145.18956
"62286",844.95496,77.471886,145.09872
"62287",844.96826,77.46212,145.00995
"62288",844.98157,77.44503,144.91354
"62289",844.9949,77.42794,144.8166
"62290",845.0082,77.40841,144.71669
"62291",845.0215,77.37911,144.6064
"62292",845.0348,77.34005,144.48543
"62293",845.0481,77.298546,144.3608
"62294",845.0614,77.24483,144.22266
"62295",845.0747,77.19844,144.09016
"62296",845.088,77.21797,144.02214
"62297",845.1013,77.40841,144.12564
"62298",845.1146,77.88693,144.52318
"62299",845.1279,78.72678,145.297
"62300",845.14124,79.89624,146.42667
"62301",845.15454,81.26833,147.79552
"62302",845.16785,82.633095,149.19992
"62303",845.18115,83.790344,150.43945
"62304",845.19446,84.58381,151.35136
"62305",845.20776,84.981766,151.89256
"62306",845.22107,85.02083,152.08731
"62307",845.2344,84.79378,152.01717
"62308",845.2477,84.39582,151.76901
"62309",845.261,83.929504,151.44006
"62310",845.2743,83.46563,151.09898
"62311",845.2876,83.05058,150.79224
"62312",845.3009,82.70878,150.54576
"62313",845.3142,82.43534,150.35698
"62314",845.3275,82.19852,150.19626
"62315",845.3408,81.971466,150.03792
"62316",845.3541,81.72732,149.85538
"62317",845.36743,81.461205,149.64325
"62318",845.38074,81.18776,149.41547
"62319",845.39404,80.938736,149.20357
"62320",845.40735,80.73853,149.0327
"62321",845.42065,80.604256,148.92151
"62322",845.43396,80.53834,148.87448
"62323",845.44727,80.51148,148.86446
"62324",845.4606,80.49683,148.8658
"62325",845.4739,80.47486,148.85936
"62326",845.4872,80.42115,148.8205
"62327",845.5005,80.32105,148.73357
"62328",845.5138,80.16968,148.59222
"62329",845.5271,79.96948,148.39734
"62330",845.5404,79.73754,148.16444
"62331",845.5537,79.48608,147.90477
"62332",845.567,79.22728,147.62991
"62333",845.5803,78.97826,147.35674
"62334",845.5936,78.746315,147.09286
"62335",845.60693,78.52903,146.8364
"62336",845.62024,78.331276,146.59267
"62337",845.63354,78.15793,146.36717
"62338",845.64685,78.011444,146.16312
"62339",845.66016,77.891815,145.98134
"62340",845.67346,77.7966,145.82024
"62341",845.68677,77.72335,145.67813
"62342",845.7001,77.67208,145.55571
"62343",845.7134,77.6379,145.44878
"62344",845.7267,77.61837,145.35542
"62345",845.74,77.61349,145.27611
"62346",845.7533,77.61593,145.20396
"62347",845.7666,77.62325,145.13678
"62348",845.7799,77.625694,145.06494
"62349",845.7932,77.62325,144.9883
"62350",845.8065,77.61349,144.90425
"62351",845.8198,77.58663,144.80281
"62352",845.8331,77.55001,144.69077
"62353",845.84644,77.49874,144.56293
"62354",845.85974,77.43282,144.41884
"62355",845.87305,77.35958,144.26537
"62356",845.88635,77.30343,144.1267
"62357",845.89966,77.30831,144.0473
"62358",845.91296,77.47433,144.1292
"62359",845.9263,77.93088,144.50682
"62360",845.9396,78.74143,145.25272
"62361",845.9529,79.88403,146.35599
"62362",845.9662,81.24147,147.70981
"62363",845.9795,82.61845,149.12558
"62364",845.9928,83.792786,150.38174
"62365",846.0061,84.61555,151.32303
"62366",846.0194,85.033035,151.88475
"62367",846.0327,85.08675,152.09575
"62368",846.046,84.86458,152.03255
"62369",846.0593,84.46662,151.7866
"62370",846.07263,83.980774,151.44034
"62371",846.08594,83.4876,151.07156
"62372",846.09924,83.035934,150.72888
"62373",846.11255,82.650185,150.438
"62374",846.12585,82.32792,150.19856
"62375",846.13916,82.05203,149.99542
"62376",846.15247,81.80057,149.80809
"62377",846.1658,81.549095,149.61288
"62378",846.1791,81.290306,149.40251
"62379",846.1924,81.03395,149.18648
"62380",846.2057,80.799576,148.98442
"62381",846.219,80.601814,148.81165
"62382",846.2323,80.46754,148.69618
"62383",846.2456,80.39918,148.64244
"62384",846.2589,80.38453,148.64027
"62385",846.2722,80.39185,148.65962
"62386",846.2855,80.394295,148.67432
"62387",846.2988,80.36256,148.6549
"62388",846.31213,80.274666,148.57835
"62389",846.32544,80.12329,148.43556
"62390",846.33875,79.920654,148.23679
"62391",846.35205,79.68139,147.99504
"62392",846.36536,79.41772,147.7214
"62393",846.37866,79.14427,147.42976
"62394",846.39197,78.88304,147.14178
"62395",846.4053,78.643776,146.86761
"62396",846.4186,78.42649,146.60794
"62397",846.4319,78.238495,146.37077
"62398",846.4452,78.082245,146.15947
"62399",846.4585,77.94797,145.96526
"62400",846.4718,77.838104,145.79126
"62401",846.4851,77.75021,145.6358
"62402",846.4984,77.679405,145.49469
"62403",846.5117,77.62081,145.36357
"62404",846.525,77.574425,145.24283
"62405",846.5383,77.54269,145.13528
"62406",846.55164,77.523155,145.03896
"62407",846.56494,77.51339,144.95178
"62408",846.57825,77.51339,144.87407
"62409",846.59155,77.52071,144.80368
"62410",846.60486,77.52804,144.73352
"62411",846.61816,77.53048,144.6587
"62412",846.6315,77.5256,144.57664
"62413",846.6448,77.50851,144.48222
"62414",846.6581,77.47433,144.37018
"62415",846.6714,77.43282,144.24974
"62416",846.6847,77.37911,144.1158
"62417",846.698,77.31808,143.97285
"62418",846.7113,77.2839,143.85486
"62419",846.7246,77.35226,143.83833
"62420",846.7379,77.65255,144.05588
"62421",846.7512,78.294655,144.62462
"62422",846.7645,79.31518,145.59184
"62423",846.77783,80.64332,146.89857
"62424",846.79114,82.1033,148.37866
"62425",846.80444,83.46807,149.80916
"62426",846.81775,84.53254,150.98201
"62427",846.83105,85.189285,151.7804
"62428",846.84436,85.43343,152.1867
"62429",846.85767,85.330894,152.25397
"62430",846.871,84.98665,152.07631
"62431",846.8843,84.49592,151.74141
"62432",846.8976,83.95148,151.33746
"62433",846.9109,83.4168,150.92627
"62434",846.9242,82.94072,150.55696
"62435",846.9375,82.54276,150.2509
"62436",846.9508,82.210724,149.99832
"62437",846.9641,81.92752,149.78421
"62438",846.9774,81.66384,149.58076
"62439",846.9907,81.40261,149.37154
"62440",847.004,81.14137,149.15413
"62441",847.01733,80.89235,148.94078
"62442",847.03064,80.67994,148.75626
"62443",847.04395,80.52369,148.62126
"62444",847.05725,80.43336,148.5473
"62445",847.07056,80.396736,148.52423
"62446",847.08386,80.394295,148.5342
"62447",847.09717,80.396736,148.54897
"62448",847.1105,80.377205,148.54184
"62449",847.1238,80.306404,148.48283
"62450",847.1371,80.17944,148.36545
"62451",847.1504,79.99878,148.1904
"62452",847.1637,79.77417,147.96576
"62453",847.177,79.520256,147.70479
"62454",847.1903,79.256584,147.42612
"62455",847.2036,78.995346,147.14165
"62456",847.2169,78.74387,146.85878
"62457",847.2302,78.5095,146.58514
"62458",847.2435,78.2971,146.32616
"62459",847.25684,78.11398,146.08983
"62460",847.27014,77.95773,145.87463
"62461",847.28345,77.83322,145.6863
"62462",847.29675,77.73556,145.52092
"62463",847.31006,77.662315,145.3769
"62464",847.32336,77.61593,145.25746
"62465",847.3367,77.58907,145.1561
"62466",847.35,77.576866,145.06854
"62467",847.3633,77.576866,144.99281
"62468",847.3766,77.58419,144.92441
"62469",847.3899,77.591515,144.85623
"62470",847.4032,77.5964,144.78584
"62471",847.4165,77.59884,144.71317
"62472",847.4298,77.591515,144.6308
"62473",847.4431,77.574425,144.53844
"62474",847.4564,77.54757,144.43578
"62475",847.4697,77.51095,144.32251
"62476",847.48303,77.46212,144.19589
"62477",847.49634,77.40841,144.06287
"62478",847.50964,77.37911,143.95258
"62479",847.52295,77.44991,143.94147
"62480",847.53625,77.74044,144.1523
"62481",847.54956,78.37034,144.71158
"62482",847.56287,79.381096,145.6714
"62483",847.5762,80.69703,146.96799
"62484",847.5895,82.14969,148.44243
"62485",847.6028,83.51934,149.87926
"62486",847.6161,84.593575,151.06348
"62487",847.6294,85.25765,151.87111
"62488",847.6427,85.50912,152.28688
"62489",847.656,85.41146,152.36139
"62490",847.6693,85.05989,152.17892
"62491",847.6826,84.55451,151.83167
"62492",847.6959,83.9881,151.40758
"62493",847.7092,83.42901,150.97311
"62494",847.72253,82.91875,150.57
"62495",847.73584,82.476845,150.21931
"62496",847.74915,82.108185,149.92805
"62497",847.76245,81.78836,149.67412
"62498",847.77576,81.49294,149.43459
"62499",847.78906,81.20973,149.19803
"62500",847.80237,80.938736,148.96484
"62501",847.8157,80.69459,148.75003
"62502",847.829,80.49683,148.57399
"62503",847.8423,80.365,148.45769
"62504",847.8556,80.30152,148.40562
"62505",847.8689,80.29664,148.41017
"62506",847.8822,80.323494,148.4463
"62507",847.8955,80.34058,148.47351
"62508",847.9088,80.325935,148.46951
"62509",847.9221,80.26246,148.41623
"62510",847.9354,80.14038,148.30235
"62511",847.9487,79.95972,148.12607
"62512",847.96204,79.73266,147.89775
"62513",847.97534,79.47875,147.63548
"62514",847.98865,79.202866,147.3433
"62515",848.00195,78.92943,147.04495
"62516",848.01526,78.660866,146.74294
"62517",848.02856,78.41184,146.45206
"62518",848.0419,78.18967,146.18025
"62519",848.0552,77.996796,145.9308
"62520",848.0685,77.83078,145.70218
"62521",848.0818,77.68673,145.49034
"62522",848.0951,77.5671,145.29842
"62523",848.1084,77.467,145.12228
"62524",848.1217,77.39132,144.96744
"62525",848.135,77.33517,144.82976
"62526",848.1483,77.30099,144.7123
"62527",848.1616,77.2839,144.61086
"62528",848.1749,77.27413,144.5162
"62529",848.18823,77.27169,144.42857
"62530",848.20154,77.26925,144.34087
"62531",848.21484,77.261925,144.2482
"62532",848.22815,77.25216,144.15286
"62533",848.24146,77.23262,144.04745
"62534",848.25476,77.20088,143.92923
"62535",848.26807,77.15694,143.7978
"62536",848.2814,77.11299,143.66501
"62537",848.2947,77.117874,143.57967
"62538",848.308,77.279015,143.65074
"62539",848.3213,77.72823,144.01492
"62540",848.3346,78.555885,144.77158
"62541",848.3479,79.75464,145.9252
"62542",848.3612,81.20973,147.37262
"62543",848.3745,82.71366,148.91435
"62544",848.3878,84.02716,150.31265
"62545",848.4011,84.97444,151.38579
"62546",848.4144,85.487144,152.05394
"62547",848.42773,85.592125,152.3304
"62548",848.44104,85.3724,152.28543
"62549",848.45435,84.93294,152.01385
"62550",848.46765,84.37141,151.60648
"62551",848.48096,83.76593,151.1376
"62552",848.49426,83.18242,150.67178
"62553",848.50757,82.65507,150.24388
"62554",848.5209,82.193634,149.86542
"62555",848.5342,81.79324,149.53358
"62556",848.5475,81.43435,149.23073
"62557",848.5608,81.10719,148.9484
"62558",848.5741,80.8069,148.68271
"62559",848.5874,80.54566,148.44669
"62560",848.6007,80.34058,148.25867
"62561",848.614,80.216064,148.14479
"62562",848.6273,80.16968,148.10516
"62563",848.6406,80.19653,148.13733
"62564",848.65393,80.272224,148.21916
"62565",848.66724,80.360115,148.31557
"62566",848.68054,80.42359,148.3903
"62567",848.69385,80.43336,148.41331
"62568",848.70715,80.365,148.3585
"62569",848.72046,80.218506,148.22342
"62570",848.73376,80.00122,148.01297
"62571",848.7471,79.7351,147.74689
"62572",848.7604,79.44457,147.44807
"62573",848.7737,79.15404,147.14018
"62574",848.787,78.87572,146.83542
"62575",848.8003,78.61936,146.54393
"62576",848.8136,78.38499,146.2664
"62577",848.8269,78.1799,146.01085
"62578",848.8402,77.99924,145.7733
"62579",848.8535,77.84543,145.55696
"62580",848.8668,77.71847,145.36267
"62581",848.8801,77.62325,145.19615
"62582",848.89343,77.55245,145.05107
"62583",848.90674,77.506065,144.92819
"62584",848.92004,77.47677,144.82095
"62585",848.93335,77.45724,144.72256
"62586",848.94666,77.435265,144.62112
"62587",848.95996,77.41329,144.519
"62588",848.97327,77.383995,144.40886
"62589",848.9866,77.35714,144.30025
"62590",848.9999,77.35958,144.2201
"62591",849.0132,77.486534,144.26453
"62592",849.0265,77.85275,144.5522
"62593",849.0398,78.555885,145.18823
"62594",849.0531,79.61303,146.20024
"62595",849.0664,80.94118,147.5163
"62596",849.0797,82.354774,148.9593
"62597",849.093,83.6292,150.30733
"62598",849.1063,84.578926,151.37047
"62599",849.1196,85.11116,152.04579
"62600",849.13293,85.243,152.33736
"62601",849.14624,85.04768,152.3059
"62602",849.15955,84.63752,152.05347
"62603",849.17285,84.1004,151.66127
"62604",849.18616,83.51934,151.20834
"62605",849.19946,82.9456,150.74458
"62606",849.21277,82.41581,150.30684
"62607",849.2261,81.93973,149.90625
"62608",849.2394,81.51736,149.5445
"62609",849.2527,81.13649,149.21104
"62610",849.266,80.782486,148.89256
"62611",849.2793,80.45533,148.58986
"62612",849.2926,80.177,148.32576
"62613",849.3059,79.96216,148.11646
"62614",849.3192,79.84253,147.99564
"62615",849.3325,79.818115,147.96631
"62616",849.3458,79.87427,148.01678
"62617",849.35913,79.97925,148.11783
"62618",849.37244,80.08911,148.22705
"62619",849.38574,80.164795,148.30551
"62620",849.39905,80.17944,148.32532
"62621",849.41235,80.11597,148.26746
"62622",849.42566,79.97925,148.13437
"62623",849.43896,79.77905,147.93353
"62624",849.4523,79.537346,147.68492
"62625",849.4656,79.26879,147.4019
"62626",849.4789,78.992905,147.10316
"62627",849.4922,78.71946,146.79825
"62628",849.5055,78.46067,146.49944
"62629",849.5188,78.221405,146.21207
"62630",849.5321,78.011444,145.94652
"62631",849.5454,77.82834,145.70126
"62632",849.5587,77.67208,145.47714
"62633",849.572,77.54513,145.27744
"62634",849.5853,77.44259,145.09818
"62635",849.59863,77.35958,144.93524
"62636",849.61194,77.30099,144.79413
"62637",849.62524,77.25948,144.66827
"62638",849.63855,77.23018,144.55333
"62639",849.65186,77.21065,144.44724
"62640",849.66516,77.19844,144.34785
"62641",849.67847,77.18379,144.24565
"62642",849.6918,77.1667,144.14055
"62643",849.7051,77.15938,144.04468
"62644",849.7184,77.22774,144.02426
"62645",849.7317,77.49874,144.20863
"62646",849.745,78.09201,144.72374
"62647",849.7583,79.07103,145.64313
"62648",849.7716,80.39918,146.94225
"62649",849.7849,81.917755,148.4733
"62650",849.7982,83.39239,150.00786
"62651",849.8115,84.593575,151.31506
"62652",849.8248,85.37728,152.24232
"62653",849.83813,85.70931,152.7424
"62654",849.85144,85.64828,152.85979
"62655",849.86475,85.296715,152.68474
"62656",849.87805,84.76448,152.31802
"62657",849.89136,84.15167,151.85411
"62658",849.90466,83.53155,151.36372
"62659",849.91797,82.950485,150.89302
"62660",849.9313,82.43046,150.4652
"62661",849.9446,81.97635,150.08704
"62662",849.9579,81.57839,149.75084
"62663",849.9712,81.22194,149.44371
"62664",849.9845,80.89235,149.15231
"62665",849.9978,80.59449,148.88234
"62666",850.0111,80.343025,148.64946
"62667",850.0244,80.14526,148.46242
"62668",850.0377,80.02319,148.34488
"62669",850.051,79.97681,148.29922
"62670",850.06433,79.99878,148.32047
"62671",850.07764,80.05737,148.37903
"62672",850.09094,80.11841,148.44186
"62673",850.10425,80.14526,148.47241
"62674",850.11755,80.113525,148.44522
"62675",850.13086,80.01099,148.34622
"62676",850.14417,79.84497,148.18054
"62677",850.1575,79.63256,147.96329
"62678",850.1708,79.38842,147.70766
"62679",850.1841,79.12718,147.4273
"62680",850.1974,78.86351,147.13635
"62681",850.2107,78.59739,146.83472
"62682",850.224,78.3386,146.53209
"62683",850.2373,78.09689,146.23846
"62684",850.2506,77.88205,145.96414
"62685",850.2639,77.69161,145.70752
"62686",850.2772,77.53048,145.47424
"62687",850.2905,77.3962,145.26279
"62688",850.30383,77.2839,145.0691
"62689",850.31714,77.196,144.89633
"62690",850.33044,77.13008,144.74278
"62691",850.34375,77.08125,144.60426
"62692",850.35706,77.04463,144.47643
"62693",850.37036,77.015335,144.35477
"62694",850.38367,76.9836,144.22975
"62695",850.397,76.944534,144.09642
"62696",850.4103,76.92012,143.97652
"62697",850.4236,76.97627,143.93642
"62698",850.4369,77.2375,144.10315
"62699",850.4502,77.83322,144.61253
"62700",850.4635,78.839096,145.55069
"62701",850.4768,80.20874,146.88405
"62702",850.4901,81.78348,148.4653
"62703",850.5034,83.33379,150.07135
"62704",850.5167,84.62043,151.46217
"62705",850.53,85.4847,152.47084
"62706",850.54333,85.88022,153.03775
"62707",850.55664,85.872894,153.21419
"62708",850.56995,85.555504,153.08032
"62709",850.58325,85.04036,152.73878
"62710",850.59656,84.42512,152.28105
"62711",850.60986,83.79767,151.79189
"62712",850.62317,83.19951,151.31241
"62713",850.6365,82.66483,150.87772
"62714",850.6498,82.196075,150.49223
"62715",850.6631,81.78348,150.14827
"62716",850.6764,81.40505,149.82558
"62717",850.6897,81.05348,149.51791
"62718",850.703,80.73121,149.22856
"62719",850.7163,80.445564,148.96577
"62720",850.7296,80.218506,148.75264
"62721",850.7429,80.07446,148.61542
"62722",850.7562,80.01099,148.55426
"62723",850.76953,80.01343,148.55704
"62724",850.78284,80.05737,148.60141
"62725",850.79614,80.111084,148.65692
"62726",850.80945,80.130615,148.67993
"62727",850.82275,80.10132,148.65472
"62728",850.83606,80.008545,148.56512
"62729",850.84937,79.85474,148.41159
"62730",850.8627,79.64721,148.19952
"62731",850.876,79.40307,147.94435
"62732",850.8893,79.13695,147.65958
"62733",850.9026,78.86351,147.35916
"62734",850.9159,78.59251,147.05264
"62735",850.9292,78.331276,146.74742
"62736",850.9425,78.08469,146.44868
"62737",850.9558,77.86008,146.16422
"62738",850.9691,77.662315,145.89958
"62739",850.9824,77.4963,145.6605
"62740",850.9957,77.36202,145.44798
"62741",851.00903,77.25704,145.26056
"62742",851.02234,77.17403,145.09183
"62743",851.03564,77.10567,144.93515
"62744",851.04895,77.051956,144.79099
"62745",851.06226,77.00557,144.65247
"62746",851.07556,76.964066,144.51738
"62747",851.08887,76.925,144.38344
"62748",851.1022,76.88594,144.24828
"62749",851.1155,76.84932,144.11433
"62750",851.1288,76.84688,144.01343
"62751",851.1421,76.95674,144.02475
"62752",851.1554,77.32052,144.29343
"62753",851.1687,78.05295,144.94212
"62754",851.182,79.19798,146.0263
"62755",851.1953,80.672615,147.47588
"62756",851.2086,82.28886,149.11314
"62757",851.2219,83.78546,150.68127
"62758",851.2352,84.95003,151.96414
"62759",851.24854,85.65316,152.82196
"62760",851.26184,85.889984,153.23544
"62761",851.27515,85.74593,153.27545
"62762",851.28845,85.333336,153.04242
"62763",851.30176,84.75716,152.6329
"62764",851.31506,84.11017,152.13458
"62765",851.32837,83.46807,151.62093
"62766",851.3417,82.87236,151.13359
"62767",851.355,82.34501,150.696
"62768",851.3683,81.88602,150.31029
"62769",851.3816,81.48318,149.96638
"62770",851.3949,81.11696,149.64651
"62771",851.4082,80.782486,149.34695
"62772",851.4215,80.4773,149.06622
"62773",851.4348,80.22095,148.82478
"62774",851.4481,80.028076,148.63882
"62775",851.4614,79.91577,148.5274
"62776",851.47473,79.87671,148.48572
"62777",851.48804,79.89868,148.50385
"62778",851.50134,79.95239,148.55438
"62779",851.51465,79.99634,148.59683
"62780",851.52795,80.00366,148.60403
"62781",851.54126,79.95239,148.55289
"62782",851.55457,79.83276,148.43176
"62783",851.5679,79.64965,148.24342
"62784",851.5812,79.4226,148.00542
"62785",851.5945,79.17113,147.7359
"62786",851.6078,78.90013,147.439
"62787",851.6211,78.6218,147.1263
"62788",851.6344,78.348366,146.80978
"62789",851.6477,78.08469,146.49449
"62790",851.661,77.838104,146.18805
"62791",851.6743,77.61349,145.89587
"62792",851.6876,77.42306,145.63086
"62793",851.7009,77.264366,145.39163
"62794",851.71423,77.13252,145.1743
"62795",851.72754,77.02998,144.98215
"62796",851.74084,76.9543,144.81364
"62797",851.75415,76.89815,144.66231
"62798",851.76746,76.84932,144.51654
"62799",851.78076,76.807816,144.37657
"62800",851.79407,76.76143,144.23042
"62801",851.8074,76.70527,144.07306
"62802",851.8207,76.65644,143.92126
"62803",851.834,76.67353,143.83386
"62804",851.8473,76.86885,143.92523
"62805",851.8606,77.38155,144.34009
"62806",851.8739,78.30686,145.18356
"62807",851.8872,79.635,146.45879
"62808",851.9005,81.22438,148.03676
"62809",851.9138,82.85039,149.70103
"62810",851.9271,84.25178,151.1915
"62811",851.9404,85.240555,152.31314
"62812",851.95374,85.74593,152.98228
"62813",851.96704,85.80698,153.22289
"62814",851.98035,85.53109,153.12846
"62815",851.99365,85.02571,152.79593
"62816",852.00696,84.39826,152.32553
"62817",852.02026,83.734184,151.7989
"62818",852.03357,83.087204,151.26862
"62819",852.0469,82.49149,150.76938
"62820",852.0602,81.9617,150.31744
"62821",852.0735,81.497826,149.91487
"62822",852.0868,81.08278,149.54663
"62823",852.1001,80.71412,149.2118
"62824",852.1134,80.38941,148.90942
"62825",852.1267,80.11841,148.65059
"62826",852.14,79.91821,148.4541
"62827",852.1533,79.80591,148.33923
"62828",852.1666,79.77173,148.29898
"62829",852.17993,79.80347,148.32358
"62830",852.19324,79.869385,148.38336
"62831",852.20654,79.937744,148.44763
"62832",852.21985,79.974365,148.4823
"62833",852.23315,79.94995,148.45709
"62834",852.24646,79.85718,148.36276
"62835",852.25977,79.69848,148.1996
"62836",852.2731,79.483635,147.97533
"62837",852.2864,79.22972,147.70528
"62838",852.2997,78.958725,147.4102
"62839",852.313,78.68284,147.10178
"62840",852.3263,78.416725,146.7945
"62841",852.3396,78.16525,146.49355
"62842",852.3529,77.93576,146.20671
"62843",852.3662,77.72579,145.93224
"62844",852.3795,77.5378,145.67317
"62845",852.3928,77.37423,145.43265
"62846",852.4061,77.23018,145.20654
"62847",852.41943,77.10567,144.99547
"62848",852.43274,77.00313,144.80247
"62849",852.44604,76.92256,144.62825
"62850",852.45935,76.859085,144.4686
"62851",852.47266,76.80293,144.31429
"62852",852.48596,76.74189,144.15334
"62853",852.49927,76.67841,143.98804
"62854",852.5126,76.61982,143.82564
"62855",852.5259,76.610054,143.71024
"62856",852.5392,76.74433,143.73857
"62857",852.5525,77.154495,144.047
"62858",852.5658,77.96506,144.76863
"62859",852.5791,79.18822,145.92819
"62860",852.5924,80.719,147.43361
"62861",852.6057,82.354774,149.09186
"62862",852.619,83.83673,150.6474
"62863",852.6323,84.93782,151.8684
"62864",852.6456,85.55306,152.63794
"62865",852.65894,85.697105,152.95552
"62866",852.67224,85.45785,152.8943
"62867",852.68555,84.962234,152.56924
"62868",852.69885,84.32502,152.0871
"62869",852.71216,83.63653,151.53377
"62870",852.72546,82.95293,150.9638
"62871",852.7388,82.32304,150.4262
"62872",852.7521,81.74929,149.92505
"62873",852.7654,81.22926,149.45969
"62874",852.7787,80.76051,149.02936
"62875",852.792,80.34058,148.6332
"62876",852.8053,79.97925,148.2825
"62877",852.8186,79.69848,148.00108
"62878",852.8319,79.5227,147.81587
"62879",852.8452,79.466545,147.7448
"62880",852.8585,79.520256,147.78183
"62881",852.8718,79.65453,147.90111
"62882",852.88513,79.81323,148.04901
"62883",852.89844,79.95239,148.18234
"62884",852.91174,80.02319,148.25165
"62885",852.92505,80.01343,148.24261
"62886",852.93835,79.91333,148.14294
"62887",852.95166,79.73998,147.96689
"62888",852.96497,79.51293,147.7317
"62889",852.9783,79.25414,147.45769
"62890",852.9916,78.9807,147.16093
"62891",853.0049,78.69993,146.84831
"62892",853.0182,78.42405,146.5318
"62893",853.0315,78.15549,146.21399
"62894",853.0448,77.90402,145.90488
"62895",853.0581,77.679405,145.61476
"62896",853.0714,77.49142,145.35425
"62897",853.0847,77.33517,145.1196
"62898",853.098,77.208206,144.90936
"62899",853.1113,77.10567,144.71957
"62900",853.12463,77.01778,144.54123
