"","Time..s.","PPG.trace","Preprocessed.PPG"
"57916",796.4187,81.13649,92.034294
"57917",796.432,80.97536,91.908676
"57918",796.4453,80.79469,91.75849
"57919",796.4586,80.601814,91.59045
"57920",796.4719,80.40894,91.41638
"57921",796.4852,80.23071,91.25093
"57922",796.49854,80.076904,91.10433
"57923",796.51184,79.95239,90.98222
"57924",796.52515,79.85474,90.88308
"57925",796.53845,79.783936,90.80774
"57926",796.55176,79.73022,90.74727
"57927",796.56506,79.691154,90.699776
"57928",796.57837,79.65453,90.6535
"57929",796.5917,79.61303,90.601204
"57930",796.605,79.55688,90.53296
"57931",796.6183,79.48852,90.45075
"57932",796.6316,79.40795,90.3542
"57933",796.6449,79.32494,90.25269
"57934",796.6582,79.24437,90.151024
"57935",796.6715,79.168686,90.05173
"57936",796.6848,79.097885,89.95495
"57937",796.6981,79.027084,89.85596
"57938",796.7114,78.96117,89.759636
"57939",796.72473,78.89769,89.6637
"57940",796.73804,78.84398,89.57554
"57941",796.75134,78.80492,89.50035
"57942",796.76465,78.77562,89.43371
"57943",796.77795,78.75609,89.375916
"57944",796.79126,78.73899,89.31995
"57945",796.80457,78.71946,89.26101
"57946",796.8179,78.70237,89.2039
"57947",796.8312,78.69016,89.151146
"57948",796.8445,78.71702,89.13707
"57949",796.8578,78.83177,89.21173
"57950",796.8711,79.093,89.436455
"57951",796.8844,79.52758,89.84269
"57952",796.8977,80.113525,90.41387
"57953",796.911,80.77272,91.076614
"57954",796.9243,81.39773,91.72577
"57955",796.9376,81.87869,92.25041
"57956",796.9509,82.15457,92.585
"57957",796.96423,82.22781,92.72557
"57958",796.97754,82.14725,92.71462
"57959",796.99084,81.97635,92.610825
"57960",797.00415,81.77127,92.46751
"57961",797.01746,81.566185,92.31777
"57962",797.03076,81.3782,92.17873
"57963",797.04407,81.20485,92.04845
"57964",797.0574,81.03883,91.92008
"57965",797.0707,80.87038,91.78409
"57966",797.084,80.69703,91.63794
"57967",797.0973,80.516365,91.47906
"57968",797.1106,80.3357,91.31453
"57969",797.1239,80.16235,91.15167
"57970",797.1372,80.0061,91.000496
"57971",797.1505,79.87915,90.87373
"57972",797.1638,79.783936,90.77474
"57973",797.1771,79.72045,90.704506
"57974",797.1904,79.67895,90.65427
"57975",797.20374,79.65453,90.61982
"57976",797.21704,79.62524,90.57973
"57977",797.23035,79.586174,90.52895
"57978",797.24365,79.53246,90.46231
"57979",797.25696,79.46899,90.384224
"57980",797.27026,79.398186,90.29683
"57981",797.28357,79.3225,90.20234
"57982",797.2969,79.24193,90.10059
"57983",797.3102,79.1638,89.99878
"57984",797.3235,79.08812,89.896965
"57985",797.3368,79.01488,89.79523
"57986",797.3501,78.9514,89.700966
"57987",797.3634,78.90013,89.61693
"57988",797.3767,78.86107,89.543495
"57989",797.39,78.83177,89.47861
"57990",797.4033,78.80736,89.41769
"57991",797.4166,78.785385,89.358444
"57992",797.42993,78.76097,89.296074
"57993",797.44324,78.73899,89.235374
"57994",797.45654,78.746315,89.20329
"57995",797.46985,78.83177,89.24957
"57996",797.48315,79.05394,89.435234
"57997",797.49646,79.447014,89.798744
"57998",797.50977,79.99878,90.33323
"57999",797.5231,80.635994,90.970406
"58000",797.5364,81.253685,91.60797
"58001",797.5497,81.74441,92.13787
"58002",797.563,82.039825,92.4878
"58003",797.5763,82.1326,92.64432
"58004",797.5896,82.06424,92.6426
"58005",797.6029,81.89578,92.53865
"58006",797.6162,81.67849,92.3806
"58007",797.6295,81.461205,92.21577
"58008",797.6428,81.26101,92.06123
"58009",797.6561,81.08766,91.92729
"58010",797.66943,80.92897,91.80259
"58011",797.68274,80.7776,91.68025
"58012",797.69604,80.62379,91.550735
"58013",797.70935,80.462654,91.409096
"58014",797.72266,80.29664,91.25754
"58015",797.73596,80.14282,91.11299
"58016",797.74927,80.00366,90.978294
"58017",797.7626,79.886475,90.86122
"58018",797.7759,79.7937,90.7649
"58019",797.7892,79.727776,90.69253
"58020",797.8025,79.676506,90.63275
"58021",797.8158,79.63744,90.58358
"58022",797.8291,79.60082,90.53563
"58023",797.8424,79.55688,90.47921
"58024",797.8557,79.500725,90.40921
"58025",797.869,79.432365,90.32525
"58026",797.8823,79.35668,90.23183
"58027",797.8956,79.28344,90.13848
"58028",797.90894,79.21507,90.04772
"58029",797.92224,79.15892,89.96704
"58030",797.93555,79.11009,89.89193
"58031",797.94885,79.061264,89.81529
"58032",797.96216,79.012436,89.73713
"58033",797.97546,78.96117,89.655
"58034",797.9888,78.9099,89.571266
"58035",798.0021,78.86595,89.493256
"58036",798.0154,78.82933,89.421196
"58037",798.0287,78.82201,89.37729
"58038",798.042,78.89281,89.41128
"58039",798.0553,79.08812,89.57199
"58040",798.0686,79.43725,89.892624
"58041",798.0819,79.94507,90.38286
"58042",798.0952,80.5481,90.98418
"58043",798.1085,81.15358,91.60678
"58044",798.1218,81.65652,92.14577
"58045",798.13513,81.98367,92.52469
"58046",798.14844,82.11551,92.71851
"58047",798.16174,82.08377,92.752884
"58048",798.17505,81.93729,92.67152
"58049",798.18835,81.73464,92.52941
"58050",798.20166,81.5198,92.368774
"58051",798.21497,81.31472,92.21119
"58052",798.2283,81.12428,92.06184
"58053",798.2416,80.94362,91.916306
"58054",798.2549,80.765396,91.76757
"58055",798.2682,80.584724,91.61082
"58056",798.2815,80.39918,91.44354
"58057",798.2948,80.216064,91.2729
"58058",798.3081,80.045166,91.10876
"58059",798.3214,79.89868,90.963684
"58060",798.3347,79.77417,90.836006
"58061",798.348,79.67895,90.73373
"58062",798.3613,79.61059,90.655334
"58063",798.37463,79.56664,90.59922
"58064",798.38794,79.53246,90.5515
"58065",798.40125,79.50317,90.50759
"58066",798.41455,79.46899,90.457886
"58067",798.42786,79.4226,90.394905
"58068",798.44116,79.361565,90.31583
"58069",798.45447,79.29565,90.22996
"58070",798.4678,79.22972,90.14202
"58071",798.4811,79.1638,90.05203
"58072",798.4944,79.10277,89.96487
"58073",798.5077,79.04173,89.87579
"58074",798.521,78.9807,89.78481
"58075",798.5343,78.91966,89.691925
"58076",798.5476,78.86595,89.604454
"58077",798.5609,78.81712,89.52019
"58078",798.5742,78.77318,89.43928
"58079",798.5875,78.746315,89.37408
"58080",798.6008,78.77074,89.35932
"58081",798.61414,78.89769,89.44786
"58082",798.62744,79.185776,89.7015
"58083",798.64075,79.639885,90.130165
"58084",798.65405,80.233154,90.71218
"58085",798.66736,80.87282,91.35913
"58086",798.68066,81.446556,91.960144
"58087",798.694,81.864044,92.42284
"58088",798.7073,82.07889,92.69593
"58089",798.7206,82.1033,92.78531
"58090",798.7339,81.99344,92.74117
"58091",798.7472,81.80545,92.61548
"58092",798.7605,81.583275,92.44972
"58093",798.7738,81.36111,92.27703
"58094",798.7871,81.15358,92.11204
"58095",798.8004,80.96315,91.95766
"58096",798.8137,80.782486,91.80709
"58097",798.827,80.604256,91.65331
"58098",798.84033,80.41871,91.48665
"58099",798.85364,80.233154,91.31418
"58100",798.86694,80.05249,91.1408
"58101",798.88025,79.888916,90.97887
"58102",798.89355,79.75464,90.84112
"58103",798.90686,79.65209,90.7309
"58104",798.92017,79.57885,90.64679
"58105",798.9335,79.53002,90.5848
"58106",798.9468,79.49584,90.535934
"58107",798.9601,79.4641,90.48844
"58108",798.9734,79.429924,90.437515
"58109",798.9867,79.38842,90.3782
"58110",799,79.34203,90.3127
"58111",799.0133,79.290764,90.24087
"58112",799.0266,79.23216,90.1601
"58113",799.0399,79.17113,90.07507
"58114",799.0532,79.11253,89.99058
"58115",799.0665,79.0515,89.90181
"58116",799.07983,78.99046,89.811134
"58117",799.09314,78.92943,89.71855
"58118",799.10645,78.873276,89.628944
"58119",799.11975,78.82201,89.542465
"58120",799.13306,78.77562,89.45927
"58121",799.14636,78.74876,89.39414
"58122",799.15967,78.768295,89.37458
"58123",799.173,78.887924,89.45572
"58124",799.1863,79.151596,89.68464
"58125",799.1996,79.58373,90.09026
"58126",799.2129,80.14526,90.63879
"58127",799.2262,80.765396,91.26346
"58128",799.2395,81.33181,91.85379
"58129",799.2528,81.75418,92.31778
"58130",799.2661,81.97879,92.597206
"58131",799.2794,82.01785,92.698105
"58132",799.2927,81.917755,92.661064
"58133",799.306,81.73708,92.54032
"58134",799.31934,81.51736,92.37488
"58135",799.33264,81.29763,92.20257
"58136",799.34595,81.0901,92.03559
"58137",799.35925,80.89723,91.876785
"58138",799.37256,80.71412,91.72171
"58139",799.38586,80.5359,91.5658
"58140",799.3992,80.35523,91.401886
"58141",799.4125,80.17212,91.22987
"58142",799.4258,79.99878,91.06191
"58143",799.4391,79.84741,90.91051
"58144",799.4524,79.72289,90.78122
"58145",799.4657,79.635,90.68467
"58146",799.479,79.57641,90.61467
"58147",799.4923,79.54467,90.569695
"58148",799.5056,79.517815,90.52861
"58149",799.5189,79.4934,90.48913
"58150",799.5322,79.46166,90.44156
"58151",799.54553,79.42748,90.39056
"58152",799.55884,79.381096,90.32628
"58153",799.57214,79.32983,90.25567
"58154",799.58545,79.27123,90.17613
"58155",799.59875,79.20775,90.089874
"58156",799.61206,79.13939,89.99676
"58157",799.62537,79.07347,89.903946
"58158",799.6387,79.009995,89.811516
"58159",799.652,78.9514,89.721985
"58160",799.6653,78.89281,89.63062
"58161",799.6786,78.84154,89.544754
"58162",799.6919,78.802475,89.46949
"58163",799.7052,78.79759,89.427185
"58164",799.7185,78.870834,89.46285
"58165",799.7318,79.07591,89.632645
"58166",799.7451,79.449455,89.97731
"58167",799.7584,79.974365,90.485016
"58168",799.7717,80.59693,91.10678
"58169",799.78503,81.20485,91.73335
"58170",799.79834,81.7029,92.26906
"58171",799.81165,82.01541,92.63478
"58172",799.82495,82.1326,92.81495
"58173",799.83826,82.08377,92.83276
"58174",799.85156,81.92264,92.73675
"58175",799.86487,81.70046,92.57465
"58176",799.8782,81.46609,92.39342
"58177",799.8915,81.23659,92.20973
"58178",799.9048,81.0193,92.03109
"58179",799.9181,80.814224,91.857864
"58180",799.9314,80.618904,91.68799
"58181",799.9447,80.42359,91.51202
"58182",799.958,80.22827,91.32993
"58183",799.9713,80.045166,91.15396
"58184",799.9846,79.886475,90.99668
"58185",799.9979,79.7522,90.85886
"58186",800.0112,79.64477,90.74368
"58187",800.02454,79.569084,90.6569
"58188",800.03784,79.51537,90.58972
"58189",800.05115,79.48119,90.5404
"58190",800.06445,79.4519,90.49489
"58191",800.07776,79.42748,90.45335
"58192",800.09106,79.40063,90.4086
"58193",800.1044,79.361565,90.35081
"58194",800.1177,79.30785,90.277145
"58195",800.131,79.24681,90.19447
"58196",800.1443,79.17845,90.10258
"58197",800.1576,79.10033,89.99878
"58198",800.1709,79.0222,89.89254
"58199",800.1842,78.94896,89.78874
"58200",800.1975,78.88548,89.69242
"58201",800.2108,78.82689,89.599
"58202",800.2241,78.77562,89.51107
"58203",800.2374,78.73655,89.43374
"58204",800.25073,78.70481,89.36252
"58205",800.26404,78.69993,89.31716
"58206",800.27734,78.768295,89.3449
"58207",800.29065,78.975815,89.51393
"58208",800.30396,79.35424,89.86035
"58209",800.31726,79.8938,90.37973
"58210",800.33057,80.533455,91.01607
"58211",800.3439,81.16579,91.66507
"58212",800.3572,81.68337,92.219086
"58213",800.3705,82.01297,92.60129
"58214",800.3838,82.14725,92.79847
"58215",800.3971,82.11307,92.83139
"58216",800.4104,81.96658,92.75094
"58217",800.4237,81.761505,92.607315
"58218",800.437,81.53445,92.4353
"58219",800.4503,81.30984,92.258644
"58220",800.4636,81.092545,92.08228
"58221",800.4769,80.88991,91.91379
"58222",800.49023,80.69703,91.74872
"58223",800.50354,80.50416,91.57763
"58224",800.51685,80.308846,91.39807
"58225",800.53015,80.12329,91.22217
"58226",800.54346,79.957275,91.060005
"58227",800.55676,79.81323,90.91463
"58228",800.57007,79.69848,90.79404
"58229",800.5834,79.61547,90.70161
"58230",800.5967,79.56176,90.63588
"58231",800.61,79.5227,90.58312
"58232",800.6233,79.48608,90.531586
"58233",800.6366,79.4519,90.481346
"58234",800.6499,79.40795,90.42027
"58235",800.6632,79.35668,90.3505
"58236",800.6765,79.30053,90.27425
"58237",800.6898,79.24193,90.19379
"58238",800.7031,79.183334,90.1115
"58239",800.71643,79.12718,90.02983
"58240",800.72974,79.06859,89.94396
"58241",800.74304,79.009995,89.85626
"58242",800.75635,78.9514,89.76673
"58243",800.76965,78.89525,89.67781
"58244",800.78296,78.84154,89.58958
"58245",800.79626,78.79515,89.50699
"58246",800.8096,78.75609,89.430275
"58247",800.8229,78.74143,89.37675
"58248",800.8362,78.79515,89.391136
"58249",800.8495,78.97337,89.53171
"58250",800.8628,79.310295,89.83655
"58251",800.8761,79.81079,90.31549
"58252",800.8894,80.42359,90.92238
"58253",800.9027,81.05104,91.563065
"58254",800.916,81.57839,92.12326
"58255",800.9293,81.934845,92.52904
"58256",800.9426,82.09598,92.75063
"58257",800.95593,82.08377,92.803925
"58258",800.96924,81.95438,92.73965
"58259",800.98254,81.75174,92.59808
"58260",800.99585,81.514915,92.416
"58261",801.00916,81.27322,92.22164
"58262",801.02246,81.03883,92.02705
"58263",801.03577,80.816666,91.83734
"58264",801.0491,80.618904,91.6651
"58265",801.0624,80.4358,91.501335
"58266",801.0757,80.2649,91.344055
"58267",801.089,80.1062,91.193634
"58268",801.1023,79.96216,91.05291
"58269",801.1156,79.83765,90.927216
"58270",801.1289,79.742424,90.82692
"58271",801.1422,79.676506,90.75295
"58272",801.1555,79.64233,90.708664
"58273",801.1688,79.61791,90.67307
"58274",801.1821,79.59838,90.6416
"58275",801.19543,79.57397,90.60464
"58276",801.20874,79.53979,90.557144
"58277",801.22205,79.48852,90.49149
"58278",801.23535,79.43481,90.4218
"58279",801.24866,79.37377,90.3431
"58280",801.26196,79.310295,90.260056
"58281",801.27527,79.24681,90.17502
"58282",801.2886,79.185776,90.09045
"58283",801.3019,79.12718,90.00641
"58284",801.3152,79.07103,89.92298
"58285",801.3285,79.01976,89.84268
"58286",801.3418,78.97093,89.76322
"58287",801.3551,78.924545,89.68468
"58288",801.3684,78.88304,89.609566
"58289",801.3817,78.86351,89.55513
"58290",801.395,78.91234,89.56844
"58291",801.4083,79.08812,89.710236
"58292",801.42163,79.43725,90.03087
"58293",801.43494,79.94995,90.525986
"58294",801.44824,80.57252,91.14699
"58295",801.46155,81.20241,91.79477
"58296",801.47485,81.72488,92.35481
"58297",801.48816,82.0618,92.745636
"58298",801.50146,82.196075,92.94434
"58299",801.5148,82.15213,92.969025
"58300",801.5281,81.98367,92.86782
"58301",801.5414,81.74685,92.692986
"58302",801.5547,81.48562,92.48634
"58303",801.568,81.22682,92.27397
"58304",801.5813,80.98268,92.06817
"58305",801.5946,80.75319,91.869385
"58306",801.6079,80.54322,91.68295
"58307",801.6212,80.34791,91.504616
"58308",801.6345,80.16968,91.33726
"58309",801.6478,80.01587,91.18875
"58310",801.66113,79.888916,91.062294
"58311",801.67444,79.7937,90.96361
"58312",801.68774,79.73266,90.89612
"58313",801.70105,79.69604,90.85114
"58314",801.71436,79.674065,90.81967
"58315",801.72766,79.656975,90.7924
"58316",801.74097,79.63256,90.75726
"58317",801.7543,79.5935,90.70672
"58318",801.7676,79.54467,90.64519
"58319",801.7809,79.48852,90.57481
"58320",801.7942,79.4226,90.492905
"58321",801.8075,79.34692,90.39918
"58322",801.8208,79.27123,90.303085
"58323",801.8341,79.19066,90.19974
"58324",801.8474,79.11253,90.09632
"58325",801.8607,79.044174,90.00023
"58326",801.874,78.98558,89.911766
"58327",801.8873,78.93187,89.826355
"58328",801.90063,78.8806,89.74171
"58329",801.91394,78.83421,89.66034
"58330",801.92725,78.79271,89.582405
"58331",801.94055,78.7805,89.53247
"58332",801.95386,78.856186,89.570045
"58333",801.96716,79.06859,89.746704
"58334",801.98047,79.4519,90.10091
"58335",801.9938,79.98413,90.61601
"58336",802.0071,80.59693,91.22832
"58337",802.0204,81.18288,91.83292
"58338",802.0337,81.64431,92.331314
"58339",802.047,81.91287,92.65126
"58340",802.0603,81.98123,92.779396
"58341",802.0736,81.88846,92.748535
"58342",802.0869,81.68337,92.60246
"58343",802.1002,81.41726,92.388954
"58344",802.1135,81.13405,92.15003
"58345",802.12683,80.85817,91.90959
"58346",802.14014,80.59937,91.67761
"58347",802.15344,80.360115,91.457085
"58348",802.16675,80.14282,91.251045
"58349",802.18005,79.954834,91.06752
"58350",802.19336,79.801025,90.9123
"58351",802.20667,79.68383,90.78889
"58352",802.22,79.60082,90.696
"58353",802.2333,79.551994,90.6347
"58354",802.2466,79.52514,90.59384
"58355",802.2599,79.517815,90.57168
"58356",802.2732,79.51293,90.55173
"58357",802.2865,79.50805,90.531624
"58358",802.2998,79.4934,90.5016
"58359",802.3131,79.46899,90.46136
"58360",802.3264,79.42748,90.40326
"58361",802.3397,79.37133,90.329216
"58362",802.353,79.30297,90.24121
"58363",802.36633,79.22728,90.14374
"58364",802.37964,79.151596,90.04391
"58365",802.39294,79.08324,89.949036
"58366",802.40625,79.0222,89.85935
"58367",802.41956,78.97826,89.78485
"58368",802.43286,78.941635,89.7163
"58369",802.44617,78.905014,89.64661
"58370",802.4595,78.873276,89.58065
"58371",802.4728,78.853745,89.52591
"58372",802.4861,78.870834,89.50718
"58373",802.4994,78.975815,89.57687
"58374",802.5127,79.219955,89.78901
"58375",802.526,79.62524,90.169914
"58376",802.5393,80.164795,90.69776
"58377",802.5526,80.762955,91.30107
"58378",802.5659,81.31716,91.87912
"58379",802.5792,81.73464,92.33776
"58380",802.5925,81.9617,92.619026
"58381",802.60583,81.99832,92.71695
"58382",802.61914,81.883575,92.66465
"58383",802.63245,81.668724,92.50866
"58384",802.64575,81.40261,92.29469
"58385",802.65906,81.1194,92.05531
"58386",802.67236,80.83864,91.80953
"58387",802.68567,80.570076,91.56718
"58388",802.699,80.325935,91.34085
"58389",802.7123,80.11597,91.14107
"58390",802.7256,79.9353,90.96403
"58391",802.7389,79.79126,90.81796
"58392",802.7522,79.68383,90.70401
"58393",802.7655,79.61303,90.62333
"58394",802.7788,79.57397,90.572174
"58395",802.7921,79.56176,90.54665
"58396",802.8054,79.56176,90.53296
"58397",802.8187,79.5642,90.521706
"58398",802.83203,79.56176,90.505646
"58399",802.84534,79.54467,90.47486
"58400",802.85864,79.51537,90.431335
"58401",802.87195,79.466545,90.36736
"58402",802.88525,79.40795,90.2921
"58403",802.89856,79.344475,90.21012
"58404",802.91187,79.276115,90.12128
"58405",802.9252,79.20775,90.03029
"58406",802.9385,79.14427,89.942055
"58407",802.9518,79.08568,89.85672
"58408",802.9651,79.03197,89.77444
"58409",802.9784,78.9807,89.69292
"58410",802.9917,78.93431,89.61468
"58411",803.005,78.90013,89.547195
"58412",803.0183,78.905014,89.51771
"58413",803.0316,78.99779,89.57626
"58414",803.0449,79.22972,89.77688
"58415",803.0582,79.62524,90.14832
"58416",803.07153,80.16235,90.67373
"58417",803.08484,80.76784,91.28429
"58418",803.09814,81.33669,91.87714
"58419",803.11145,81.77615,92.35837
"58420",803.12476,82.02518,92.662895
"58421",803.13806,82.07889,92.77989
"58422",803.15137,81.97391,92.739876
"58423",803.1647,81.76639,92.59404
"58424",803.178,81.50271,92.38556
"58425",803.1913,81.22438,92.15419
"58426",803.2046,80.95094,91.919014
"58427",803.2179,80.689705,91.68749
"58428",803.2312,80.45777,91.47711
"58429",803.2445,80.2478,91.28145
"58430",803.2578,80.06958,91.11097
"58431",803.2711,79.92554,90.9691
"58432",803.2844,79.82056,90.86179
"58433",803.2977,79.75464,90.79027
"58434",803.31104,79.72289,90.750854
"58435",803.32434,79.71557,90.73487
"58436",803.33765,79.71801,90.728424
"58437",803.35095,79.72045,90.72205
"58438",803.36426,79.69848,90.691345
"58439",803.37756,79.65942,90.64286
"58440",803.39087,79.60815,90.58095
"58441",803.4042,79.54955,90.51011
"58442",803.4175,79.48852,90.435
"58443",803.4308,79.43481,90.3653
"58444",803.4441,79.38354,90.29637
"58445",803.4574,79.33227,90.22584
"58446",803.4707,79.27856,90.15126
"58447",803.484,79.2224,90.072556
"58448",803.4973,79.17113,89.99699
"58449",803.5106,79.11742,89.91737
"58450",803.5239,79.07347,89.84585
"58451",803.53723,79.05638,89.799805
"58452",803.55054,79.10765,89.82159
"58453",803.56384,79.281,89.96705
"58454",803.57715,79.61547,90.27905
"58455",803.59045,80.10376,90.755325
"58456",803.60376,80.689705,91.34451
"58457",803.61707,81.27322,91.94958
"58458",803.6304,81.75174,92.46789
"58459",803.6437,82.04471,92.8156
"58460",803.657,82.13504,92.969826
"58461",803.6703,82.05203,92.95354
"58462",803.6836,81.85184,92.81747
"58463",803.6969,81.58816,92.61166
"58464",803.7102,81.30984,92.382965
"58465",803.7235,81.03883,92.15289
"58466",803.7368,80.78737,91.93389
"58467",803.7501,80.56275,91.73388
"58468",803.7634,80.36256,91.55127
"58469",803.77673,80.19165,91.39169
"58470",803.79004,80.05005,91.25608
"58471",803.80334,79.940186,91.14778
"58472",803.81665,79.86206,91.06779
"58473",803.82996,79.818115,91.01953
"58474",803.84326,79.801025,90.99676
"58475",803.85657,79.80347,90.99298
"58476",803.8699,79.80591,90.98928
"58477",803.8832,79.80347,90.980774
"58478",803.8965,79.781494,90.95266
"58479",803.9098,79.742424,90.90676
"58480",803.9231,79.68627,90.84256
"58481",803.9364,79.622795,90.76928
"58482",803.9497,79.554436,90.68913
"58483",803.963,79.48608,90.60685
"58484",803.9763,79.412834,90.51755
"58485",803.9896,79.33715,90.423515
"58486",804.0029,79.259026,90.32468
"58487",804.01624,79.19066,90.233154
"58488",804.02954,79.12718,90.14439
"58489",804.04285,79.078354,90.06828
"58490",804.05615,79.07103,90.03216
"58491",804.06946,79.149155,90.08125
"58492",804.08276,79.35668,90.26219
"58493",804.09607,79.72289,90.6083
"58494",804.1094,80.23071,91.10746
"58495",804.1227,80.81178,91.69574
"58496",804.136,81.36843,92.277756
"58497",804.1493,81.80789,92.75998
"58498",804.1626,82.05936,93.06794
"58499",804.1759,82.11795,93.19089
"58500",804.1892,82.020294,93.15942
"58501",804.2025,81.81766,93.01991
"58502",804.2158,81.56374,92.8228
"58503",804.2291,81.29519,92.60311
"58504",804.24243,81.03883,92.38723
"58505",804.25574,80.80446,92.18532
"58506",804.26904,80.59693,92.00293
"58507",804.28235,80.413826,91.83848
"58508",804.29565,80.26002,91.6976
"58509",804.30896,80.13306,91.578766
"58510",804.32227,80.0354,91.48527
"58511",804.3356,79.971924,91.4229
"58512",804.3489,79.93286,91.38296
"58513",804.3622,79.91089,91.35889
"58514",804.3755,79.89624,91.34145
"58515",804.3888,79.87671,91.31868
"58516",804.4021,79.84741,91.28553
"58517",804.4154,79.80591,91.23926
"58518",804.4287,79.75464,91.18192
"58519",804.442,79.69604,91.115654
"58520",804.4553,79.63256,91.04268
"58521",804.4686,79.5642,90.96284
"58522",804.48193,79.48852,90.873535
"58523",804.49524,79.40795,90.776985
"58524",804.50854,79.33227,90.6828
"58525",804.52185,79.259026,90.58869
"58526",804.53516,79.19554,90.50205
"58527",804.54846,79.14183,90.4232
"58528",804.56177,79.11742,90.37197
"58529",804.5751,79.15648,90.38345
"58530",804.5884,79.31518,90.51579
"58531",804.6017,79.62768,90.80689
"58532",804.615,80.093994,91.26157
"58533",804.6283,80.66041,91.830925
"58534",804.6416,81.23659,92.42774
"58535",804.6549,81.71267,92.94247
"58536",804.6682,82.01541,93.29873
"58537",804.6815,82.12283,93.46913
"58538",804.6948,82.05936,93.47199
"58539",804.7081,81.881134,93.35812
"58540",804.72144,81.64431,93.180084
"58541",804.73474,81.3904,92.97756
"58542",804.74805,81.143814,92.77442
"58543",804.76135,80.91432,92.58067
"58544",804.77466,80.71168,92.4066
"58545",804.78796,80.52125,92.23841
"58546",804.8013,80.35523,92.088684
"58547",804.8146,80.20874,91.95329
"58548",804.8279,80.09888,91.84995
"58549",804.8412,80.01587,91.770035
"58550",804.8545,79.96216,91.71682
"58551",804.8678,79.93042,91.6839
"58552",804.8811,79.906006,91.65731
"58553",804.8944,79.886475,91.63484
"58554",804.9077,79.85718,91.602
"58555",804.921,79.82056,91.56091
"58556",804.9343,79.76929,91.504036
"58557",804.94763,79.708244,91.43578
"58558",804.96094,79.63744,91.355865
"58559",804.97424,79.55932,91.26641
"58560",804.98755,79.47387,91.16719
"58561",805.00085,79.39086,91.06774
"58562",805.01416,79.310295,90.96814
"58563",805.02747,79.22972,90.86601
"58564",805.0408,79.151596,90.76382
"58565",805.0541,79.08568,90.67139
"58566",805.0674,79.044174,90.60131
"58567",805.0807,79.061264,90.58853
"58568",805.094,79.1931,90.69103
"58569",805.1073,79.48608,90.95879
"58570",805.1206,79.940186,91.39684
"58571",805.1339,80.516365,91.97115
"58572",805.1472,81.11696,92.58788
"58573",805.1605,81.63943,93.145256
"58574",805.1738,81.99344,93.5505
"58575",805.18713,82.14969,93.76904
"58576",805.20044,82.13016,93.81669
"58577",805.21375,81.98367,93.73677
"58578",805.22705,81.76395,93.57903
"58579",805.24036,81.52224,93.39245
"58580",805.25366,81.28054,93.19832
"58581",805.26697,81.05592,93.01372
"58582",805.2803,80.85329,92.84408
"58583",805.2936,80.672615,92.69007
"58584",805.3069,80.51148,92.54996
"58585",805.3202,80.36988,92.42434
"58586",805.3335,80.257576,92.32359
"58587",805.3468,80.17212,92.246185
"58588",805.3601,80.10864,92.18809
"58589",805.3734,80.06714,92.14998
"58590",805.3867,80.0354,92.12034
"58591",805.4,79.99878,92.08482
"58592",805.4133,79.95239,92.0384
"58593",805.42664,79.89868,91.9832
"58594",805.43994,79.83276,91.914116
"58595",805.45325,79.75464,91.830765
"58596",805.46655,79.66918,91.73764
"58597",805.47986,79.58373,91.64185
"58598",805.49316,79.49584,91.540955
"58599",805.5065,79.40307,91.43243
"58600",805.5198,79.31274,91.32344
"58601",805.5331,79.22484,91.214066
"58602",805.5464,79.14183,91.106834
"58603",805.5597,79.061264,90.99945
"58604",805.573,78.99779,90.90664
"58605",805.5863,78.97826,90.85579
"58606",805.5996,79.05394,90.89954
"58607",805.6129,79.276115,91.092155
"58608",805.6262,79.66674,91.46016
"58609",805.6395,80.20386,91.98686
"58610",805.65283,80.816666,92.60604
"58611",805.66614,81.39529,93.21018
"58612",805.67944,81.84207,93.70057
"58613",805.69275,82.10086,94.01692
"58614",805.70605,82.16434,94.14605
"58615",805.71936,82.07889,94.128235
"58616",805.73267,81.90311,94.01742
"58617",805.746,81.688255,93.86204
"58618",805.7593,81.47585,93.70239
"58619",805.7726,81.27566,93.54832
"58620",805.7859,81.08522,93.39774
"58621",805.7992,80.90456,93.25099
"58622",805.8125,80.719,93.093704
"58623",805.8258,80.54078,92.93795
"58624",805.8391,80.37476,92.78883
"58625",805.8524,80.23071,92.656494
"58626",805.8657,80.11597,92.54896
"58627",805.879,80.03296,92.469574
"58628",805.89233,79.96216,92.3998
"58629",805.90564,79.903564,92.34003
"58630",805.91895,79.84497,92.27842
"58631",805.93225,79.77905,92.20766
"58632",805.94556,79.70336,92.12506
"58633",805.95886,79.62035,92.03278
"58634",805.97217,79.52758,91.92815
"58635",805.9855,79.432365,91.81817
"58636",805.9988,79.33227,91.70033
"58637",806.0121,79.22484,91.57204
"58638",806.0254,79.11986,91.44283
"58639",806.0387,79.01976,91.31523
"58640",806.052,78.924545,91.189384
"58641",806.0653,78.839096,91.07033
"58642",806.0786,78.75853,90.95348
"58643",806.0919,78.70237,90.85853
"58644",806.1052,78.712135,90.82774
"58645",806.1185,78.84398,90.91934
"58646",806.13184,79.13695,91.176186
"58647",806.14514,79.605705,91.61797
"58648",806.15845,80.19165,92.1916
"58649",806.17175,80.8069,92.812836
"58650",806.18506,81.341576,93.37273
"58651",806.19836,81.71023,93.7833
"58652",806.2117,81.88846,94.01498
"58653",806.225,81.8909,94.07643
"58654",806.2383,81.77127,94.01589
"58655",806.2516,81.583275,93.88325
"58656",806.2649,81.36599,93.71544
"58657",806.2782,81.15114,93.543274
"58658",806.2915,80.94362,93.37173
"58659",806.3048,80.7483,93.205894
"58660",806.3181,80.55787,93.03885
"58661",806.3314,80.37476,92.87318
"58662",806.3447,80.198975,92.7091
"58663",806.35803,80.042725,92.55907
"58664",806.37134,79.90845,92.426125
"58665",806.38464,79.80347,92.31828
"58666",806.39795,79.725334,92.23401
"58667",806.41125,79.66674,92.16683
"58668",806.42456,79.62035,92.11003
"58669",806.43787,79.57641,92.05422
"58670",806.4512,79.52514,91.989716
"58671",806.4645,79.4641,91.91384
"58672",806.4778,79.3933,91.826294
"58673",806.4911,79.31274,91.72677
"58674",806.5044,79.2224,91.61495
"58675",806.5177,79.12474,91.493
"58676",806.531,79.027084,91.36799
"58677",806.5443,78.924545,91.23505
"58678",806.5576,78.82689,91.10378
"58679",806.5709,78.73411,90.97434
"58680",806.5842,78.643776,90.84445
"58681",806.59753,78.56565,90.723946
"58682",806.61084,78.52415,90.63762
"58683",806.62415,78.56077,90.62812
"58684",806.63745,78.729225,90.7516
"58685",806.65076,79.07591,91.05858
"58686",806.66406,79.60082,91.55461
"58687",806.67737,80.23804,92.17935
"58688",806.6907,80.88991,92.83866
"58689",806.704,81.446556,93.42312
"58690",806.7173,81.82254,93.84431
"58691",806.7306,81.99588,94.0746
"58692",806.7439,81.99344,94.13453
"58693",806.7572,81.87625,94.079636
"58694",806.7705,81.69314,93.955154
"58695",806.7838,81.48806,93.802986
"58696",806.7971,81.28542,93.64685
"58697",806.8104,81.092545,93.49414
"58698",806.8237,80.89967,93.33541
"58699",806.83704,80.706795,93.17065
"58700",806.85034,80.516365,93.002304
"58701",806.86365,80.33082,92.83289
"58702",806.87695,80.15747,92.66988
"58703",806.89026,80.01343,92.53076
"58704",806.90356,79.903564,92.42132
"58705",806.9169,79.82544,92.34018
"58706",806.9302,79.77173,92.28101
"58707",806.9435,79.727776,92.22993
"58708",806.9568,79.68139,92.17503
"58709",806.9701,79.62035,92.10404
"58710",806.9834,79.537346,92.00917
"58711",806.9967,79.43725,91.894615
"58712",807.01,79.327385,91.767166
"58713",807.0233,79.217514,91.63628
"58714",807.0366,79.11009,91.5044
"58715",807.0499,79.00755,91.374054
"58716",807.06323,78.91478,91.25027
"58717",807.07654,78.82201,91.12358
"58718",807.08984,78.72678,90.99155
"58719",807.10315,78.63645,90.86143
"58720",807.11646,78.56321,90.745575
"58721",807.12976,78.52659,90.664055
"58722",807.14307,78.57786,90.66928
"58723",807.1564,78.77318,90.82016
"58724",807.1697,79.151596,91.16024
"58725",807.183,79.7058,91.687935
"58726",807.1963,80.36744,92.34038
"58727",807.2096,81.03639,93.02081
"58728",807.2229,81.59304,93.60985
"58729",807.2362,81.95926,94.02585
"58730",807.2495,82.11307,94.24088
"58731",807.2628,82.091095,94.28494
"58732",807.2761,81.951935,94.21113
"58733",807.2894,81.75662,94.07681
"58734",807.30273,81.55398,93.92906
"58735",807.31604,81.356224,93.77987
"58736",807.32935,81.17067,93.636696
"58737",807.34265,80.99245,93.495056
"58738",807.35596,80.81178,93.345406
"58739",807.36926,80.618904,93.177895
"58740",807.38257,80.42359,93.00192
"58741",807.3959,80.23071,92.82228
"58742",807.4092,80.059814,92.65859
"58743",807.4225,79.92554,92.526184
"58744",807.4358,79.83032,92.42864
"58745",807.4491,79.764404,92.35742
"58746",807.4624,79.71801,92.303665
"58747",807.4757,79.67895,92.25579
"58748",807.489,79.62768,92.19449
"58749",807.5023,79.55932,92.114494
"58750",807.5156,79.46899,92.01039
"58751",807.52893,79.36889,91.8937
"58752",807.54224,79.25414,91.75923
"58753",807.55554,79.13451,91.61629
"58754",807.56885,79.012436,91.46717
"58755",807.58215,78.90257,91.32645
"58756",807.59546,78.79759,91.18717
"58757",807.60876,78.69749,91.04949
"58758",807.6221,78.60471,90.916016
"58759",807.6354,78.52659,90.79429
"58760",807.6487,78.485085,90.70674
"58761",807.662,78.54124,90.71555
"58762",807.6753,78.751205,90.87994
"58763",807.6886,79.15892,91.24863
"58764",807.7019,79.744865,91.80829
"58765",807.7152,80.4358,92.49125
"58766",807.7285,81.12428,93.19335
"58767",807.7418,81.6907,93.7949
"58768",807.7551,82.06424,94.221275
"58769",807.76843,82.22537,94.446915
"58770",807.78174,82.213165,94.50425
"58771",807.79504,82.08621,94.44646
"58772",807.80835,81.900665,94.3261
"58773",807.82166,81.7029,94.18774
"58774",807.83496,81.512474,94.05052
"58775",807.84827,81.33425,93.91956
"58776",807.8616,81.15846,93.78547
"58777",807.8749,80.970474,93.63368
"58778",807.8882,80.76051,93.45405
"58779",807.9015,80.53101,93.248314
"58780",807.9148,80.29908,93.032974
"58781",807.9281,80.08911,92.83235
"58782",807.9414,79.91333,92.659355
"58783",807.9547,79.783936,92.52725
"58784",807.968,79.693596,92.43016
"58785",807.9813,79.63256,92.35955
"58786",807.9946,79.58373,92.29924
"58787",808.00793,79.53002,92.23252
"58788",808.02124,79.46166,92.149475
"58789",808.03455,79.37133,92.04232
"58790",808.04785,79.26147,91.91281
"58791",808.06116,79.13939,91.767654
"58792",808.07446,79.009995,91.61137
"58793",808.08777,78.87816,91.44859
"58794",808.1011,78.75609,91.291466
"58795",808.1144,78.643776,91.14028
"58796",808.1277,78.54124,90.99536
"58797",808.141,78.450905,90.85944
"58798",808.1543,78.3679,90.72803
"58799",808.1676,78.311745,90.62087
"58800",808.1809,78.331276,90.58765
"58801",808.1942,78.487526,90.69175
"58802",808.2075,78.83421,90.99117
"58803",808.2208,79.37621,91.49674
"58804",808.23413,80.062256,92.16329
"58805",808.24744,80.78737,92.89035
"58806",808.26074,81.42947,93.55705
"58807",808.27405,81.88846,94.060715
"58808",808.28735,82.1326,94.36387
"58809",808.30066,82.18875,94.486664
"58810",808.31396,82.11063,94.47694
"58811",808.3273,81.95926,94.391525
"58812",808.3406,81.78836,94.28185
"58813",808.3539,81.62234,94.171715
"58814",808.3672,81.46609,94.06616
"58815",808.3805,81.307396,93.953285
"58816",808.3938,81.129166,93.81591
"58817",808.4071,80.91676,93.638794
"58818",808.4204,80.67506,93.425735
"58819",808.4337,80.411385,93.18316
"58820",808.447,80.15747,92.9421
"58821",808.4603,79.9353,92.72485
"58822",808.47363,79.75464,92.54217
"58823",808.48694,79.63012,92.40998
"58824",808.50024,79.54467,92.31297
"58825",808.51355,79.48608,92.24015
"58826",808.52686,79.43481,92.17282
"58827",808.54016,79.37621,92.096565
"58828",808.55347,79.29809,91.99895
"58829",808.5668,79.19554,91.874466
"58830",808.5801,79.07103,91.724815
"58831",808.5934,78.93675,91.56151
"58832",808.6067,78.802475,91.394005
"58833",808.62,78.67063,91.22474
"58834",808.6333,78.551,91.06357
"58835",808.6466,78.44602,90.91331
"58836",808.6599,78.35325,90.77197
"58837",808.6732,78.2678,90.63506
"58838",808.6865,78.19211,90.50524
"58839",808.6998,78.150604,90.40724
"58840",808.71313,78.19455,90.393394
"58841",808.72644,78.38499,90.52741
"58842",808.73975,78.77074,90.86269
"58843",808.75305,79.361565,91.41511
"58844",808.76636,80.08911,92.1227
"58845",808.77966,80.84108,92.87746
"58846",808.79297,81.48806,93.55072
"58847",808.8063,81.94461,94.05377
"58848",808.8196,82.18143,94.35136
"58849",808.8329,82.230255,94.46835
"58850",808.8462,82.15213,94.45992
"58851",808.8595,82.00809,94.38313
"58852",808.8728,81.849396,94.28719
"58853",808.8861,81.69802,94.19361
"58854",808.8994,81.55398,94.10263
"58855",808.9127,81.40017,93.99738
"58856",808.926,81.2195,93.860466
"58857",808.93933,80.99733,93.67641
"58858",808.95264,80.726326,93.43657
"58859",808.96594,80.430916,93.16386
"58860",808.97925,80.14282,92.88923
"58861",808.99255,79.89136,92.64223
"58862",809.00586,79.69848,92.44595
"58863",809.01917,79.5642,92.30225
"58864",809.0325,79.47143,92.19586
"58865",809.0458,79.40307,92.110985
"58866",809.0591,79.33959,92.028854
"58867",809.0724,79.26391,91.93253
"58868",809.0857,79.17113,91.81675
"58869",809.099,79.061264,91.680984
"58870",809.1123,78.93675,91.52714
"58871",809.1256,78.80736,91.36452
"58872",809.1389,78.67307,91.19296
"58873",809.1522,78.54368,91.0221
"58874",809.1655,78.42649,90.859406
"58875",809.17883,78.32395,90.707695
"58876",809.19214,78.23117,90.56254
"58877",809.20544,78.153046,90.42914
"58878",809.21875,78.07492,90.2933
"58879",809.23206,78.00412,90.16234
"58880",809.24536,77.95529,90.05114
"58881",809.25867,77.97482,90.006775
"58882",809.272,78.13107,90.09974
"58883",809.2853,78.487526,90.39779
"58884",809.2986,79.061264,90.92426
"58885",809.3119,79.80591,91.63957
"58886",809.3252,80.61402,92.44162
"58887",809.3385,81.35378,93.20057
"58888",809.3518,81.91287,93.80196
"58889",809.3651,82.247345,94.19621
"58890",809.3784,82.36698,94.38608
"58891",809.3917,82.33524,94.42831
"58892",809.405,82.213165,94.3792
"58893",809.41833,82.0618,94.297
"58894",809.43164,81.90799,94.20762
"58895",809.44495,81.761505,94.12076
"58896",809.45825,81.61013,94.02443
"58897",809.47156,81.43923,93.90385
"58898",809.48486,81.22682,93.73641
"58899",809.49817,80.972916,93.52084
"58900",809.5115,80.68482,93.26315
"58901",809.5248,80.38697,92.9867
"58902",809.5381,80.1062,92.718025
"58903",809.5514,79.869385,92.48453
"58904",809.5647,79.68871,92.299774
"58905",809.578,79.56176,92.16309
"58906",809.5913,79.47387,92.06151
"58907",809.6046,79.41039,91.98159
"58908",809.6179,79.34692,91.89969
"58909",809.6312,79.26635,91.79871
"58910",809.64453,79.16136,91.6708
"58911",809.65784,79.03441,91.51764
"58912",809.67114,78.89281,91.34586
"58913",809.68445,78.75365,91.172104
"58914",809.69775,78.61448,90.99399
"58915",809.71106,78.48997,90.82618
"58916",809.72437,78.382545,90.67157
"58917",809.7377,78.28489,90.52337
"58918",809.751,78.19943,90.384315
"58919",809.7643,78.12131,90.24992
"58920",809.7776,78.04562,90.11553
"58921",809.7909,77.97238,89.98122
"58922",809.8042,77.908905,89.85438
"58923",809.8175,77.87717,89.75729
"58924",809.8308,77.9382,89.75199
"58925",809.8441,78.167694,89.91705
"58926",809.8574,78.61204,90.30414
"58927",809.8707,79.27123,90.91996
"58928",809.88403,80.076904,91.70286
"58929",809.89734,80.90456,92.53291
"58930",809.91064,81.62722,93.283844
"58931",809.92395,82.144806,93.85228
"58932",809.93726,82.43046,94.204956
"58933",809.95056,82.52079,94.37124
"58934",809.96387,82.47929,94.40851
"58935",809.9772,82.36698,94.37368
"58936",809.9905,82.230255,94.31092
"58937",810.0038,82.091095,94.241455
"58938",810.0171,81.95682,94.17252
"58939",810.0304,81.81033,94.08719
"58940",810.0437,81.636986,93.97041
"58941",810.057,81.4197,93.80428
"58942",810.0703,81.15114,93.580086
"58943",810.0836,80.84108,93.306
"58944",810.0969,80.52369,93.01489
"58945",810.1102,80.22583,92.7334
"58946",810.12354,79.98413,92.49876
"58947",810.13684,79.81079,92.32492
"58948",810.15015,79.69848,92.206696
"58949",810.16345,79.622795,92.12159
"58950",810.17676,79.5642,92.05121
"58951",810.19006,79.49828,91.97167
"58952",810.20337,79.40795,91.86566
"58953",810.2167,79.29809,91.7373
"58954",810.23,79.168686,91.58596
"58955",810.2433,79.02464,91.41594
"58956",810.2566,78.873276,91.23409
"58957",810.2699,78.72678,91.05239
"58958",810.2832,78.59251,90.87833
"58959",810.2965,78.467995,90.70983
"58960",810.3098,78.35569,90.54965
"58961",810.3231,78.25803,90.40061
"58962",810.3364,78.17258,90.26072
"58963",810.34973,78.09201,90.12305
"58964",810.36304,78.01633,89.98774
"58965",810.37634,77.94797,89.85739
"58966",810.38965,77.88693,89.73223
"58967",810.40295,77.86496,89.644226
"58968",810.41626,77.945526,89.65807
"58969",810.42957,78.204315,89.85266
"58970",810.4429,78.68528,90.27751
"58971",810.4562,79.381096,90.93224
"58972",810.4695,80.21118,91.74299
"58973",810.4828,81.04372,92.58212
"58974",810.4961,81.74685,93.31787
"58975",810.5094,82.2327,93.85831
"58976",810.5227,82.48173,94.17711
"58977",810.536,82.533,94.30593
"58978",810.5493,82.45731,94.3094
"58979",810.5626,82.32304,94.251915
"58980",810.5759,82.1741,94.175575
"58981",810.58923,82.0325,94.10191
"58982",810.60254,81.898224,94.03115
"58983",810.61584,81.75174,93.943985
"58984",810.62915,81.57595,93.82294
"58985",810.64246,81.3489,93.645134
"58986",810.65576,81.08034,93.418724
"58987",810.66907,80.782486,93.15463
"58988",810.6824,80.482185,92.878784
"58989",810.6957,80.20386,92.615524
"58990",810.709,79.971924,92.38996
"58991",810.7223,79.79614,92.2133
"58992",810.7356,79.66918,92.07997
"58993",810.7489,79.58373,91.984184
"58994",810.7622,79.51293,91.900375
"58995",810.7755,79.43725,91.80947
"58996",810.7888,79.34692,91.70155
"58997",810.8021,79.234604,91.56883
"58998",810.8154,79.10277,91.41308
"58999",810.82874,78.958725,91.241
"59000",810.84204,78.8098,91.05953
"59001",810.85535,78.66331,90.87585
"59002",810.86865,78.519264,90.69003
"59003",810.88196,78.38499,90.50948
"59004",810.89526,78.26292,90.336945
"59005",810.90857,78.16281,90.182556
"59006",810.9219,78.07492,90.037254
"59007",810.9352,78.00412,89.906296
"59008",810.9485,77.943085,89.78289
"59009",810.9618,77.88937,89.6649
"59010",810.9751,77.83566,89.545235
"59011",810.9884,77.79172,89.433655
"59012",811.0017,77.80148,89.37441
"59013",811.015,77.92844,89.43266
"59014",811.0283,78.24826,89.68775
"59015",811.0416,78.79515,90.1799
"59016",811.05493,79.537346,90.884445
"59017",811.06824,80.38453,91.71717
"59018",811.08154,81.19997,92.544624
"59019",811.09485,81.85672,93.23888
"59020",811.10815,82.28397,93.72415
"59021",811.12146,82.48417,93.99572
"59022",811.13477,82.5037,94.09288
"59023",811.1481,82.41337,94.08079
"59024",811.1614,82.27177,94.0146
"59025",811.1747,82.12283,93.93666
"59026",811.188,81.98123,93.8614
"59027",811.2013,81.84451,93.78659
"59028",811.2146,81.69314,93.692856
"59029",811.2279,81.50515,93.55778
"59030",811.2412,81.26589,93.365555
"59031",811.2545,80.98268,93.1219
"59032",811.2678,80.67017,92.8401
"59033",811.2811,80.365,92.55587
"59034",811.29443,80.08667,92.28895
"59035",811.30774,79.86206,92.06705
"59036",811.32104,79.69604,91.89671
"59037",811.33435,79.57885,91.77003
"59038",811.34766,79.500725,91.67874
"59039",811.36096,79.43725,91.59966
"59040",811.37427,79.37377,91.5186
"59041",811.3876,79.293205,91.418465
"59042",811.4009,79.18822,91.29139
"59043",811.4142,79.061264,91.13907
"59044",811.4275,78.91966,90.96813
"59045",811.4408,78.77806,90.79277
"59046",811.4541,78.63645,90.612976
"59047",811.4674,78.502174,90.43609
"59048",811.4807,78.37278,90.25989
"59049",811.494,78.25315,90.08941
"59050",811.5073,78.14572,89.92739
"59051",811.5206,78.05295,89.77667
"59052",811.53394,77.97238,89.63526
"59053",811.54724,77.90402,89.50354
"59054",811.56055,77.84787,89.38189
"59055",811.57385,77.79416,89.260925
"59056",811.58716,77.752655,89.15049
"59057",811.60046,77.738,89.065605
"59058",811.6138,77.79416,89.05108
"59059",811.6271,77.98459,89.17258
"59060",811.6404,78.37034,89.495346
"59061",811.6537,78.97093,90.04501
"59062",811.667,79.74731,90.78923
"59063",811.6803,80.59449,91.62852
"59064",811.6936,81.38064,92.43324
"59065",811.7069,81.991,93.08675
"59066",811.7202,82.371864,93.52983
"59067",811.7335,82.533,93.76508
"59068",811.7468,82.53544,93.84668
"59069",811.76013,82.442665,93.83314
"59070",811.77344,82.31083,93.77763
"59071",811.78674,82.16922,93.70824
"59072",811.80005,82.02762,93.63442
"59073",811.81335,81.87625,93.54642
"59074",811.82666,81.7029,93.4317
"59075",811.83997,81.49294,93.274956
"59076",811.8533,81.24391,93.07258
"59077",811.8666,80.96071,92.82825
"59078",811.8799,80.66285,92.56041
"59079",811.8932,80.36988,92.288155
"59080",811.9065,80.10864,92.038475
"59081",811.9198,79.8938,91.82703
"59082",811.9331,79.725334,91.65524
"59083",811.9464,79.60082,91.52215
"59084",811.9597,79.50561,91.41446
"59085",811.973,79.4226,91.316
"59086",811.9863,79.344475,91.21983
"59087",811.99963,79.26147,91.11634
"59088",812.01294,79.168686,91.00048
"59089",812.02625,79.05638,90.8622
"59090",812.03955,78.93431,90.71064
"59091",812.05286,78.80003,90.54306
"59092",812.06616,78.65598,90.36151
"59093",812.07947,78.51194,90.17547
"59094",812.0928,78.380104,89.99713
"59095",812.1061,78.26292,89.82932
"59096",812.1194,78.16037,89.67249
"59097",812.1327,78.07492,89.52956
"59098",812.146,78.00656,89.40104
"59099",812.1593,77.94797,89.28015
"59100",812.1726,77.89914,89.1672
"59101",812.1859,77.86008,89.062485
"59102",812.1992,77.83078,88.96632
"59103",812.2125,77.81369,88.88144
"59104",812.2258,77.84787,88.8473
"59105",812.23914,77.99924,88.93141
"59106",812.25244,78.33616,89.20581
"59107",812.26575,78.890366,89.70802
"59108",812.27905,79.63744,90.420425
"59109",812.29236,80.48463,91.25628
"59110",812.30566,81.29519,92.081985
"59111",812.319,81.951935,92.779205
"59112",812.3323,82.37919,93.267456
"59113",812.3456,82.5745,93.53712
"59114",812.3589,82.59403,93.6371
"59115",812.3722,82.5037,93.62783
"59116",812.3855,82.3621,93.56447
"59117",812.3988,82.20828,93.48447
"59118",812.4121,82.056915,93.40211
"59119",812.4254,81.90311,93.31258
"59120",812.4387,81.73708,93.206024
"59121",812.452,81.53933,93.06255
"59122",812.46533,81.304955,92.87628
"59123",812.47864,81.03639,92.6485
"59124",812.49194,80.7483,92.39279
"59125",812.50525,80.465096,92.13297
"59126",812.51855,80.21362,91.896034
"59127",812.53186,79.99878,91.68787
"59128",812.54517,79.83276,91.52181
"59129",812.5585,79.708244,91.39207
"59130",812.5718,79.61547,91.29018
"59131",812.5851,79.53979,91.20248
"59132",812.5984,79.466545,91.11485
"59133",812.6117,79.381096,91.01273
"59134",812.625,79.28588,90.89818
"59135",812.6383,79.17357,90.76355
"59136",812.6516,79.04906,90.61321
"59137",812.6649,78.91478,90.44922
"59138",812.6782,78.77806,90.27859
"59139",812.6915,78.643776,90.10612
"59140",812.70483,78.51682,89.93678
"59141",812.71814,78.397194,89.770805
"59142",812.73145,78.28733,89.610855
"59143",812.74475,78.187225,89.45723
"59144",812.75806,78.10666,89.320015
"59145",812.77136,78.0383,89.19249
"59146",812.78467,77.98703,89.07992
"59147",812.798,77.94797,88.97795
"59148",812.8113,77.91379,88.87965
"59149",812.8246,77.88693,88.7876
"59150",812.8379,77.872284,88.70692
"59151",812.8512,77.90646,88.67461
"59152",812.8645,78.06027,88.76299
"59153",812.8778,78.40696,89.049065
"59154",812.8911,78.97337,89.5657
"59155",812.9044,79.73022,90.29046
"59156",812.9177,80.587166,91.13898
"59157",812.931,81.40749,91.97765
"59158",812.94434,82.06912,92.683266
"59159",812.95764,82.5037,93.1825
"59160",812.97095,82.70634,93.46338
"59161",812.98425,82.72343,93.56504
"59162",812.99756,82.62577,93.55249
"59163",813.01086,82.46952,93.478294
"59164",813.0242,82.29618,93.382126
"59165",813.0375,82.12283,93.28053
"59166",813.0508,81.9617,93.18574
"59167",813.0641,81.79324,93.07858
"59168",813.0774,81.59792,92.9393
"59169",813.0907,81.36843,92.75974
"59170",813.104,81.10231,92.536385
"59171",813.1173,80.814224,92.282745
"59172",813.1306,80.53101,92.02498
"59173",813.1439,80.27711,91.78767
"59174",813.1572,80.06714,91.58636
"59175",813.17053,79.91089,91.432205
"59176",813.18384,79.801025,91.31956
"59177",813.19714,79.72045,91.232765
"59178",813.21045,79.65942,91.162994
"59179",813.22375,79.60082,91.09376
"59180",813.23706,79.53246,91.012924
"59181",813.25037,79.447014,90.912865
"59182",813.2637,79.33715,90.78572
"59183",813.277,79.21263,90.64049
"59184",813.2903,79.07591,90.479164
"59185",813.3036,78.93675,90.31113
"59186",813.3169,78.802475,90.14362
"59187",813.3302,78.68528,89.989006
"59188",813.3435,78.57542,89.83806
"59189",813.3568,78.47776,89.695885
"59190",813.3701,78.382545,89.5531
"59191",813.3834,78.2971,89.41711
"59192",813.3967,78.22385,89.29064
"59193",813.41003,78.16037,89.17166
"59194",813.42334,78.11154,89.065346
"59195",813.43665,78.07248,88.96727
"59196",813.44995,78.04318,88.87774
"59197",813.46326,78.01877,88.792175
"59198",813.47656,78.02365,88.735146
"59199",813.48987,78.118866,88.7686
"59200",813.5032,78.382545,88.973495
"59201",813.5165,78.85863,89.39903
"59202",813.5298,79.54711,90.05185
"59203",813.5431,80.37476,90.86535
"59204",813.5564,81.2195,91.721794
"59205",813.5697,81.94705,92.48746
"59206",813.583,82.45731,93.05856
"59207",813.5963,82.72587,93.40391
"59208",813.6096,82.78447,93.54769
"59209",813.6229,82.701454,93.55169
"59210",813.6362,82.54276,93.47742
"59211",813.64954,82.354774,93.36889
"59212",813.66284,82.1741,93.2618
"59213",813.67615,82.005646,93.161285
"59214",813.68945,81.84207,93.06039
"59215",813.70276,81.6614,92.93728
"59216",813.71606,81.45388,92.78168
"59217",813.7294,81.21217,92.5854
"59218",813.7427,80.95094,92.36205
"59219",813.756,80.67994,92.120766
"59220",813.7693,80.42603,91.88811
"59221",813.7826,80.20874,91.68413
"59222",813.7959,80.042725,91.524635
"59223",813.8092,79.91821,91.40146
"59224",813.8225,79.82544,91.30613
"59225",813.8358,79.75708,91.232315
"59226",813.8491,79.69604,91.16368
"59227",813.8624,79.62524,91.08338
"59228",813.87573,79.537346,90.98378
"59229",813.88904,79.43481,90.86678
"59230",813.90234,79.31518,90.72949
"59231",813.91565,79.18089,90.57381
"59232",813.92896,79.04173,90.40905
"59233",813.94226,78.905014,90.242386
"59234",813.95557,78.77074,90.07389
"59235",813.9689,78.641335,89.906075
"59236",813.9822,78.52903,89.75131
"59237",813.9955,78.42649,89.602806
"59238",814.0088,78.33372,89.46086
"59239",814.0221,78.25559,89.330666
"59240",814.0354,78.19455,89.21511
"59241",814.0487,78.14816,89.112305
"59242",814.062,78.1091,89.01537
"59243",814.0753,78.082245,88.92943
"59244",814.0886,78.06027,88.84753
"59245",814.1019,78.048065,88.774704
"59246",814.11523,78.08957,88.75521
"59247",814.12854,78.25315,88.85909
"59248",814.14185,78.61692,89.168274
"59249",814.15515,79.202866,89.711
"59250",814.16846,79.98169,90.46491
"59251",814.18176,80.84108,91.32373
"59252",814.19507,81.64919,92.15813
"59253",814.2084,82.28397,92.844444
"59254",814.2217,82.68192,93.31377
"59255",814.235,82.847946,93.5636
"59256",814.2483,82.84062,93.64527
"59257",814.2616,82.72343,93.616844
"59258",814.2749,82.55253,93.53105
"59259",814.2882,82.36454,93.42283
"59260",814.3015,82.18143,93.31361
"59261",814.3148,82.003204,93.20355
"59262",814.3281,81.81766,93.080605
"59263",814.34143,81.61257,92.93232
"59264",814.35474,81.38064,92.75078
"59265",814.36804,81.126724,92.54001
"59266",814.38135,80.85573,92.30422
"59267",814.39465,80.59205,92.06728
"59268",814.40796,80.35767,91.85141
"59269",814.42126,80.164795,91.66971
"59270",814.4346,80.02075,91.530815
"59271",814.4479,79.920654,91.431366
"59272",814.4612,79.84985,91.358086
"59273",814.4745,79.78882,91.29236
"59274",814.4878,79.72289,91.21983
"59275",814.5011,79.64965,91.13793
"59276",814.5144,79.55932,91.03665
"59277",814.5277,79.45434,90.9179
"59278",814.541,79.33715,90.78366
"59279",814.5543,79.20531,90.6311
"59280",814.5676,79.06615,90.46711
"59281",814.58093,78.91966,90.29144
"59282",814.59424,78.77562,90.11364
"59283",814.60754,78.643776,89.943535
"59284",814.62085,78.52659,89.783966
"59285",814.63416,78.42405,89.63538
"59286",814.64746,78.33616,89.498245
"59287",814.66077,78.260475,89.37057
"59288",814.6741,78.19211,89.24784
"59289",814.6874,78.13107,89.13031
"59290",814.7007,78.082245,89.02308
"59291",814.714,78.04318,88.92409
"59292",814.7273,78.011444,88.8312
"59293",814.7406,78.009,88.76662
"59294",814.7539,78.08957,88.784966
"59295",814.7672,78.314186,88.94988
"59296",814.7805,78.746315,89.32933
"59297",814.7938,79.395744,89.93958
"59298",814.8071,80.201416,90.72637
"59299",814.82043,81.05592,91.58717
"59300",814.83374,81.8201,92.384346
"59301",814.84705,82.39384,93.01496
"59302",814.86035,82.72831,93.42424
"59303",814.87366,82.845505,93.62669
"59304",814.88696,82.80156,93.67167
"59305",814.90027,82.66483,93.62249
"59306",814.9136,82.48905,93.52998
"59307",814.9269,82.303505,93.42222
"59308",814.9402,82.12283,93.31353
"59309",814.9535,81.94217,93.1992
"59310",814.9668,81.74929,93.06702
"59311",814.9801,81.52712,92.89951
"59312",814.9934,81.28298,92.703094
"59313",815.0067,81.01686,92.477066
"59314",815.02,80.7483,92.24028
"59315",815.0333,80.49195,92.00732
"59316",815.04663,80.2649,91.79564
"59317",815.05994,80.079346,91.61836
"59318",815.07324,79.937744,91.47924
"59319",815.08655,79.835205,91.374756
"59320",815.09985,79.76196,91.296364
"59321",815.11316,79.70336,91.23032
"59322",815.12646,79.64477,91.16246
"59323",815.1398,79.569084,91.075676
"59324",815.1531,79.47875,90.97188
"59325",815.1664,79.36645,90.843285
"59326",815.1797,79.24193,90.69897
"59327",815.193,79.10033,90.533676
"59328",815.2063,78.958725,90.36396
"59329",815.2196,78.81712,90.18982
"59330",815.2329,78.68284,90.01857
"59331",815.2462,78.56077,89.85534
"59332",815.2595,78.45335,89.70294
"59333",815.2728,78.35813,89.559395
"59334",815.28613,78.277565,89.42752
"59335",815.29944,78.20676,89.30289
"59336",815.31274,78.14084,89.18093
"59337",815.32605,78.082245,89.06424
"59338",815.33936,78.028534,88.9506
"59339",815.35266,77.98215,88.842606
"59340",815.36597,77.96506,88.76246
"59341",815.3793,78.03342,88.76723
"59342",815.3926,78.26292,88.93527
"59343",815.4059,78.709694,89.32777
"59344",815.4192,79.37621,89.953964
"59345",815.4325,80.201416,90.759674
"59346",815.4458,81.06813,91.63268
"59347",815.4591,81.83963,92.43756
"59348",815.4724,82.41093,93.066345
"59349",815.4857,82.735634,93.46639
"59350",815.499,82.83818,93.65443
"59351",815.5123,82.77959,93.684525
"59352",815.52563,82.62089,93.612686
"59353",815.53894,82.42069,93.49439
"59354",815.55225,82.210724,93.36007
"59355",815.56555,82.005646,93.224075
"59356",815.57886,81.80545,93.086555
"59357",815.59216,81.59792,92.93545
"59358",815.60547,81.38064,92.7681
"59359",815.6188,81.14137,92.571976
"59360",815.6321,80.89235,92.35862
"59361",815.6454,80.638435,92.13259
"59362",815.6587,80.40162,91.915726
"59363",815.672,80.18677,91.713425
"59364",815.6853,80.01099,91.54348
"59365",815.6986,79.87427,91.407104
"59366",815.7119,79.77905,91.30796
"59367",815.7252,79.7058,91.227806
"59368",815.7385,79.64721,91.16002
"59369",815.75183,79.586174,91.08796
"59370",815.76514,79.51049,90.999344
"59371",815.77844,79.41772,90.89127
"59372",815.79175,79.30297,90.75833
"59373",815.80505,79.17601,90.60959
"59374",815.81836,79.04173,90.44956
"59375",815.83167,78.905014,90.2829
"59376",815.845,78.77562,90.119286
"59377",815.8583,78.65598,89.96139
"59378",815.8716,78.54612,89.809525
"59379",815.8849,78.44358,89.66155
"59380",815.8982,78.35081,89.52014
"59381",815.9115,78.26536,89.383156
"59382",815.9248,78.19211,89.2557
"59383",815.9381,78.118866,89.12596
"59384",815.9514,78.05295,89.00126
"59385",815.9647,78.009,88.89647
"59386",815.978,78.028534,88.85378
"59387",815.99133,78.17746,88.9411
"59388",816.00464,78.52903,89.23572
"59389",816.01794,79.10521,89.76593
"59390",816.03125,79.86206,90.49482
"59391",816.04456,80.70191,91.33036
"59392",816.05786,81.49294,92.143326
"59393",816.07117,82.11795,92.81499
"59394",816.0845,82.511024,93.27425
"59395",816.0978,82.67948,93.52117
"59396",816.1111,82.667274,93.5927
"59397",816.1244,82.54276,93.55154
"59398",816.1377,82.357216,93.44545
"59399",816.151,82.142365,93.30426
"59400",816.1643,81.92264,93.15148
"59401",816.1776,81.69802,92.986946
"59402",816.1909,81.46609,92.808075
"59403",816.2042,81.2195,92.6073
"59404",816.2175,80.96071,92.38662
"59405",816.23083,80.70191,92.157845
"59406",816.24414,80.45045,91.928314
"59407",816.25745,80.22095,91.71289
"59408",816.27075,80.01831,91.51716
"59409",816.28406,79.85474,91.35416
"59410",816.29736,79.727776,91.22266
"59411",816.31067,79.63256,91.118935
"59412",816.324,79.55932,91.03421
"59413",816.3373,79.49828,90.959404
"59414",816.3506,79.43481,90.88025
"59415",816.3639,79.35912,90.7869
"59416",816.3772,79.27123,90.678986
"59417",816.3905,79.168686,90.553665
"59418",816.4038,79.05638,90.41538
"59419",816.4171,78.93675,90.266266
"59420",816.4304,78.81468,90.11097
"59421",816.4437,78.692604,89.95185
"59422",816.45703,78.572975,89.79137
"59423",816.47034,78.46067,89.63447
"59424",816.48364,78.35813,89.483826
"59425",816.49695,78.26536,89.339745
"59426",816.51025,78.18234,89.20252
"59427",816.52356,78.11154,89.07492
"59428",816.53687,78.04562,88.94999
"59429",816.5502,77.99191,88.835205
"59430",816.5635,77.97238,88.75292
"59431",816.5768,78.048065,88.76524
"59432",816.5901,78.28977,88.94595
"59433",816.6034,78.751205,89.35394
"59434",816.6167,79.42748,89.991196
"59435",816.63,80.2478,90.793625
"59436",816.6433,81.08522,91.63879
"59437",816.6566,81.81033,92.39781
"59438",816.6699,82.32792,92.97197
"59439",816.6832,82.6038,93.320595
"59440",816.69653,82.669716,93.46788
"59441",816.70984,82.581825,93.46342
"59442",816.72314,82.40116,93.363434
"59443",816.73645,82.1741,93.21141
"59444",816.74976,81.9324,93.03765
"59445",816.76306,81.69558,92.86121
"59446",816.77637,81.45632,92.67494
"59447",816.7897,81.214615,92.478745
"59448",816.803,80.96559,92.26768
"59449",816.8163,80.709236,92.0415
"59450",816.8296,80.45777,91.812195
"59451",816.8429,80.22583,91.59456
"59452",816.8562,80.02319,91.39898
"59453",816.8695,79.85718,91.23369
"59454",816.8828,79.725334,91.09738
"59455",816.8961,79.622795,90.98626
"59456",816.9094,79.537346,90.88902
"59457",816.9227,79.46899,90.806206
"59458",816.93604,79.40795,90.72858
"59459",816.94934,79.344475,90.6466
"59460",816.96265,79.26879,90.55043
"59461",816.97595,79.18089,90.43968
"59462",816.98926,79.08324,90.31643
"59463",817.00256,78.97337,90.17792
"59464",817.01587,78.856186,90.02865
"59465",817.0292,78.73899,89.87571
"59466",817.0425,78.63157,89.72888
"59467",817.0558,78.52415,89.5787
"59468",817.0691,78.42649,89.43492
"59469",817.0824,78.3386,89.29786
"59470",817.0957,78.26292,89.17026
"59471",817.109,78.19455,89.04761
"59472",817.1223,78.133514,88.93015
"59473",817.1356,78.082245,88.82056
"59474",817.1489,78.05783,88.73621
"59475",817.16223,78.1091,88.72679
"59476",817.17554,78.311745,88.870346
"59477",817.18884,78.7219,89.227745
"59478",817.20215,79.34936,89.81526
"59479",817.21545,80.13794,90.58351
"59480",817.22876,80.98024,91.43012
"59481",817.24207,81.73464,92.21516
"59482",817.2554,82.29862,92.83334
"59483",817.2687,82.62577,93.23232
"59484",817.282,82.73075,93.41936
"59485",817.2953,82.669716,93.44366
"59486",817.3086,82.50614,93.36351
"59487",817.3219,82.2913,93.22698
"59488",817.3352,82.05203,93.05932
"59489",817.3485,81.80789,92.8793
"59490",817.3618,81.5613,92.68921
"59491",817.3751,81.31228,92.488976
"59492",817.3884,81.058365,92.27607
"59493",817.40173,80.80446,92.05524
"59494",817.41504,80.552986,91.8289
"59495",817.42834,80.31861,91.61181
"59496",817.44165,80.1062,91.409355
"59497",817.45496,79.923096,91.22957
"59498",817.46826,79.77173,91.0758
"59499",817.48157,79.65942,90.95635
"59500",817.4949,79.57885,90.86514
"59501",817.5082,79.5227,90.79583
"59502",817.5215,79.48119,90.73941
"59503",817.5348,79.432365,90.67437
"59504",817.5481,79.36889,90.593155
"59505",817.5614,79.28588,90.490425
"59506",817.5747,79.17845,90.36068
"59507",817.588,79.061264,90.21782
"59508",817.6013,78.94408,90.0713
"59509",817.6146,78.83177,89.925995
"59510",817.6279,78.72434,89.78206
"59511",817.64124,78.626686,89.64454
"59512",817.65454,78.53391,89.50885
"59513",817.66785,78.44602,89.375145
"59514",817.68115,78.365456,89.24602
"59515",817.69446,78.29221,89.1217
"59516",817.70776,78.21896,88.99508
"59517",817.72107,78.15793,88.87839
"59518",817.7344,78.135956,88.79885
"59519",817.7477,78.21896,88.82361
"59520",817.761,78.47288,89.021866
"59521",817.7743,78.94408,89.44534
"59522",817.7876,79.62035,90.08862
"59523",817.8009,80.428474,90.88488
"59524",817.8142,81.24147,91.711266
"59525",817.8275,81.93973,92.44832
"59526",817.8408,82.43046,92.999664
"59527",817.8541,82.684364,93.32952
"59528",817.86743,82.73075,93.45979
"59529",817.88074,82.633095,93.44747
"59530",817.89404,82.44999,93.34665
"59531",817.90735,82.22049,93.19371
"59532",817.92065,81.98123,93.02384
"59533",817.93396,81.74197,92.84649
"59534",817.94727,81.50515,92.66411
"59535",817.9606,81.25857,92.46456
"59536",817.9739,81.00221,92.247536
"59537",817.9872,80.740974,92.01762
"59538",818.0005,80.482185,91.78198
"59539",818.0138,80.23804,91.5529
"59540",818.0271,80.025635,91.34794
"59541",818.0404,79.85474,91.17784
"59542",818.0537,79.73022,91.04878
"59543",818.067,79.64233,90.95246
"59544",818.0803,79.586174,90.88513
"59545",818.0936,79.54223,90.828255
"59546",818.10693,79.49584,90.76756
"59547",818.12024,79.432365,90.68833
"59548",818.13354,79.35424,90.59247
"59549",818.14685,79.259026,90.47707
"59550",818.16016,79.151596,90.34649
"59551",818.17346,79.03929,90.20767
"59552",818.18677,78.924545,90.062904
"59553",818.2001,78.80492,89.90967
"59554",818.2134,78.69016,89.75757
"59555",818.2267,78.57786,89.60433
"59556",818.24,78.47776,89.45979
"59557",818.2533,78.38499,89.31945
"59558",818.2666,78.30442,89.188416
"59559",818.2799,78.22873,89.05974
"59560",818.2932,78.16525,88.94091
"59561",818.3065,78.133514,88.85184
"59562",818.3198,78.184784,88.84478
"59563",818.3331,78.397194,89.000465
"59564",818.34644,78.81468,89.36787
"59565",818.35974,79.44457,89.96072
"59566",818.37305,80.22583,90.72462
"59567",818.38635,81.041275,91.54712
"59568",818.39966,81.75662,92.295006
"59569",818.41296,82.27909,92.87237
"59570",818.4263,82.56962,93.234116
"59571",818.4396,82.65507,93.399864
"59572",818.4529,82.59159,93.41936
"59573",818.4662,82.43534,93.34409
"59574",818.4795,82.22781,93.21267
"59575",818.4928,81.99832,93.052795
"59576",818.5061,81.75174,92.86866
"59577",818.5194,81.495384,92.667046
"59578",818.5327,81.22926,92.447655
"59579",818.546,80.955826,92.21263
"59580",818.5593,80.68726,91.97394
"59581",818.57263,80.430916,91.73907
"59582",818.58594,80.20386,91.525475
"59583",818.59924,80.01099,91.338974
"59584",818.61255,79.85718,91.18551
"59585",818.62585,79.73998,91.06385
"59586",818.63916,79.65209,90.967834
"59587",818.65247,79.58373,90.8886
"59588",818.6658,79.53246,90.824326
"59589",818.6791,79.48119,90.758446
"59590",818.6924,79.42016,90.6812
"59591",818.7057,79.34936,90.59228
"59592",818.719,79.259026,90.48161
"59593",818.7323,79.15404,90.35347
"59594",818.7456,79.03197,90.20496
"59595",818.7589,78.907455,90.0502
"59596",818.7722,78.78294,89.89155
"59597",818.7855,78.66331,89.73388
"59598",818.7988,78.555885,89.58469
"59599",818.81213,78.46067,89.44434
"59600",818.82544,78.37522,89.31079
"59601",818.83875,78.294655,89.17945
"59602",818.85205,78.221405,89.05291
"59603",818.86536,78.15549,88.93141
"59604",818.87866,78.118866,88.83715
"59605",818.89197,78.15793,88.81743
"59606",818.9053,78.33616,88.938095
"59607",818.9186,78.71702,89.26696
"59608",818.9319,79.30785,89.8177
"59609",818.9452,80.062256,90.550476
"59610",818.9585,80.8777,91.36787
"59611",818.9718,81.62722,92.14481
"59612",818.9851,82.196075,92.76452
"59613",818.9984,82.53544,93.17251
"59614",819.0117,82.652626,93.36893
"59615",819.025,82.598915,93.39811
"59616",819.0383,82.43778,93.31819
"59617",819.05164,82.22293,93.17952
"59618",819.06494,81.988556,93.01461
"59619",819.07825,81.75906,92.84726
"59620",819.09155,81.529564,92.67273
"59621",819.10486,81.29275,92.48371
"59622",819.11816,81.04616,92.27752
"59623",819.1315,80.79225,92.056305
"59624",819.1448,80.5359,91.82471
"59625",819.1581,80.291756,91.59731
"59626",819.1714,80.06958,91.384254
"59627",819.1847,79.88403,91.20088
"59628",819.198,79.73754,91.050766
"59629",819.2113,79.63012,90.93514
"59630",819.2246,79.55688,90.85034
"59631",819.2379,79.51049,90.79011
"59632",819.2512,79.47143,90.73575
"59633",819.2645,79.42748,90.675285
"59634",819.27783,79.361565,90.59148
"59635",819.29114,79.27123,90.48119
"59636",819.30444,79.15892,90.34611
"59637",819.31775,79.03685,90.197754
"59638",819.33105,78.91478,90.045586
"59639",819.34436,78.79271,89.8896
"59640",819.35767,78.68284,89.742004
"59641",819.371,78.5803,89.598305
"59642",819.3843,78.487526,89.46117
"59643",819.3976,78.397194,89.32357
"59644",819.4109,78.311745,89.188034
"59645",819.4242,78.22873,89.05226
"59646",819.4375,78.16525,88.93343
"59647",819.4508,78.14328,88.854126
"59648",819.4641,78.21896,88.87179
"59649",819.4774,78.46555,89.06272
"59650",819.4907,78.91966,89.46888
"59651",819.504,79.56664,90.0821
"59652",819.51733,80.3357,90.837616
"59653",819.53064,81.12428,91.63669
"59654",819.54395,81.80301,92.35055
"59655",819.55725,82.29374,92.89762
"59656",819.57056,82.562294,93.237854
"59657",819.58386,82.633095,93.388725
"59658",819.59717,82.55741,93.395325
"59659",819.6105,82.39628,93.31411
"59660",819.6238,82.18631,93.17902
"59661",819.6371,81.95926,93.020294
"59662",819.6504,81.72976,92.85202
"59663",819.6637,81.495384,92.6717
"59664",819.677,81.253685,92.47673
"59665",819.6903,81.00221,92.264435
"59666",819.7036,80.75075,92.04429
"59667",819.7169,80.5066,91.8236
"59668",819.7302,80.289314,91.62215
"59669",819.7435,80.10132,91.44319
"59670",819.75684,79.954834,91.29987
"59671",819.77014,79.84497,91.1886
"59672",819.78345,79.76929,91.10807
"59673",819.79675,79.71313,91.0447
"59674",819.81006,79.66674,90.98935
"59675",819.82336,79.61547,90.927666
"59676",819.8367,79.54955,90.84973
"59677",819.85,79.46899,90.75509
"59678",819.8633,79.37133,90.64084
"59679",819.8766,79.26391,90.51377
"59680",819.8899,79.14671,90.37357
"59681",819.9032,79.029526,90.22972
"59682",819.9165,78.9099,90.079765
"59683",819.9298,78.79759,89.933395
"59684",819.9431,78.69016,89.78839
"59685",819.9564,78.590065,89.64736
"59686",819.9697,78.49973,89.51297
"59687",819.98303,78.41428,89.38064
"59688",819.99634,78.3386,89.2554
"59689",820.00964,78.30198,89.16686
"59690",820.02295,78.36057,89.17239
"59691",820.03625,78.57786,89.33845
"59692",820.04956,79.00511,89.72126
"59693",820.06287,79.63744,90.3225
"59694",820.0762,80.4065,91.08023
"59695",820.0895,81.19264,91.879074
"59696",820.1028,81.87869,92.602394
"59697",820.1161,82.36454,93.14695
"59698",820.1294,82.62333,93.47963
"59699",820.1427,82.68192,93.6202
"59700",820.156,82.60136,93.62344
"59701",820.1693,82.4329,93.53628
"59702",820.1826,82.22049,93.399895
"59703",820.1959,81.99588,93.244675
"59704",820.2092,81.76395,93.07511
"59705",820.22253,81.52224,92.88853
"59706",820.23584,81.270775,92.68463
"59707",820.24915,81.0193,92.47287
"59708",820.26245,80.77272,92.25814
"59709",820.27576,80.53834,92.047905
"59710",820.28906,80.325935,91.852325
"59711",820.30237,80.147705,91.68428
"59712",820.3157,79.99878,91.53997
"59713",820.329,79.88159,91.422745
"59714",820.3423,79.798584,91.33604
"59715",820.3556,79.7351,91.26626
"59716",820.3689,79.68139,91.20427
"59717",820.3822,79.62524,91.13816
"59718",820.3955,79.55932,91.06053
"59719",820.4088,79.47143,90.95887
"59720",820.4221,79.37133,90.842255
"59721",820.4354,79.26391,90.71519
"59722",820.4487,79.151596,90.57987
"59723",820.46204,79.04173,90.4435
"59724",820.47534,78.93187,90.30369
"59725",820.48865,78.82201,90.160446
"59726",820.50195,78.71458,90.016205
"59727",820.51526,78.61448,89.87594
"59728",820.52856,78.51682,89.734985
"59729",820.5419,78.42649,89.598305
"59730",820.5552,78.36057,89.483215
"59731",820.5685,78.35325,89.42466
"59732",820.5818,78.467995,89.487946
"59733",820.5951,78.76341,89.73549
"59734",820.6084,79.27123,90.204666
"59735",820.6217,79.954834,90.86549
"59736",820.635,80.73121,91.64046
"59737",820.6483,81.47585,92.40795
"59738",820.6616,82.07889,93.057106
"59739",820.6749,82.47196,93.515144
"59740",820.68823,82.65507,93.7755
"59741",820.70154,82.66239,93.86579
"59742",820.71484,82.55253,93.83913
"59743",820.72815,82.37919,93.74555
"59744",820.74146,82.16922,93.60993
"59745",820.75476,81.94705,93.45555
"59746",820.76807,81.71755,93.286896
"59747",820.7814,81.478294,93.10131
"59748",820.7947,81.231705,92.90092
"59749",820.808,80.98268,92.690384
"59750",820.8213,80.740974,92.479385
"59751",820.8346,80.516365,92.27793
"59752",820.8479,80.31617,92.09387
"59753",820.8612,80.147705,91.93529
"59754",820.8745,80.01587,91.80807
"59755",820.8878,79.91821,91.71091
"59756",820.9011,79.84253,91.63267
"59757",820.9144,79.77417,91.55939
"59758",820.92773,79.70336,91.48152
"59759",820.94104,79.62035,91.389244
"59760",820.95435,79.520256,91.27728
"59761",820.96765,79.40551,91.147545
"59762",820.98096,79.28344,91.0069
"59763",820.99426,79.1638,90.86487
"59764",821.00757,79.04173,90.71667
"59765",821.0209,78.924545,90.569534
"59766",821.0342,78.80492,90.4163
"59767",821.0475,78.69016,90.2642
"59768",821.0608,78.57786,90.11096
"59769",821.0741,78.47532,89.96398
"59770",821.0874,78.37766,89.81868
"59771",821.1007,78.28977,89.68009
"59772",821.114,78.22873,89.565605
"59773",821.1273,78.23117,89.512695
"59774",821.1406,78.37034,89.59659
"59775",821.15393,78.69993,89.87525
"59776",821.16724,79.24437,90.37907
"59777",821.18054,79.954834,91.06592
"59778",821.19385,80.7483,91.85797
"59779",821.20715,81.497826,92.63088
"59780",821.22046,82.10086,93.28072
"59781",821.23376,82.493935,93.73945
"59782",821.2471,82.684364,94.00781
"59783",821.2604,82.70878,94.11611
"59784",821.2737,82.61356,94.105545
"59785",821.287,82.44999,94.02364
"59786",821.3003,82.24979,93.9
"59787",821.3136,82.037384,93.757904
"59788",821.3269,81.812775,93.59696
"59789",821.3402,81.57839,93.41923
"59790",821.3535,81.33669,93.22685
"59791",821.3668,81.08766,93.01959
"59792",821.3801,80.8362,92.80212
"59793",821.39343,80.59449,92.58654
"59794",821.40674,80.37476,92.38539
"59795",821.42004,80.181885,92.20422
"59796",821.43335,80.02075,92.048775
"59797",821.44666,79.888916,91.91759
"59798",821.45996,79.78638,91.81158
"59799",821.47327,79.70092,91.719444
"59800",821.4866,79.61791,91.62709
"59801",821.4999,79.534904,91.53214
"59802",821.5132,79.44213,91.424835
"59803",821.5265,79.33471,91.29998
"59804",821.5398,79.21263,91.15711
"59805",821.5531,79.080795,91.00067
"59806",821.5664,78.9514,90.84255
"59807",821.5797,78.82201,90.68039
"59808",821.593,78.69993,90.5215
"59809",821.6063,78.58518,90.36613
"59810",821.6196,78.47532,90.21205
"59811",821.63293,78.37034,90.059425
"59812",821.64624,78.27512,89.913284
"59813",821.65955,78.184784,89.76904
"59814",821.67285,78.11398,89.64152
"59815",821.68616,78.082245,89.55084
"59816",821.69946,78.135956,89.544624
"59817",821.71277,78.34104,89.69146
"59818",821.7261,78.74387,90.04245
"59819",821.7394,79.344475,90.6038
"59820",821.7527,80.08911,91.32795
"59821",821.766,80.87038,92.112
"59822",821.7793,81.56863,92.83745
"59823",821.7926,82.08865,93.406494
"59824",821.8059,82.40116,93.78427
"59825",821.8192,82.511024,93.96917
"59826",821.8325,82.46952,94.006134
"59827",821.8458,82.33036,93.944145
"59828",821.85913,82.142365,93.82897
"59829",821.87244,81.9324,93.68596
"59830",821.88574,81.71267,93.52661
"59831",821.89905,81.48806,93.35552
"59832",821.91235,81.25613,93.17009
"59833",821.92566,81.01686,92.97008
"59834",821.93896,80.77272,92.75771
"59835",821.9523,80.53101,92.54015
"59836",821.9656,80.306404,92.33214
"59837",821.9789,80.113525,92.148834
"59838",821.9922,79.957275,91.99613
"59839",822.0055,79.83765,91.87517
"59840",822.0188,79.744865,91.77731
"59841",822.0321,79.66918,91.69366
"59842",822.0454,79.59838,91.61252
"59843",822.0587,79.520256,91.52184
"59844",822.072,79.42748,91.41408
"59845",822.0853,79.32494,91.29365
"59846",822.09863,79.200424,91.14803
"59847",822.11194,79.06859,90.99121
"59848",822.12524,78.93431,90.82783
"59849",822.13855,78.80492,90.66513
"59850",822.15186,78.68528,90.50815
"59851",822.16516,78.58274,90.364525
"59852",822.17847,78.48997,90.22746
"59853",822.1918,78.40208,90.092384
"59854",822.2051,78.3093,89.94968
"59855",822.2184,78.221405,89.808945
"59856",822.2317,78.1384,89.67036
"59857",822.245,78.07492,89.548706
"59858",822.2583,78.0798,89.49343
"59859",822.2716,78.21896,89.572586
"59860",822.2849,78.54124,89.8392
"59861",822.2982,79.06615,90.31853
"59862",822.3115,79.7522,90.975395
"59863",822.3248,80.50904,91.724495
"59864",822.33813,81.21706,92.44842
"59865",822.35144,81.76395,93.03334
"59866",822.36475,82.10574,93.43026
"59867",822.37805,82.23758,93.6279
"59868",822.39136,82.19852,93.65876
"59869",822.40466,82.04715,93.576096
"59870",822.41797,81.83719,93.43011
"59871",822.4313,81.600365,93.250694
"59872",822.4446,81.356224,93.056564
"59873",822.4579,81.109634,92.852356
"59874",822.4712,80.86549,92.64289
"59875",822.4845,80.621346,92.42579
"59876",822.4978,80.37965,92.20351
"59877",822.5111,80.15503,91.99075
"59878",822.5244,79.957275,91.797844
"59879",822.5377,79.7937,91.632935
"59880",822.551,79.65942,91.4922
"59881",822.56433,79.55688,91.37902
"59882",822.57764,79.46899,91.27728
"59883",822.59094,79.3933,91.185005
"59884",822.60425,79.31762,91.09036
"59885",822.61755,79.237045,90.988464
"59886",822.63086,79.14427,90.87185
"59887",822.64417,79.044174,90.74501
"59888",822.6575,78.93919,90.61016
"59889",822.6708,78.82445,90.462265
"59890",822.6841,78.70725,90.308334
"59891",822.6974,78.59251,90.15319
"59892",822.7107,78.485085,90.001785
"59893",822.724,78.382545,89.851906
"59894",822.7373,78.29221,89.71103
"59895",822.7506,78.21164,89.57709
"59896",822.7639,78.135956,89.44552
"59897",822.7772,78.06271,89.314026
"59898",822.7905,77.99191,89.182686
"59899",822.80383,77.93576,89.06378
"59900",822.81714,77.92111,88.98463
"59901",822.83044,78.01633,89.01488
"59902",822.84375,78.277565,89.21413
"59903",822.85706,78.74143,89.62417
"59904",822.87036,79.38842,90.23183
"59905",822.88367,80.1355,90.95979
"59906",822.897,80.87282,91.70135
"59907",822.9103,81.47585,92.33166
"59908",822.9236,81.87869,92.78062
"59909",822.9369,82.0618,93.02243
"59910",822.9502,82.054474,93.07954
"59911",822.9635,81.9202,93.00946
"59912",822.9768,81.71023,92.8595
"59913",822.9901,81.46853,92.67124
"59914",823.0034,81.2195,92.4681
"59915",823.0167,80.970474,92.25719
"59916",823.03,80.726326,92.043365
"59917",823.04333,80.48951,91.82925
"59918",823.05664,80.26734,91.622375
"59919",823.06995,80.0647,91.428085
"59920",823.08325,79.89136,91.25677
"59921",823.09656,79.7522,91.11421
"59922",823.10986,79.64477,90.99904
"59923",823.12317,79.56664,90.90981
"59924",823.1365,79.50805,90.83768
"59925",823.1498,79.46166,90.77592
"59926",823.1631,79.415276,90.71271
"59927",823.1764,79.361565,90.640724
"59928",823.1897,79.29565,90.554855
"59929",823.203,79.21019,90.44739
"59930",823.2163,79.11253,90.32505
"59931",823.2296,79.009995,90.19478
"59932",823.2429,78.90013,90.05398
"59933",823.2562,78.79271,89.912186
"59934",823.26953,78.695045,89.776794
"59935",823.28284,78.60471,89.64568
"59936",823.29614,78.521706,89.51907
"59937",823.30945,78.44846,89.399635
"59938",823.32275,78.380104,89.28279
"59939",823.33606,78.31907,89.171135
"59940",823.34937,78.26292,89.062454
"59941",823.3627,78.21652,88.96178
"59942",823.376,78.20676,88.89628
"59943",823.3893,78.294655,88.92814
"59944",823.4026,78.54124,89.12143
"59945",823.4159,78.98558,89.52019
"59946",823.4292,79.62035,90.12326
"59947",823.4425,80.36744,90.85848
"59948",823.4558,81.109634,91.61216
"59949",823.4691,81.72976,92.26696
"59950",823.4824,82.144806,92.73606
"59951",823.4957,82.33036,92.98864
"59952",823.50903,82.32304,93.05414
"59953",823.52234,82.18387,92.987564
"59954",823.53564,81.96414,92.83608
"59955",823.54895,81.70779,92.641106
"59956",823.56226,81.43923,92.42592
"59957",823.57556,81.17311,92.20477
"59958",823.58887,80.91432,91.98264
"59959",823.6022,80.67017,91.76707
"59960",823.6155,80.44312,91.56096
"59961",823.6288,80.24536,91.377045
"59962",823.6421,80.08667,91.22602
"59963",823.6554,79.971924,91.11398
"59964",823.6687,79.8938,91.03498
"59965",823.682,79.84497,90.982834
"59966",823.6953,79.80835,90.94137
"59967",823.7086,79.77173,90.89876
"59968",823.7219,79.727776,90.84767
"59969",823.7352,79.66674,90.77813
"59970",823.74854,79.58373,90.68471
"59971",823.76184,79.48608,90.57404
"59972",823.77515,79.37621,90.44812
"59973",823.78845,79.259026,90.31144
"59974",823.80176,79.14427,90.17353
"59975",823.81506,79.03929,90.04181
"59976",823.82837,78.93919,89.91169
"59977",823.8417,78.84886,89.78821
"59978",823.855,78.768295,89.67167
"59979",823.8683,78.692604,89.55749
"59980",823.8816,78.61936,89.44339
"59981",823.8949,78.555885,89.33677
"59982",823.9082,78.49973,89.23549
"59983",823.9215,78.470436,89.15931
"59984",823.9348,78.504616,89.14569
"59985",823.9481,78.67063,89.26498
"59986",823.9614,79.01488,89.56768
"59987",823.97473,79.54955,90.07157
"59988",823.98804,80.23071,90.738655
"59989",824.00134,80.96559,91.48074
"59990",824.01465,81.634544,92.17987
"59991",824.02795,82.1326,92.729004
"59992",824.04126,82.41337,93.076416
"59993",824.05457,82.48173,93.22019
"59994",824.0679,82.38651,93.20253
"59995",824.0812,82.18387,93.07446
"59996",824.0945,81.92752,92.88636
"59997",824.1078,81.654076,92.67315
"59998",824.1211,81.3782,92.44896
"59999",824.1344,81.10475,92.21858
"60000",824.1477,80.84108,91.98943
"60001",824.161,80.59937,91.77401
"60002",824.1743,80.37965,91.57301
"60003",824.1876,80.198975,91.404205
"60004",824.2009,80.05737,91.26882
"60005",824.21423,79.957275,91.17052
"60006",824.22754,79.88403,91.09594
"60007",824.24084,79.835205,91.04349
"60008",824.25415,79.79614,90.999275
"60009",824.26746,79.75708,90.95384
"60010",824.28076,79.71557,90.90474
"60011",824.29407,79.66186,90.84214
"60012",824.3074,79.59838,90.7681
"60013",824.3207,79.51537,90.67254
"60014",824.334,79.41772,90.55974
"60015",824.3473,79.31274,90.43656
"60016",824.3606,79.20531,90.307655
"60017",824.3739,79.097885,90.1754
"60018",824.3872,79.00267,90.051994
"60019",824.4005,78.91478,89.93294
"60020",824.4138,78.83421,89.81846
"60021",824.4271,78.75853,89.706345
"60022",824.4404,78.695045,89.604065
"60023",824.45374,78.641335,89.509575
"60024",824.46704,78.624245,89.45003
"60025",824.48035,78.69993,89.48272
"60026",824.49365,78.92699,89.66915
"60027",824.50696,79.344475,90.05311
"60028",824.52026,79.95239,90.64054
"60029",824.53357,80.689705,91.376366
"60030",824.5469,81.446556,92.15477
"60031",824.5602,82.09354,92.846954
"60032",824.5735,82.54032,93.35916
"60033",824.5868,82.7625,93.66072
"60034",824.6001,82.76982,93.75437
"60035",824.6134,82.62821,93.69932
"60036",824.6267,82.391396,93.54463
"60037",824.64,82.11551,93.343475
"60038",824.6533,81.829865,93.12394
"60039",824.6666,81.549095,92.90035
"60040",824.67993,81.27566,92.67532
"60041",824.69324,81.01686,92.45639
"60042",824.70654,80.7776,92.24891
"60043",824.71985,80.56031,92.055916
"60044",824.73315,80.377205,91.89032
"60045",824.74646,80.233154,91.75806
"60046",824.75977,80.128174,91.66036
"60047",824.7731,80.05249,91.588684
"60048",824.7864,80.00122,91.539055
"60049",824.7997,79.954834,91.49271
"60050",824.813,79.906006,91.44247
"60051",824.8263,79.84985,91.38338
"60052",824.8396,79.77905,91.307884
"60053",824.8529,79.68871,91.21064
"60054",824.8662,79.58129,91.09349
"60055",824.8795,79.466545,90.96566
"60056",824.8928,79.34203,90.82448
"60057",824.9061,79.2224,90.68428
"60058",824.91943,79.10521,90.54279
"60059",824.93274,78.995346,90.40497
"60060",824.94604,78.890366,90.26859
"60061",824.95935,78.78783,90.13138
"60062",824.97266,78.69016,89.995834
"60063",824.98596,78.607155,89.871895
"60064",824.99927,78.55833,89.77954
"60065",825.0126,78.59739,89.77355
"60066",825.0259,78.78294,89.915276
"60067",825.0392,79.15892,90.25322
"60068",825.0525,79.73022,90.79823
"60069",825.0658,80.43824,91.497826
"60070",825.0791,81.17311,92.24639
"60071",825.0924,81.815216,92.925156
"60072",825.1057,82.27421,93.44087
"60073",825.119,82.511024,93.74876
"60074",825.1323,82.545204,93.861404
"60075",825.1456,82.4329,93.828636
"60076",825.15894,82.22781,93.69958
"60077",825.17224,81.97635,93.51773
"60078",825.18555,81.71267,93.31581
"60079",825.19885,81.446556,93.10322
"60080",825.21216,81.18532,92.887184
"60081",825.22546,80.938736,92.67764
"60082",825.2388,80.709236,92.47748
"60083",825.2521,80.499275,92.28968
"60084",825.2654,80.31373,92.119736
"60085",825.2787,80.164795,91.980606
"60086",825.292,80.05005,91.87101
"60087",825.3053,79.96704,91.789566
"60088",825.3186,79.91089,91.73238
"60089",825.3319,79.871826,91.69054
"60090",825.3452,79.82544,91.640144
"60091",825.3585,79.76929,91.57854
"60092",825.3718,79.69604,91.49808
"60093",825.38513,79.603264,91.395805
"60094",825.39844,79.49584,91.275986
"60095",825.41174,79.378654,91.14304
"60096",825.42505,79.2517,90.99667
"60097",825.43835,79.11986,90.841446
"60098",825.45166,78.992905,90.68699
"60099",825.46497,78.86595,90.528564
"60100",825.4783,78.74876,90.37593
"60101",825.4916,78.641335,90.22941
"60102",825.5049,78.536354,90.08197
"60103",825.5182,78.44358,89.94346
"60104",825.5315,78.39475,89.84599
"60105",825.5448,78.44846,89.84954
"60106",825.5581,78.66575,90.01834
"60107",825.5714,79.093,90.4039
"60108",825.5847,79.71313,90.99568
"60109",825.598,80.45045,91.72404
"60110",825.6113,81.18776,92.475426
"60111",825.62463,81.80057,93.12535
"60112",825.63794,82.210724,93.591774
"60113",825.65125,82.40116,93.851295
"60114",825.66455,82.408485,93.933655
"60115",825.67786,82.286415,93.88685
"60116",825.69116,82.10086,93.77274
"60117",825.70447,81.88846,93.62599
"60118",825.7178,81.668724,93.46527
"60119",825.7311,81.44167,93.29037
"60120",825.7444,81.214615,93.10836
"60121",825.7577,80.98512,92.916824
"60122",825.771,80.765396,92.72788
"60123",825.7843,80.56275,92.54916
"60124",825.7976,80.39185,92.39584
"60125",825.8109,80.255135,92.27137
"60126",825.8242,80.15015,92.174355
"60127",825.8375,80.07446,92.10336
"60128",825.8508,80.01831,92.04954
"60129",825.86414,79.971924,92.00372
"60130",825.87744,79.923096,91.95402
"60131",825.89075,79.85962,91.88814
"60132",825.90405,79.77661,91.80074
"60133",825.91736,79.67895,91.6961
"60134",825.93066,79.569084,91.5762
"60135",825.944,79.447014,91.44067
"60136",825.9573,79.31762,91.29399
"60137",825.9706,79.19066,91.145706
"60138",825.9839,79.06615,90.9959
"60139",825.9972,78.94896,90.84953
"60140",826.0105,78.84398,90.71171
"60141",826.0238,78.751205,90.58281
"60142",826.0371,78.67063,90.46321
"60143",826.0504,78.62913,90.380165
"60144",826.0637,78.677956,90.386154
"60145",826.077,78.87816,90.545044
"60146",826.09033,79.27123,90.90306
"60147",826.10364,79.85718,91.46623
"60148",826.11694,80.57252,92.17711
"60149",826.13025,81.31228,92.93476
"60150",826.14355,81.95682,93.62031
"60151",826.15686,82.423134,94.14777
"60152",826.17017,82.67704,94.4774
"60153",826.1835,82.74052,94.624535
"60154",826.1968,82.65995,94.62961
"60155",826.2101,82.493935,94.546715
"60156",826.2234,82.28397,94.41469
"60157",826.2367,82.05936,94.261444
"60158",826.25,81.83475,94.10119
"60159",826.2633,81.60769,93.931465
"60160",826.2766,81.36843,93.74245
"60161",826.2899,81.126724,93.5435
"60162",826.3032,80.89479,93.34678
"60163",826.3165,80.68238,93.16233
"60164",826.32983,80.499275,93.00055
"60165",826.34314,80.35767,92.87455
"60166",826.35645,80.255135,92.78319
"60167",826.36975,80.17212,92.708145
"60168",826.38306,80.093994,92.6354
"60169",826.39636,80.01587,92.56021
"60170",826.40967,79.92554,92.470375
"60171",826.423,79.818115,92.36063
"60172",826.4363,79.693596,92.23042
"60173",826.4496,79.55688,92.08413
"60174",826.4629,79.412834,91.92624
"60175",826.4762,79.26391,91.758965
"60176",826.4895,79.11742,91.58947
"60177",826.5028,78.97337,91.41785
"60178",826.5161,78.83421,91.246605
"60179",826.5294,78.70237,91.07833
"60180",826.5427,78.5803,90.91571
"60181",826.556,78.49241,90.783455
"60182",826.56934,78.49241,90.73634
"60183",826.58264,78.64866,90.84548
"60184",826.59595,78.995346,91.14994
"60185",826.60925,79.54223,91.66543
"60186",826.62256,80.23804,92.34693
"60187",826.63586,80.98024,93.09657
"60188",826.6492,81.64675,93.79372
"60189",826.6625,82.14969,94.348114
"60190",826.6758,82.44511,94.71071
"60191",826.6891,82.55009,94.8921
"60192",826.7024,82.50614,94.92784
"60193",826.7157,82.37919,94.8792
"60194",826.729,82.213165,94.78753
"60195",826.7423,82.03006,94.673584
"60196",826.7556,81.83475,94.54171
"60197",826.7689,81.617455,94.38175
"60198",826.7822,81.375755,94.1906
"60199",826.79553,81.11452,93.97235
"60200",826.80884,80.84596,93.738625
"60201",826.82214,80.59205,93.51115
"60202",826.83545,80.36744,93.30504
"60203",826.84875,80.181885,93.13097
"60204",826.86206,80.04028,92.99505
"60205",826.87537,79.9353,92.89133
"60206",826.8887,79.84741,92.801414
"60207",826.902,79.76929,92.71852
"60208",826.9153,79.68627,92.628296
"60209",826.9286,79.59106,92.52328
"60210",826.9419,79.47631,92.39575
"60211",826.9552,79.34692,92.24999
"60212",826.9685,79.20775,92.090416
"60213",826.9818,79.061264,91.919174
"60214",826.9951,78.9099,91.73847
"60215",827.0084,78.75609,91.5506
"60216",827.0217,78.6096,91.365234
"60217",827.03503,78.467995,91.18018
"60218",827.04834,78.345924,91.01024
"60219",827.06165,78.2678,90.880424
"60220",827.07495,78.28245,90.84094
"60221",827.08826,78.450905,90.95573
"60222",827.10156,78.82201,91.27842
"60223",827.11487,79.395744,91.815346
"60224",827.1282,80.11841,92.51913
"60225",827.1415,80.88258,93.287
"60226",827.1548,81.57107,94.00307
"60227",827.1681,82.08621,94.56731
"60228",827.1814,82.38651,94.9328
"60229",827.1947,82.493935,95.1148
"60230",827.208,82.45731,95.15611
"60231",827.2213,82.3328,95.10839
"60232",827.2346,82.16922,95.01771
"60233",827.2479,81.991,94.90727
"60234",827.2612,81.79813,94.77662
"60235",827.27454,81.5906,94.62528
"60236",827.28784,81.36599,94.45038
"60237",827.30115,81.11696,94.24403
"60238",827.31445,80.86061,94.02259
"60239",827.32776,80.61158,93.80045
"60240",827.34106,80.38697,93.594955
"60241",827.3544,80.198975,93.41905
"60242",827.3677,80.05737,93.28367
"60243",827.381,79.94995,93.17804
"60244",827.3943,79.85962,93.08614
"60245",827.4076,79.77173,92.993866
"60246",827.4209,79.68139,92.89639
"60247",827.4342,79.57641,92.781456
"60248",827.4475,79.46166,92.65347
"60249",827.4608,79.33471,92.5097
"60250",827.4741,79.19554,92.34974
"60251",827.4874,79.044174,92.17323
"60252",827.50073,78.89281,91.992
"60253",827.51404,78.73899,91.80358
"60254",827.52734,78.590065,91.61525
"60255",827.54065,78.450905,91.43203
"60256",827.55396,78.32639,91.25911
"60257",827.56726,78.23117,91.11159
"60258",827.58057,78.2092,91.03434
"60259",827.5939,78.32395,91.09313
"60260",827.6072,78.62913,91.34593
"60261",827.6205,79.151596,91.82556
"60262",827.6338,79.84741,92.494865
"60263",827.6471,80.62867,93.271355
"60264",827.6604,81.373314,94.035645
"60265",827.6737,81.971466,94.67671
"60266",827.687,82.36454,95.13139
"60267",827.7003,82.55253,95.39327
"60268",827.7136,82.57206,95.49257
"60269",827.7269,82.47929,95.48017
"60270",827.74023,82.32304,95.4014
"60271",827.75354,82.13748,95.28844
"60272",827.76685,81.9324,95.150154
"60273",827.78015,81.705345,94.98348
"60274",827.79346,81.45388,94.78531
"60275",827.80676,81.17067,94.54753
"60276",827.82007,80.87526,94.288704
"60277",827.8334,80.57984,94.02064
"60278",827.8467,80.308846,93.76776
"60279",827.86,80.08423,93.552795
"60280",827.8733,79.91577,93.38697
"60281",827.8866,79.78882,93.257385
"60282",827.8999,79.68871,93.15068
"60283",827.9132,79.5935,93.04574
"60284",827.9265,79.48608,92.92561
"60285",827.9398,79.35668,92.78016
"60286",827.9531,79.20531,92.60868
"60287",827.96643,79.03929,92.41783
"60288",827.97974,78.86839,92.21691
"60289",827.99304,78.692604,92.00576
"60290",828.00635,78.519264,91.791565
"60291",828.01965,78.35081,91.576836
"60292",828.03296,78.187225,91.36172
"60293",828.04626,78.03342,91.15126
"60294",828.0596,77.88937,90.94576
"60295",828.0729,77.769745,90.76018
"60296",828.0862,77.70626,90.627
"60297",828.0995,77.7551,90.60416
"60298",828.1128,77.98215,90.761055
"60299",828.1261,78.43137,91.147224
"60300",828.1394,79.093,91.759834
"60301",828.1527,79.89868,92.53717
"60302",828.166,80.73609,93.371414
"60303",828.1793,81.47341,94.13174
"60304",828.1926,82.02518,94.729546
"60305",828.20593,82.35966,95.12731
"60306",828.21924,82.49882,95.34021
"60307",828.23254,82.496376,95.415855
"60308",828.24585,82.41093,95.40842
"60309",828.25916,82.28886,95.36169
"60310",828.27246,82.14969,95.294044
"60311",828.28577,81.988556,95.20009
"60312",828.2991,81.7908,95.064476
"60313",828.3124,81.549095,94.87873
"60314",828.3257,81.25857,94.63661
"60315",828.339,80.936295,94.35367
"60316",828.3523,80.61158,94.05821
"60317",828.3656,80.308846,93.77459
"60318",828.3789,80.05005,93.525444
"60319",828.3922,79.84741,93.32437
"60320",828.4055,79.69604,93.16823
"60321",828.4188,79.58129,93.04398
"60322",828.4321,79.48119,92.9308
"60323",828.44543,79.381096,92.81449
"60324",828.45874,79.26635,92.680405
"60325",828.47205,79.13451,92.525635
"60326",828.48535,78.98314,92.34722
"60327",828.49866,78.81712,92.14943
"60328",828.51196,78.641335,91.936676
"60329",828.52527,78.46555,91.71844
"60330",828.5386,78.28977,91.494705
"60331",828.5519,78.12619,91.27768
"60332",828.5652,77.97482,91.06776
"60333",828.5785,77.83566,90.86531
"60334",828.5918,77.71114,90.67316
"60335",828.6051,77.62325,90.51374
"60336",828.6184,77.628136,90.44435
"60337",828.6317,77.806366,90.54846
"60338",828.645,78.21652,90.89007
"60339",828.6583,78.870834,91.48865
"60340",828.67163,79.70336,92.28589
"60341",828.68494,80.6067,93.179955
"60342",828.69824,81.44167,94.03389
"60343",828.71155,82.1033,94.74057
"60344",828.72485,82.53788,95.240875
"60345",828.73816,82.757614,95.53992
"60346",828.75146,82.81621,95.684685
"60347",828.7648,82.77226,95.728745
"60348",828.7781,82.67704,95.72015
"60349",828.7914,82.562294,95.689064
"60350",828.8047,82.43046,95.6373
"60351",828.818,82.266884,95.549675
"60352",828.8313,82.04959,95.40322
"60353",828.8446,81.76395,95.181625
"60354",828.8579,81.41238,94.88518
"60355",828.8712,81.02174,94.53868
"60356",828.8845,80.62867,94.177536
"60357",828.8978,80.274666,93.84318
"60358",828.91113,79.98169,93.558784
"60359",828.92444,79.75464,93.33116
"60360",828.93774,79.58373,93.15259
"60361",828.95105,79.4519,93.007744
"60362",828.96436,79.33471,92.87343
"60363",828.97766,79.217514,92.73544
"60364",828.99097,79.08324,92.57671
"60365",829.0043,78.93187,92.3967
"60366",829.0176,78.75609,92.18754
"60367",829.0309,78.56809,91.96067
"60368",829.0442,78.37278,91.72061
"60369",829.0575,78.17502,91.472
"60370",829.0708,77.994354,91.23431
"60371",829.0841,77.83078,91.00806
"60372",829.0974,77.68673,90.79622
"60373",829.1107,77.55978,90.59698
"60374",829.124,77.44259,90.403534
"60375",829.1373,77.34493,90.22596
"60376",829.15063,77.298546,90.0966
"60377",829.16394,77.366905,90.08054
"60378",829.17725,77.625694,90.25705
"60379",829.19055,78.12619,90.68335
"60380",829.20386,78.870834,91.36944
"60381",829.21716,79.783936,92.24725
"60382",829.23047,80.73609,93.19266
"60383",829.2438,81.5906,94.07017
"60384",829.2571,82.25956,94.78883
"60385",829.2704,82.69657,95.296455
"60386",829.2837,82.92119,95.60534
"60387",829.297,82.99443,95.76987
"60388",829.3103,82.9749,95.84391
"60389",829.3236,82.9041,95.86607
"60390",829.3369,82.80156,95.85429
"60391",829.3502,82.67704,95.817314
"60392",829.3635,82.50858,95.73251
"60393",829.37683,82.27909,95.58141
"60394",829.39014,81.97391,95.34745
"60395",829.40344,81.59548,95.03071
"60396",829.41675,81.163345,94.64843
"60397",829.43005,80.719,94.24044
"60398",829.44336,80.31129,93.855194
"60399",829.45667,79.971924,93.52556
"60400",829.47,79.71313,93.265884
"60401",829.4833,79.52514,93.06893
"60402",829.4966,79.38354,92.91249
"60403",829.5099,79.259026,92.768715
"60404",829.5232,79.12718,92.613716
"60405",829.5365,78.975815,92.435074
"60406",829.5498,78.802475,92.22973
"60407",829.5631,78.61204,92.00187
"60408",829.5764,78.41184,91.7583
"60409",829.5897,78.20187,91.4987
"60410",829.603,77.996796,91.237434
"60411",829.61633,77.803925,90.981964
"60412",829.62964,77.628136,90.73755
"60413",829.64294,77.47677,90.51206
"60414",829.65625,77.35714,90.31358
"60415",829.66956,77.2546,90.128456
"60416",829.68286,77.15938,89.94744
"60417",829.69617,77.07149,89.77078
"60418",829.7095,76.99336,89.60114
"60419",829.7228,76.94209,89.45592
"60420",829.7361,76.981155,89.39942
"60421",829.7494,77.19844,89.52237
"60422",829.7627,77.65499,89.89137
"60423",829.776,78.37278,90.53588
"60424",829.7893,79.30541,91.41766
"60425",829.8026,80.33326,92.423805
"60426",829.8159,81.31228,93.41324
"60427",829.8292,82.11307,94.255035
"60428",829.8425,82.6746,94.8826
"60429",829.85583,82.99931,95.29089
"60430",829.86914,83.13603,95.52134
"60431",829.88245,83.1458,95.629105
"60432",829.89575,83.089645,95.67126
"60433",829.90906,82.99931,95.677475
"60434",829.92236,82.879684,95.65157
"60435",829.93567,82.72831,95.59019
"60436",829.949,82.528114,95.47525
"60437",829.9623,82.24979,95.275925
"60438",829.9756,81.900665,94.99711
"60439",829.9889,81.50027,94.656105
"60440",830.0022,81.07301,94.275734
"60441",830.0155,80.655525,93.89178
"60442",830.0288,80.28687,93.54361
"60443",830.0421,79.98169,93.24739
"60444",830.0554,79.73754,93.00267
"60445",830.0687,79.54955,92.80648
"60446",830.08203,79.3933,92.636154
"60447",830.09534,79.2517,92.47559
"60448",830.10864,79.10521,92.30572
"60449",830.12195,78.93919,92.11174
"60450",830.13525,78.75609,91.895485
"60451",830.14856,78.55833,91.65885
"60452",830.16187,78.35569,91.41116
"60453",830.1752,78.150604,91.15469
"60454",830.1885,77.94797,90.894264
"60455",830.2018,77.75021,90.632385
"60456",830.2151,77.56954,90.38141
"60457",830.2284,77.40597,90.141884
"60458",830.2417,77.26925,89.9241
"60459",830.255,77.16182,89.73134
"60460",830.2683,77.07637,89.5572
"60461",830.2816,77.00557,89.395035
"60462",830.2949,76.93477,89.23066
"60463",830.3082,76.86641,89.06651
"60464",830.32153,76.824905,88.927086
"60465",830.33484,76.8542,88.85716
"60466",830.34814,77.03731,88.94196
"60467",830.36145,77.44991,89.261986
"60468",830.37476,78.12863,89.861015
"60469",830.38806,79.03929,90.713196
"60470",830.40137,80.079346,91.72323
"60471",830.4147,81.10231,92.74867
"60472",830.428,81.97391,93.65472
"60473",830.4413,82.60624,94.34873
"60474",830.4546,82.98222,94.80616
"60475",830.4679,83.15068,95.06781
"60476",830.4812,83.17998,95.195564
"60477",830.4945,83.13115,95.24611
"60478",830.5078,83.04814,95.26095
"60479",830.5211,82.9456,95.25366
"60480",830.5344,82.811325,95.21143
"60481",830.5477,82.62577,95.11373
"60482",830.56104,82.36942,94.93944
"60483",830.57434,82.03006,94.67412
"60484",830.58765,81.62478,94.332275
"60485",830.60095,81.18288,93.94115
"60486",830.61426,80.743416,93.53865
"60487",830.62756,80.343025,93.16149
"60488",830.64087,80.01343,92.84261
"60489",830.6542,79.75952,92.58913
"60490",830.6675,79.58129,92.40338
"60491",830.6808,79.44213,92.25114
"60492",830.6941,79.32494,92.116516
"60493",830.7074,79.20775,91.978226
"60494",830.7207,79.06615,91.81187
"60495",830.734,78.89525,91.611786
"60496",830.7473,78.69749,91.3795
"60497",830.7606,78.487526,91.12884
"60498",830.7739,78.27268,90.86673
"60499",830.78723,78.065155,90.605225
"60500",830.80054,77.872284,90.35189
"60501",830.81384,77.69894,90.11205
"60502",830.82715,77.54757,89.88878
"60503",830.84045,77.41329,89.677864
"60504",830.85376,77.30099,89.484726
"60505",830.86707,77.205765,89.30516
"60506",830.8804,77.1252,89.137276
"60507",830.8937,77.05684,88.97908
"60508",830.907,77.00069,88.830956
"60509",830.9203,76.95186,88.6884
"60510",830.9336,76.912796,88.554085
"60511",830.9469,76.88838,88.4332
"60512",830.9602,76.91524,88.362816
"60513",830.9735,77.05928,88.41046
"60514",830.9868,77.40353,88.66281
"60515",831.0001,78.009,89.18715
"60516",831.0134,78.873276,89.989204
"60517",831.02673,79.923096,91.003815
"60518",831.04004,81.01686,92.09518
"60519",831.05334,82.01053,93.12062
"60520",831.06665,82.78691,93.95983
"60521",831.07996,83.30938,94.56939
"60522",831.09326,83.597466,94.96089
"60523",831.10657,83.70733,95.183174
"60524",831.1199,83.70489,95.296585
"60525",831.1332,83.64385,95.351326
"60526",831.1465,83.55352,95.37486
"60527",831.1598,83.441216,95.373604
"60528",831.1731,83.284966,95.32489
"60529",831.1864,83.06279,95.20537
"60530",831.1997,82.757614,94.9959
"60531",831.213,82.36454,94.689
"60532",831.2263,81.91043,94.308784
"60533",831.2396,81.43679,93.894844
"60534",831.2529,80.987564,93.49052
"60535",831.26624,80.601814,93.13563
"60536",831.27954,80.291756,92.844376
"60537",831.29285,80.05737,92.61911
"60538",831.30615,79.88159,92.44512
"60539",831.31946,79.73998,92.29981
"60540",831.33276,79.603264,92.15497
"60541",831.34607,79.45678,91.996086
"60542",831.3594,79.28588,91.80821
"60543",831.3727,79.09056,91.590576
"60544",831.386,78.8806,91.352196
"60545",831.3993,78.66331,91.09992
"60546",831.4126,78.44846,90.84331
"60547",831.4259,78.24582,90.59218
"60548",831.4392,78.05539,90.34693
"60549",831.4525,77.874725,90.1055
"60550",831.4658,77.70382,89.86818
"60551",831.4791,77.54513,89.63773
"60552",831.49243,77.40353,89.41942
"60553",831.50574,77.279015,89.21377
"60554",831.51904,77.17403,89.02375
"60555",831.53235,77.09102,88.85243
"60556",831.54565,77.02998,88.70049
"60557",831.55896,76.99092,88.56862
"60558",831.57227,76.964066,88.44773
"60559",831.5856,76.93721,88.326004
"60560",831.5989,76.90791,88.201
"60561",831.6122,76.8835,88.079956
"60562",831.6255,76.89815,87.997215
"60563",831.6388,77.02266,88.024796
"60564",831.6521,77.34249,88.25159
"60565",831.6654,77.92111,88.74716
"60566",831.6787,78.77074,89.53182
"60567",831.692,79.823,90.54567
"60568",831.7053,80.953384,91.670525
"60569",831.7186,82.00076,92.747696
"60570",831.73193,82.847946,93.6574
"60571",831.74524,83.42901,94.32746
"60572",831.75854,83.758606,94.76421
"60573",831.77185,83.89288,95.015945
"60574",831.78516,83.90021,95.14492
"60575",831.79846,83.84161,95.208206
"60576",831.81177,83.74395,95.23059
"60577",831.8251,83.62432,95.22796
"60578",831.8384,83.46807,95.18497
"60579",831.8517,83.25567,95.08094
"60580",831.865,82.96513,94.89214
"60581",831.8783,82.59647,94.61614
"60582",831.8916,82.16434,94.265144
"60583",831.9049,81.7029,93.871346
"60584",831.9182,81.25124,93.4729
"60585",831.9315,80.848404,93.10916
"60586",831.9448,80.516365,92.803635
"60587",831.9581,80.257576,92.56098
"60588",831.97144,80.05737,92.36883
"60589",831.98474,79.906006,92.21925
"60590",831.99805,79.77173,92.08204
"60591",832.01135,79.63256,91.93574
"60592",832.02466,79.47631,91.768005
"60593",832.03796,79.290764,91.56609
"60594",832.0513,79.08324,91.3364
"60595",832.0646,78.85863,91.083145
"60596",832.0779,78.63157,90.82042
"60597",832.0912,78.40696,90.55305
"60598",832.1045,78.19699,90.2933
"60599",832.1178,77.99924,90.0392
"60600",832.1311,77.81857,89.79601
"60601",832.1444,77.65499,89.56426
"60602",832.1577,77.506065,89.34206
"60603",832.171,77.37667,89.13473
"60604",832.1843,77.26925,88.94533
"60605",832.19763,77.18379,88.774536
"60606",832.21094,77.117874,88.62061
"60607",832.22424,77.07149,88.48416
"60608",832.23755,77.03731,88.35847
"60609",832.25085,77.01289,88.24147
"60610",832.26416,76.98848,88.12371
"60611",832.27747,76.96651,88.00763
"60612",832.2908,76.946976,87.8933
"60613",832.3041,76.944534,87.795456
"60614",832.3174,77.00557,87.76101
"60615",832.3307,77.208206,87.87007
"60616",832.344,77.63546,88.21008
"60617",832.3573,78.328835,88.82957
"60618",832.3706,79.273674,89.72218
"60619",832.3839,80.377205,90.80302
"60620",832.3972,81.497826,91.935425
"60621",832.4105,82.48661,92.971016
"60622",832.4238,83.23613,93.79824
"60623",832.43713,83.719536,94.382774
"60624",832.45044,83.9588,94.73827
"60625",832.46375,84.017395,94.92058
"60626",832.47705,83.963684,94.99241
"60627",832.49036,83.85382,95.00641
"60628",832.50366,83.719536,94.99255
"60629",832.51697,83.5584,94.947655
"60630",832.5303,83.36309,94.86354
"60631",832.5436,83.10918,94.71472
"60632",832.5569,82.78447,94.487175
"60633",832.5702,82.391396,94.181114
"60634",832.5835,81.95438,93.818825
"60635",832.5968,81.497826,93.42335
"60636",832.6101,81.06325,93.035576
"60637",832.6234,80.68482,92.69038
"60638",832.6367,80.36988,92.396835
"60639",832.65,80.130615,92.16913
"60640",832.6633,79.95972,92.00231
"60641",832.67664,79.83032,91.87166
"60642",832.68994,79.71801,91.75404
"60643",832.70325,79.59838,91.6256
"60644",832.71655,79.447014,91.461685
"60645",832.72986,79.26147,91.25886
"60646",832.74316,79.044174,91.018486
"60647",832.7565,78.8098,90.75424
"60648",832.7698,78.572975,90.480225
"60649",832.7831,78.34348,90.20614
"60650",832.7964,78.12863,89.93952
"60651",832.8097,77.92355,89.675964
"60652",832.823,77.73556,89.42308
"60653",832.8363,77.56466,89.18142
"60654",832.8496,77.418175,88.95883
"60655",832.8629,77.298546,88.75852
"60656",832.8762,77.208206,88.58376
"60657",832.8895,77.13985,88.42816
"60658",832.90283,77.09102,88.289955
"60659",832.91614,77.05684,88.16487
"60660",832.92944,77.03731,88.05337
"60661",832.94275,77.02754,87.95102
"60662",832.95605,77.02266,87.85325
"60663",832.96936,77.01778,87.755325
"60664",832.98267,77.00801,87.65237
"60665",832.996,77.00313,87.553986
"60666",833.0093,77.032425,87.48963
"60667",833.0226,77.171585,87.53606
"60668",833.0359,77.506065,87.78215
"60669",833.0492,78.10422,88.30237
"60670",833.0625,78.96361,89.102516
"60671",833.0758,80.01831,90.12483
"60672",833.0891,81.13405,91.24114
"60673",833.1024,82.161896,92.30443
"60674",833.1157,82.97002,93.18011
"60675",833.129,83.51202,93.81492
"60676",833.14233,83.79523,94.20788
"60677",833.15564,83.87335,94.4046
"60678",833.16895,83.809875,94.462166
"60679",833.18225,83.67315,94.444496
"60680",833.19556,83.50469,94.39082
"60681",833.20886,83.32403,94.31968
"60682",833.22217,83.12871,94.22823
"60683",833.2355,82.899216,94.09651
"60684",833.2488,82.61845,93.90634
"60685",833.2621,82.27421,93.64393
"60686",833.2754,81.883575,93.32436
"60687",833.2887,81.46853,92.96818
"60688",833.302,81.06569,92.61123
"60689",833.3153,80.706795,92.28564
"60690",833.3286,80.41871,92.01964
"60691",833.3419,80.19653,91.81055
"60692",833.3552,80.0354,91.655556
"60693",833.3685,79.90845,91.52971
"60694",833.38184,79.798584,91.416985
"60695",833.39514,79.68871,91.30082
"60696",833.40845,79.56664,91.16902
"60697",833.42175,79.42016,91.008995
"60698",833.43506,79.25414,90.82486
"60699",833.44836,79.063705,90.611115
"60700",833.4617,78.85863,90.37678
"60701",833.475,78.6511,90.13358
"60702",833.4883,78.44602,89.88635
"60703",833.5016,78.24826,89.64003
"60704",833.5149,78.06271,89.39974
"60705",833.5282,77.8967,89.17319
"60706",833.5415,77.74532,88.956085
"60707",833.5548,77.611046,88.75135
"60708",833.5681,77.503624,88.569275
"60709",833.5814,77.420616,88.40826
"60710",833.5947,77.35714,88.264175
"60711",833.60803,77.30831,88.13276
"60712",833.62134,77.27657,88.01691
"60713",833.63464,77.25216,87.90739
"60714",833.64795,77.23506,87.80442
"60715",833.66125,77.22041,87.70337
"60716",833.67456,77.208206,87.6043
"60717",833.68787,77.205765,87.51462
"60718",833.7012,77.2375,87.45904
"60719",833.7145,77.366905,87.50211
"60720",833.7278,77.66964,87.722565
"60721",833.7411,78.221405,88.20151
"60722",833.7544,79.029526,88.95405
"60723",833.7677,80.0354,89.929596
"60724",833.781,81.11696,91.01226
"60725",833.7943,82.11795,92.04816
"60726",833.8076,82.91142,92.907814
"60727",833.8209,83.43389,93.52126
"60728",833.8342,83.69512,93.8898
"60729",833.84753,83.75128,94.06143
"60730",833.86084,83.67071,94.09808
"60731",833.87415,83.5169,94.05898
"60732",833.88745,83.33135,93.98334
"60733",833.90076,83.12871,93.884796
"60734",833.91406,82.90898,93.76284
"60735",833.92737,82.65751,93.60227
"60736",833.9407,82.3621,93.38991
"60737",833.954,82.020294,93.12192
"60738",833.9673,81.64187,92.806625
"60739",833.9806,81.248795,92.46486
"60740",833.9939,80.87282,92.12791
"60741",834.0072,80.54078,91.82314
"60742",834.0205,80.26978,91.569046
"60743",834.0338,80.059814,91.36751
"60744",834.0471,79.90845,91.21801
"60745",834.0604,79.79126,91.09796
"60746",834.0737,79.68627,90.98645
"60747",834.08704,79.57885,90.869225
"60748",834.10034,79.45678,90.73399
"60749",834.11365,79.31518,90.57542
"60750",834.12695,79.15648,90.39532
"60751",834.14026,78.9807,90.19318
"60752",834.15356,78.79515,89.97578
"60753",834.1669,78.6096,89.75257
"60754",834.1802,78.42405,89.523575
"60755",834.1935,78.24582,89.2961
"60756",834.2068,78.082245,89.077705
"60757",834.2201,77.9382,88.87373
"60758",834.2334,77.81125,88.68235
"60759",834.2467,77.70382,88.50652
"60760",834.26,77.61837,88.34932
"60761",834.2733,77.54513,88.20165
"60762",834.2866,77.488976,88.06879
"60763",834.2999,77.452354,87.9537
"60764",834.31323,77.43038,87.85211
"60765",834.32654,77.42306,87.76449
"60766",834.33984,77.42306,87.68396
"60767",834.35315,77.4255,87.60587
"60768",834.36646,77.4255,87.52542
"60769",834.37976,77.437706,87.45718
"60770",834.39307,77.506065,87.445465
"60771",834.4064,77.70138,87.56284
"60772",834.4197,78.10422,87.89385
"60773",834.433,78.765854,88.49625
"60774",834.4463,79.67162,89.36345
"60775",834.4596,80.72877,90.41033
"60776",834.4729,81.80545,91.50979
"60777",834.4862,82.7454,92.50616
"60778",834.4995,83.4461,93.29265
"60779",834.5128,83.86359,93.817825
"60780",834.5261,84.0296,94.104576
"60781",834.5394,84.01007,94.21097
"60782",834.55273,83.87579,94.202
"60783",834.56604,83.6878,94.135124
"60784",834.57935,83.48028,94.04285
"60785",834.59265,83.27032,93.94164
"60786",834.60596,83.0457,93.81922
"60787",834.61926,82.791794,93.66049
"60788",834.63257,82.493935,93.449875
"60789",834.6459,82.15457,93.188446
"60790",834.6592,81.78592,92.88712
"60791",834.6725,81.409935,92.56695
"60792",834.6858,81.06081,92.26188
"60793",834.6991,80.762955,91.99718
"60794",834.7124,80.52613,91.784195
"60795",834.7257,80.343025,91.61753
"60796",834.739,80.20386,91.48908
"60797",834.7523,80.093994,91.38559
"60798",834.7656,79.991455,91.28599
"60799",834.77893,79.88159,91.17586
"60800",834.79224,79.75464,91.045204
"60801",834.80554,79.61303,90.89593
"60802",834.81885,79.45678,90.727585
"60803",834.83215,79.28588,90.53971
"60804",834.84546,79.10521,90.33672
"60805",834.85876,78.922104,90.125656
"60806",834.8721,78.73899,89.90886
"60807",834.8854,78.55833,89.68879
"60808",834.8987,78.38743,89.47284
"60809",834.912,78.238495,89.27351
"60810",834.9253,78.11154,89.091515
"60811",834.9386,78.00656,88.92752
"60812",834.9519,77.91623,88.774895
"60813",834.9652,77.84543,88.63898
"60814",834.9785,77.786835,88.513054
"60815",834.9918,77.74288,88.39994
"60816",835.0051,77.70626,88.292786
"60817",835.01843,77.67452,88.18937
"60818",835.03174,77.64767,88.08984
"60819",835.04504,77.61837,87.98704
"60820",835.05835,77.593956,87.8882
"60821",835.07166,77.608604,87.82766
"60822",835.08496,77.72579,87.87012
"60823",835.09827,78.028534,88.10179
"60824",835.1116,78.58274,88.59439
"60825",835.1249,79.398186,89.36555
"60826",835.1382,80.411385,90.35994
"60827",835.1515,81.49294,91.45435
"60828",835.1648,82.48417,92.49223
"60829",835.1781,83.25811,93.3438
"60830",835.1914,83.756165,93.94367
"60831",835.2047,83.99054,94.295425
"60832",835.218,84.01007,94.43966
"60833",835.2313,83.89044,94.44534
"60834",835.2446,83.69756,94.37404
"60835",835.25793,83.47295,94.26498
"60836",835.27124,83.24101,94.14156
"60837",835.28455,83.001755,94.003586
"60838",835.29785,82.7454,93.841034
"60839",835.31116,82.45487,93.6363
"60840",835.32446,82.125275,93.383415
"60841",835.33777,81.76639,93.09094
"60842",835.3511,81.40261,92.782364
"60843",835.3644,81.05592,92.47951
"60844",835.3777,80.75075,92.20733
"60845",835.391,80.50416,91.9842
"60846",835.4043,80.31617,91.811966
"60847",835.4176,80.17212,91.677795
"60848",835.4309,80.062256,91.57331
"60849",835.4442,79.9646,91.4776
"60850",835.4575,79.8645,91.376396
"60851",835.4708,79.73998,91.24764
"60852",835.48413,79.60082,91.10036
"60853",835.49744,79.43725,90.92431
"60854",835.51074,79.256584,90.72606
"60855",835.52405,79.061264,90.50751
"60856",835.53735,78.86595,90.28286
"60857",835.55066,78.675514,90.056984
"60858",835.56396,78.49485,89.83493
"60859",835.5773,78.32639,89.61944
"60860",835.5906,78.17746,89.418205
"60861",835.6039,78.04074,89.22453
"60862",835.6172,77.92111,89.04368
"60863",835.6305,77.823456,88.88106
"60864",835.6438,77.74288,88.73247
"60865",835.6571,77.68673,88.60578
"60866",835.6704,77.65011,88.49687
"60867",835.6837,77.625694,88.399025
"60868",835.697,77.59884,88.29797
"60869",835.7103,77.576866,88.200966
"60870",835.72363,77.55978,88.108154
"60871",835.73694,77.58175,88.05387
"60872",835.75024,77.70626,88.10281
"60873",835.76355,78.01877,88.34364
"60874",835.77686,78.57053,88.833496
"60875",835.79016,79.37621,89.594505
"60876",835.80347,80.37232,90.57112
"60877",835.8168,81.43435,91.64478
"60878",835.8301,82.406044,92.6613
"60879",835.8434,83.17021,93.500656
"60880",835.8567,83.66827,94.09778
"60881",835.87,83.90753,94.451675
"60882",835.8833,83.93927,94.60552
"60883",835.8966,83.826965,94.61632
"60884",835.9099,83.63409,94.54303
"60885",835.9232,83.40215,94.42466
"60886",835.9365,83.14824,94.27706
"60887",835.9498,82.882126,94.10933
"60888",835.96313,82.598915,93.91618
"60889",835.97644,82.29862,93.697105
"60890",835.98975,81.97635,93.44666
"60891",836.00305,81.64431,93.176384
"60892",836.01636,81.31472,92.89818
"60893",836.02966,81.007095,92.63164
"60894",836.04297,80.73609,92.392105
"60895",836.0563,80.51148,92.1905
"60896",836.0696,80.32838,92.02338
"60897",836.0829,80.18921,91.89447
"60898",836.0962,80.079346,91.79052
"60899",836.1095,79.97925,91.6929
"60900",836.1228,79.87671,91.589714
"60901",836.1361,79.76196,91.471115
"60902",836.1494,79.622795,91.32451
"60903",836.1627,79.45678,91.146706
"60904",836.176,79.27123,90.94418
"60905",836.18933,79.07103,90.72121
"60906",836.20264,78.86351,90.48466
"60907",836.21594,78.658424,90.24406
"60908",836.22925,78.470436,90.014145
"60909",836.24255,78.30198,89.79789
"60910",836.25586,78.16037,89.60322
"60911",836.26917,78.04318,89.42854
"60912",836.2825,77.94797,89.27218
"60913",836.2958,77.8674,89.12749
"60914",836.3091,77.806366,88.99981
"60915",836.3224,77.75021,88.87511
"60916",836.3357,77.69894,88.753525
"60917",836.349,77.65255,88.63523
"60918",836.3623,77.61593,88.52525
"60919",836.3756,77.5964,88.43122
"60920",836.3889,77.63302,88.39273
"60921",836.4022,77.80148,88.48723
"60922",836.4155,78.17502,88.79206
"60923",836.42883,78.80492,89.36493
"60924",836.44214,79.68383,90.2065
"60925",836.45544,80.719,91.23179
"60926",836.46875,81.77371,92.30897
"60927",836.48206,82.703896,93.29458
"60928",836.49536,83.39239,94.067566
"60929",836.50867,83.80499,94.58618
"60930",836.522,83.9588,94.858894
"60931",836.5353,83.9173,94.9411
"60932",836.5486,83.74883,94.89505
"60933",836.5619,83.5169,94.780266
"60934",836.5752,83.26055,94.63382
"60935",836.5885,83.004196,94.479355
"60936",836.6018,82.7454,94.31444
"60937",836.6151,82.47196,94.12679
"60938",836.6284,82.17166,93.90374
"60939",836.6417,81.849396,93.64934
"60940",836.655,81.512474,93.37021
"60941",836.66833,81.17311,93.07811
"60942",836.68164,80.85817,92.79983
"60943",836.69495,80.584724,92.5532
"60944",836.70825,80.360115,92.34686
"60945",836.72156,80.17944,92.177444
"60946",836.73486,80.0354,92.03901
"60947",836.74817,79.91089,91.9156
"60948",836.7615,79.79126,91.79319
"60949",836.7748,79.66186,91.657265
"60950",836.7881,79.5227,91.50754
"60951",836.8014,79.37133,91.341255
"60952",836.8147,79.21019,91.16047
"60953",836.828,79.03929,90.96489
"60954",836.8413,78.85863,90.7542
"60955",836.8546,78.67307,90.53298
"60956",836.8679,78.485085,90.30353
"60957",836.8812,78.29954,90.07064
"60958",836.89453,78.13107,89.84904
"60959",836.90784,77.979706,89.63927
"60960",836.92114,77.85275,89.44918
"60961",836.93445,77.75021,89.27954
"60962",836.94775,77.66964,89.12866
"60963",836.96106,77.60128,88.98748
"60964",836.97437,77.540245,88.85149
"60965",836.9877,77.486534,88.72091
"60966",837.001,77.43282,88.58865
"60967",837.0143,77.40597,88.481575
"60968",837.0276,77.454796,88.44934
"60969",837.0409,77.65743,88.57244
"60970",837.0542,78.08469,88.92649
"60971",837.0675,78.77806,89.56001
"60972",837.0808,79.708244,90.45201
"60973",837.0941,80.77028,91.50493
"60974",837.1074,81.815216,92.57394
"60975",837.1207,82.703896,93.51934
"60976",837.13403,83.33379,94.233734
"60977",837.14734,83.685356,94.689476
"60978",837.16064,83.79523,94.91451
"60979",837.17395,83.72686,94.964745
"60980",837.18726,83.543755,94.8981
"60981",837.20056,83.3045,94.769585
"60982",837.21387,83.04814,94.61649
"60983",837.2272,82.78691,94.450516
"60984",837.2405,82.51835,94.26904
"60985",837.2538,82.23514,94.06453
"60986",837.2671,81.92996,93.8292
"60987",837.2804,81.59792,93.55747
"60988",837.2937,81.24635,93.25584
"60989",837.307,80.89967,92.948105
"60990",837.3203,80.58228,92.65883
"60991",837.3336,80.306404,92.401146
"60992",837.3469,80.08911,92.19343
"60993",837.3602,79.920654,92.027756
"60994",837.37354,79.79126,91.89588
"60995",837.38684,79.68139,91.77949
"60996",837.40015,79.571526,91.65967
"60997",837.41345,79.449455,91.52421
"60998",837.42676,79.30541,91.36296
"60999",837.44006,79.13695,91.17279
"61000",837.45337,78.9514,90.96027
"61001",837.4667,78.75609,90.73219
"61002",837.48,78.56077,90.498
"61003",837.4933,78.37034,90.262596
"61004",837.5066,78.19699,90.03832
"61005",837.5199,78.0383,89.82329
"61006",837.5332,77.8967,89.620384
"61007",837.5465,77.769745,89.427704
"61008",837.5598,77.65743,89.2457
"61009",837.5731,77.56222,89.07728
"61010",837.5864,77.486534,88.925415
"61011",837.59973,77.4255,88.785835
"61012",837.61304,77.37667,88.656555
"61013",837.62634,77.33761,88.535515
"61014",837.63965,77.313194,88.4279
"61015",837.65295,77.34249,88.37324
"61016",837.66626,77.50118,88.44888
"61017",837.67957,77.86984,88.739456
"61018",837.6929,78.49973,89.30278
"61019",837.7062,79.378654,90.13482
"61020",837.7195,80.411385,91.14813
"61021",837.7328,81.45144,92.20104
"61022",837.7461,82.354774,93.149734
"61023",837.7594,83.00908,93.877625
"61024",837.7727,83.38018,94.34276
"61025",837.786,83.49737,94.565575
"61026",837.7993,83.42657,94.604065
"61027",837.8126,83.23857,94.52315
"61028",837.8259,82.98955,94.37533
"61029",837.83923,82.7161,94.195305
"61030",837.85254,82.43046,93.99454
"61031",837.86584,82.13504,93.77507
"61032",837.87915,81.81766,93.52441
"61033",837.89246,81.48318,93.24673
"61034",837.90576,81.13405,92.94395
"61035",837.91907,80.79469,92.64003
"61036",837.9324,80.47486,92.34503
"61037",837.9457,80.201416,92.086426
"61038",837.959,79.98657,91.87788
"61039",837.9723,79.82544,91.716324
"61040",837.9856,79.70336,91.58879
"61041",837.9989,79.61303,91.48919
"61042",838.0122,79.534904,91.39897
"61043",838.0255,79.447014,91.29655
"61044",838.0388,79.33959,91.171844
"61045",838.0521,79.20775,91.01936
"61046",838.0654,79.0515,90.838356
"61047",838.07874,78.8806,90.63782
"61048",838.09204,78.69993,90.422165
"61049",838.10535,78.519264,90.200874
"61050",838.11865,78.345924,89.98126
"61051",838.13196,78.184784,89.76843
"61052",838.14526,78.03342,89.56034
"61053",838.15857,77.89426,89.359726
"61054",838.1719,77.77219,89.17185
"61055",838.1852,77.66964,88.99969
"61056",838.1985,77.57931,88.83653
"61057",838.2118,77.50851,88.69009
"61058",838.2251,77.452354,88.556076
"61059",838.2384,77.40597,88.43008
"61060",838.2517,77.36935,88.31239
"61061",838.265,77.366905,88.227745
"61062",838.2783,77.44991,88.22847
"61063",838.2916,77.70626,88.40513
"61064",838.30493,78.19943,88.82662
"61065",838.31824,78.95628,89.52721
"61066",838.33154,79.92554,90.463844
"61067",838.34485,80.98024,91.51622
"61068",838.35815,81.95682,92.52343
"61069",838.37146,82.720985,93.34875
"61070",838.38477,83.194626,93.90742
"61071",838.3981,83.38018,94.1928
"61072",838.4114,83.33379,94.252045
"61073",838.4247,83.13115,94.15358
"61074",838.438,82.845505,93.96578
"61075",838.4513,82.52323,93.73243
"61076",838.4646,82.193634,93.48168
"61077",838.4779,81.866486,93.22308
"61078",838.4912,81.54177,92.956696
"61079",838.5045,81.21706,92.68016
"61080",838.5178,80.89479,92.39593
"61081",838.5311,80.58961,92.118706
"61082",838.54443,80.31373,91.86125
"61083",838.55774,80.08667,91.644
"61084",838.57104,79.91577,91.47581
"61085",838.58435,79.79614,91.353546
"61086",838.59766,79.71801,91.26904
"61087",838.61096,79.66186,91.20408
"61088",838.62427,79.605705,91.13736
"61089",838.6376,79.53246,91.051796
"61090",838.6509,79.43481,90.93953
"61091",838.6642,79.310295,90.797356
"61092",838.6775,79.16136,90.62687
"61093",838.6908,78.995346,90.43465
"61094",838.7041,78.82445,90.23235
"61095",838.7174,78.658424,90.029594
"61096",838.7307,78.49485,89.8241
"61097",838.744,78.33616,89.61837
"61098",838.7573,78.18967,89.41988
"61099",838.7706,78.06271,89.23636
"61100",838.78394,77.94797,89.06107
"61101",838.79724,77.855194,88.904175
"61102",838.81055,77.77951,88.76147
"61103",838.82385,77.71603,88.62859
"61104",838.83716,77.66476,88.50595
"61105",838.85046,77.625694,88.39391
"61106",838.8638,77.60128,88.2953
"61107",838.8771,77.611046,88.23011
"61108",838.8904,77.70138,88.24579
"61109",838.9037,77.95041,88.42299
"61110",838.917,78.41917,88.8277
"61111",838.9303,79.13939,89.49852
"61112",838.9436,80.07446,90.4067
"61113",838.9569,81.10475,91.439316
"61114",838.9702,82.07156,92.44065
"61115",838.9835,82.828415,93.26224
"61116",838.9968,83.28741,93.809616
"61117",839.01013,83.44854,94.07348
"61118",839.02344,83.36797,94.10068
"61119",839.03674,83.123825,93.96178
"61120",839.05005,82.791794,93.72736
"61121",839.06335,82.42802,93.45083
"61122",839.07666,82.0618,93.160484
"61123",839.08997,81.70046,92.86358
"61124",839.1033,81.3489,92.565155
"61125",839.1166,81.01442,92.27283
"61126",839.1299,80.70191,91.99202
"61127",839.1432,80.42115,91.73319
"61128",839.1565,80.184326,91.50953
"61129",839.1698,80.00122,91.332184
"61130",839.1831,79.869385,91.200386
"61131",839.1964,79.77905,91.10597
"61132",839.2097,79.71557,91.03558
"61133",839.223,79.65942,90.97054
"61134",839.2363,79.603264,90.90375
"61135",839.24963,79.53002,90.81811
"61136",839.26294,79.43725,90.71065
"61137",839.27625,79.32006,90.575874
"61138",839.28955,79.183334,90.4179
"61139",839.30286,79.03197,90.24101
"61140",839.31616,78.86839,90.04719
"61141",839.32947,78.70725,89.850685
"61142",839.3428,78.54856,89.651596
"61143",839.3561,78.40452,89.4622
"61144",839.3694,78.2678,89.27562
"61145",839.3827,78.153046,89.106735
"61146",839.396,78.048065,88.94404
"61147",839.4093,77.95773,88.79271
"61148",839.4226,77.88205,88.653206
"61149",839.4359,77.821014,88.525986
"61150",839.4492,77.77219,88.409065
"61151",839.4625,77.738,88.30526
"61152",839.4758,77.738,88.23457
"61153",839.48914,77.821014,88.2469
"61154",839.50244,78.07004,88.42783
"61155",839.51575,78.551,88.84849
"61156",839.52905,79.28832,89.54053
"61157",839.54236,80.22095,90.45091
"61158",839.55566,81.22438,91.46125
"61159",839.569,82.1326,92.40773
"61160",839.5823,82.811325,93.1531
"61161",839.5956,83.18974,93.61937
"61162",839.6089,83.27764,93.806946
"61163",839.6222,83.140915,93.772644
"61164",839.6355,82.862595,93.592476
"61165",839.6488,82.50858,93.32792
"61166",839.6621,82.127716,93.025444
"61167",839.6754,81.74197,92.706184
"61168",839.6887,81.36355,92.3822
"61169",839.702,80.99489,92.05615
"61170",839.71533,80.65064,91.743
"61171",839.72864,80.34058,91.45327
"61172",839.74194,80.08667,91.21
"61173",839.75525,79.8938,91.01984
"61174",839.76855,79.764404,90.88712
"61175",839.78186,79.693596,90.80895
"61176",839.79517,79.66186,90.76764
"61177",839.8085,79.64721,90.742424
"61178",839.8218,79.635,90.71919
"61179",839.8351,79.605705,90.67849
"61180",839.8484,79.54711,90.607574
"61181",839.8617,79.45434,90.50065
"61182",839.875,79.33715,90.36641
"61183",839.8883,79.200424,90.20897
"61184",839.9016,79.05394,90.0375
"61185",839.9149,78.905014,89.85901
"61186",839.9282,78.75609,89.675865
"61187",839.9415,78.61448,89.495384
"61188",839.95483,78.48264,89.32025
"61189",839.96814,78.363014,89.153206
"61190",839.98145,78.25803,88.99707
