"","Time..s.","PPG.trace","Preprocessed.PPG"
"38503",537.9562,77.28878,88.162285
"38504",537.9695,77.296104,88.084885
"38505",537.9828,77.40841,88.11269
"38506",537.9961,77.71847,88.34177
"38507",538.0094,78.30198,88.85398
"38508",538.0227,79.168686,89.667625
"38509",538.036,80.22827,90.70123
"38510",538.0493,81.304955,91.78505
"38511",538.0626,82.2034,92.72427
"38512",538.0759,82.774704,93.36443
"38513",538.08923,82.96513,93.64157
"38514",538.10254,82.828415,93.59751
"38515",538.11584,82.47929,93.33677
"38516",538.12915,82.037384,92.97234
"38517",538.14246,81.60769,92.606316
"38518",538.15576,81.24391,92.29278
"38519",538.16907,80.96071,92.04845
"38520",538.1824,80.74586,91.86362
"38521",538.1957,80.567635,91.7087
"38522",538.209,80.40162,91.560425
"38523",538.2223,80.235596,91.40695
"38524",538.2356,80.07446,91.25318
"38525",538.2489,79.93042,91.111465
"38526",538.2622,79.818115,90.99699
"38527",538.2755,79.744865,90.91805
"38528",538.2888,79.7058,90.87102
"38529",538.3021,79.68139,90.83741
"38530",538.3154,79.65209,90.79816
"38531",538.32874,79.605705,90.7409
"38532",538.34204,79.53002,90.65289
"38533",538.35535,79.42016,90.52834
"38534",538.36865,79.281,90.37106
"38535",538.38196,79.11986,90.187454
"38536",538.39526,78.94896,89.98905
"38537",538.40857,78.78294,89.79019
"38538",538.4219,78.61936,89.58858
"38539",538.4352,78.47532,89.40139
"38540",538.4485,78.35081,89.22923
"38541",538.4618,78.24582,89.07271
"38542",538.4751,78.16281,88.93488
"38543",538.4884,78.1091,88.82376
"38544",538.5017,78.07248,88.72805
"38545",538.515,78.05295,88.648285
"38546",538.5283,78.0383,88.57279
"38547",538.5416,78.03342,88.50661
"38548",538.55493,78.028534,88.44027
"38549",538.56824,78.02365,88.37378
"38550",538.58154,78.013885,88.30225
"38551",538.59485,77.99924,88.22554
"38552",538.60815,77.97238,88.13616
"38553",538.62146,77.94797,88.048386
"38554",538.63477,77.9675,88.00379
"38555",538.6481,78.11398,88.08676
"38556",538.6614,78.48997,88.40381
"38557",538.6747,79.14671,89.01337
"38558",538.688,80.059814,89.8998
"38559",538.7013,81.109634,90.95149
"38560",538.7146,82.11307,91.9896
"38561",538.7279,82.879684,92.82225
"38562",538.7412,83.28985,93.3224
"38563",538.7545,83.33379,93.469154
"38564",538.7678,83.08232,93.32186
"38565",538.7811,82.65751,92.99337
"38566",538.79443,82.16922,92.58813
"38567",538.80774,81.7029,92.1896
"38568",538.82104,81.30984,91.84975
"38569",538.83435,80.99977,91.58061
"38570",538.84766,80.76051,91.3726
"38571",538.86096,80.567635,91.20348
"38572",538.87427,80.4065,91.06009
"38573",538.8876,80.26002,90.92631
"38574",538.9009,80.14038,90.8148
"38575",538.9142,80.05493,90.733734
"38576",538.9275,80.01099,90.691505
"38577",538.9408,79.9939,90.67476
"38578",538.9541,79.99878,90.67945
"38579",538.9674,79.99634,90.67697
"38580",538.9807,79.96948,90.65
"38581",538.994,79.903564,90.58313
"38582",539.0073,79.798584,90.475136
"38583",539.0206,79.66186,90.332115
"38584",539.03394,79.500725,90.160416
"38585",539.04724,79.33227,89.97636
"38586",539.06055,79.15892,89.78214
"38587",539.07385,78.992905,89.58984
"38588",539.08716,78.836655,89.40212
"38589",539.10046,78.69749,89.2266
"38590",539.1138,78.57786,89.06627
"38591",539.1271,78.485085,88.929054
"38592",539.1404,78.42405,88.82068
"38593",539.1537,78.38499,88.73237
"38594",539.167,78.365456,88.66237
"38595",539.1803,78.35325,88.59908
"38596",539.1936,78.35081,88.54518
"38597",539.2069,78.35325,88.496086
"38598",539.2202,78.36057,88.45195
"38599",539.2335,78.365456,88.4056
"38600",539.2468,78.3679,88.356964
"38601",539.26013,78.35813,88.296196
"38602",539.27344,78.345924,88.23268
"38603",539.28674,78.363014,88.19808
"38604",539.30005,78.48264,88.266556
"38605",539.31335,78.79271,88.529205
"38606",539.32666,79.36889,89.06766
"38607",539.33997,80.198975,89.87802
"38608",539.3533,81.18532,90.87058
"38609",539.3666,82.16434,91.88664
"38610",539.3799,82.950485,92.740425
"38611",539.3932,83.40948,93.29162
"38612",539.4065,83.50225,93.49094
"38613",539.4198,83.29229,93.39042
"38614",539.4331,82.88457,93.08558
"38615",539.4464,82.391396,92.68255
"38616",539.4597,81.90555,92.27143
"38617",539.473,81.478294,91.903725
"38618",539.4863,81.126724,91.59835
"38619",539.49963,80.848404,91.35524
"38620",539.51294,80.62379,91.157135
"38621",539.52625,80.4358,90.98864
"38622",539.53955,80.27955,90.84601
"38623",539.55286,80.15991,90.73511
"38624",539.56616,80.08423,90.66442
"38625",539.57947,80.05737,90.6402
"38626",539.5928,80.07202,90.65664
"38627",539.6061,80.10864,90.69551
"38628",539.6194,80.14038,90.730644
"38629",539.6327,80.14038,90.73503
"38630",539.646,80.096436,90.69547
"38631",539.6593,80.0061,90.608154
"38632",539.6726,79.871826,90.47407
"38633",539.6859,79.70336,90.3016
"38634",539.6992,79.517815,90.10678
"38635",539.7125,79.33227,89.906166
"38636",539.7258,79.15892,89.71195
"38637",539.73914,79.00267,89.52942
"38638",539.75244,78.86595,89.361534
"38639",539.76575,78.75853,89.21867
"38640",539.77905,78.67063,89.09198
"38641",539.79236,78.60227,88.98208
"38642",539.80566,78.54856,88.88469
"38643",539.819,78.5095,88.80027
"38644",539.8323,78.485085,88.72928
"38645",539.8456,78.47288,88.66973
"38646",539.8589,78.467995,88.61713
"38647",539.8722,78.47532,88.57658
"38648",539.8855,78.47776,88.53137
"38649",539.8988,78.47776,88.4838
"38650",539.9121,78.470436,88.42891
"38651",539.9254,78.49729,88.40797
"38652",539.9387,78.62913,88.49284
"38653",539.952,78.96117,88.78204
"38654",539.96533,79.54711,89.335526
"38655",539.97864,80.377205,90.15147
"38656",539.99194,81.34402,91.130066
"38657",540.00525,82.28153,92.10958
"38658",540.01855,83.0164,92.91575
"38659",540.03186,83.42901,93.422615
"38660",540.04517,83.50225,93.60301
"38661",540.0585,83.29229,93.502495
"38662",540.0718,82.896774,93.20986
"38663",540.0851,82.41581,92.81942
"38664",540.0984,81.92752,92.406624
"38665",540.1117,81.47585,92.01519
"38666",540.125,81.08278,91.668236
"38667",540.1383,80.75807,91.377365
"38668",540.1516,80.49195,91.13493
"38669",540.1649,80.28443,90.94279
"38670",540.1782,80.13306,90.8003
"38671",540.1915,80.04028,90.711685
"38672",540.20483,80.008545,90.681206
"38673",540.21814,80.03052,90.703445
"38674",540.23145,80.093994,90.767876
"38675",540.24475,80.177,90.85382
"38676",540.25806,80.25269,90.93504
"38677",540.27136,80.29908,90.98933
"38678",540.28467,80.30396,91.003555
"38679",540.298,80.257576,90.96667
"38680",540.3113,80.16235,90.87949
"38681",540.3246,80.025635,90.74785
"38682",540.3379,79.85962,90.582634
"38683",540.3512,79.68383,90.40246
"38684",540.3645,79.50805,90.2168
"38685",540.3778,79.34203,90.03541
"38686",540.3911,79.19798,89.8708
"38687",540.4044,79.078354,89.726105
"38688",540.4177,78.98558,89.60453
"38689",540.431,78.91234,89.49959
"38690",540.44434,78.85863,89.41189
"38691",540.45764,78.81224,89.329834
"38692",540.47095,78.768295,89.24877
"38693",540.48425,78.71458,89.15656
"38694",540.49756,78.6804,89.082214
"38695",540.51086,78.70481,89.06539
"38696",540.5242,78.86351,89.18362
"38697",540.5375,79.237045,89.52164
"38698",540.5508,79.852295,90.113045
"38699",540.5641,80.66041,90.91654
"38700",540.5774,81.55398,91.83075
"38701",540.5907,82.371864,92.6972
"38702",540.604,82.97246,93.37191
"38703",540.6173,83.27032,93.76266
"38704",540.6306,83.267876,93.86241
"38705",540.6439,83.02861,93.725266
"38706",540.6572,82.6453,93.4366
"38707",540.67053,82.19852,93.07248
"38708",540.68384,81.75174,92.694405
"38709",540.69714,81.33425,92.33166
"38710",540.71045,80.95827,91.99737
"38711",540.72375,80.62379,91.69283
"38712",540.73706,80.33814,91.42668
"38713",540.75037,80.10864,91.20775
"38714",540.7637,79.94751,91.05001
"38715",540.777,79.85962,90.96048
"38716",540.7903,79.84985,90.94633
"38717",540.8036,79.90112,90.992905
"38718",540.8169,79.98657,91.075264
"38719",540.8302,80.08423,91.1725
"38720",540.8435,80.15991,91.25082
"38721",540.8568,80.198975,91.294876
"38722",540.8701,80.19165,91.29377
"38723",540.8834,80.130615,91.23872
"38724",540.8967,80.025635,91.137825
"38725",540.91003,79.88159,90.99458
"38726",540.92334,79.71801,90.8273
"38727",540.93665,79.54223,90.64271
"38728",540.94995,79.37377,90.459946
"38729",540.96326,79.21263,90.279236
"38730",540.97656,79.063705,90.105705
"38731",540.98987,78.92943,89.94217
"38732",541.0032,78.81224,89.79153
"38733",541.0165,78.70481,89.64698
"38734",541.0298,78.61448,89.516174
"38735",541.0431,78.54856,89.40696
"38736",541.0564,78.536354,89.349396
"38737",541.0697,78.65354,89.420845
"38738",541.083,78.9807,89.705925
"38739",541.0963,79.571526,90.2649
"38740",541.1096,80.40162,91.081604
"38741",541.1229,81.36843,92.06097
"38742",541.1362,82.31815,93.05345
"38743",541.14954,83.08232,93.89006
"38744",541.16284,83.55108,94.45514
"38745",541.17615,83.69512,94.71015
"38746",541.18945,83.563286,94.69379
"38747",541.20276,83.24101,94.482864
"38748",541.21606,82.82353,94.166664
"38749",541.2294,82.37919,93.810555
"38750",541.2427,81.95438,93.46009
"38751",541.256,81.57839,93.14518
"38752",541.2693,81.24391,92.86002
"38753",541.2826,80.94362,92.5986
"38754",541.2959,80.67506,92.35953
"38755",541.3092,80.445564,92.15113
"38756",541.3225,80.26734,91.98683
"38757",541.3358,80.15259,91.88043
"38758",541.3491,80.10864,91.841255
"38759",541.3624,80.128174,91.86418
"38760",541.37573,80.184326,91.92434
"38761",541.38904,80.255135,92.00091
"38762",541.40234,80.306404,92.06015
"38763",541.41565,80.31617,92.07949
"38764",541.42896,80.27711,92.05031
"38765",541.44226,80.184326,91.96619
"38766",541.45557,80.04761,91.83523
"38767",541.4689,79.87427,91.663376
"38768",541.4822,79.68383,91.46901
"38769",541.4955,79.483635,91.258934
"38770",541.5088,79.290764,91.04993
"38771",541.5221,79.11986,90.85686
"38772",541.5354,78.97093,90.68043
"38773",541.5487,78.84398,90.52132
"38774",541.562,78.73411,90.37532
"38775",541.5753,78.63889,90.24055
"38776",541.5886,78.56809,90.12721
"38777",541.6019,78.57542,90.08979
"38778",541.61523,78.74143,90.21129
"38779",541.62854,79.151596,90.58212
"38780",541.64185,79.835205,91.23922
"38781",541.65515,80.75319,92.152054
"38782",541.66846,81.78104,93.20344
"38783",541.68176,82.75517,94.23323
"38784",541.69507,83.51202,95.07617
"38785",541.7084,83.9588,95.632706
"38786",541.7217,84.08331,95.88093
"38787",541.735,83.94171,95.86693
"38788",541.7483,83.62676,95.675156
"38789",541.7616,83.22392,95.38565
"38790",541.7749,82.79912,95.06159
"38791",541.7882,82.4036,94.75355
"38792",541.8015,82.04959,94.47465
"38793",541.8148,81.72732,94.21642
"38794",541.8281,81.427025,93.97011
"38795",541.84143,81.143814,93.73149
"38796",541.85474,80.87282,93.49624
"38797",541.86804,80.63111,93.28181
"38798",541.88135,80.43824,93.10866
"38799",541.89465,80.31617,93.00028
"38800",541.90796,80.26246,92.95645
"38801",541.92126,80.26978,92.97198
"38802",541.9346,80.306404,93.01703
"38803",541.9479,80.33814,93.05834
"38804",541.9612,80.33814,93.06891
"38805",541.9745,80.29664,93.03797
"38806",541.9878,80.2063,92.9569
"38807",542.0011,80.076904,92.833954
"38808",542.0144,79.91089,92.67034
"38809",542.0277,79.72045,92.47712
"38810",542.041,79.51537,92.263306
"38811",542.0543,79.31274,92.045525
"38812",542.0676,79.11986,91.83117
"38813",542.08093,78.9514,91.63521
"38814",542.09424,78.80003,91.45107
"38815",542.10754,78.66331,91.27685
"38816",542.12085,78.538795,91.110565
"38817",542.13416,78.42405,90.95016
"38818",542.14746,78.363014,90.839874
"38819",542.16077,78.44114,90.866844
"38820",542.1741,78.76097,91.13796
"38821",542.1874,79.38598,91.72425
"38822",542.2007,80.30152,92.620605
"38823",542.214,81.40261,93.73112
"38824",542.2273,82.511024,94.88336
"38825",542.2406,83.441216,95.89202
"38826",542.2539,84.06622,96.624565
"38827",542.2672,84.34699,97.0324
"38828",542.2805,84.32746,97.14871
"38829",542.2938,84.102844,97.059326
"38830",542.3071,83.76837,96.853065
"38831",542.32043,83.407036,96.60949
"38832",542.33374,83.06279,96.37171
"38833",542.34705,82.7625,96.16713
"38834",542.36035,82.49882,95.98978
"38835",542.37366,82.24246,95.81151
"38836",542.38696,81.969025,95.60815
"38837",542.40027,81.67605,95.3767
"38838",542.4136,81.37087,95.1239
"38839",542.4269,81.07301,94.86888
"38840",542.4402,80.816666,94.646065
"38841",542.4535,80.62867,94.48359
"38842",542.4668,80.50904,94.383606
"38843",542.4801,80.43824,94.32871
"38844",542.4934,80.39185,94.29602
"38845",542.5067,80.33326,94.24967
"38846",542.52,80.23804,94.16486
"38847",542.5333,80.096436,94.0307
"38848",542.54663,79.90845,93.845726
"38849",542.55994,79.68139,93.61581
"38850",542.57324,79.43481,93.35927
"38851",542.58655,79.183334,93.09013
"38852",542.59985,78.93675,92.81803
"38853",542.61316,78.712135,92.56019
"38854",542.62646,78.5095,92.31731
"38855",542.6398,78.33372,92.09495
"38856",542.6531,78.187225,91.896385
"38857",542.6664,78.07248,91.72499
"38858",542.6797,77.97482,91.5671
"38859",542.693,77.891815,91.42081
"38860",542.7063,77.81613,91.27924
"38861",542.7196,77.76242,91.15729
"38862",542.7329,77.789276,91.11422
"38863",542.7462,77.994354,91.25021
"38864",542.7595,78.47532,91.6685
"38865",542.7728,79.26635,92.41189
"38866",542.78613,80.32105,93.443665
"38867",542.79944,81.49294,94.62559
"38868",542.81274,82.59159,95.77089
"38869",542.82605,83.45342,96.71371
"38870",542.83936,83.983215,97.35142
"38871",542.85266,84.18097,97.673645
"38872",542.86597,84.11749,97.74082
"38873",542.8793,83.88556,97.63756
"38874",542.8926,83.580376,97.4538
"38875",542.9059,83.27032,97.25562
"38876",542.9192,82.98955,97.07705
"38877",542.9325,82.74296,96.92388
"38878",542.9458,82.50614,96.77278
"38879",542.9591,82.24246,96.58742
"38880",542.9724,81.9202,96.33523
"38881",542.9857,81.53689,96.011925
"38882",542.999,81.11452,95.63758
"38883",543.0123,80.69459,95.25248
"38884",543.02563,80.325935,94.90553
"38885",543.03894,80.04028,94.630066
"38886",543.05225,79.84497,94.43601
"38887",543.06555,79.72045,94.30665
"38888",543.07886,79.635,94.21246
"38889",543.09216,79.54711,94.11317
"38890",543.10547,79.43481,93.98671
"38891",543.1188,79.273674,93.807915
"38892",543.1321,79.06859,93.58013
"38893",543.1454,78.82689,93.309326
"38894",543.1587,78.56565,93.01143
"38895",543.172,78.29954,92.70049
"38896",543.1853,78.048065,92.39588
"38897",543.1986,77.81857,92.10539
"38898",543.2119,77.61593,91.83458
"38899",543.2252,77.44259,91.58674
"38900",543.2385,77.30587,91.3701
"38901",543.25183,77.196,91.17604
"38902",543.26514,77.11299,91.00541
"38903",543.27844,77.051956,90.85416
"38904",543.29175,77.00557,90.715645
"38905",543.30505,76.96651,90.58301
"38906",543.31836,76.93233,90.45403
"38907",543.33167,76.89082,90.316666
"38908",543.345,76.83711,90.165794
"38909",543.3583,76.78096,90.0108
"38910",543.3716,76.76387,89.89312
"38911",543.3849,76.876175,89.9043
"38912",543.3982,77.23262,90.163124
"38913",543.4115,77.91623,90.760254
"38914",543.4248,78.91478,91.69369
"38915",543.4381,80.130615,92.87561
"38916",543.4514,81.38796,94.13704
"38917",543.4647,82.48173,95.27418
"38918",543.478,83.26055,96.130554
"38919",543.49133,83.67803,96.649925
"38920",543.50464,83.78058,96.86741
"38921",543.51794,83.6585,96.86347
"38922",543.53125,83.41192,96.73122
"38923",543.54456,83.13359,96.55951
"38924",543.55786,82.882126,96.40597
"38925",543.57117,82.667274,96.28118
"38926",543.5845,82.476845,96.1741
"38927",543.5978,82.27177,96.046425
"38928",543.6111,82.01541,95.86106
"38929",543.6244,81.685814,95.594444
"38930",543.6377,81.287865,95.249176
"38931",543.651,80.85329,94.85484
"38932",543.6643,80.44068,94.4689
"38933",543.6776,80.08667,94.12866
"38934",543.6909,79.823,93.8677
"38935",543.7042,79.64233,93.681496
"38936",543.7175,79.53002,93.558014
"38937",543.73083,79.44457,93.45788
"38938",543.74414,79.35668,93.35263
"38939",543.75745,79.234604,93.21045
"38940",543.77075,79.07103,93.02296
"38941",543.78406,78.86351,92.78641
"38942",543.79736,78.6218,92.509186
"38943",543.81067,78.363014,92.20733
"38944",543.824,78.101776,91.894936
"38945",543.8373,77.85275,91.58659
"38946",543.8506,77.628136,91.294876
"38947",543.8639,77.43282,91.025444
"38948",543.8772,77.26681,90.779205
"38949",543.8905,77.12764,90.55463
"38950",543.9038,77.01289,90.35012
"38951",543.9171,76.91768,90.16156
"38952",543.9304,76.841995,89.989555
"38953",543.9437,76.79317,89.84204
"38954",543.95703,76.76143,89.71009
"38955",543.97034,76.74189,89.58935
"38956",543.98364,76.732124,89.47777
"38957",543.99695,76.71992,89.36344
"38958",544.01025,76.6955,89.23653
"38959",544.02356,76.654,89.09176
"38960",544.03687,76.59785,88.931046
"38961",544.0502,76.53925,88.766136
"38962",544.0635,76.52949,88.648224
"38963",544.0768,76.64912,88.6594
"38964",544.0901,77.00801,88.91358
"38965",544.1034,77.679405,89.49148
"38966",544.1167,78.66331,90.40286
"38967",544.13,79.85718,91.55496
"38968",544.1433,81.092545,92.785866
"38969",544.1566,82.176544,93.90401
"38970",544.1699,82.95537,94.75085
"38971",544.1832,83.37774,95.26557
"38972",544.19653,83.48516,95.478546
"38973",544.20984,83.36553,95.46783
"38974",544.22314,83.12871,95.336174
"38975",544.23645,82.865036,95.17027
"38976",544.24976,82.63065,95.02542
"38977",544.26306,82.43534,94.912315
"38978",544.27637,82.266884,94.81996
"38979",544.2897,82.08377,94.70769
"38980",544.303,81.85184,94.54087
"38981",544.3163,81.54665,94.29356
"38982",544.3296,81.17311,93.968346
"38983",544.3429,80.75807,93.589966
"38984",544.3562,80.35035,93.20593
"38985",544.3695,79.99878,92.86531
"38986",544.3828,79.73754,92.604034
"38987",544.3961,79.571526,92.42982
"38988",544.4094,79.47631,92.32121
"38989",544.4227,79.4226,92.25114
"38990",544.43604,79.364006,92.1745
"38991",544.44934,79.27123,92.06185
"38992",544.46265,79.13451,91.90235
"38993",544.47595,78.95384,91.69464
"38994",544.48926,78.74387,91.45198
"38995",544.50256,78.519264,91.18812
"38996",544.51587,78.29221,90.914795
"38997",544.5292,78.07492,90.644135
"38998",544.5425,77.86984,90.3789
"38999",544.5558,77.679405,90.121895
"39000",544.5691,77.51827,89.888245
"39001",544.5824,77.383995,89.676414
"39002",544.5957,77.279015,89.489685
"39003",544.609,77.196,89.32164
"39004",544.6223,77.1252,89.163216
"39005",544.6356,77.05684,89.00502
"39006",544.6489,77.00069,88.856895
"39007",544.66223,76.9543,88.71678
"39008",544.67554,76.92012,88.587425
"39009",544.68884,76.90791,88.47897
"39010",544.70215,76.91524,88.38967
"39011",544.71545,76.925,88.30304
"39012",544.74207,76.94942,88.13565
"39013",544.7554,76.94942,88.04032
"39014",544.7687,76.94209,87.93767
"39015",544.782,76.93233,87.832344
"39016",544.7953,76.91768,87.72183
"39017",544.8086,76.90059,87.60842
"39018",544.8219,76.895706,87.50668
"39019",544.8352,76.964066,87.478035
"39020",544.8485,77.20088,87.61998
"39021",544.8618,77.70626,88.03789
"39022",544.8751,78.53147,88.79142
"39023",544.8884,79.64233,89.856384
"39024",544.90173,80.907,91.10988
"39025",544.91504,82.13504,92.366264
"39026",544.92834,83.13115,93.42909
"39027",544.94165,83.78546,94.18125
"39028",544.95496,84.088196,94.60228
"39029",544.96826,84.102844,94.74468
"39030",544.98157,83.92706,94.69711
"39031",544.9949,83.67559,94.56836
"39032",545.0082,83.421684,94.42931
"39033",545.0215,83.20195,94.316505
"39034",545.0348,83.0164,94.23102
"39035",545.0481,82.85039,94.15926
"39036",545.0614,82.667274,94.06522
"39037",545.0747,82.43046,93.91176
"39038",545.088,82.11795,93.6752
"39039",545.1013,81.74197,93.3654
"39040",545.1146,81.33181,93.00968
"39041",545.1279,80.938736,92.658226
"39042",545.14124,80.59937,92.3482
"39043",545.15454,80.343025,92.11058
"39044",545.16785,80.17456,91.952835
"39045",545.18115,80.06958,91.85331
"39046",545.19446,79.991455,91.77736
"39047",545.20776,79.91333,91.69897
"39048",545.22107,79.80835,91.59128
"39049",545.2344,79.66918,91.44612
"39050",545.2477,79.49096,91.25756
"39051",545.261,79.28588,91.036575
"39052",545.2743,79.07347,90.80185
"39053",545.2876,78.86107,90.56049
"39054",545.3009,78.66575,90.32958
"39055",545.3142,78.487526,90.109665
"39056",545.3275,78.33372,89.90859
"39057",545.3408,78.20187,89.72468
"39058",545.3541,78.08713,89.55374
"39059",545.36743,77.979706,89.38654
"39060",545.38074,77.88693,89.23064
"39061",545.39404,77.803925,89.0816
"39062",545.40735,77.73556,88.9446
"39063",545.42065,77.679405,88.81769
"39064",545.43396,77.64034,88.70611
"39065",545.44727,77.61349,88.605515
"39066",545.4606,77.593956,88.511406
"39067",545.4739,77.57198,88.414246
"39068",545.4872,77.55489,88.32128
"39069",545.5005,77.540245,88.230225
"39070",545.5138,77.523155,88.13627
"39071",545.5271,77.51095,88.04666
"39072",545.5404,77.503624,87.961555
"39073",545.5537,77.4963,87.87622
"39074",545.567,77.48409,87.785774
"39075",545.5803,77.46456,87.68762
"39076",545.5936,77.44015,87.58398
"39077",545.60693,77.437706,87.50154
"39078",545.62024,77.52071,87.50448
"39079",545.63354,77.7966,87.70289
"39080",545.64685,78.35325,88.19068
"39081",545.66016,79.2224,89.00837
"39082",545.67346,80.343025,90.1047
"39083",545.68677,81.57107,91.34346
"39084",545.7001,82.70634,92.527824
"39085",545.7134,83.5877,93.49376
"39086",545.7267,84.122375,94.14055
"39087",545.74,84.317696,94.46469
"39088",545.7533,84.24933,94.53125
"39089",545.7666,84.017395,94.432106
"39090",545.7799,83.72198,94.26223
"39091",545.7932,83.42657,94.08313
"39092",545.8065,83.175095,93.938736
"39093",545.8198,82.967575,93.83044
"39094",545.8331,82.791794,93.74739
"39095",545.84644,82.60624,93.64908
"39096",545.85974,82.37919,93.50347
"39097",545.87305,82.08865,93.287285
"39098",545.88635,81.74929,93.01319
"39099",545.89966,81.38064,92.6992
"39100",545.91296,81.03395,92.39566
"39101",545.9263,80.740974,92.134995
"39102",545.9396,80.52613,91.943306
"39103",545.9529,80.38209,91.815704
"39104",545.9662,80.2942,91.73975
"39105",545.9795,80.22827,91.68302
"39106",545.9928,80.15503,91.61691
"39107",546.0061,80.05493,91.52166
"39108",546.0194,79.920654,91.3891
"39109",546.0327,79.74975,91.21571
"39110",546.046,79.54955,91.0077
"39111",546.0593,79.33959,90.78366
"39112",546.07263,79.12718,90.55061
"39113",546.08594,78.924545,90.3207
"39114",546.09924,78.73899,90.10154
"39115",546.11255,78.57542,89.89856
"39116",546.12585,78.43626,89.71488
"39117",546.13916,78.314186,89.543945
"39118",546.15247,78.2092,89.38628
"39119",546.1658,78.12375,89.244865
"39120",546.1791,78.05539,89.117874
"39121",546.1924,78.00168,89.003395
"39122",546.2057,77.96506,88.90433
"39123",546.219,77.93576,88.81144
"39124",546.2323,77.91379,88.72496
"39125",546.2456,77.8967,88.64268
"39126",546.2589,77.88449,88.56474
"39127",546.2722,77.872284,88.48643
"39128",546.2855,77.86252,88.41017
"39129",546.2988,77.85275,88.33361
"39130",546.31213,77.84787,88.26163
"39131",546.32544,77.838104,88.18461
"39132",546.33875,77.8259,88.10484
"39133",546.35205,77.80881,88.01981
"39134",546.36536,77.78439,87.926926
"39135",546.37866,77.7551,87.82839
"39136",546.39197,77.73556,87.7387
"39137",546.4053,77.77463,87.70701
"39138",546.4186,77.96994,87.83278
"39139",546.4319,78.43137,88.230774
"39140",546.4452,79.20775,88.95813
"39141",546.4585,80.272224,89.99785
"39142",546.4718,81.495384,91.229515
"39143",546.4851,82.684364,92.465225
"39144",546.4984,83.64629,93.51104
"39145",546.5117,84.263985,94.242676
"39146",546.525,84.52277,94.63471
"39147",546.5383,84.48615,94.739426
"39148",546.55164,84.2591,94.652565
"39149",546.56494,83.93927,94.46583
"39150",546.57825,83.59991,94.249565
"39151",546.59155,83.28985,94.052
"39152",546.60486,83.02617,93.89113
"39153",546.61816,82.80156,93.761086
"39154",546.6315,82.59403,93.641106
"39155",546.6448,82.36942,93.49756
"39156",546.6581,82.11307,93.31525
"39157",546.6714,81.81766,93.08587
"39158",546.6847,81.50027,92.82528
"39159",546.698,81.19264,92.56454
"39160",546.7113,80.93141,92.340576
"39161",546.7246,80.73365,92.17192
"39162",546.7379,80.604256,92.06545
"39163",546.7512,80.51881,91.998886
"39164",546.7645,80.45533,91.95162
"39165",546.77783,80.38697,91.89749
"39166",546.79114,80.2942,91.81681
"39167",546.80444,80.17212,91.703926
"39168",546.81775,80.01831,91.5555
"39169",546.83105,79.835205,91.37296
"39170",546.84436,79.64233,91.174934
"39171",546.85767,79.449455,90.97089
"39172",546.871,79.256584,90.76081
"39173",546.8843,79.06859,90.54958
"39174",546.8976,78.887924,90.33981
"39175",546.9109,78.7219,90.13904
"39176",546.9242,78.56809,89.94529
"39177",546.9375,78.433815,89.766266
"39178",546.9508,78.32151,89.60502
"39179",546.9641,78.23117,89.46223
"39180",546.9774,78.16037,89.33615
"39181",546.9907,78.099335,89.21763
"39182",547.004,78.05051,89.109406
"39183",547.01733,78.01877,89.01675
"39184",547.03064,77.99924,88.9353
"39185",547.04395,77.98459,88.85813
"39186",547.05725,77.97482,88.785385
"39187",547.07056,77.962616,88.70989
"39188",547.08386,77.943085,88.62669
"39189",547.09717,77.91867,88.538
"39190",547.1105,77.88693,88.44122
"39191",547.1238,77.85031,88.33857
"39192",547.1371,77.81125,88.23233
"39193",547.1504,77.7673,88.11999
"39194",547.1637,77.72335,88.00626
"39195",547.177,77.7087,87.92047
"39196",547.1903,77.79172,87.931885
"39197",547.2036,78.07248,88.14364
"39198",547.2169,78.64622,88.65714
"39199",547.2302,79.53246,89.50108
"39200",547.2435,80.66529,90.6193
"39201",547.25684,81.89334,91.86814
"39202",547.27014,83.021286,93.05525
"39203",547.28345,83.87091,93.99929
"39204",547.29675,84.36408,94.61343
"39205",547.31006,84.51057,94.896286
"39206",547.32336,84.3885,94.91517
"39207",547.3367,84.09552,94.75933
"39208",547.35,83.72686,94.518654
"39209",547.3633,83.35088,94.25914
"39210",547.3766,83.01152,94.02449
"39211",547.3899,82.720985,93.828064
"39212",547.4032,82.47196,93.66407
"39213",547.4165,82.2449,93.51426
"39214",547.4298,82.00809,93.347595
"39215",547.4431,81.74929,93.15155
"39216",547.4564,81.46609,92.92301
"39217",547.4697,81.180435,92.683174
"39218",547.48303,80.91676,92.45639
"39219",547.49634,80.70435,92.27263
"39220",547.50964,80.550545,92.14083
"39221",547.52295,80.45045,92.05794
"39222",547.53625,80.38697,92.00854
"39223",547.54956,80.3357,91.96936
"39224",547.56287,80.274666,91.918816
"39225",547.5762,80.181885,91.83462
"39226",547.5895,80.05493,91.71335
"39227",547.6028,79.8938,91.55393
"39228",547.6161,79.7058,91.36262
"39229",547.6294,79.49828,91.145905
"39230",547.6427,79.28588,90.91782
"39231",547.656,79.07347,90.6831
"39232",547.6693,78.86839,90.449066
"39233",547.6826,78.677956,90.22327
"39234",547.6959,78.51438,90.01838
"39235",547.7092,78.380104,89.83768
"39236",547.72253,78.27268,89.679634
"39237",547.73584,78.184784,89.53776
"39238",547.74915,78.11154,89.40779
"39239",547.76245,78.05295,89.290184
"39240",547.77576,78.00412,89.18051
"39241",547.78906,77.96506,89.07908
"39242",547.80237,77.93576,88.98619
"39243",547.8157,77.91623,88.90215
"39244",547.829,77.90402,88.82483
"39245",547.8423,77.891815,88.74712
"39246",547.8556,77.87961,88.66904
"39247",547.8689,77.86496,88.58813
"39248",547.8822,77.84787,88.50432
"39249",547.8955,77.82834,88.417534
"39250",547.9088,77.80148,88.322815
"39251",547.9221,77.76486,88.21749
"39252",547.9354,77.733116,88.1159
"39253",547.9487,77.75754,88.06948
"39254",547.96204,77.93088,88.172745
"39255",547.97534,78.35569,88.5329
"39256",547.98865,79.09544,89.22127
"39257",548.00195,80.11841,90.215965
"39258",548.01526,81.30007,91.40133
"39259",548.02856,82.44999,92.59187
"39260",548.0419,83.38262,93.60107
"39261",548.0552,83.96857,94.29272
"39262",548.0685,84.190735,94.6389
"39263",548.0818,84.11017,94.68929
"39264",548.0951,83.82208,94.52965
"39265",548.1084,83.42901,94.25601
"39266",548.1217,83.01152,93.94568
"39267",548.135,82.62577,93.65404
"39268",548.1483,82.29374,93.40406
"39269",548.1616,82.01541,93.19741
"39270",548.1749,81.77127,93.01625
"39271",548.18823,81.53445,92.83478
"39272",548.20154,81.287865,92.63615
"39273",548.21484,81.02174,92.41027
"39274",548.22815,80.76051,92.18097
"39275",548.24146,80.52125,91.96547
"39276",548.25476,80.33082,91.79133
"39277",548.26807,80.19409,91.66494
"39278",548.2814,80.11597,91.59288
"39279",548.2947,80.06714,91.547676
"39280",548.308,80.025635,91.50827
"39281",548.3213,79.971924,91.45536
"39282",548.3346,79.8938,91.37636
"39283",548.3479,79.77417,91.25341
"39284",548.3612,79.622795,91.09498
"39285",548.3745,79.44457,90.90497
"39286",548.3878,79.25414,90.69718
"39287",548.4011,79.05882,90.47855
"39288",548.4144,78.870834,90.261154
"39289",548.42773,78.69016,90.0452
"39290",548.44104,78.519264,89.83337
"39291",548.45435,78.35569,89.62352
"39292",548.46765,78.20676,89.4232
"39293",548.48096,78.07492,89.23533
"39294",548.49426,77.9675,89.06775
"39295",548.50757,77.88693,88.92367
"39296",548.5209,77.83078,88.80148
"39297",548.5342,77.7966,88.69952
"39298",548.5475,77.78195,88.61601
"39299",548.5608,77.78439,88.54914
"39300",548.5741,77.79416,88.48967
"39301",548.5874,77.80881,88.43539
"39302",548.6007,77.8259,88.384
"39303",548.614,77.84299,88.33315
"39304",548.6273,77.86008,88.28284
"39305",548.6406,77.86984,88.22573
"39306",548.65393,77.86984,88.159164
"39307",548.66724,77.86008,88.08283
"39308",548.68054,77.84543,88.00131
"39309",548.69385,77.872284,87.96084
"39310",548.70715,78.03586,88.05792
"39311",548.72046,78.44602,88.40671
"39312",548.73376,79.166245,89.07837
"39313",548.7471,80.16968,90.05575
"39314",548.7604,81.33425,91.225624
"39315",548.7737,82.4744,92.40747
"39316",548.787,83.39727,93.40766
"39317",548.8003,83.97101,94.08756
"39318",548.8136,84.17609,94.41673
"39319",548.8269,84.07599,94.447136
"39320",548.8402,83.76593,94.26445
"39321",548.8535,83.34356,93.95976
"39322",548.8668,82.89189,93.61258
"39323",548.8801,82.45731,93.26837
"39324",548.89343,82.06424,92.95209
"39325",548.90674,81.72732,92.67967
"39326",548.92004,81.42947,92.4358
"39327",548.93335,81.15846,92.209465
"39328",548.94666,80.90456,91.99176
"39329",548.95996,80.66041,91.77588
"39330",548.97327,80.43824,91.57435
"39331",548.9866,80.25269,91.4025
"39332",548.9999,80.11841,91.27611
"39333",549.0132,80.0354,91.1968
"39334",549.0265,79.9939,91.1564
"39335",549.0398,79.971924,91.13424
"39336",549.0531,79.94995,91.11139
"39337",549.0664,79.91577,91.075645
"39338",549.0797,79.852295,91.00954
"39339",549.093,79.75708,90.909706
"39340",549.1063,79.62768,90.77271
"39341",549.1196,79.46899,90.60239
"39342",549.13293,79.28588,90.40269
"39343",549.14624,79.10033,90.19482
"39344",549.15955,78.91722,89.9836
"39345",549.17285,78.746315,89.778854
"39346",549.18616,78.59251,89.58587
"39347",549.19946,78.450905,89.40028
"39348",549.21277,78.32395,89.22492
"39349",549.2261,78.2092,89.05779
"39350",549.2394,78.11398,88.90662
"39351",549.2527,78.03342,88.76711
"39352",549.266,77.979706,88.65195
"39353",549.2793,77.95041,88.55952
"39354",549.2926,77.95041,88.49547
"39355",549.3059,77.962616,88.44363
"39356",549.3192,77.98459,88.40193
"39357",549.3325,78.00656,88.36092
"39358",549.3458,78.013885,88.305954
"39359",549.35913,78.009,88.239006
"39360",549.37244,77.994354,88.16214
"39361",549.38574,77.977264,88.082375
"39362",549.39905,77.95529,87.99719
"39363",549.41235,77.945526,87.92353
"39364",549.42566,77.99924,87.91304
"39365",549.43896,78.20676,88.05804
"39366",549.4523,78.66331,88.45855
"39367",549.4656,79.42504,89.17851
"39368",549.4789,80.465096,90.2006
"39369",549.4922,81.66384,91.41388
"39370",549.5055,82.828415,92.63045
"39371",549.5188,83.76593,93.65635
"39372",549.5321,84.35432,94.36242
"39373",549.5454,84.56428,94.70845
"39374",549.5587,84.44953,94.736336
"39375",549.572,84.11505,94.5409
"39376",549.5853,83.67315,94.22759
"39377",549.59863,83.20439,93.87362
"39378",549.61194,82.76738,93.53674
"39379",549.62524,82.39628,93.25212
"39380",549.63855,82.10086,93.031586
"39381",549.65186,81.85672,92.853096
"39382",549.66516,81.63943,92.693825
"39383",549.67847,81.42947,92.535095
"39384",549.6918,81.214615,92.364914
"39385",549.7051,80.990005,92.17826
"39386",549.7184,80.77272,91.99191
"39387",549.7317,80.584724,91.828064
"39388",549.745,80.43336,91.69497
"39389",549.7583,80.32105,91.59621
"39390",549.7716,80.233154,91.51834
"39391",549.7849,80.16235,91.45483
"39392",549.7982,80.09155,91.3891
"39393",549.8115,80.00366,91.30407
"39394",549.8248,79.888916,91.18944
"39395",549.83813,79.7522,91.04925
"39396",549.85144,79.5935,90.882805
"39397",549.86475,79.4226,90.6992
"39398",549.87805,79.24437,90.50293
"39399",549.89136,79.07103,90.30598
"39400",549.90466,78.90257,90.10849
"39401",549.91797,78.74387,89.9155
"39402",549.9313,78.59983,89.7322
"39403",549.9446,78.4802,89.56882
"39404",549.9579,78.382545,89.42367
"39405",549.9712,78.311745,89.30232
"39406",549.9845,78.26292,89.20074
"39407",549.9978,78.23117,89.11471
"39408",550.0111,78.21408,89.04234
"39409",550.0244,78.19943,88.971886
"39410",550.0377,78.19211,88.908295
"39411",550.051,78.18967,88.84936
"39412",550.06433,78.187225,88.790344
"39413",550.07764,78.184784,88.731255
"39414",550.09094,78.1799,88.66965
"39415",550.10425,78.170135,88.603004
"39416",550.11755,78.16281,88.5385
"39417",550.13086,78.18234,88.50062
"39418",550.14417,78.3093,88.57078
"39419",550.1575,78.64622,88.85486
"39420",550.1708,79.281,89.447334
"39421",550.1841,80.21118,90.35505
"39422",550.1974,81.34646,91.496925
"39423",550.2107,82.513466,92.70601
"39424",550.224,83.509575,93.78066
"39425",550.2373,84.173645,94.554405
"39426",550.2506,84.45197,94.96316
"39427",550.2639,84.38361,95.03392
"39428",550.2772,84.06378,94.851074
"39429",550.2905,83.60235,94.51663
"39430",550.30383,83.09697,94.123825
"39431",550.31714,82.61845,93.74208
"39432",550.33044,82.210724,93.41618
"39433",550.34375,81.88602,93.16056
"39434",550.35706,81.6321,92.96558
"39435",550.37036,81.427025,92.81151
"39436",550.38367,81.23903,92.668106
"39437",550.397,81.06325,92.531044
"39438",550.4103,80.89235,92.39337
"39439",550.4236,80.73853,92.26744
"39440",550.4369,80.61402,92.16601
"39441",550.4502,80.52125,92.09242
"39442",550.4635,80.45777,92.045235
"39443",550.4768,80.41627,92.018036
"39444",550.4901,80.36988,91.98466
"39445",550.5034,80.31617,91.942505
"39446",550.5167,80.235596,91.87181
"39447",550.53,80.12329,91.76687
"39448",550.54333,79.974365,91.621796
"39449",550.55664,79.80347,91.450096
"39450",550.56995,79.61791,91.2584
"39451",550.58325,79.429924,91.05847
"39452",550.59656,79.24681,90.857544
"39453",550.60986,79.07591,90.66311
"39454",550.62317,78.91478,90.4731
"39455",550.6365,78.77318,90.297585
"39456",550.6498,78.6511,90.13717
"39457",550.6631,78.54856,89.99248
"39458",550.6764,78.470436,89.868996
"39459",550.6897,78.416725,89.76749
"39460",550.703,78.38743,89.68871
"39461",550.7163,78.37278,89.62367
"39462",550.7296,78.37034,89.57038
"39463",550.7429,78.37522,89.52434
"39464",550.7562,78.37766,89.476006
"39465",550.76953,78.382545,89.43019
"39466",550.78284,78.380104,89.377205
"39467",550.79614,78.37522,89.3217
"39468",550.80945,78.37034,89.266045
"39469",550.82275,78.4094,89.25418
"39470",550.83606,78.56809,89.36317
"39471",550.84937,78.9514,89.70173
"39472",550.8627,79.62035,90.33791
"39473",550.876,80.55787,91.263565
"39474",550.8893,81.64919,92.37232
"39475",550.9026,82.718544,93.49321
"39476",550.9159,83.57061,94.43023
"39477",550.9292,84.07599,95.04719
"39478",550.9425,84.20294,95.30151
"39479",550.9558,84.00763,95.23754
"39480",550.9691,83.595024,94.95017
"39481",550.9824,83.07744,94.54493
"39482",550.9957,82.545204,94.108864
"39483",551.00903,82.06668,93.70988
"39484",551.02234,81.65896,93.36674
"39485",551.03564,81.33181,93.09143
"39486",551.04895,81.06569,92.86693
"39487",551.06226,80.84108,92.67562
"39488",551.07556,80.6482,92.509026
"39489",551.08887,80.49683,92.377914
"39490",551.1022,80.38941,92.28602
"39491",551.1155,80.33082,92.23959
"39492",551.1288,80.31861,92.237724
"39493",551.1421,80.33814,92.26721
"39494",551.1554,80.360115,92.29975
"39495",551.1687,80.36744,92.31833
"39496",551.182,80.3357,92.29807
"39497",551.1953,80.26002,92.23288
"39498",551.2086,80.13794,92.11893
"39499",551.2219,79.98413,91.96943
"39500",551.2352,79.80347,91.78827
"39501",551.24854,79.60815,91.58681
"39502",551.26184,79.415276,91.38169
"39503",551.27515,79.23216,91.180305
"39504",551.28845,79.061264,90.98541
"39505",551.30176,78.90257,90.797386
"39506",551.31506,78.76097,90.62149
"39507",551.32837,78.63889,90.46069
"39508",551.3417,78.536354,90.31562
"39509",551.355,78.45823,90.19176
"39510",551.3683,78.40208,90.087425
"39511",551.3816,78.3679,90.00331
"39512",551.3949,78.345924,89.930336
"39513",551.4082,78.33616,89.86888
"39514",551.4215,78.328835,89.80956
"39515",551.4348,78.32395,89.75246
"39516",551.4481,78.31663,89.69276
"39517",551.4614,78.30442,89.627945
"39518",551.47473,78.28733,89.55787
"39519",551.48804,78.311745,89.52876
"39520",551.50134,78.45335,89.61761
"39521",551.51465,78.80492,89.920845
"39522",551.52795,79.429924,90.50851
"39523",551.54126,80.31373,91.3745
"39524",551.55457,81.35378,92.424355
"39525",551.5679,82.37675,93.489624
"39526",551.5812,83.19707,94.38422
"39527",551.5945,83.69268,94.97974
"39528",551.6078,83.81476,95.21721
"39529",551.6211,83.61944,95.1411
"39530",551.6344,83.20439,94.83916
"39531",551.6477,82.67704,94.41194
"39532",551.661,82.127716,93.94627
"39533",551.6743,81.617455,93.5025
"39534",551.6876,81.17799,93.11359
"39535",551.7009,80.81911,92.79151
"39536",551.71423,80.52857,92.52657
"39537",551.72754,80.306404,92.32092
"39538",551.74084,80.147705,92.1718
"39539",551.75415,80.05005,92.07876
"39540",551.76746,80.01343,92.0437
"39541",551.78076,80.03296,92.06365
"39542",551.79407,80.08667,92.11839
"39543",551.8074,80.14282,92.17725
"39544",551.8207,80.18677,92.22566
"39545",551.834,80.19165,92.23638
"39546",551.8473,80.15503,92.20575
"39547",551.8606,80.06958,92.125145
"39548",551.8739,79.94263,92.00037
"39549",551.8872,79.781494,91.83744
"39550",551.9005,79.59106,91.640175
"39551",551.9138,79.39086,91.4272
"39552",551.9271,79.18822,91.20552
"39553",551.9404,79.00023,90.992165
"39554",551.95374,78.82933,90.79002
"39555",551.96704,78.68528,90.60939
"39556",551.98035,78.56809,90.45112
"39557",551.99365,78.48264,90.32092
"39558",552.00696,78.42161,90.21247
"39559",552.02026,78.38499,90.126526
"39560",552.03357,78.365456,90.056526
"39561",552.0469,78.35325,89.99324
"39562",552.0602,78.34348,89.932014
"39563",552.0735,78.33372,89.87048
"39564",552.0868,78.32639,89.81109
"39565",552.1001,78.314186,89.74658
"39566",552.1134,78.311745,89.69146
"39567",552.1267,78.36057,89.68753
"39568",552.14,78.54612,89.821846
"39569",552.1533,78.95628,90.18658
"39570",552.1666,79.63744,90.83512
"39571",552.17993,80.56275,91.7491
"39572",552.19324,81.60525,92.80918
"39573",552.20654,82.58671,93.840805
"39574",552.21985,83.32891,94.66384
"39575",552.23315,83.717094,95.15605
"39576",552.24646,83.736626,95.29174
"39577",552.25977,83.45342,95.125305
"39578",552.2731,82.967575,94.747375
"39579",552.2864,82.39384,94.26637
"39580",552.2997,81.82254,93.76988
"39581",552.313,81.31716,93.32146
"39582",552.3263,80.89723,92.94269
"39583",552.3396,80.567635,92.64113
"39584",552.3529,80.32105,92.412285
"39585",552.3662,80.14282,92.24409
"39586",552.3795,80.03052,92.136246
"39587",552.3928,79.98169,92.08837
"39588",552.4061,79.991455,92.097565
"39589",552.41943,80.045166,92.15101
"39590",552.43274,80.128174,92.23543
"39591",552.44604,80.201416,92.312675
"39592",552.45935,80.25025,92.367805
"39593",552.47266,80.257576,92.38295
"39594",552.48596,80.21362,92.347046
"39595",552.49927,80.111084,92.25118
"39596",552.5126,79.96704,92.11061
"39597",552.5259,79.78882,91.93136
"39598",552.5392,79.5935,91.72944
"39599",552.5525,79.39086,91.5141
"39600",552.5658,79.19798,91.302185
"39601",552.5791,79.01732,91.09646
"39602",552.5924,78.856186,90.90462
"39603",552.6057,78.71946,90.73215
"39604",552.619,78.61692,90.58959
"39605",552.6323,78.536354,90.465805
"39606",552.6456,78.4802,90.363914
"39607",552.65894,78.44114,90.27736
"39608",552.67224,78.41184,90.19935
"39609",552.68555,78.382545,90.12042
"39610",552.69885,78.35081,90.03814
"39611",552.71216,78.31663,89.95242
"39612",552.72546,78.29221,89.875404
"39613",552.7388,78.331276,89.8611
"39614",552.7521,78.521706,89.99938
"39615",552.7654,78.95628,90.387764
"39616",552.7787,79.66918,91.06805
"39617",552.792,80.61646,92.00499
"39618",552.8053,81.671165,93.07896
"39619",552.8186,82.650185,94.1102
"39620",552.8319,83.3753,94.91813
"39621",552.8452,83.74151,95.38982
"39622",552.8585,83.73907,95.504295
"39623",552.8718,83.43633,95.318405
"39624",552.88513,82.94072,94.930176
"39625",552.89844,82.35966,94.44101
"39626",552.91174,81.78592,93.94101
"39627",552.92505,81.27322,93.484116
"39628",552.93835,80.84596,93.09665
"39629",552.95166,80.50416,92.78128
"39630",552.96497,80.24292,92.5358
"39631",552.9783,80.05005,92.35052
"39632",552.9916,79.92554,92.22757
"39633",553.0049,79.86694,92.16665
"39634",553.0182,79.86694,92.16249
"39635",553.0315,79.91577,92.20716
"39636",553.0448,79.98657,92.27533
"39637",553.0581,80.05249,92.34083
"39638",553.0714,80.08667,92.37665
"39639",553.0847,80.07202,92.36471
"39640",553.098,80.00366,92.2986
"39641",553.1113,79.886475,92.181526
"39642",553.12463,79.725334,92.01684
"39643",553.13794,79.537346,91.82027
"39644",553.15125,79.33715,91.60561
"39645",553.16455,79.13451,91.382256
"39646",553.17786,78.94408,91.16478
"39647",553.19116,78.7805,90.96821
"39648",553.20447,78.643776,90.79337
"39649",553.2178,78.53391,90.64113
"39650",553.2311,78.44114,90.50254
"39651",553.2444,78.365456,90.37814
"39652",553.2577,78.29954,90.26115
"39653",553.271,78.24094,90.14941
"39654",553.2843,78.18234,90.03584
"39655",553.2976,78.135956,89.932655
"39656",553.3109,78.116425,89.85487
"39657",553.3242,78.17746,89.85705
"39658",553.3375,78.40208,90.02471
"39659",553.3508,78.87816,90.45086
"39660",553.36414,79.635,91.172646
"39661",553.37744,80.63111,92.15735
"39662",553.39075,81.72732,93.27328
"39663",553.40405,82.74296,94.342896
"39664",553.41736,83.49737,95.18302
"39665",553.43066,83.88312,95.67806
"39666",553.444,83.89288,95.80917
"39667",553.4573,83.597466,95.63541
"39668",553.4706,83.11406,95.26442
"39669",553.4839,82.55497,94.80264
"39670",553.4972,82.01297,94.340485
"39671",553.5105,81.549095,93.939514
"39672",553.5238,81.17311,93.61194
"39673",553.5371,80.8777,93.35319
"39674",553.5504,80.64576,93.148674
"39675",553.5637,80.46754,92.99063
"39676",553.577,80.32838,92.86608
"39677",553.59033,80.22827,92.77624
"39678",553.60364,80.17212,92.72722
"39679",553.61694,80.15503,92.71551
"39680",553.63025,80.16235,92.72768
"39681",553.64355,80.17456,92.74496
"39682",553.65686,80.17212,92.74797
"39683",553.67017,80.130615,92.711845
"39684",553.6835,80.05005,92.63536
"39685",553.6968,79.920654,92.50753
"39686",553.7101,79.7522,92.33659
"39687",553.7234,79.554436,92.13109
"39688",553.7367,79.34692,91.909645
"39689",553.75,79.13939,91.68171
"39690",553.7633,78.94896,91.464386
"39691",553.7766,78.7805,91.263084
"39692",553.7899,78.63157,91.07604
"39693",553.8032,78.502174,90.903885
"39694",553.8165,78.38987,90.744774
"39695",553.82983,78.29221,90.5968
"39696",553.84314,78.20676,90.45798
"39697",553.85645,78.13107,90.326256
"39698",553.86975,78.07492,90.2117
"39699",553.88306,78.05783,90.13445
"39700",553.89636,78.14084,90.15677
"39701",553.90967,78.41184,90.369675
"39702",553.923,78.941635,90.84984
"39703",553.9363,79.74731,91.62244
"39704",553.9496,80.75319,92.62042
"39705",553.9629,81.80789,93.69866
"39706",553.9762,82.73075,94.67802
"39707",553.9895,83.36065,95.39325
"39708",554.0028,83.62676,95.76438
"39709",554.0161,83.55108,95.80203
"39710",554.0294,83.21904,95.58096
"39711",554.0427,82.74784,95.21036
"39712",554.056,82.24246,94.79085
"39713",554.06934,81.77371,94.39217
"39714",554.08264,81.38064,94.05453
"39715",554.09595,81.06813,93.785164
"39716",554.10925,80.81178,93.562195
"39717",554.12256,80.59693,93.37271
"39718",554.13586,80.411385,93.20582
"39719",554.1492,80.255135,93.06242
"39720",554.1625,80.130615,92.94588
"39721",554.1758,80.05249,92.87183
"39722",554.1891,80.01343,92.83441
"39723",554.2024,79.99878,92.82018
"39724",554.2157,79.98901,92.81038
"39725",554.229,79.9646,92.78562
"39726",554.2423,79.90845,92.72836
"39727",554.2556,79.80835,92.625404
"39728",554.2689,79.66674,92.477806
"39729",554.2822,79.49584,92.29649
"39730",554.29553,79.30541,92.09031
"39731",554.30884,79.11009,91.87328
"39732",554.32214,78.91722,91.6526
"39733",554.33545,78.73899,91.44054
"39734",554.34875,78.572975,91.235115
"39735",554.36206,78.42161,91.039154
"39736",554.37537,78.28733,90.85555
"39737",554.3887,78.167694,90.682396
"39738",554.402,78.05783,90.515274
"39739",554.4153,77.95529,90.35204
"39740",554.4286,77.86008,90.19293
"39741",554.4419,77.789276,90.05526
"39742",554.4552,77.80148,89.99838
"39743",554.4685,77.98459,90.112785
"39744",554.4818,78.42649,90.49171
"39745",554.4951,79.15648,91.17252
"39746",554.5084,80.12329,92.112976
"39747",554.5217,81.18776,93.1813
"39748",554.53503,82.16678,94.19743
"39749",554.54834,82.89433,94.9927
"39750",554.56165,83.2752,95.46401
"39751",554.57495,83.31182,95.60298
"39752",554.58826,83.07744,95.47209
"39753",554.60156,82.67216,95.16298
"39754",554.61487,82.20096,94.77528
"39755",554.6282,81.74685,94.38995
"39756",554.6415,81.35134,94.049034
"39757",554.6548,81.0193,93.759224
"39758",554.6681,80.743416,93.51519
"39759",554.6814,80.50904,93.30405
"39760",554.6947,80.29908,93.10999
"39761",554.708,80.113525,92.933784
"39762",554.7213,79.9646,92.78841
"39763",554.7346,79.85962,92.68232
"39764",554.7479,79.798584,92.6169
"39765",554.7612,79.76929,92.58131
"39766",554.77454,79.75464,92.55945
"39767",554.78784,79.73266,92.5298
"39768",554.80115,79.68871,92.4775
"39769",554.81445,79.61303,92.39209
"39770",554.82776,79.50561,92.272575
"39771",554.84106,79.36645,92.117966
"39772",554.8544,79.20775,91.93947
"39773",554.8677,79.03197,91.73893
"39774",554.881,78.84886,91.52557
"39775",554.8943,78.66575,91.30649
"39776",554.9076,78.487526,91.08657
"39777",554.9209,78.32151,90.87329
"39778",554.9342,78.17502,90.67435
"39779",554.9475,78.048065,90.490364
"39780",554.9608,77.9382,90.3195
"39781",554.9741,77.84787,90.16474
"39782",554.9874,77.769745,90.01936
"39783",555.00073,77.730675,89.9106
"39784",555.01404,77.789276,89.898285
"39785",555.02734,78.04074,90.080666
"39786",555.04065,78.56321,90.54191
"39787",555.05396,79.378654,91.312454
"39788",555.06726,80.42359,92.337975
"39789",555.08057,81.549095,93.476715
"39790",555.0939,82.55985,94.53588
"39791",555.1072,83.28985,95.34587
"39792",555.1205,83.6585,95.81733
"39793",555.1338,83.67559,95.948746
"39794",555.1471,83.41924,95.80726
"39795",555.1604,83.001755,95.49662
"39796",555.1737,82.52567,95.11434
"39797",555.187,82.07645,94.74404
"39798",555.2003,81.6907,94.42318
"39799",555.2136,81.373314,94.15863
"39800",555.2269,81.10719,93.935425
"39801",555.24023,80.87282,93.73565
"39802",555.25354,80.66041,93.550514
"39803",555.26685,80.46754,93.37828
"39804",555.28015,80.31861,93.243965
"39805",555.29346,80.22583,93.16114
"39806",555.30676,80.18921,93.13158
"39807",555.32007,80.19165,93.13993
"39808",555.3334,80.201416,93.155685
"39809",555.3467,80.19653,93.1571
"39810",555.36,80.15015,93.11685
"39811",555.3733,80.05737,93.02877
"39812",555.3866,79.91821,92.8914
"39813",555.3999,79.73754,92.708176
"39814",555.4132,79.52758,92.49001
"39815",555.4265,79.30541,92.25308
"39816",555.4398,79.08324,92.0092
"39817",555.4531,78.86595,91.76327
"39818",555.46643,78.66331,91.525185
"39819",555.47974,78.487526,91.30763
"39820",555.49304,78.3386,91.11144
"39821",555.50635,78.20676,90.92768
"39822",555.51965,78.09445,90.75934
"39823",555.53296,78.00656,90.6119
"39824",555.54626,77.97238,90.51543
"39825",555.5596,78.05295,90.53263
"39826",555.5729,78.35081,90.769646
"39827",555.5862,78.941635,91.30894
"39828",555.5995,79.82788,92.16211
"39829",555.6128,80.93385,93.2627
"39830",555.6261,82.09598,94.45401
"39831",555.6394,83.1165,95.54003
"39832",555.6527,83.83917,96.36009
"39833",555.666,84.19562,96.83651
"39834",555.6793,84.207825,96.97983
"39835",555.6926,83.963684,96.86718
"39836",555.70593,83.57305,96.60041
"39837",555.71924,83.13847,96.27749
"39838",555.73254,82.72831,95.9654
"39839",555.74585,82.371864,95.694214
"39840",555.75916,82.0618,95.45827
"39841",555.77246,81.78104,95.241936
"39842",555.78577,81.50271,95.019264
"39843",555.7991,81.214615,94.77813
"39844",555.8124,80.92409,94.52556
"39845",555.8257,80.66285,94.2932
"39846",555.839,80.45533,94.10639
"39847",555.8523,80.31129,93.97658
"39848",555.8656,80.22583,93.90085
"39849",555.8789,80.177,93.85908
"39850",555.8922,80.13306,93.82066
"39851",555.9055,80.0647,93.75646
"39852",555.9188,79.957275,93.65106
"39853",555.9321,79.80835,93.5008
"39854",555.94543,79.61303,93.29949
"39855",555.95874,79.38354,93.05791
"39856",555.97205,79.13939,92.794495
"39857",555.98535,78.890366,92.51858
"39858",555.99866,78.64866,92.242195
"39859",556.01196,78.42649,91.9778
"39860",556.02527,78.22873,91.730865
"39861",556.0386,78.05783,91.504616
"39862",556.0519,77.90402,91.290115
"39863",556.0652,77.76486,91.08546
"39864",556.0785,77.65255,90.9033
"39865",556.0918,77.611046,90.78844
"39866",556.1051,77.72823,90.83097
"39867",556.1184,78.11398,91.14573
"39868",556.1317,78.82933,91.80214
"39869",556.145,79.85718,92.7934
"39870",556.1583,81.077896,94.00966
"39871",556.17163,82.30595,95.27139
"39872",556.18494,83.33379,96.3713
"39873",556.19824,84.02472,97.166405
"39874",556.21155,84.33723,97.60468
"39875",556.22485,84.317696,97.72069
"39876",556.23816,84.071106,97.609024
"39877",556.25146,83.71221,97.37735
"39878",556.2648,83.336235,97.11738
"39879",556.2781,82.99199,96.87739
"39880",556.2914,82.68925,96.668144
"39881",556.3047,82.4036,96.46654
"39882",556.318,82.09842,96.236465
"39883",556.3313,81.74929,95.95291
"39884",556.3446,81.36111,95.61939
"39885",556.3579,80.96071,95.26153
"39886",556.3712,80.587166,94.91801
"39887",556.3845,80.28443,94.63362
"39888",556.3978,80.062256,94.420334
"39889",556.41113,79.91089,94.27091
"39890",556.42444,79.81079,94.16803
"39891",556.43774,79.72045,94.07178
"39892",556.45105,79.61303,93.95562
"39893",556.46436,79.45922,93.78972
"39894",556.47766,79.26391,93.57751
"39895",556.49097,79.027084,93.31768
"39896",556.5043,78.75609,93.01628
"39897",556.5176,78.47288,92.6942
"39898",556.5309,78.19943,92.37303
"39899",556.5442,77.94064,92.057976
"39900",556.5575,77.70138,91.75436
"39901",556.5708,77.49142,91.472565
"39902",556.5841,77.30587,91.208626
"39903",556.5974,77.137405,90.95597
"39904",556.6107,76.98848,90.71759
"39905",556.624,76.86885,90.50385
"39906",556.6373,76.824905,90.36206
"39907",556.65063,76.94209,90.38003
"39908",556.66394,77.32784,90.67022
"39909",556.67725,78.06027,91.319145
"39910",556.69055,79.132065,92.33032
"39911",556.70386,80.44068,93.61182
"39912",556.71716,81.80301,94.987915
"39913",556.73047,82.99931,96.24056
"39914",556.7438,83.86359,97.19856
"39915",556.7571,84.33723,97.79294
"39916",556.7704,84.44709,98.03834
"39917",556.7837,84.29328,98.0235
"39918",556.797,83.99054,97.85492
"39919",556.8103,83.64141,97.63049
"39920",556.8236,83.30938,97.412254
"39921",556.8369,83.00664,97.21293
"39922",556.8502,82.718544,97.01879
"39923",556.8635,82.406044,96.791245
"39924",556.87683,82.0325,96.49289
"39925",556.89014,81.58816,96.11206
"39926",556.90344,81.092545,95.66608
"39927",556.91675,80.59449,95.20216
"39928",556.93005,80.15259,94.77884
"39929",556.94336,79.80835,94.43937
"39930",556.95667,79.57397,94.199
"39931",556.97,79.42504,94.03676
"39932",556.9833,79.32983,93.92358
"39933",556.9966,79.23216,93.80497
"39934",557.0099,79.10521,93.65402
"39935",557.0232,78.924545,93.4454
"39936",557.0365,78.692604,93.17985
"39937",557.0498,78.41184,92.85823
"39938",557.0631,78.101776,92.498535
"39939",557.0764,77.78439,92.12183
"39940",557.0897,77.47921,91.74741
"39941",557.103,77.19844,91.38787
"39942",557.11633,76.9543,91.05618
"39943",557.12964,76.754105,90.76081
"39944",557.14294,76.592964,90.49824
"39945",557.15625,76.473335,90.27214
"39946",557.16956,76.38056,90.06916
"39947",557.18286,76.30976,89.885254
"39948",557.19617,76.23651,89.696686
"39949",557.2095,76.16083,89.503395
"39950",557.2228,76.10956,89.33215
"39951",557.2361,76.16571,89.26673
"39952",557.2494,76.45136,89.43256
"39953",557.2627,77.083694,89.954
"39954",557.276,78.11398,90.89316
"39955",557.2893,79.47143,92.191666
"39956",557.3026,80.98268,93.6864
"39957",557.3159,82.41093,95.145355
"39958",557.3292,83.54864,96.358406
"39959",557.3425,84.281075,97.20174
"39960",557.35583,84.60578,97.660225
"39961",557.36914,84.610664,97.80904
"39962",557.38245,84.41779,97.76025
"39963",557.39575,84.139465,97.61997
"39964",557.40906,83.85626,97.466125
"39965",557.42236,83.59991,97.33028
"39966",557.43567,83.36553,97.2084
"39967",557.449,83.11162,97.059654
"39968",557.4623,82.78691,96.832184
"39969",557.4756,82.35233,96.484695
"39970",557.4889,81.81033,96.016205
"39971",557.5022,81.19264,95.455086
"39972",557.5155,80.567635,94.86735
"39973",557.5288,80.008545,94.326
"39974",557.5421,79.57397,93.891685
"39975",557.5554,79.28344,93.587845
"39976",557.5687,79.10765,93.38966
"39977",557.58203,79.00267,93.2568
"39978",557.59534,78.907455,93.13042
"39979",557.60864,78.7805,92.96932
"39980",557.62195,78.59739,92.7481
"39981",557.63525,78.35325,92.46013
"39982",557.64856,78.06027,92.11569
"39983",557.66187,77.738,91.7328
"39984",557.6752,77.40841,91.33253
"39985",557.6885,77.09346,90.93659
"39986",557.7018,76.81026,90.56256
"39987",557.7151,76.56855,90.221176
"39988",557.7284,76.37812,89.923515
"39989",557.7417,76.23407,89.66628
"39990",557.755,76.12909,89.44362
"39991",557.7683,76.05585,89.24941
"39992",557.7816,76.00214,89.07245
"39993",557.7949,75.96307,88.908455
"39994",557.8082,75.92401,88.74324
"39995",557.82153,75.880066,88.57192
"39996",557.83484,75.8288,88.39191
"39997",557.84814,75.78485,88.21761
"39998",557.86145,75.809265,88.110306
"39999",557.87476,76.00702,88.1771
"40000",557.88806,76.50263,88.547935
"40001",557.90137,77.37911,89.315125
"40002",557.9147,78.61448,90.46859
"40003",557.928,80.076904,91.88772
"40004",557.9413,81.54421,93.35743
"40005",557.9546,82.794235,94.65571
"40006",557.9679,83.66827,95.61706
"40007",557.9812,84.11749,96.180916
"40008",557.9945,84.20538,96.39748
"40009",558.0078,84.051575,96.375084
"40010",558.0211,83.773254,96.22337
"40011",558.0344,83.47051,96.03854
"40012",558.0477,83.19707,95.87355
"40013",558.06104,82.95781,95.7342
"40014",558.07434,82.72343,95.59225
"40015",558.08765,82.44999,95.403915
"40016",558.10095,82.08865,95.11914
"40017",558.11426,81.62234,94.718094
"40018",558.12756,81.07301,94.21947
"40019",558.14087,80.499275,93.67926
"40020",558.1542,79.96704,93.16263
"40021",558.1675,79.53246,92.72702
"40022",558.1808,79.219955,92.3999
"40023",558.1941,79.01976,92.17533
"40024",558.2074,78.89769,92.02263
"40025",558.2207,78.802475,91.89297
"40026",558.234,78.692604,91.745674
"40027",558.2473,78.54124,91.55345
"40028",558.2606,78.3386,91.30523
"40029",558.2739,78.08713,91.00184
"40030",558.28723,77.806366,90.6613
"40031",558.30054,77.52071,90.3071
"40032",558.31384,77.2375,89.94641
"40033",558.32715,76.981155,89.60374
"40034",558.34045,76.75166,89.27991
"40035",558.35376,76.558784,88.98552
"40036",558.36707,76.39521,88.71441
"40037",558.3804,76.265816,88.47237
"40038",558.3937,76.16571,88.25557
"40039",558.407,76.09735,88.06739
"40040",558.4203,76.05585,87.90393
"40041",558.4336,76.033875,87.758705
"40042",558.4469,76.02655,87.62744
"40043",558.4602,76.02655,87.50327
"40044",558.4735,76.02655,87.379105
"40045",558.4868,76.02899,87.25738
"40046",558.5001,76.033875,87.13817
"40047",558.5134,76.0412,87.02155
"40048",558.52673,76.05585,86.91249
"40049",558.54004,76.06317,86.79656
"40050",558.55334,76.06317,86.67354
"40051",558.56665,76.05829,86.54563
"40052",558.57996,76.08026,86.44443
"40053",558.59326,76.20233,86.44401
"40054",558.60657,76.5539,86.6769
"40055",558.6199,77.2546,87.26991
"40056",558.6332,78.345924,88.275444
"40057",558.6465,79.77173,89.64956
"40058",558.6598,81.36111,91.231804
"40059",558.6731,82.87236,92.78559
"40060",558.6864,84.09552,94.09851
"40061",558.6997,84.89876,95.02973
"40062",558.713,85.28207,95.566124
"40063",558.7263,85.33578,95.7849
"40064",558.7396,85.18196,95.79782
"40065",558.7529,84.93294,95.71073
"40066",558.76624,84.67658,95.60853
"40067",558.77954,84.44709,95.52518
"40068",558.79285,84.23956,95.45662
"40069",558.80615,84.02472,95.37426
"40070",558.81946,83.756165,95.231476
"40071",558.83276,83.39483,94.98752
"40072",558.84607,82.93584,94.63461
"40073",558.8594,82.39628,94.1868
"40074",558.8727,81.832306,93.69771
"40075",558.886,81.30251,93.225174
"40076",558.8993,80.867935,92.8313
"40077",558.9126,80.5481,92.53859
"40078",558.9259,80.3357,92.343315
"40079",558.9392,80.19409,92.2122
"40080",558.9525,80.079346,92.103516
"40081",558.9658,79.94995,91.9766
"40082",558.9791,79.781494,91.80658
"40083",558.99243,79.57397,91.592224
"40084",559.00574,79.32983,91.33477
"40085",559.01904,79.05638,91.04038
"40086",559.03235,78.77562,90.73013
"40087",559.04565,78.49973,90.415985
"40088",559.05896,78.23605,90.10542
"40089",559.07227,77.996796,89.81104
"40090",559.0856,77.78439,89.53604
"40091",559.0989,77.60128,89.28369
"40092",559.1122,77.44259,89.05004
"40093",559.1255,77.313194,88.84073
"40094",559.1388,77.208206,88.65178
"40095",559.1521,77.1252,88.48153
"40096",559.1654,77.0544,88.32089
"40097",559.1787,76.99336,88.16781
"40098",559.192,76.93965,88.02014
"40099",559.2053,76.893265,87.87812
"40100",559.2186,76.8542,87.741974
"40101",559.23193,76.824905,87.61437
"40102",559.24524,76.807816,87.49806
"40103",559.25854,76.79805,87.38854
"40104",559.27185,76.79317,87.2836
"40105",559.28516,76.79317,87.18339
"40106",559.29846,76.790726,87.080734
"40107",559.31177,76.77852,86.96824
"40108",559.3251,76.754105,86.843155
"40109",559.3384,76.72236,86.70998
"40110",559.3517,76.69306,86.578255
"40111",559.365,76.72724,86.509094
"40112",559.3783,76.93233,86.61191
"40113",559.3916,77.42794,87.01166
"40114",559.4049,78.28489,87.78823
"40115",559.4182,79.48608,88.93582
"40116",559.4315,80.902115,90.3358
"40117",559.4448,82.32548,91.78735
"40118",559.4581,83.53399,93.068535
"40119",559.47144,84.38361,94.028595
"40120",559.48474,84.83528,94.61725
"40121",559.49805,84.947586,94.88065
"40122",559.51135,84.82796,94.915634
"40123",559.52466,84.596016,94.834564
"40124",559.53796,84.34211,94.72428
"40125",559.5513,84.11749,94.63535
"40126",559.5646,83.931946,94.578476
"40127",559.5779,83.77081,94.540215
"40128",559.5912,83.5877,94.47494
"40129",559.6045,83.34112,94.34047
"40130",559.6178,83.001755,94.105515
"40131",559.6311,82.564735,93.7623
"40132",559.6444,82.06912,93.34683
"40133",559.6577,81.56863,92.910995
"40134",559.671,81.11452,92.505905
"40135",559.6843,80.7483,92.174515
"40136",559.69763,80.48707,91.93667
"40137",559.71094,80.31129,91.77611
"40138",559.72424,80.18677,91.661316
"40139",559.73755,80.076904,91.55729
"40140",559.75085,79.954834,91.43762
"40141",559.76416,79.79614,91.27752
"40142",559.77747,79.59106,91.06606
"40143",559.7908,79.3518,90.814026
"40144",559.8041,79.08812,90.53009
"40145",559.8174,78.81224,90.225716
"40146",559.8307,78.54124,89.917595
"40147",559.844,78.28977,89.620544
"40148",559.8573,78.06027,89.3376
"40149",559.8706,77.86252,89.07923
"40150",559.8839,77.69894,88.848854
"40151",559.9105,77.452354,88.454185
"40152",559.9238,77.36935,88.291565
"40153",559.93713,77.30343,88.14344
"40154",559.95044,77.24971,88.005455
"40155",559.96375,77.21309,87.88289
"40156",559.97705,77.19112,87.77383
"40157",559.99036,77.17403,87.66896
"40158",560.00366,77.15938,87.566
"40159",560.01697,77.14961,87.46747
"40160",560.0303,77.14229,87.37107
"40161",560.0436,77.13008,87.26956
"40162",560.0569,77.11543,87.16523
"40163",560.0702,77.100784,87.06044
"40164",560.0835,77.083694,86.95275
"40165",560.0968,77.066605,86.84453
"40166",560.1101,77.04219,86.72845
"40167",560.1234,77.0251,86.61893
"40168",560.1367,77.04219,86.54305
"40169",560.15,77.17403,86.58246
"40170",560.1633,77.52804,86.84816
"40171",560.17664,78.204315,87.44719
"40172",560.18994,79.22484,88.4116
"40173",560.20325,80.51148,89.67402
"40174",560.21655,81.8909,91.06942
"40175",560.22986,83.15556,92.39317
"40176",560.24316,84.122375,93.458595
"40177",560.2565,84.7132,94.178246
"40178",560.2698,84.9427,94.55503
"40179",560.2831,84.90364,94.670425
"40180",560.2964,84.70588,94.6259
"40181",560.3097,84.44953,94.51661
"40182",560.323,84.19562,94.40174
"40183",560.3363,83.97833,94.31557
"40184",560.3496,83.80011,94.261665
"40185",560.3629,83.63409,94.21439
"40186",560.3762,83.43389,94.12776
"40187",560.3895,83.17021,93.97139
"40188",560.40283,82.82597,93.72622
"40189",560.41614,82.41093,93.39948
"40190",560.42944,81.95926,93.023155
"40191",560.44275,81.52712,92.652245
"40192",560.45605,81.15602,92.328865
"40193",560.46936,80.87526,92.08423
"40194",560.48267,80.68238,91.9187
"40195",560.496,80.55543,91.81307
"40196",560.5093,80.462654,91.737656
"40197",560.5226,80.36744,91.6569
"40198",560.5359,80.24048,91.54142
"40199",560.5492,80.06958,91.37804
"40200",560.5625,79.85718,91.16781
"40201",560.5758,79.61059,90.916756
"40202",560.5891,79.34936,90.64336
"40203",560.6024,79.093,90.36667
"40204",560.6157,78.84642,90.09174
"40205",560.629,78.6218,89.83108
"40206",560.64233,78.42161,89.587814
"40207",560.65564,78.24826,89.36514
"40208",560.66895,78.099335,89.161476
"40209",560.68225,77.97482,88.97757
"40210",560.69556,77.8674,88.80686
"40211",560.70886,77.77707,88.64989
"40212",560.72217,77.70138,88.50473
"40213",560.7355,77.642784,88.374306
"40214",560.7488,77.593956,88.251816
"40215",560.7621,77.55489,88.137566
"40216",560.7754,77.52071,88.02698
"40217",560.7887,77.49386,87.922646
"40218",560.802,77.469444,87.819916
"40219",560.8153,77.44991,87.721306
"40220",560.8286,77.437706,87.62941
"40221",560.8419,77.42794,87.53957
"40222",560.8552,77.420616,87.45187
"40223",560.8685,77.41329,87.363945
"40224",560.88184,77.401085,87.270905
"40225",560.89514,77.38155,87.17016
"40226",560.90845,77.36446,87.07124
"40227",560.92175,77.37667,87.00109
"40228",560.93506,77.506065,87.04851
"40229",560.94836,77.86008,87.324585
"40230",560.9617,78.53391,87.93155
"40231",560.975,79.54955,88.901375
"40232",560.9883,80.81911,90.15685
"40233",561.0016,82.16434,91.52768
"40234",561.0149,83.37774,92.808716
"40235",561.0282,84.27863,93.81516
"40236",561.0415,84.79622,94.46645
"40237",561.0548,84.95003,94.77014
"40238",561.0681,84.84505,94.81985
"40239",561.0814,84.58869,94.7149
"40240",561.0947,84.27863,94.54823
"40241",561.10803,83.980774,94.38408
"40242",561.12134,83.7293,94.257
"40243",561.13464,83.52178,94.16602
"40244",561.14795,83.32891,94.083206
"40245",561.16125,83.123825,93.98215
"40246",561.17456,82.86992,93.82586
"40247",561.18787,82.55253,93.59815
"40248",561.2012,82.18143,93.306816
"40249",561.2145,81.79813,92.991684
"40250",561.2278,81.43679,92.68654
"40251",561.2411,81.13405,92.428696
"40252",561.2544,80.91432,92.24441
"40253",561.2677,80.765396,92.124054
"40254",561.281,80.66285,92.045425
"40255",561.2943,80.57496,91.97825
"40256",561.3076,80.46998,91.891235
"40257",561.3209,80.3357,91.771645
"40258",561.3342,80.16724,91.61367
"40259",561.34753,79.96216,91.41382
"40260",561.36084,79.73266,91.183136
"40261",561.37415,79.49584,90.937965
"40262",561.38745,79.256584,90.68295
"40263",561.40076,79.02464,90.42778
"40264",561.41406,78.80003,90.17269
"40265",561.42737,78.59495,89.93011
"40266",561.4407,78.40696,89.69821
"40267",561.454,78.24582,89.48729
"40268",561.4673,78.11398,89.30064
"40269",561.4806,78.01633,89.14404
"40270",561.4939,77.9382,89.00393
"40271",561.5072,77.87961,88.880905
"40272",561.5205,77.83078,88.765816
"40273",561.5338,77.786835,88.65408
"40274",561.5471,77.747765,88.54585
"40275",561.5604,77.713585,88.44129
"40276",561.5737,77.68673,88.34299
"40277",561.58704,77.65743,88.2414
"40278",561.60034,77.63058,88.14134
"40279",561.61365,77.60616,88.042885
"40280",561.62695,77.58907,87.95099
"40281",561.64026,77.57198,87.85856
"40282",561.65356,77.55245,87.76315
"40283",561.6669,77.53048,87.664696
"40284",561.6802,77.50118,87.55823
"40285",561.6935,77.471886,87.45084
"40286",561.7068,77.486534,87.38649
"40287",561.7201,77.645226,87.46664
"40288",561.7334,78.05783,87.80566
"40289",561.7467,78.79759,88.484726
"40290",561.76,79.8645,89.51406
"40291",561.7733,81.143814,90.78914
"40292",561.7866,82.44022,92.12129
"40293",561.7999,83.55108,93.3084
"40294",561.81323,84.32258,94.19087
"40295",561.82654,84.70588,94.70925
"40296",561.83984,84.74494,94.89537
"40297",561.85315,84.54475,94.84345
"40298",561.86646,84.22003,94.66076
"40299",561.87976,83.861145,94.43375
"40300",561.89307,83.529106,94.22237
"40301",561.9064,83.25567,94.05921
"40302",561.9197,83.03349,93.938774
"40303",561.933,82.8333,93.833374
"40304",561.9463,82.616005,93.70462
"40305",561.9596,82.3621,93.53246
"40306",561.9729,82.056915,93.301094
"40307",561.9862,81.71023,93.018684
"40308",561.9995,81.35378,92.71568
"40309",562.0128,81.02907,92.43327
"40310",562.0261,80.765396,92.20176
"40311",562.0394,80.57252,92.0328
"40312",562.05273,80.44312,91.921295
"40313",562.06604,80.35767,91.84969
"40314",562.07935,80.291756,91.79495
"40315",562.09265,80.21118,91.723495
"40316",562.10596,80.10132,91.62023
"40317",562.11926,79.957275,91.479355
"40318",562.13257,79.76929,91.29003
"40319",562.1459,79.54467,91.058205
"40320",562.1592,79.29809,90.79739
"40321",562.1725,79.04906,90.52643
"40322",562.1858,78.81224,90.259895
"40323",562.1991,78.59739,90.00793
"40324",562.2124,78.4094,89.77611
"40325",562.2257,78.24826,89.56526
"40326",562.239,78.10422,89.36648
"40327",562.2523,77.977264,89.18028
"40328",562.2656,77.872284,89.01209
"40329",562.27893,77.79172,88.865036
"40330",562.29224,77.72823,88.732544
"40331",562.30554,77.68429,88.61761
"40332",562.31885,77.65499,88.515945
"40333",562.33215,77.63058,88.41825
"40334",562.34546,77.611046,88.32468
"40335",562.35876,77.59884,88.237816
"40336",562.3721,77.58907,88.153015
"40337",562.3854,77.57931,88.06791
"40338",562.3987,77.56954,87.9825
"40339",562.412,77.55489,87.8919
"40340",562.4253,77.52804,87.788635
"40341",562.4386,77.49386,87.67721
"40342",562.4519,77.454796,87.55983
"40343",562.4652,77.44015,87.465645
"40344",562.4785,77.51827,87.463776
"40345",562.4918,77.79904,87.66699
"40346",562.5051,78.37766,88.176834
"40347",562.51843,79.281,89.02947
"40348",562.53174,80.43824,90.164246
"40349",562.54504,81.6907,91.4304
"40350",562.55835,82.83086,92.62339
"40351",562.57166,83.68047,93.56147
"40352",562.58496,84.14923,94.14524
"40353",562.59827,84.2591,94.38477
"40354",562.6116,84.09552,94.35429
"40355",562.6249,83.775696,94.162445
"40356",562.6382,83.389946,93.894684
"40357",562.6515,83.018845,93.62952
"40358",562.6648,82.69657,93.40158
"40359",562.6781,82.44022,93.2295
"40360",562.6914,82.230255,93.09579
"40361",562.7047,82.039825,92.97505
"40362",562.718,81.83719,92.83616
"40363",562.7313,81.59548,92.65186
"40364",562.7446,81.31472,92.42096
"40365",562.75793,81.007095,92.15442
"40366",562.77124,80.70435,91.88315
"40367",562.78455,80.44068,91.64149
"40368",562.79785,80.23804,91.452614
"40369",562.81116,80.09888,91.32089
"40370",562.82446,80.01099,91.23609
"40371",562.83777,79.954834,91.18028
"40372",562.8511,79.90112,91.12516
"40373",562.8644,79.82544,91.04639
"40374",562.8777,79.71557,90.93106
"40375",562.891,79.569084,90.77569
"40376",562.9043,79.38842,90.58156
"40377",562.9176,79.19066,90.364685
"40378",562.9309,78.99046,90.1392
"40379",562.9442,78.79271,89.9099
"40380",562.9575,78.61204,89.6915
"40381",562.9708,78.44846,89.48455
"40382",562.98413,78.30442,89.29202
"40383",562.99744,78.1799,89.11452
"40384",563.01074,78.07492,88.95266
"40385",563.02405,77.98459,88.80217
"40386",563.03735,77.91379,88.66839
"40387",563.05066,77.86252,88.551926
"40388",563.06396,77.823456,88.44607
"40389",563.0773,77.806366,88.36096
"40390",563.0906,77.803925,88.28997
"40391",563.1039,77.80881,88.22623
"40392",563.1172,77.81857,88.16752
"40393",563.1305,77.83078,88.11156
"40394",563.1438,77.83322,88.04621
"40395",563.1571,77.82834,87.97362
"40396",563.1704,77.81369,87.891106
"40397",563.1837,77.79416,87.80325
"40398",563.197,77.769745,87.70991
"40399",563.2103,77.75998,87.63045
"40400",563.22363,77.83078,87.63125
"40401",563.23694,78.0798,87.812485
"40402",563.25024,78.59495,88.267624
"40403",563.26355,79.41772,89.046486
"40404",563.27686,80.48951,90.10008
"40405",563.29016,81.6614,91.28727
"40406",563.30347,82.74296,92.420746
"40407",563.3168,83.560844,93.32435
"40408",563.3301,84.017395,93.89217
"40409",563.3434,84.12726,94.12758
"40410",563.3567,83.966125,94.09542
"40411",563.37,83.64385,93.89709
"40412",563.3833,83.25811,93.62521
"40413",563.3966,82.87724,93.34616
"40414",563.4099,82.54276,93.10159
"40415",563.4232,82.262,92.90029
"40416",563.4365,82.02518,92.73415
"40417",563.4498,81.80789,92.580154
"40418",563.46313,81.58572,92.414474
"40419",563.47644,81.33669,92.215004
"40420",563.48975,81.07301,91.993095
"40421",563.50305,80.80202,91.75563
"40422",563.51636,80.550545,91.52922
"40423",563.52966,80.33814,91.33402
"40424",563.54297,80.18677,91.193214
"40425",563.5563,80.08911,91.101395
"40426",563.5696,80.03296,91.04803
"40427",563.5829,79.9939,91.009995
"40428",563.5962,79.95239,90.9683
"40429",563.6095,79.888916,90.903336
"40430",563.6228,79.79614,90.80709
"40431",563.6361,79.66918,90.67376
"40432",563.6494,79.51293,90.50717
"40433",563.6627,79.33715,90.31617
"40434",563.676,79.149155,90.10746
"40435",563.68933,78.96117,89.89288
"40436",563.70264,78.78294,89.6822
"40437",563.71594,78.61448,89.4757
"40438",563.72925,78.467995,89.28592
"40439",563.74255,78.348366,89.118416
"40440",563.75586,78.25315,88.97159
"40441",563.76917,78.18234,88.84619
"40442",563.7825,78.135956,88.743004
"40443",563.7958,78.10666,88.65546
"40444",563.8091,78.08713,88.57676
"40445",563.8224,78.0798,88.50966
"40446",563.8357,78.0798,88.44965
"40447",563.849,78.08957,88.399414
"40448",563.8623,78.09689,88.34704
"40449",563.8756,78.10422,88.29489
"40450",563.8889,78.099335,88.23077
"40451",563.9022,78.07736,88.1494
"40452",563.9155,78.0383,88.050255
"40453",563.92883,77.99924,87.94989
"40454",563.94214,78.00656,87.89469
"40455",563.95544,78.14328,87.96912
"40456",563.96875,78.519264,88.28708
"40457",563.98206,79.19554,88.91708
"40458",563.99536,80.15015,89.84655
"40459",564.00867,81.26833,90.96943
"40460",564.022,82.374306,92.115036
"40461",564.0353,83.27276,93.087685
"40462",564.0486,83.83429,93.75149
"40463",564.0619,84.03204,94.06906
"40464",564.0752,83.92706,94.09008
"40465",564.0885,83.61944,93.905174
"40466",564.1018,83.211716,93.61056
"40467",564.1151,82.78447,93.283676
"40468",564.1284,82.39872,92.98494
"40469",564.1417,82.07156,92.73274
"40470",564.155,81.80789,92.533806
"40471",564.16833,81.58083,92.36324
"40472",564.18164,81.36599,92.1978
"40473",564.19495,81.13893,92.01343
"40474",564.20825,80.88991,91.799995
"40475",564.22156,80.635994,91.57389
"40476",564.23486,80.396736,91.35451
"40477",564.24817,80.198975,91.16914
"40478",564.2615,80.05249,91.02888
"40479",564.2748,79.957275,90.9353
"40480",564.2881,79.89624,90.87293
"40481",564.3014,79.84741,90.82086
"40482",564.3147,79.79614,90.764824
"40483",564.328,79.727776,90.69009
"40484",564.3413,79.63012,90.58392
"40485",564.3546,79.500725,90.44297
"40486",564.3679,79.34692,90.27356
"40487",564.3812,79.17601,90.082245
"40488",564.39453,78.995346,89.87583
"40489",564.40784,78.81468,89.66377
"40490",564.42114,78.64622,89.45827
"40491",564.43445,78.49241,89.26215
"40492",564.44775,78.35813,89.080765
"40493",564.46106,78.24582,88.917145
"40494",564.47437,78.15793,88.77444
"40495",564.4877,78.09201,88.650955
"40496",564.501,78.04318,88.5425
"40497",564.5143,78.00656,88.44473
"40498",564.5276,77.98459,88.360466
"40499",564.5409,77.96994,88.28284
"40500",564.5542,77.962616,88.212074
"40501",564.5675,77.960175,88.145966
"40502",564.5808,77.9675,88.08955
"40503",564.5941,77.98459,88.04312
"40504",564.6074,78.009,88.004555
"40505",564.6207,78.030975,87.96431
"40506",564.63403,78.048065,87.91987
"40507",564.64734,78.05539,87.866196
"40508",564.66064,78.0798,87.82984
"40509",564.67395,78.20187,87.89191
"40510",564.68726,78.53147,88.16531
"40511",564.70056,79.15404,88.74199
"40512",564.71387,80.076904,89.63842
"40513",564.7272,81.214615,90.778534
"40514",564.7405,82.39628,91.99815
"40515",564.7538,83.41192,93.08868
"40516",564.7671,84.102844,93.88622
"40517",564.7804,84.40559,94.31718
"40518",564.7937,84.368965,94.41823
"40519",564.807,84.088196,94.27399
"40520",564.8203,83.67803,93.99158
"40521",564.8336,83.245895,93.67438
"40522",564.8469,82.86015,93.39007
"40523",564.8602,82.55009,93.16938
"40524",564.87354,82.31571,93.014694
"40525",564.88684,82.13992,92.91127
"40526",564.90015,81.98367,92.82189
"40527",564.91345,81.815216,92.71542
"40528",564.92676,81.60769,92.56462
"40529",564.94006,81.358665,92.36584
"40530",564.95337,81.0901,92.13973
"40531",564.9667,80.82643,91.910126
"40532",564.98,80.59693,91.70645
"40533",564.9933,80.42115,91.549324
"40534",565.0066,80.289314,91.43065
"40535",565.0199,80.19653,91.34691
"40536",565.0332,80.11841,91.274925
"40537",565.0465,80.04028,91.2005
"40538",565.0598,79.94263,91.1041
"40539",565.0731,79.82544,90.98512
"40540",565.0864,79.68383,90.83806
"40541",565.09973,79.5227,90.667046
"40542",565.11304,79.34936,90.47879
"40543",565.12634,79.17113,90.28023
"40544",565.13965,79.00267,90.08587
"40545",565.15295,78.84398,89.89601
"40546",565.16626,78.69993,89.715836
"40547",565.17957,78.572975,89.548256
"40548",565.1929,78.46555,89.39624
"40549",565.2062,78.37278,89.255516
"40550",565.2195,78.30198,89.133865
"40551",565.2328,78.25559,89.03442
"40552",565.2461,78.22629,88.9506
"40553",565.2594,78.21896,88.88785
"40554",565.2727,78.22385,88.837074
"40555",565.286,78.23361,88.791336
"40556",565.2993,78.24338,88.7459
"40557",565.3126,78.24582,88.69345
"40558",565.3259,78.238495,88.63131
"40559",565.33923,78.21896,88.55673
"40560",565.35254,78.20676,88.48887
"40561",565.36584,78.24582,88.47189
"40562",565.37915,78.42405,88.59531
"40563",565.39246,78.84398,88.96599
"40564",565.40576,79.5642,89.650085
"40565",565.41907,80.55543,90.62769
"40566",565.4324,81.69558,91.7852
"40567",565.4457,82.794235,92.936844
"40568",565.459,83.65606,93.88599
"40569",565.4723,84.15167,94.49585
"40570",565.4856,84.26887,94.74278
"40571",565.4989,84.08087,94.68819
"40572",565.5122,83.702446,94.43729
"40573",565.5255,83.250786,94.101326
"40574",565.5388,82.81377,93.76589
"40575",565.5521,82.43534,93.475395
"40576",565.5654,82.1326,93.24876
"40577",565.57874,81.89578,93.07858
"40578",565.59204,81.70046,92.942505
"40579",565.60535,81.514915,92.8101
"40580",565.61865,81.3196,92.662125
"40581",565.63196,81.112076,92.495834
"40582",565.64526,80.902115,92.320625
"40583",565.65857,80.706795,92.153496
"40584",565.6719,80.54322,92.01201
"40585",565.6852,80.41871,91.90447
"40586",565.6985,80.32105,91.8199
"40587",565.7118,80.24048,91.74936
"40588",565.7251,80.15991,91.67631
"40589",565.7384,80.07202,91.593414
"40590",565.7517,79.96704,91.490685
"40591",565.765,79.84741,91.370026
"40592",565.7783,79.71313,91.23097
"40593",565.7916,79.569084,91.077965
"40594",565.80493,79.412834,90.90825
"40595",565.81824,79.25414,90.73121
"40596",565.83154,79.093,90.54676
"40597",565.84485,78.94652,90.37193
"40598",565.85815,78.8098,90.20229
"40599",565.87146,78.692604,90.047905
"40600",565.88477,78.590065,89.90451
"40601",565.8981,78.51194,89.782326
"40602",565.9114,78.44602,89.66991
"40603",565.9247,78.39475,89.570076
"40604",565.938,78.35813,89.48329
"40605",565.9513,78.33372,89.40757
"40606",565.9646,78.314186,89.33597
"40607",565.9779,78.30442,89.27352
"40608",565.9912,78.29221,89.20833
"40609",566.0045,78.27512,89.13787
"40610",566.0178,78.25071,89.059555
"40611",566.0311,78.23117,88.98535
"40612",566.04443,78.25071,88.949615
"40613",566.05774,78.39231,89.03655
"40614",566.07104,78.74876,89.34276
"40615",566.08435,79.38598,89.94088
"40616",566.09766,80.2942,90.82991
"40617",566.11096,81.36355,91.908455
"40618",566.12427,82.41825,93.00577
"40619",566.1376,83.26299,93.92608
"40620",566.1509,83.758606,94.52366
"40621",566.1642,83.86847,94.75098
"40622",566.1775,83.65118,94.65457
"40623",566.1908,83.2166,94.33409
"40624",566.2041,82.68925,93.90726
"40625",566.2174,82.16922,93.47127
"40626",566.2307,81.722435,93.09227
"40627",566.244,81.36111,92.78477
"40628",566.2573,81.0901,92.5563
"40629",566.2706,80.88014,92.3804
"40630",566.28394,80.70191,92.229675
"40631",566.29724,80.533455,92.08315
"40632",566.31055,80.37476,91.94113
"40633",566.32385,80.235596,91.813675
"40634",566.33716,80.128174,91.713615
"40635",566.35046,80.062256,91.6517
"40636",566.3638,80.028076,91.61947
"40637",566.3771,80.01099,91.60326
"40638",566.3904,79.9939,91.58651
"40639",566.4037,79.957275,91.5497
"40640",566.417,79.89136,91.482445
"40641",566.4303,79.78882,91.37651
"40642",566.4436,79.65453,91.23563
"40643",566.4569,79.49584,91.06614
"40644",566.4702,79.32983,90.88437
"40645",566.4835,79.1638,90.6974
"40646",566.4968,79.009995,90.51746
"40647",566.51013,78.873276,90.34981
"40648",566.52344,78.75365,90.19497
"40649",566.53674,78.65354,90.055916
"40650",566.55005,78.56809,89.92839
"40651",566.56335,78.49729,89.81284
"40652",566.57666,78.43626,89.70485
"40653",566.58997,78.38499,89.60471
"40654",566.6033,78.34104,89.5103
"40655",566.6166,78.30198,89.419395
"40656",566.6299,78.27268,89.337036
"40657",566.6432,78.24826,89.25864
"40658",566.6565,78.22385,89.17948
"40659",566.6698,78.19943,89.09956
"40660",566.6831,78.18234,89.02621
"40661",566.6964,78.21896,89.00603
"40662",566.7097,78.397194,89.1286
"40663",566.723,78.802475,89.483795
"40664",566.7363,79.483635,90.12753
"40665",566.74963,80.39185,91.019615
"40666",566.76294,81.40505,92.04506
"40667",566.77625,82.337685,93.0216
"40668",566.78955,83.0164,93.77337
"40669",566.80286,83.346,94.19723
"40670",566.81616,83.319145,94.27493
"40671",566.82947,83.01396,94.07347
"40672",566.8428,82.53788,93.691574
"40673",566.8561,82.00076,93.233765
"40674",566.8694,81.48318,92.7787
"40675",566.8827,81.03639,92.378265
"40676",566.896,80.6775,92.05176
"40677",566.9093,80.40162,91.79705
"40678",566.9226,80.19409,91.60207
"40679",566.9359,80.0354,91.44945
"40680",566.9492,79.91821,91.33337
"40681",566.9625,79.84253,91.25513
"40682",566.9758,79.80591,91.213585
"40683",566.98914,79.80591,91.20752
"40684",567.00244,79.83765,91.23319
"40685",567.01575,79.87915,91.26962
"40686",567.02905,79.906006,91.2927
"40687",567.04236,79.90845,91.292206
"40688",567.05566,79.871826,91.25272
"40689",567.069,79.798584,91.175476
"40690",567.0823,79.68627,91.05687
"40691",567.0956,79.551994,90.91279
"40692",567.1089,79.40307,90.74986
"40693",567.1222,79.24437,90.57251
"40694",567.1355,79.08812,90.39265
"40695",567.1488,78.94896,90.22499
"40696",567.1621,78.82689,90.070076
"40697",567.1754,78.7219,89.92843
"40698",567.1887,78.63889,89.80548
"40699",567.202,78.57542,89.69947
"40700",567.21533,78.52415,89.60368
"40701",567.22864,78.485085,89.5185
"40702",567.24194,78.46067,89.44675
"40703",567.25525,78.44114,89.37911
"40704",567.26855,78.42649,89.31575
"40705",567.28186,78.41184,89.25193
"40706",567.29517,78.40452,89.19498
"40707",567.3085,78.42893,89.16953
"40708",567.3218,78.55833,89.24983
"40709",567.3351,78.8806,89.527054
"40710",567.3484,79.45434,90.06581
"40711",567.3617,80.272224,90.866646
"40712",567.375,81.23903,91.84196
"40713",567.3883,82.196075,92.83772
"40714",567.4016,82.95537,93.66564
"40715",567.4149,83.39483,94.19746
"40716",567.4282,83.47295,94.38167
"40717",567.4415,83.245895,94.26314
"40718",567.45483,82.80888,93.92756
"40719",567.46814,82.27665,93.4831
"40720",567.48145,81.739525,93.01712
"40721",567.49475,81.25857,92.59052
"40722",567.50806,80.86305,92.23434
"40723",567.52136,80.552986,91.95124
"40724",567.53467,80.31861,91.734146
"40725",567.548,80.14526,91.570755
"40726",567.5613,80.02319,91.453224
"40727",567.5746,79.94507,91.375824
"40728",567.5879,79.91821,91.34725
"40729",567.6012,79.93286,91.359344
"40730",567.6145,79.98169,91.406075
"40731",567.6278,80.03296,91.45677
"40732",567.6411,80.06714,91.49198
"40733",567.6544,80.059814,91.486755
"40734",567.6677,80.0061,91.43491
"40735",567.681,79.906006,91.33501
"40736",567.69434,79.77173,91.19779
"40737",567.70764,79.61547,91.0344
"40738",567.72095,79.4519,90.85881
"40739",567.73425,79.28588,90.67567
"40740",567.74756,79.12474,90.49221
"40741",567.76086,78.97093,90.31105
"40742",567.7742,78.839096,90.14706
"40743",567.7875,78.7219,89.99358
"40744",567.8008,78.62913,89.86087
"40745",567.8141,78.551,89.73991
"40746",567.8274,78.49485,89.63847
"40747",567.8407,78.44846,89.54505
"40748",567.854,78.40452,89.45262
"40749",567.8673,78.35813,89.35638
"40750",567.8806,78.31663,89.263565
"40751",567.8939,78.3093,89.203636
"40752",567.9072,78.39231,89.23381
"40753",567.92053,78.65354,89.4448
"40754",567.93384,79.15892,89.908104
"40755",567.94714,79.91577,90.63867
"40756",567.96045,80.84108,91.56135
"40757",567.97375,81.78348,92.53003
"40758",567.98706,82.564735,93.36702
"40759",568.00037,83.0457,93.92813
"40760",568.0137,83.175095,94.1527
"40761",568.027,82.98222,94.05905
"40762",568.0403,82.564735,93.73476
"40763",568.0536,82.03494,93.28511
"40764",568.0669,81.4905,92.80426
"40765",568.0802,81.00221,92.36255
"40766",568.0935,80.601814,91.99347
"40767",568.1068,80.2942,91.70466
"40768",568.1201,80.06714,91.48679
"40769",568.1334,79.89868,91.320435
"40770",568.1467,79.77417,91.19276
"40771",568.16003,79.69604,91.10757
"40772",568.17334,79.6643,91.06633
"40773",568.18665,79.67895,91.07049
"40774",568.19995,79.727776,91.10928
"40775",568.21326,79.79126,91.16426
"40776",568.22656,79.83765,91.204124
"40777",568.23987,79.85474,91.21614
"40778",568.2532,79.823,91.17986
"40779",568.2665,79.7522,91.10353
"40780",568.2798,79.64233,90.985916
"40781",568.2931,79.50561,90.83802
"40782",568.3064,79.35424,90.6712
"40783",568.3197,79.19554,90.492325
"40784",568.333,79.044174,90.31582
"40785",568.3463,78.9099,90.15167
"40786",568.3596,78.79027,89.99798
"40787",568.3729,78.695045,89.86495
"40788",568.3862,78.61692,89.74605
"40789",568.39954,78.54612,89.63203
"40790",568.41284,78.485085,89.52556
"40791",568.42615,78.42893,89.422066
"40792",568.43945,78.38499,89.329025
"40793",568.45276,78.37766,89.27123
"40794",568.46606,78.470436,89.31331
"40795",568.4794,78.74143,89.53651
"40796",568.4927,79.2517,90.00745
"40797",568.506,79.9939,90.72626
"40798",568.5193,80.89479,91.62696
"40799",568.5326,81.79813,92.55826
"40800",568.5459,82.528114,93.34444
"40801",568.5592,82.95537,93.85069
"40802",568.5725,83.04082,94.028496
"40803",568.5858,82.82597,93.908676
"40804",568.5991,82.406044,93.57706
"40805",568.6124,81.898224,93.144424
"40806",568.62573,81.3904,92.69592
"40807",568.63904,80.9485,92.29747
"40808",568.65234,80.587166,91.965775
"40809",568.66565,80.31129,91.708244
"40810",568.67896,80.10132,91.508
"40811",568.69226,79.94263,91.35248
"40812",568.70557,79.82788,91.23594
"40813",568.7189,79.75708,91.15976
"40814",568.7322,79.727776,91.12286
"40815",568.7455,79.73754,91.12412
"40816",568.7588,79.77905,91.15743
"40817",568.7721,79.82056,91.19203
"40818",568.7854,79.84985,91.21572
"40819",568.7987,79.84985,91.21103
"40820",568.812,79.81079,91.167274
"40821",568.8253,79.73022,91.08079
"40822",568.8386,79.61547,90.95761
"40823",568.8519,79.48119,90.81132
"40824",568.86523,79.34203,90.655945
"40825",568.87854,79.202866,90.496216
"40826",568.89185,79.07591,90.34435
"40827",568.90515,78.958725,90.19829
"40828",568.91846,78.85863,90.06565
"40829",568.93176,78.765854,89.93721
"40830",568.94507,78.69016,89.82295
"40831",568.9584,78.624245,89.7161
"40832",568.9717,78.56809,89.61696
"40833",568.985,78.52903,89.53315
"40834",568.9983,78.53391,89.492065
"40835",569.0116,78.65354,89.56588
"40836",569.0249,78.97337,89.843636
"40837",569.0382,79.537346,90.37553
"40838",569.0515,80.323494,91.14722
"40839",569.0648,81.22194,92.05577
"40840",569.0781,82.06424,92.93626
"40841",569.09143,82.69169,93.62821
"40842",569.10474,82.98955,94.010185
"40843",569.11804,82.95537,94.06943
"40844",569.13135,82.65751,93.86392
"40845",569.14465,82.20096,93.49042
"40846",569.15796,81.69558,93.05382
"40847",569.17126,81.2195,92.63072
"40848",569.1846,80.816666,92.266
"40849",569.1979,80.499275,91.97413
"40850",569.2112,80.25025,91.74071
"40851",569.2245,80.04761,91.54588
"40852",569.2378,79.88403,91.3838
"40853",569.2511,79.7522,91.24834
"40854",569.2644,79.65453,91.14293
"40855",569.2777,79.605705,91.083305
"40856",569.291,79.59594,91.06122
"40857",569.3043,79.61791,91.070564
"40858",569.3176,79.64477,91.08548
"40859",569.33093,79.66186,91.09147
"40860",569.34424,79.64721,91.06625
"40861",569.35754,79.59594,91.00396
"40862",569.37085,79.51049,90.90588
"40863",569.38416,79.40063,90.78072
"40864",569.39746,79.273674,90.63504
"40865",569.41077,79.14183,90.4805
"40866",569.4241,79.00511,90.31696
"40867",569.4374,78.870834,90.151596
"40868",569.4507,78.746315,89.99179
"40869",569.464,78.63157,89.83787
"40870",569.4773,78.53147,89.69501
"40871",569.4906,78.45335,89.57099
"40872",569.5039,78.38987,89.45918
"40873",569.5172,78.34348,89.36248
"40874",569.5305,78.3386,89.30583
"40875",569.5438,78.4387,89.35401
"40876",569.5571,78.72434,89.590866
"40877",569.57043,79.259026,90.085686
"40878",569.58374,80.0354,90.838905
"40879",569.59705,80.96071,91.76532
"40880",569.61035,81.881134,92.71577
"40881",569.62366,82.61845,93.51186
"40882",569.63696,83.0457,94.02094
"40883",569.65027,83.12627,94.196686
"40884",569.6636,82.916306,94.08442
"40885",569.6769,82.51835,93.777596
"40886",569.6902,82.04471,93.38265
"40887",569.7035,81.58083,92.98267
"40888",569.7168,81.17799,92.629234
"40889",569.7301,80.848404,92.33646
"40890",569.7434,80.58228,92.09685
"40891",569.7567,80.365,91.89776
"40892",569.77,80.18677,91.730934
"40893",569.7833,80.03784,91.587845
"40894",569.79663,79.92798,91.479164
"40895",569.80994,79.8645,91.41344
"40896",569.82324,79.84985,91.394554
"40897",569.83655,79.87427,91.414276
"40898",569.84985,79.91577,91.45185
"40899",569.86316,79.94751,91.48096
"40900",569.87646,79.95239,91.4842
"40901",569.8898,79.91089,91.44121
"40902",569.9031,79.82544,91.352974
"40903",569.9164,79.7058,91.22788
"40904",569.9297,79.56176,91.074646
"40905",569.943,79.40795,90.90714
"40906",569.9563,79.2517,90.73239
"40907",569.9696,79.10033,90.55763
"40908",569.9829,78.96605,90.39524
"40909",569.9962,78.84642,90.2433
"40910",570.0095,78.74387,90.104706
"40911",570.0228,78.65354,89.97512
"40912",570.03613,78.57053,89.85004
"40913",570.04944,78.49973,89.734566
"40914",570.06274,78.48264,89.67059
"40915",570.07605,78.59495,89.73548
"40916",570.08936,78.91966,90.01629
"40917",570.10266,79.500725,90.56359
"40918",570.11597,80.308846,91.35611
"40919",570.1293,81.22682,92.28374
"40920",570.1426,82.08133,93.17658
"40921",570.1559,82.70634,93.86663
"40922",570.1692,82.99931,94.24418
"40923",570.1825,82.96025,94.29884
"40924",570.1958,82.66239,94.09349
"40925",570.2091,82.22049,93.73479
"40926",570.2224,81.739525,93.32321
"40927",570.2357,81.30007,92.93812
"40928",570.249,80.92653,92.6052
"40929",570.2623,80.62623,92.333855
"40930",570.27563,80.37476,92.10196
"40931",570.28894,80.15991,91.89882
"40932",570.30225,79.974365,91.71827
"40933",570.31555,79.83276,91.57587
"40934",570.32886,79.742424,91.4803
"40935",570.34216,79.71557,91.4454
"40936",570.35547,79.744865,91.465805
"40937",570.3688,79.81079,91.52376
"40938",570.3821,79.88159,91.588646
"40939",570.3954,79.923096,91.62645
"40940",570.4087,79.923096,91.62405
"40941",570.422,79.87427,91.572815
"40942",570.4353,79.77661,91.47123
"40943",570.4486,79.639885,91.32752
"40944",570.4619,79.47875,91.155136
"40945",570.4752,79.310295,90.97039
"40946",570.4885,79.14671,90.785255
"40947",570.50183,78.995346,90.60722
"40948",570.51514,78.86351,90.44399
"40949",570.52844,78.75365,90.298615
"40950",570.54175,78.66331,90.16933
"40951",570.55505,78.58518,90.04943
"40952",570.56836,78.52659,89.946625
"40953",570.58167,78.52903,89.90302
"40954",570.595,78.66819,89.996216
"40955",570.6083,79.029526,90.31593
"40956",570.6216,79.66186,90.91794
"40957",570.6349,80.54322,91.788734
"40958",570.6482,81.54421,92.8067
"40959",570.6615,82.48905,93.7998
"40960",570.6748,83.20439,94.59292
"40961",570.6881,83.58282,95.07148
"40962",570.7014,83.617,95.21762
"40963",570.7147,83.38262,95.096275
"40964",570.728,82.98711,94.806465
"40965",570.74133,82.53788,94.450584
"40966",570.75464,82.12039,94.112404
"40967",570.76794,81.76883,93.8271
"40968",570.78125,81.48318,93.596725
"40969",570.79456,81.24391,93.40381
"40970",570.80786,81.024185,93.22295
"40971",570.82117,80.80934,93.040115
"40972",570.8345,80.59205,92.848114
"40973",570.8478,80.39185,92.66642
"40974",570.8611,80.23804,92.52485
"40975",570.8744,80.14282,92.43707
"40976",570.8877,80.10132,92.40003
"40977",570.901,80.10132,92.4032
"40978",570.9143,80.11597,92.42101
"40979",570.9276,80.11597,92.42464
"40980",570.9409,80.08423,92.39652
"40981",570.9542,80.008545,92.32347
"40982",570.9675,79.888916,92.20411
"40983",570.98083,79.73022,92.04194
"40984",570.99414,79.54711,91.8504
"40985",571.00745,79.35668,91.64582
"40986",571.02075,79.168686,91.43772
"40987",571.03406,79.00023,91.243286
"40988",571.04736,78.8513,91.06312
"40989",571.06067,78.71946,90.89538
"40990",571.074,78.60227,90.738174
"40991",571.0873,78.51194,90.604164
"40992",571.1006,78.48264,90.528366
"40993",571.1139,78.58518,90.58349
"40994",571.1272,78.91234,90.86643
"40995",571.1405,79.517815,91.43792
"40996",571.1538,80.37965,92.28468
"40997",571.1671,81.38552,93.30242
"40998",571.1804,82.36698,94.32718
"40999",571.1937,83.15068,95.184845
"41000",571.20703,83.617,95.74962
"41001",571.22034,83.74883,95.994484
"41002",571.23364,83.60967,95.97247
"41003",571.24695,83.29717,95.77277
"41004",571.26025,82.916306,95.49494
"41005",571.27356,82.54032,95.21009
"41006",571.28687,82.213165,94.96232
"41007",571.3002,81.92996,94.748276
"41008",571.3135,81.68093,94.559555
"41009",571.3268,81.43191,94.36306
"41010",571.3401,81.16823,94.14413
"41011",571.3534,80.885025,93.89743
"41012",571.3667,80.60914,93.6492
"41013",571.38,80.37232,93.43142
"41014",571.3933,80.201416,93.27215
"41015",571.4066,80.1062,93.18323
"41016",571.4199,80.076904,93.15725
"41017",571.4332,80.076904,93.15965
"41018",571.44653,80.07446,93.159615
"41019",571.45984,80.045166,93.132645
"41020",571.47314,79.974365,93.063255
"41021",571.48645,79.852295,92.940384
"41022",571.49976,79.68871,92.77219
"41023",571.51306,79.49584,92.56959
"41024",571.52637,79.290764,92.348755
"41025",571.5397,79.08812,92.12395
"41026",571.553,78.90013,91.90746
"41027",571.5663,78.73411,91.70707
"41028",571.5796,78.58762,91.52103
"41029",571.5929,78.450905,91.34017
"41030",571.6062,78.331276,91.172134
"41031",571.6195,78.25559,91.044304
"41032",571.6328,78.29221,91.02641
"41033",571.6461,78.53147,91.2123
"41034",571.6594,79.05394,91.68888
"41035",571.6727,79.869385,92.47476
"41036",571.68604,80.885025,93.48632
"41037",571.69934,81.94949,94.578445
"41038",571.71265,82.8748,95.564674
"41039",571.72595,83.51202,96.291725
"41040",571.73926,83.807434,96.69689
"41041",571.75256,83.79767,96.80611
"41042",571.76587,83.580376,96.70749
"41043",571.7792,83.25567,96.49467
"41044",571.7925,82.913864,96.2546
"41045",571.8058,82.60624,96.03803
"41046",571.8191,82.340126,95.85336
"41047",571.8324,82.09598,95.68234
"41048",571.8457,81.83719,95.48905
"41049",571.859,81.53445,95.24372
"41050",571.8723,81.18532,94.94254
"41051",571.8856,80.81178,94.60605
"41052",571.8989,80.45533,94.27496
"41053",571.91223,80.16235,93.996216
"41054",571.92554,79.954834,93.79377
"41055",571.93884,79.83276,93.67029
"41056",571.95215,79.77417,93.60647
"41057",571.96545,79.742424,93.567665
"41058",571.97876,79.70092,93.51811
"41059",571.99207,79.62768,93.435524
"41060",572.0054,79.50805,93.30426
"41061",572.0187,79.34203,93.12287
"41062",572.032,79.13695,92.897224
"41063",572.0453,78.91234,92.645645
"41064",572.0586,78.68528,92.3846
"41065",572.0719,78.470436,92.12867
"41066",572.0852,78.27512,91.88556
"41067",572.0985,78.10666,91.66319
"41068",572.1118,77.96506,91.462425
"41069",572.1251,77.840546,91.27432
"41070",572.1384,77.730675,91.09697
"41071",572.15173,77.63546,90.93084
"41072",572.16504,77.58175,90.80324
"41073",572.17834,77.642784,90.788704
"41074",572.19165,77.92111,90.99337
"41075",572.20496,78.504616,91.51191
"41076",572.21826,79.398186,92.35875
"41077",572.23157,80.51881,93.46056
"41078",572.2449,81.69314,94.65111
"41079",572.2582,82.72831,95.73919
"41080",572.2715,83.46075,96.556885
"41081",572.2848,83.824524,97.02881
"41082",572.2981,83.8587,97.1825
"41083",572.3114,83.67071,97.11509
"41084",572.3247,83.36797,96.92706
"41085",572.338,83.04814,96.71248
"41086",572.3513,82.76738,96.52697
"41087",572.3646,82.53544,96.38151
"41088",572.3779,82.33036,96.25566
"41089",572.39124,82.10574,96.10387
"41090",572.40454,81.815216,95.87914
"41091",572.41785,81.446556,95.56721
"41092",572.43115,81.00954,95.17539
"41093",572.44446,80.552986,94.75039
"41094",572.45776,80.14038,94.355064
"41095",572.47107,79.82544,94.04451
"41096",572.4844,79.62524,93.83885
"41097",572.4977,79.520256,93.72216
"41098",572.511,79.47631,93.66322
"41099",572.5243,79.43725,93.607796
"41100",572.5376,79.36889,93.52185
"41101",572.5509,79.2517,93.38494
"41102",572.5642,79.078354,93.18821
"41103",572.5775,78.86839,92.94945
"41104",572.5908,78.63401,92.6797
"41105",572.6041,78.397194,92.4002
"41106",572.61743,78.17502,92.12794
"41107",572.63074,77.98215,91.87804
"41108",572.64404,77.821014,91.65385
"41109",572.65735,77.69405,91.45879
"41110",572.67065,77.60616,91.29884
"41111",572.68396,77.54513,91.163
"41112",572.69727,77.503624,91.044785
"41113",572.7106,77.47677,90.93992
"41114",572.7239,77.44747,90.83177
"41115",572.7372,77.41085,90.715385
"41116",572.7505,77.36202,90.58565
"41117",572.7638,77.32296,90.46415
"41118",572.7771,77.35714,90.41467
"41119",572.7904,77.576866,90.55181
"41120",572.8037,78.08469,90.98391
"41121",572.817,78.91966,91.75903
"41122",572.8303,80.025635,92.831245
"41123",572.8436,81.23903,94.04544
"41124",572.85693,82.34989,95.19502
"41125",572.87024,83.177536,96.0961
"41126",572.88354,83.631645,96.649506
"41127",572.89685,83.734184,96.86553
"41128",572.91016,83.580376,96.828415
"41129",572.92346,83.29473,96.654655
"41130",572.93677,82.9749,96.43778
"41131",572.9501,82.67948,96.23533
"41132",572.9634,82.43046,96.07004
"41133",572.9767,82.213165,95.928696
"41134",572.99,81.986115,95.770805
"41135",573.0033,81.71755,95.56431
"41136",573.0166,81.373314,95.27374
"41137",573.0299,80.953384,94.89673
"41138",573.0432,80.48707,94.460205
"41139",573.0565,80.02319,94.01155
"41140",573.0698,79.61791,93.606995
"41141",573.0831,79.30785,93.284996
"41142",573.09644,79.10765,93.06316
"41143",573.10974,78.995346,92.92297
"41144",573.12305,78.93675,92.832985
"41145",573.13635,78.887924,92.75093
"41146",573.14966,78.81712,92.64538
"41147",573.16296,78.70481,92.4961
"41148",573.1763,78.54612,92.296936
"41149",573.1896,78.35569,92.06107
"41150",573.2029,78.14328,91.79728
"41151",573.2162,77.93088,91.526855
"41152",573.2295,77.730675,91.26199
"41153",573.2428,77.55245,91.012856
"41154",573.2561,77.39376,90.77768
"41155",573.2694,77.261925,90.5644
"41156",573.2827,77.14473,90.36164
"41157",573.296,77.04219,90.169876
"41158",573.3093,76.9543,89.989555
"41159",573.32263,76.88106,89.82114
"41160",573.33594,76.81758,89.660194
"41161",573.34924,76.76875,89.51192
"41162",573.36255,76.734566,89.376755
"41163",573.37585,76.715034,89.25518
"41164",573.38916,76.700386,89.13788
"41165",573.40247,76.6833,89.01768
"41166",573.4158,76.65888,88.88962
"41167",573.4291,76.61982,88.74615
"41168",573.4424,76.58564,88.60634
"41169",573.4557,76.60273,88.51673
"41170",573.469,76.77852,88.58636
"41171",573.4823,77.22774,88.934906
"41172",573.4956,78.02121,89.64175
"41173",573.5089,79.132065,90.690765
"41174",573.5222,80.42359,91.95517
"41175",573.5355,81.68093,93.225746
"41176",573.5488,82.68925,94.28659
"41177",573.56213,83.32403,95.00541
"41178",573.57544,83.56817,95.353424
"41179",573.58875,83.509575,95.406334
"41180",573.60205,83.284966,95.2914
"41181",573.61536,82.99931,95.1084
"41182",573.62866,82.735634,94.938446
"41183",573.64197,82.51835,94.80665
"41184",573.6553,82.34745,94.71445
"41185",573.6686,82.18875,94.629105
"41186",573.6819,81.99832,94.50707
"41187",573.6952,81.73708,94.30828
"41188",573.7085,81.392845,94.018326
"41189",573.7218,80.972916,93.64192
"41190",573.7351,80.51881,93.218216
"41191",573.7484,80.08667,92.80229
"41192",573.7617,79.73022,92.44855
"41193",573.775,79.47143,92.18133
"41194",573.7883,79.31518,92.00856
"41195",573.80164,79.23216,91.904144
"41196",573.81494,79.18089,91.82888
"41197",573.82825,79.12474,91.74713
"41198",573.84155,79.04173,91.63677
"41199",573.85486,78.91478,91.47987
"41200",573.86816,78.746315,91.2775
"41201",573.8815,78.54856,91.040565
"41202",573.8948,78.33372,90.780365
"41203",573.9081,78.118866,90.51344
"41204",573.9214,77.91379,90.24958
"41205",573.9347,77.72579,89.99639
"41206",573.948,77.56222,89.76175
"41207",573.9613,77.4255,89.54885
"41208",573.9746,77.30831,89.35121
"41209",573.9879,77.21309,89.171875
"41210",574.0012,77.137405,89.0091
"41211",574.0145,77.07637,88.85861
"41212",574.02783,77.02754,88.71842
"41213",574.04114,76.98848,88.58647
"41214",574.05444,76.9543,88.45818
"41215",574.06775,76.93233,88.341034
"41216",574.08105,76.92256,88.235405
"41217",574.09436,76.92256,88.13924
"41218",574.10767,76.93233,88.05283
"41219",574.121,76.95186,87.9765
"41220",574.1343,76.97139,87.90078
"41221",574.1476,76.981155,87.8159
"41222",574.1609,76.978714,87.719124
"41223",574.1742,76.961624,87.60762
"41224",574.1875,76.93721,87.48826
"41225",574.2008,76.93965,87.39499
"41226",574.2141,77.051956,87.41166
"41227",574.2274,77.39132,87.6589
"41228",574.2407,78.048065,88.23412
"41229",574.254,79.03929,89.16435
"41230",574.26733,80.2649,90.35994
"41231",574.28064,81.54177,91.64509
"41232",574.29395,82.65507,92.806564
"41233",574.30725,83.438774,93.67324
"41234",574.32056,83.82941,94.17133
"41235",574.33386,83.88312,94.34471
"41236",574.34717,83.719536,94.302475
"41237",574.3605,83.45342,94.152596
"41238",574.3738,83.18242,93.98951
"41239",574.3871,82.95781,93.86435
"41240",574.4004,82.78691,93.78588
"41241",574.4137,82.64774,93.7338
"41242",574.427,82.50126,93.67006
"41243",574.4403,82.303505,93.55047
"41244",574.4536,82.03006,93.34901
"41245",574.4669,81.68337,93.06576
"41246",574.4802,81.28054,92.71553
"41247",574.4935,80.86549,92.3405
"41248",574.50684,80.49439,91.996445
"41249",574.52014,80.201416,91.71892
"41250",574.53345,79.99634,91.520134
"41251",574.54675,79.87915,91.40283
"41252",574.56006,79.815674,91.33558
"41253",574.57336,79.764404,91.27855
"41254",574.5867,79.69604,91.20282
"41255",574.6,79.5935,91.09078
"41256",574.6133,79.449455,90.93404
"41257",574.6266,79.273674,90.74105
"41258",574.6399,79.078354,90.52303
"41259",574.6532,78.87572,90.291595
"41260",574.6665,78.6804,90.06114
"41261",574.6798,78.49485,89.83436
"41262",574.6931,78.32395,89.616425
"41263",574.7064,78.17258,89.412674
"41264",574.7197,78.04074,89.22373
"41265",574.73303,77.92355,89.04532
"41266",574.74634,77.8259,88.882774
"41267",574.75964,77.75021,88.73915
"41268",574.77295,77.69161,88.610245
"41269",574.78625,77.65011,88.496605
"41270",574.79956,77.62325,88.39632
"41271",574.81287,77.60372,88.30251
"41272",574.8262,77.591515,88.21542
"41273",574.8395,77.58419,88.132835
"41274",574.8528,77.574425,88.04758
"41275",574.8661,77.56954,87.966896
"41276",574.8794,77.56222,87.88362
"41277",574.8927,77.56222,87.80744
"41278",574.906,77.56222,87.73126
"41279",574.9193,77.56222,87.65508
"41280",574.9326,77.557335,87.57402
"41281",574.9459,77.55001,87.490364
"41282",574.9592,77.53536,87.399155
"41283",574.97253,77.557335,87.34411
"41284",574.98584,77.696495,87.40694
"41285",574.99915,78.07004,87.708496
"41286",575.01245,78.75853,88.33668
"41287",575.02576,79.7522,89.29155
"41288",575.03906,80.94362,90.47523
"41289",575.05237,82.14725,91.70834
"41290",575.0657,83.15556,92.78376
"41291",575.079,83.82208,93.54889
"41292",575.0923,84.119934,93.96618
"41293",575.1056,84.11261,94.0876
"41294",575.1189,83.90997,94.01348
"41295",575.1322,83.6292,93.8549
"41296",575.1455,83.34844,93.687546
"41297",575.1588,83.11406,93.5578
"41298",575.1721,82.933395,93.47445
"41299",575.1854,82.78691,93.41963
"41300",575.1987,82.64042,93.36023
"41301",575.21204,82.459755,93.26208
"41302",575.22534,82.213165,93.092354
"41303",575.23865,81.90311,92.851456
"41304",575.25195,81.54665,92.554474
"41305",575.26526,81.18532,92.24147
"41306",575.27856,80.85329,91.94648
"41307",575.2919,80.59205,91.71191
"41308",575.3052,80.4065,91.54486
"41309",575.3185,80.2942,91.44526
"41310",575.3318,80.22583,91.386086
"41311",575.3451,80.17456,91.34187
"41312",575.3584,80.113525,91.28629
"41313",575.3717,80.01343,91.18974
"41314",575.385,79.869385,91.04612
"41315",575.3983,79.691154,90.86381
"41316",575.4116,79.49096,90.65396
"41317",575.4249,79.27856,90.42565
"41318",575.43823,79.07591,90.20046
"41319",575.45154,78.887924,89.9836
"41320",575.46484,78.72678,89.787704
"41321",575.47815,78.58274,89.603874
"41322",575.49146,78.46067,89.437515
"41323",575.50476,78.35813,89.28687
"41324",575.51807,78.2678,89.14523
"41325",575.5314,78.18967,89.01297
"41326",575.5447,78.12131,88.88804
"41327",575.558,78.065155,88.77318
"41328",575.5713,78.02121,88.66877
"41329",575.5846,77.98947,88.575195
"41330",575.5979,77.96506,88.48795
"41331",575.6112,77.945526,88.40483
"41332",575.6245,77.92844,88.32354
"41333",575.6378,77.91867,88.24904
"41334",575.6511,77.91379,88.179115
"41335",575.6644,77.908905,88.10904
"41336",575.67773,77.908905,88.04369
"41337",575.69104,77.90646,87.97591
"41338",575.70435,77.89426,87.89828
"41339",575.71765,77.86984,87.80806
"41340",575.73096,77.84299,87.71464
"41341",575.74426,77.857635,87.66188
"41342",575.75757,78.00168,87.738976
"41343",575.7709,78.380104,88.054955
"41344",575.7842,79.061264,88.68549
"41345",575.7975,80.028076,89.62297
"41346",575.8108,81.17067,90.76644
"41347",575.8241,82.30839,91.94074
"41348",575.8374,83.24101,92.9455
"41349",575.8507,83.8465,93.65227
"41350",575.864,84.09796,94.02393
"41351",575.8773,84.0589,94.11293
"41352",575.8906,83.83429,94.01516
"41353",575.90393,83.53399,93.83468
"41354",575.91724,83.23613,93.647255
"41355",575.93054,82.98222,93.49448
"41356",575.94385,82.78203,93.387474
"41357",575.95715,82.62821,93.320595
"41358",575.97046,82.48417,93.25868
"41359",575.98376,82.31327,93.16541
"41360",575.9971,82.08621,93.01064
"41361",576.0104,81.795685,92.78531
"41362",576.0237,81.461205,92.50694
"41363",576.037,81.11696,92.20836
"41364",576.0503,80.8069,91.933205
"41365",576.0636,80.56275,91.71427
"41366",576.0769,80.38697,91.556076
"41367",576.0902,80.274666,91.455864
"41368",576.1035,80.201416,91.3912
"41369",576.1168,80.1355,91.33157
"41370",576.1301,80.06714,91.26745
"41371",576.14343,79.97681,91.179214
"41372",576.15674,79.852295,91.05398
"41373",576.17004,79.69848,90.895546
"41374",576.18335,79.52514,90.71278
"41375",576.19666,79.33715,90.50996
"41376",576.20996,79.14427,90.296364
"41377",576.22327,78.958725,90.084076
"41378",576.2366,78.78783,89.88064
"41379",576.2499,78.63401,89.68894
"41380",576.2632,78.49729,89.50954
"41381",576.2765,78.37766,89.34295
"41382",576.2898,78.28245,89.19704
"41383",576.3031,78.20676,89.06767
"41384",576.3164,78.14328,88.94816
"41385",576.3297,78.09201,88.83887
"41386",576.343,78.05295,88.74018
"41387",576.3563,78.01633,88.642715
"41388",576.3696,77.98459,88.54899
"41389",576.38293,77.960175,88.46159
"41390",576.39624,77.94064,88.37832
"41391",576.40955,77.925995,88.29932
"41392",576.42285,77.92111,88.22962
"41393",576.43616,77.91379,88.15733
"41394",576.44946,77.908905,88.08726
"41395",576.46277,77.89914,88.012146
"41396",576.4761,77.88205,87.929405
"41397",576.4894,77.855194,87.836365
"41398",576.5027,77.838104,87.75225
"41399",576.516,77.88205,87.72864
"41400",576.5293,78.082245,87.86265
"41401",576.5426,78.54124,88.26171
"41402",576.5559,79.30541,88.9803
"41403",576.5692,80.3357,89.988884
"41404",576.5825,81.50271,91.16638
"41405",576.5958,82.61112,92.321754
"41406",576.60913,83.475395,93.267624
"41407",576.62244,83.99054,93.89137
"41408",576.63574,84.156555,94.18209
"41409",576.64905,84.051575,94.207
"41410",576.66235,83.78302,94.065056
"41411",576.67566,83.44854,93.84879
"41412",576.68896,83.12871,93.63673
"41413",576.7023,82.85283,93.45862
"41414",576.7156,82.633095,93.32803
"41415",576.7289,82.45243,93.22965
"41416",576.7422,82.28886,93.142715
"41417",576.7555,82.108185,93.03357
"41418",576.7688,81.88846,92.87972
"41419",576.7821,81.62234,92.672615
"41420",576.7954,81.32693,92.4279
"41421",576.8087,81.03151,92.17395
"41422",576.822,80.76784,91.94251
"41423",576.8353,80.55787,91.75654
"41424",576.84863,80.41627,91.63237
"41425",576.86194,80.32838,91.55749
"41426",576.87524,80.272224,91.5116
"41427",576.88855,80.218506,91.466385
"41428",576.90186,80.15015,91.404854
"41429",576.91516,80.045166,91.304565
"41430",576.92847,79.90845,91.16926
"41431",576.9418,79.73998,90.99793
"41432",576.9551,79.55688,90.8067
"41433",576.9684,79.37133,90.60731
"41434",576.9817,79.19066,90.40699
"41435",576.995,79.01732,90.20836
"41436",577.0083,78.85863,90.01896
"41437",577.0216,78.71458,89.83924
"41438",577.0349,78.590065,89.67456
"41439",577.0482,78.4802,89.52064
"41440",577.0615,78.38743,89.38037
"41441",577.0748,78.31907,89.26162
"41442",577.08813,78.2678,89.15782
"41443",577.10144,78.22385,89.05974
"41444",577.11475,78.187225,88.96761
"41445",577.12805,78.16037,88.88411
"41446",577.14136,78.13107,88.797325
"41447",577.15466,78.101776,88.709625
"41448",577.16797,78.07492,88.62345
"41449",577.1813,78.05295,88.54132
"41450",577.1946,78.030975,88.4585
"41451",577.2079,78.00656,88.37256
"41452",577.2212,77.98215,88.28585
"41453",577.2345,77.95041,88.191055
"41454",577.2478,77.91867,88.09527
"41455",577.2611,77.91135,88.0229
"41456",577.2744,78.00168,88.047966
"41457",577.2877,78.28733,88.27117
"41458",577.301,78.856186,88.78651
"41459",577.31433,79.71801,89.61259
"41460",577.32764,80.799576,90.68534
"41461",577.34094,81.934845,91.8456
"41462",577.35425,82.930954,92.90217
"41463",577.36755,83.62676,93.68957
"41464",577.38086,83.963684,94.139824
"41465",577.39417,83.97589,94.275894
"41466",577.4075,83.758606,94.18285
"41467",577.4208,83.424126,93.96583
"41468",577.4341,83.06279,93.711494
"41469",577.4474,82.73319,93.47761
"41470",577.4607,82.45731,93.28714
"41471",577.474,82.24002,93.14664
"41472",577.4873,82.04959,93.02621
"41473",577.5006,81.85672,92.897385
"41474",577.5139,81.63943,92.73811
"41475",577.5272,81.38796,92.53788
"41476",577.5405,81.10719,92.30048
"41477",577.55383,80.82399,92.05188
"41478",577.56714,80.570076,91.823715
"41479",577.58044,80.36256,91.63401
"41480",577.59375,80.22095,91.50373
"41481",577.60706,80.130615,91.4203
"41482",577.62036,80.07446,91.36823
"41483",577.63367,80.03296,91.329056
"41484",577.647,79.98413,91.28126
"41485",577.6603,79.90845,91.20508
"41486",577.6736,79.801025,91.094795
"41487",577.6869,79.66186,90.94941
"41488",577.7002,79.49584,90.77283
"41489",577.7135,79.310295,90.571526
"41490",577.7268,79.11986,90.359535
"41491",577.7401,78.93431,90.146484
"41492",577.7534,78.768295,89.94717
"41493",577.7667,78.6218,89.762184
"41494",577.78,78.502174,89.59949
"41495",577.79333,78.40208,89.45258
"41496",577.80664,78.31907,89.31964
"41497",577.81995,78.24826,89.196304
"41498",577.83325,78.187225,89.08053
"41499",577.84656,78.135956,88.97261
"41500",577.85986,78.09689,88.8753
"41501",577.87317,78.0676,88.78653
"41502",577.8865,78.048065,88.70661
"41503",577.8998,78.03586,88.63341
"41504",577.9131,78.02365,88.55982
"41505",577.9264,78.013885,88.4883
"41506",577.9397,77.99924,88.41158
"41507",577.953,77.98459,88.33441
"41508",577.9663,77.962616,88.24946
"41509",577.9796,77.943085,88.16626
"41510",577.9929,77.92355,88.08245
"41511",578.0062,77.945526,88.039536
"41512",578.01953,78.09201,88.12182
"41513",578.03284,78.46555,88.43574
"41514",578.04614,79.13695,89.05918
"41515",578.05945,80.08667,89.98193
"41516",578.07275,81.20729,91.10526
"41517",578.08606,82.31571,92.25141
"41518",578.09937,83.22392,93.23199
"41519",578.1127,83.79523,93.90404
"41520",578.126,84.01251,94.23992
"41521",578.1393,83.929504,94.2823
"41522",578.1526,83.65606,94.13165
"41523",578.1659,83.28741,93.87725
"41524",578.1792,82.90654,93.59911
"41525",578.1925,82.564735,93.34814
"41526",578.2058,82.286415,93.14996
"41527",578.2191,82.0618,92.996796
"41528",578.2324,81.87137,92.8708
"41529",578.2457,81.688255,92.74616
"41530",578.25903,81.48318,92.59384
"41531",578.27234,81.24391,92.400925
"41532",578.28564,80.98268,92.178566
"41533",578.29895,80.726326,91.95292
"41534",578.31226,80.49683,91.746124
"41535",578.32556,80.31617,91.580986
"41536",578.33887,80.18921,91.463905
"41537",578.3522,80.111084,91.39169
"41538",578.3655,80.0647,91.34878
"41539",578.3788,80.025635,91.31174
"41540",578.3921,79.974365,91.26127
"41541",578.4054,79.888916,91.17502
"41542",578.4187,79.766846,91.04948
"41543",578.432,79.60815,90.88349
"41544",578.4453,79.4226,90.6857
"41545",578.4586,79.2224,90.46745
"41546",578.4719,79.027084,90.24784
"41547",578.4852,78.84642,90.03677
"41548",578.49854,78.68772,89.842026
"41549",578.51184,78.551,89.6643
"41550",578.52515,78.433815,89.50183
"41551",578.53845,78.34104,89.360115
"41552",578.55176,78.26536,89.23259
"41553",578.56506,78.20187,89.1149
"41554",578.57837,78.15549,89.01232
"41555",578.5917,78.12375,88.92294
"41556",578.605,78.101776,88.84234
"41557",578.6183,78.09201,88.773254
"41558",578.6316,78.09201,88.71363
"41559",578.6449,78.09445,88.65645
"41560",578.6582,78.09445,88.5969
"41561",578.6715,78.08957,88.53247
"41562",578.6848,78.082245,88.46545
"41563",578.6981,78.06027,88.383545
"41564",578.7114,78.03342,88.296074
"41565",578.72473,78.02609,88.227295
"41566",578.73804,78.116425,88.25594
"41567",578.75134,78.399635,88.48029
"41568",578.76465,78.96117,88.99181
"41569",578.77795,79.815674,89.81386
"41570",578.79126,80.88014,90.87257
"41571",578.80457,81.991,92.010925
"41572",578.8179,82.94316,93.02531
"41573",578.8312,83.5877,93.76182
"41574",578.8445,83.86847,94.1547
"41575",578.8578,83.81964,94.22676
"41576",578.8711,83.54131,94.067795
"41577",578.8844,83.1458,93.78294
"41578",578.8977,82.72587,93.46132
"41579",578.911,82.34257,93.1632
"41580",578.9243,82.022736,92.91657
"41581",578.9376,81.76639,92.723434
"41582",578.9509,81.55398,92.56622
"41583",578.96423,81.358665,92.41947
"41584",578.97754,81.15602,92.259285
"41585",578.99084,80.93385,92.07324
"41586",579.00415,80.69703,91.8656
"41587",579.01746,80.465096,91.65545
"41588",579.03076,80.25269,91.45758
"41589",579.04407,80.076904,91.28969
"41590",579.0574,79.94507,91.160255
"41591",579.0707,79.85474,91.06821
"41592",579.084,79.78882,90.99775
"41593",579.0973,79.73022,90.93255
"41594",579.1106,79.66674,90.86064
"41595",579.1239,79.58129,90.76478
"41596",579.1372,79.47143,90.64183
"41597",579.1505,79.33959,90.49348
"41598",579.1638,79.19066,90.323906
"41599",579.1771,79.029526,90.13748
"41600",579.1904,78.86839,89.94602
"41601",579.20374,78.71458,89.75684
"41602",579.21704,78.56809,89.57019
"41603",579.23035,78.4387,89.39605
"41604",579.24365,78.328835,89.2374
"41605",579.25696,78.238495,89.09483
"41606",579.27026,78.167694,88.96899
"41607",579.28357,78.1091,88.853134
"41608",579.2969,78.0676,88.75254
"41609",579.3102,78.03586,88.660416
"41610",579.3235,78.009,88.57218
"41611",579.3368,77.98947,88.49043
"41612",579.3501,77.97238,88.410515
"41613",579.3634,77.962616,88.33739
"41614",579.3767,77.95285,88.263954
"41615",579.39,77.943085,88.190216
"41616",579.4033,77.92355,88.10641
"41617",579.4166,77.90158,88.01955
"41618",579.42993,77.908905,87.961296
"41619",579.44324,78.028534,88.01558
"41620",579.45654,78.36057,88.28601
"41621",579.46985,78.98802,88.86223
"41622",579.48315,79.91089,89.75347
"41623",579.49646,81.02907,90.868866
"41624",579.50977,82.16678,92.038734
"41625",579.5231,83.12138,93.06105
"41626",579.5364,83.74395,93.78116
"41627",579.5497,83.98566,94.13986
"41628",579.563,83.90265,94.181404
"41629",579.5763,83.597466,93.99818
"41630",579.5896,83.18242,93.69555
"41631",579.6029,82.75517,93.36775
"41632",579.6162,82.36942,93.0681
"41633",579.6295,82.05203,92.82475
"41634",579.6428,81.80057,92.63741
"41635",579.6561,81.59792,92.491035
"41636",579.66943,81.41482,92.357864
"41637",579.68274,81.22682,92.21408
"41638",579.69604,81.0193,92.0449
"41639",579.70935,80.79469,91.85214
"41640",579.72266,80.56519,91.64748
"41641",579.73596,80.35279,91.452736
"41642",579.74927,80.17456,91.28553
"41643",579.7626,80.03784,91.15427
"41644",579.7759,79.937744,91.05535
"41645",579.7892,79.86694,90.982605
"41646",579.8025,79.80347,90.91497
"41647",579.8158,79.7351,90.84046
"41648",579.8291,79.64965,90.746735
"41649",579.8424,79.54711,90.63325
"41650",579.8557,79.42016,90.49214
"41651",579.869,79.27856,90.33242
"41652",579.8823,79.12718,90.1585
"41653",579.8956,78.975815,89.97986
"41654",579.90894,78.83421,89.80625
"41655",579.92224,78.70481,89.64042
"41656",579.93555,78.59251,89.48764
"41657",579.94885,78.49241,89.34356
"41658",579.96216,78.4094,89.21344
"41659",579.97546,78.34104,89.095375
"41660",579.9888,78.28977,88.99226
"41661",580.0021,78.25071,88.89976
"41662",580.0154,78.22873,88.82311
"41663",580.0287,78.221405,88.76044
"41664",580.042,78.21652,88.699974
"41665",580.0553,78.21652,88.64424
"41666",580.0686,78.21408,88.58607
"41667",580.0819,78.2092,88.525375
"41668",580.0952,78.204315,88.46453
"41669",580.1085,78.22385,88.42795
"41670",580.1218,78.32639,88.47499
"41671",580.13513,78.6096,88.705894
"41672",580.14844,79.15892,89.21177
"41673",580.16174,79.9939,90.02046
"41674",580.17505,81.03639,91.06277
"41675",580.18835,82.1326,92.19136
"41676",580.20166,83.08476,93.21017
"41677",580.21497,83.72442,93.94622
"41678",580.2283,83.980774,94.31896
"41679",580.2416,83.89288,94.35547
"41680",580.2549,83.560844,94.14508
"41681",580.2682,83.106735,93.802246
"41682",580.2815,82.63065,93.42325
"41683",580.2948,82.20096,93.07576
"41684",580.3081,81.85184,92.79542
"41685",580.3214,81.57839,92.57984
"41686",580.3347,81.36599,92.41676
"41687",580.348,81.18776,92.28122
"41688",580.3613,81.01198,92.142555
"41689",580.37463,80.833755,91.99596
"41690",580.38794,80.655525,91.84378
"41691",580.40125,80.48951,91.69825
"41692",580.41455,80.35523,91.57927
"41693",580.42786,80.26246,91.4976
"41694",580.44116,80.20386,91.4472
"41695",580.45447,80.17212,91.42183
"41696",580.4678,80.13794,91.39303
"41697",580.4811,80.093994,91.35339
"41698",580.4944,80.02319,91.28553
"41699",580.5077,79.92798,91.19104
"41700",580.521,79.81079,91.0716
"41701",580.5343,79.676506,90.931404
"41702",580.5476,79.534904,90.77969
"41703",580.5609,79.38598,90.616234
"41704",580.5742,79.237045,90.44811
"41705",580.5875,79.09544,90.28267
"41706",580.6008,78.96849,90.12745
"41707",580.61414,78.856186,89.98291
"41708",580.62744,78.76341,89.85439
"41709",580.64075,78.68528,89.73762
"41710",580.65405,78.63157,89.64282
"41711",580.66736,78.59739,89.56588
"41712",580.68066,78.57542,89.50008
"41713",580.694,78.55833,89.43847
"41714",580.7073,78.54612,89.38121
"41715",580.7206,78.536354,89.32601
"41716",580.7339,78.521706,89.265625
"41717",580.7472,78.49973,89.19746
"41718",580.7605,78.48264,89.133484
"41719",580.7738,78.50706,89.11048
"41720",580.7871,78.65598,89.21275
"41721",580.8004,79.03197,89.54674
"41722",580.8137,79.68383,90.16835
"41723",580.827,80.584724,91.059364
"41724",580.84033,81.617455,92.11037
"41725",580.85364,82.59403,93.13749
"41726",580.86694,83.32647,93.95099
"41727",580.88025,83.69756,94.42603
"41728",580.89355,83.702446,94.54646
"41729",580.90686,83.41192,94.371635
"41730",580.92017,82.948044,94.01438
"41731",580.9335,82.41337,93.57183
"41732",580.9468,81.898224,93.1321
"41733",580.9601,81.449,92.742195
"41734",580.9734,81.08034,92.418816
"41735",580.9867,80.780045,92.15228
"41736",581,80.52857,91.925186
"41737",581.0133,80.308846,91.72198
"41738",581.0266,80.11597,91.53875
"41739",581.0399,79.957275,91.38368
"41740",581.0532,79.84741,91.272484
"41741",581.0665,79.78638,91.20668
"41742",581.07983,79.76929,91.182915
"41743",581.09314,79.781494,91.18791
"41744",581.10645,79.79614,91.19573
"41745",581.11975,79.7937,91.18692
"41746",581.13306,79.75708,91.14385
"41747",581.14636,79.68139,91.06057
"41748",581.15967,79.57397,90.94319
"41749",581.173,79.43481,90.79072
"41750",581.1863,79.27856,90.616806
"41751",581.1996,79.11742,90.43312
"41752",581.2129,78.96361,90.25173
"41753",581.2262,78.81712,90.07286
"41754",581.2395,78.6804,89.89917
"41755",581.2528,78.55833,89.73586
"41756",581.2661,78.45335,89.58583
"41757",581.2794,78.37034,89.45449
"41758",581.2927,78.30442,89.33765
"41759",581.306,78.25803,89.23827
"41760",581.31934,78.22873,89.15453
"41761",581.33264,78.21408,89.08453
"41762",581.34595,78.204315,89.01896
"41763",581.35925,78.19455,88.95308
"41764",581.37256,78.184784,88.886894
"41765",581.38586,78.17502,88.820404
"41766",581.3992,78.17502,88.763374
"41767",581.4125,78.238495,88.76982
"41768",581.4258,78.450905,88.927185
"41769",581.4391,78.90257,89.330444
"41770",581.4524,79.61791,90.01149
"41771",581.4657,80.5481,90.92974
"41772",581.479,81.55642,91.955185
"41773",581.4923,82.44999,92.89739
"41774",581.5056,83.05791,93.58187
"41775",581.5189,83.29717,93.916695
"41776",581.5322,83.18242,93.904976
"41777",581.54553,82.80644,93.62845
"41778",581.55884,82.28397,93.19368
