"","Time..s.","PPG.trace","Preprocessed.PPG"
"12504",179.59941,79.6643,85.89762
"12505",179.61275,79.586174,85.809006
"12506",179.62608,79.500725,85.710625
"12507",179.63942,79.41039,85.60469
"12508",179.65276,79.3225,85.498375
"12509",179.66609,79.24925,85.40395
"12510",179.67943,79.18822,85.31946
"12511",179.69276,79.13939,85.24526
"12512",179.7061,79.10277,85.18175
"12513",179.71944,79.07591,85.126854
"12514",179.73277,79.05638,85.078445
"12515",179.74611,79.04173,85.03431
"12516",179.75945,79.03197,84.9946
"12517",179.77278,79.029526,84.96191
"12518",179.78612,79.029526,84.93158
"12519",179.79945,79.029526,84.90125
"12520",179.81279,79.027084,84.868484
"12521",179.82613,79.029526,84.84052
"12522",179.83946,79.03929,84.81996
"12523",179.8528,79.08324,84.833885
"12524",179.86613,79.217514,84.939514
"12525",179.87947,79.47875,85.1763
"12526",179.8928,79.886475,85.56773
"12527",179.90614,80.411385,86.089096
"12528",179.91948,80.98268,86.67325
"12529",179.93282,81.49294,87.21422
"12530",179.94615,81.85672,87.62465
"12531",179.95949,82.020294,87.846245
"12532",179.97282,81.99588,87.884964
"12533",179.98616,81.82498,87.776436
"12534",179.9995,81.57839,87.586876
"12535",180.01283,81.31472,87.37253
"12536",180.02617,81.08766,87.186554
"12537",180.0395,80.907,87.03988
"12538",180.05284,80.782486,86.94371
"12539",180.06618,80.70191,86.88759
"12540",180.07951,80.63355,86.84116
"12541",180.09285,80.552986,86.780396
"12542",180.10619,80.44312,86.68781
"12543",180.11952,80.30396,86.5625
"12544",180.13286,80.15503,86.423065
"12545",180.1462,80.02075,86.29363
"12546",180.15953,79.923096,86.196625
"12547",180.17287,79.86694,86.13807
"12548",180.1862,79.84741,86.11438
"12549",180.19954,79.84741,86.10961
"12550",180.21288,79.85474,86.11217
"12551",180.22621,79.84741,86.1003
"12552",180.23955,79.823,86.07112
"12553",180.25288,79.77661,86.0192
"12554",180.26622,79.708244,85.943855
"12555",180.27956,79.62035,85.84685
"12556",180.2929,79.52514,85.73977
"12557",180.30623,79.432365,85.63216
"12558",180.31956,79.344475,85.52653
"12559",180.3329,79.26879,85.43036
"12560",180.34624,79.20531,85.344025
"12561",180.35957,79.15892,85.272804
"12562",180.37291,79.12718,85.21478
"12563",180.38625,79.11009,85.17042
"12564",180.39958,79.10521,85.137726
"12565",180.41292,79.10277,85.10732
"12566",180.42625,79.10765,85.08417
"12567",180.43959,79.11253,85.061165
"12568",180.45293,79.11742,85.038315
"12569",180.46626,79.11986,85.013176
"12570",180.4796,79.11253,84.97835
"12571",180.49294,79.097885,84.93597
"12572",180.50627,79.09544,84.905334
"12573",180.5196,79.12718,84.908806
"12574",180.53294,79.24681,85.00116
"12575",180.54628,79.49096,85.22177
"12576",180.55962,79.888916,85.60382
"12577",180.57295,80.4065,86.117935
"12578",180.58629,80.9778,86.701935
"12579",180.59962,81.495384,87.25008
"12580",180.61296,81.87381,87.67523
"12581",180.6263,82.054474,87.91445
"12582",180.63963,82.04715,87.97133
"12583",180.65297,81.89334,87.88149
"12584",180.6663,81.6614,87.70872
"12585",180.67964,81.41238,87.51161
"12586",180.69298,81.197525,87.3409
"12587",180.70631,81.02907,87.20986
"12588",180.71965,80.90944,87.12239
"12589",180.73299,80.82643,87.0678
"12590",180.74632,80.75319,87.020386
"12591",180.75966,80.67017,86.96091
"12592",180.773,80.56031,86.87199
"12593",180.78633,80.428474,86.75766
"12594",180.79967,80.28443,86.62701
"12595",180.813,80.147705,86.49917
"12596",180.82634,80.04028,86.39636
"12597",180.83968,79.971924,86.32926
"12598",180.85301,79.93286,86.28932
"12599",180.86635,79.91577,86.270134
"12600",180.87968,79.906006,86.25774
"12601",180.89302,79.886475,86.23527
"12602",180.90636,79.84985,86.1951
"12603",180.9197,79.78882,86.12937
"12604",180.93303,79.72045,86.054405
"12605",180.94637,79.64233,85.967545
"12606",180.9597,79.551994,85.866035
"12607",180.97304,79.46166,85.7617
"12608",180.98637,79.37621,85.65943
"12609",180.99971,79.29565,85.55937
"12610",181.01305,79.22728,85.468994
"12611",181.02638,79.17601,85.39358
"12612",181.03972,79.13939,85.33121
"12613",181.05305,79.11742,85.28234
"12614",181.06639,79.10521,85.24255
"12615",181.07973,79.093,85.202385
"12616",181.09306,79.08812,85.16916
"12617",181.1064,79.080795,85.13334
"12618",181.11974,79.078354,85.10217
"12619",181.13307,79.07347,85.06849
"12620",181.14641,79.06615,85.03221
"12621",181.15974,79.05638,84.99326
"12622",181.17308,79.0515,84.95889
"12623",181.18642,79.07347,84.951225
"12624",181.19975,79.166245,85.015045
"12625",181.21309,79.37621,85.19896
"12626",181.22643,79.725334,85.52859
"12627",181.23976,80.21118,86.00585
"12628",181.2531,80.765396,86.566666
"12629",181.26643,81.30007,87.12526
"12630",181.27977,81.71755,87.58337
"12631",181.2931,81.94949,87.86898
"12632",181.30644,81.98367,87.96408
"12633",181.31978,81.8616,87.904
"12634",181.33311,81.63943,87.74
"12635",181.34645,81.38552,87.53732
"12636",181.35979,81.15114,87.34624
"12637",181.37312,80.96803,87.199104
"12638",181.38646,80.83864,87.09996
"12639",181.3998,80.7483,87.03583
"12640",181.41313,80.6775,86.98841
"12641",181.42647,80.59937,86.93146
"12642",181.4398,80.499275,86.85009
"12643",181.45314,80.37476,86.74118
"12644",181.46648,80.23804,86.616165
"12645",181.47981,80.10864,86.49421
"12646",181.49315,80.0061,86.395065
"12647",181.50648,79.94263,86.33178
"12648",181.51982,79.920654,86.308014
"12649",181.53316,79.93042,86.3153
"12650",181.5465,79.95239,86.3351
"12651",181.55983,79.96948,86.3507
"12652",181.57317,79.9646,86.344864
"12653",181.5865,79.9353,86.31446
"12654",181.59984,79.87915,86.25629
"12655",181.61317,79.80835,86.18171
"12656",181.62651,79.72289,86.09026
"12657",181.63985,79.63256,85.99127
"12658",181.65318,79.54711,85.89434
"12659",181.66652,79.4641,85.79718
"12660",181.67986,79.395744,85.712074
"12661",181.69319,79.34203,85.63948
"12662",181.70653,79.30053,85.577415
"12663",181.71986,79.273674,85.5287
"12664",181.7332,79.26147,85.4938
"12665",181.74654,79.256584,85.465836
"12666",181.75987,79.259026,85.445045
"12667",181.77321,79.26391,85.42677
"12668",181.78654,79.26879,85.40865
"12669",181.79988,79.26635,85.38336
"12670",181.81322,79.259026,85.35311
"12671",181.82655,79.25414,85.32507
"12672",181.83989,79.26147,85.30909
"12673",181.85323,79.3225,85.347046
"12674",181.86656,79.48119,85.484566
"12675",181.8799,79.77905,85.76621
"12676",181.89323,80.21362,86.19388
"12677",181.90657,80.73853,86.725464
"12678",181.9199,81.270775,87.280785
"12679",181.93324,81.705345,87.755066
"12680",181.94658,81.97391,88.07692
"12681",181.95992,82.04227,88.20696
"12682",181.97325,81.94705,88.17557
"12683",181.98659,81.739525,88.028885
"12684",181.99992,81.48318,87.8269
"12685",182.01326,81.22682,87.61689
"12686",182.0266,81.00954,87.43794
"12687",182.03993,80.84352,87.303474
"12688",182.05327,80.723885,87.2102
"12689",182.0666,80.62379,87.13272
"12690",182.07994,80.53101,87.05944
"12691",182.09328,80.428474,86.973495
"12692",182.10661,80.31861,86.87702
"12693",182.11995,80.2063,86.774666
"12694",182.13329,80.1062,86.681015
"12695",182.14662,80.042725,86.62086
"12696",182.15996,80.01831,86.59778
"12697",182.1733,80.025635,86.605675
"12698",182.18663,80.05005,86.63089
"12699",182.19997,80.079346,86.66175
"12700",182.2133,80.093994,86.67888
"12701",182.22664,80.08179,86.66961
"12702",182.23997,80.03296,86.62334
"12703",182.25331,79.95239,86.5438
"12704",182.26665,79.852295,86.442215
"12705",182.27998,79.742424,86.32773
"12706",182.29332,79.63256,86.209816
"12707",182.30666,79.537346,86.10312
"12708",182.31999,79.45922,86.01054
"12709",182.33333,79.40307,85.937485
"12710",182.34666,79.36645,85.88221
"12711",182.36,79.34692,85.84288
"12712",182.37334,79.33471,85.810265
"12713",182.38667,79.32494,85.77971
"12714",182.40001,79.310295,85.743965
"12715",182.41335,79.28832,85.70044
"12716",182.42668,79.26147,85.651344
"12717",182.44002,79.22728,85.59408
"12718",182.45335,79.19798,85.540634
"12719",182.46669,79.19066,85.50825
"12720",182.48003,79.23216,85.52446
"12721",182.49336,79.37621,85.644516
"12722",182.5067,79.656975,85.905785
"12723",182.52003,80.076904,86.314995
"12724",182.53337,80.59449,86.834984
"12725",182.5467,81.12428,87.383354
"12726",182.56004,81.5613,87.85551
"12727",182.57338,81.83719,88.18018
"12728",182.58672,81.92264,88.323044
"12729",182.60005,81.83719,88.297676
"12730",182.61339,81.64187,88.15977
"12731",182.62672,81.39529,87.96449
"12732",182.64006,81.15358,87.76639
"12733",182.6534,80.95094,87.5998
"12734",182.66673,80.80202,87.48059
"12735",182.68007,80.69215,87.39578
"12736",182.6934,80.6067,87.33196
"12737",182.70674,80.51881,87.26303
"12738",182.72008,80.413826,87.17426
"12739",182.73341,80.289314,87.06268
"12740",182.74675,80.15503,86.93744
"12741",182.76009,80.03296,86.82021
"12742",182.77342,79.94263,86.73091
"12743",182.78676,79.89136,86.67785
"12744",182.8001,79.87671,86.659805
"12745",182.81343,79.88159,86.660835
"12746",182.82677,79.89624,86.67178
"12747",182.8401,79.8938,86.6661
"12748",182.85344,79.871826,86.64081
"12749",182.86678,79.82056,86.58553
"12750",182.88011,79.75464,86.51401
"12751",182.89345,79.67162,86.423325
"12752",182.90678,79.58129,86.32273
"12753",182.92012,79.48608,86.21443
"12754",182.93346,79.395744,86.10804
"12755",182.9468,79.31518,86.00859
"12756",182.96013,79.24437,85.91638
"12757",182.97346,79.19066,85.83906
"12758",182.9868,79.15404,85.777145
"12759",183.00014,79.13451,85.73118
"12760",183.01347,79.12474,85.69437
"12761",183.02681,79.11742,85.65969
"12762",183.04015,79.11253,85.62723
"12763",183.05348,79.10277,85.58973
"12764",183.06682,79.093,85.551926
"12765",183.08015,79.078354,85.508934
"12766",183.09349,79.078354,85.48013
"12767",183.10683,79.114975,85.48795
"12768",183.12016,79.2224,85.56772
"12769",183.1335,79.449455,85.77048
"12770",183.14684,79.823,86.126816
"12771",183.16017,80.31861,86.6169
"12772",183.17351,80.87038,87.17862
"12773",183.18684,81.38552,87.72096
"12774",183.20018,81.76883,88.14757
"12775",183.21352,81.96658,88.4006
"12776",183.22685,81.98123,88.4767
"12777",183.24019,81.85672,88.4141
"12778",183.25352,81.65652,88.27192
"12779",183.26686,81.44167,88.10884
"12780",183.2802,81.25613,87.968346
"12781",183.29353,81.11452,87.86599
"12782",183.30687,81.0193,87.8056
"12783",183.3202,80.95827,87.77642
"12784",183.33354,80.90456,87.752655
"12785",183.34688,80.82887,87.70524
"12786",183.36021,80.71412,87.61639
"12787",183.37355,80.55543,87.48001
"12788",183.38689,80.36988,87.31182
"12789",183.40022,80.181885,87.13538
"12790",183.41356,80.01831,86.97749
"12791",183.4269,79.89136,86.85111
"12792",183.44023,79.818115,86.774475
"12793",183.45357,79.783936,86.73461
"12794",183.4669,79.77417,86.718094
"12795",183.48024,79.76929,86.706154
"12796",183.49358,79.7522,86.681854
"12797",183.50691,79.71557,86.63748
"12798",183.52025,79.65453,86.56756
"12799",183.53358,79.571526,86.473755
"12800",183.54692,79.47387,86.36271
"12801",183.56026,79.37621,86.24861
"12802",183.5736,79.27856,86.13146
"12803",183.58693,79.1931,86.02346
"12804",183.60027,79.12474,85.929886
"12805",183.6136,79.07347,85.851265
"12806",183.62694,79.03685,85.78569
"12807",183.64027,79.012436,85.73118
"12808",183.65361,78.995346,85.68323
"12809",183.66695,78.9807,85.637184
"12810",183.68028,78.96605,85.59068
"12811",183.69362,78.9514,85.543724
"12812",183.70695,78.93431,85.493866
"12813",183.72029,78.91966,85.445915
"12814",183.73363,78.9099,85.40239
"12815",183.74696,78.91966,85.37809
"12816",183.7603,78.97826,85.40292
"12817",183.77364,79.12718,85.51992
"12818",183.78697,79.40795,85.773415
"12819",183.80031,79.82788,86.17484
"12820",183.81364,80.35523,86.696815
"12821",183.82698,80.90944,87.26212
"12822",183.84032,81.39529,87.77639
"12823",183.85365,81.73464,88.15935
"12824",183.86699,81.881134,88.36005
"12825",183.88033,81.85428,88.391975
"12826",183.89366,81.70779,88.30343
"12827",183.907,81.50515,88.15416
"12828",183.92033,81.30251,87.99856
"12829",183.93367,81.146255,87.883
"12830",183.947,81.04372,87.816284
"12831",183.96034,80.98512,87.790306
"12832",183.97368,80.94362,87.77959
"12833",183.98701,80.88747,87.75292
"12834",184.00035,80.78981,87.683
"12835",184.01369,80.635994,87.55386
"12836",184.02702,80.430916,87.36866
"12837",184.04036,80.20874,87.15995
"12838",184.0537,79.99878,86.95651
"12839",184.06703,79.82788,86.785576
"12840",184.08037,79.71313,86.66544
"12841",184.0937,79.65942,86.60277
"12842",184.10704,79.64233,86.575035
"12843",184.12038,79.64233,86.56386
"12844",184.13371,79.639885,86.55024
"12845",184.14705,79.61547,86.51457
"12846",184.16039,79.56664,86.45373
"12847",184.17372,79.49584,86.369385
"12848",184.18706,79.41039,86.26818
"12849",184.2004,79.3225,86.161865
"12850",184.21373,79.23216,86.050354
"12851",184.22707,79.14671,85.94091
"12852",184.2404,79.07103,85.83856
"12853",184.25374,79.00511,85.743614
"12854",184.26707,78.94896,85.65637
"12855",184.28041,78.905014,85.57958
"12856",184.29375,78.87572,85.51607
"12857",184.30708,78.86351,85.46873
"12858",184.32042,78.85863,85.42833
"12859",184.33376,78.86351,85.397545
"12860",184.34709,78.86595,85.36447
"12861",184.36043,78.870834,85.333916
"12862",184.37376,78.86839,85.29619
"12863",184.3871,78.86595,85.258385
"12864",184.40044,78.856186,85.21318
"12865",184.41377,78.8513,85.172554
"12866",184.42711,78.85863,85.14398
"12867",184.44044,78.90257,85.15226
"12868",184.45378,79.03441,85.2498
"12869",184.46712,79.30053,85.48575
"12870",184.48045,79.71313,85.87649
"12871",184.49379,80.24292,86.397316
"12872",184.50713,80.82155,86.983536
"12873",184.52046,81.34646,87.53412
"12874",184.5338,81.722435,87.95217
"12875",184.54713,81.90555,88.18911
"12876",184.56047,81.90799,88.2511
"12877",184.5738,81.77371,88.176445
"12878",184.58714,81.57351,88.03167
"12879",184.60048,81.36355,87.87088
"12880",184.61382,81.1902,87.74014
"12881",184.62715,81.07057,87.65771
"12882",184.64049,80.99733,87.61792
"12883",184.65382,80.9485,87.60026
"12884",184.66716,80.89723,87.57863
"12885",184.6805,80.81178,87.52122
"12886",184.69383,80.67506,87.40986
"12887",184.70717,80.49195,87.24785
"12888",184.7205,80.27955,87.05082
"12889",184.73384,80.07202,86.85203
"12890",184.74718,79.89868,86.68094
"12891",184.76051,79.77417,86.55326
"12892",184.77385,79.7058,86.47784
"12893",184.78719,79.68139,86.44423
"12894",184.80052,79.68139,86.43427
"12895",184.81386,79.68139,86.42432
"12896",184.8272,79.66674,86.39971
"12897",184.84053,79.62768,86.350235
"12898",184.85387,79.5642,86.27512
"12899",184.8672,79.48119,86.1785
"12900",184.88054,79.38598,86.06707
"12901",184.89388,79.290764,85.95267
"12902",184.90721,79.200424,85.840164
"12903",184.92055,79.11742,85.73217
"12904",184.93388,79.046616,85.63379
"12905",184.94722,78.98802,85.5454
"12906",184.96056,78.94896,85.47472
"12907",184.97389,78.922104,85.415016
"12908",184.98723,78.9099,85.369125
"12909",185.00056,78.907455,85.33262
"12910",185.0139,78.9099,85.30092
"12911",185.02724,78.91234,85.269295
"12912",185.04057,78.91234,85.235306
"12913",185.05391,78.91478,85.20376
"12914",185.06725,78.924545,85.17961
"12915",185.08058,78.93675,85.15821
"12916",185.09392,78.941635,85.12987
"12917",185.10725,78.94896,85.10412
"12918",185.12059,78.9514,85.073715
"12919",185.13393,78.95384,85.04339
"12920",185.14726,78.975815,85.03267
"12921",185.1606,79.063705,85.088554
"12922",185.17393,79.26635,85.26194
"12923",185.18727,79.61547,85.588135
"12924",185.2006,80.111084,86.07173
"12925",185.21394,80.69459,86.65871
"12926",185.22728,81.270775,87.2566
"12927",185.24062,81.73708,87.76262
"12928",185.25395,82.020294,88.10011
"12929",185.26729,82.09842,88.24137
"12930",185.28062,82.01053,88.219055
"12931",185.29396,81.82498,88.09634
"12932",185.3073,81.61257,87.940956
"12933",185.32063,81.42214,87.80092
"12934",185.33397,81.28298,87.7062
"12935",185.3473,81.1902,87.65351
"12936",185.36064,81.13405,87.63455
"12937",185.37398,81.08522,87.62116
"12938",185.38731,81.007095,87.57695
"12939",185.40065,80.88258,87.48391
"12940",185.41399,80.71168,87.34058
"12941",185.42732,80.50416,87.155304
"12942",185.44066,80.28687,86.95377
"12943",185.454,80.093994,86.76986
"12944",185.46733,79.94995,86.62875
"12945",185.48067,79.86206,86.5393
"12946",185.494,79.823,86.495926
"12947",185.50734,79.81323,86.48063
"12948",185.52068,79.81323,86.47479
"12949",185.53401,79.80835,86.46407
"12950",185.54735,79.77905,86.42879
"12951",185.56068,79.72289,86.36572
"12952",185.57402,79.63744,86.271614
"12953",185.58736,79.537346,86.16019
"12954",185.6007,79.429924,86.03831
"12955",185.61403,79.3225,85.91307
"12956",185.62737,79.22728,85.79668
"12957",185.6407,79.151596,85.696846
"12958",185.65404,79.09544,85.61418
"12959",185.66737,79.04906,85.53953
"12960",185.68071,79.01732,85.47807
"12961",185.69405,79.00023,85.430275
"12962",185.70738,78.99046,85.38927
"12963",185.72072,78.98558,85.35284
"12964",185.73405,78.98802,85.32358
"12965",185.74739,78.992905,85.29684
"12966",185.76073,78.99046,85.262924
"12967",185.77406,78.98314,85.22405
"12968",185.7874,78.97093,85.18007
"12969",185.80074,78.95628,85.13326
"12970",185.81407,78.94408,85.08844
"12971",185.82741,78.93675,85.04812
"12972",185.84074,78.93187,85.01001
"12973",185.85408,78.9514,84.99616
"12974",185.86742,79.02464,85.03664
"12975",185.88075,79.200424,85.18194
"12976",185.89409,79.517815,85.47434
"12977",185.90742,79.97925,85.92071
"12978",185.92076,80.533455,86.474266
"12979",185.9341,81.092545,87.050026
"12980",185.94743,81.55154,87.54316
"12981",185.96077,81.83475,87.874855
"12982",185.9741,81.92264,88.02008
"12983",185.98744,81.846954,88.00448
"12984",186.00078,81.6614,87.87664
"12985",186.01411,81.43923,87.70639
"12986",186.02745,81.22926,87.5414
"12987",186.04079,81.06325,87.413795
"12988",186.05412,80.94118,87.32495
"12989",186.06746,80.86061,87.273796
"12990",186.0808,80.79225,87.23233
"12991",186.09413,80.709236,87.17407
"12992",186.10747,80.584724,87.071724
"12993",186.1208,80.41871,86.92398
"12994",186.13414,80.22583,86.74419
"12995",186.14748,80.03052,86.55593
"12996",186.16081,79.85962,86.38599
"12997",186.17415,79.7351,86.25708
"12998",186.18748,79.66674,86.18044
"12999",186.20082,79.64477,86.148056
"13000",186.21416,79.64965,86.14184
"13001",186.2275,79.656975,86.138214
"13002",186.24083,79.64721,86.11773
"13003",186.25417,79.61791,86.07741
"13004",186.2675,79.55688,86.00443
"13005",186.28084,79.47387,85.90758
"13006",186.29417,79.37621,85.79348
"13007",186.30751,79.27856,85.67633
"13008",186.32085,79.183334,85.55856
"13009",186.33418,79.10033,85.450035
"13010",186.34752,79.029526,85.35112
"13011",186.36086,78.975815,85.26708
"13012",186.37419,78.93675,85.196014
"13013",186.38753,78.9099,85.13593
"13014",186.40086,78.89281,85.08478
"13015",186.4142,78.8806,85.03797
"13016",186.42754,78.87816,85.00055
"13017",186.44087,78.88304,84.970375
"13018",186.45421,78.89769,84.95012
"13019",186.46754,78.91478,84.93276
"13020",186.48088,78.93187,84.91594
"13021",186.49422,78.93919,84.889885
"13022",186.50755,78.93919,84.856735
"13023",186.52089,78.92943,84.81382
"13024",186.53423,78.9099,84.76083
"13025",186.54756,78.89525,84.71212
"13026",186.5609,78.905014,84.68736
"13027",186.57423,78.975815,84.723946
"13028",186.58757,79.15892,84.875046
"13029",186.6009,79.49096,85.1808
"13030",186.61424,79.96704,85.640976
"13031",186.62758,80.52613,86.199036
"13032",186.64091,81.08278,86.772125
"13033",186.65425,81.53689,87.26007
"13034",186.66759,81.80789,87.5791
"13035",186.68092,81.881134,87.70884
"13036",186.69426,81.78836,87.67485
"13037",186.7076,81.5906,87.532974
"13038",186.72093,81.35378,87.34586
"13039",186.73427,81.13893,87.17332
"13040",186.7476,80.970474,87.04045
"13041",186.76094,80.86061,86.960915
"13042",186.77428,80.79225,86.91945
"13043",186.78761,80.73609,86.88805
"13044",186.80095,80.655525,86.83048
"13045",186.81429,80.54078,86.73622
"13046",186.82762,80.39185,86.604195
"13047",186.84096,80.218506,86.44309
"13048",186.8543,80.045166,86.27658
"13049",186.86763,79.903564,86.13639
"13050",186.88097,79.80347,86.03328
"13051",186.8943,79.744865,85.96854
"13052",186.90764,79.73022,85.945915
"13053",186.92097,79.73754,85.94481
"13054",186.93431,79.74975,85.948814
"13055",186.94765,79.744865,85.93611
"13056",186.96098,79.71557,85.89884
"13057",186.97432,79.6643,85.838684
"13058",186.98766,79.5935,85.75739
"13059",187.00099,79.51293,85.66412
"13060",187.01433,79.42748,85.56345
"13061",187.02766,79.344475,85.462555
"13062",187.041,79.26147,85.35906
"13063",187.05434,79.19066,85.265175
"13064",187.06767,79.12962,85.17885
"13065",187.08101,79.08324,85.10526
"13066",187.09435,79.05394,85.04732
"13067",187.10768,79.04173,85.00555
"13068",187.12102,79.03685,84.97072
"13069",187.13435,79.03685,84.94062
"13070",187.14769,79.044174,84.91785
"13071",187.16103,79.0515,84.8953
"13072",187.17436,79.05638,84.870544
"13073",187.1877,79.063705,84.84838
"13074",187.20103,79.07591,84.83133
"13075",187.21437,79.08812,84.81466
"13076",187.2277,79.093,84.791046
"13077",187.24104,79.08568,84.75538
"13078",187.25438,79.07347,84.7146
"13079",187.26772,79.063705,84.67588
"13080",187.28105,79.08568,84.668594
"13081",187.29439,79.19066,84.745
"13082",187.30772,79.42748,84.956535
"13083",187.32106,79.818115,85.32928
"13084",187.3344,80.34058,85.84606
"13085",187.34773,80.91676,86.432884
"13086",187.36107,81.449,86.99377
"13087",187.3744,81.83963,87.42968
"13088",187.38774,82.02762,87.675156
"13089",187.40108,82.01785,87.72875
"13090",187.41441,81.8616,87.63556
"13091",187.42775,81.619896,87.45203
"13092",187.44109,81.358665,87.24142
"13093",187.45442,81.13161,87.056816
"13094",187.46776,80.96071,86.92128
"13095",187.4811,80.850845,86.84144
"13096",187.49443,80.782486,86.79967
"13097",187.50777,80.72877,86.7704
"13098",187.5211,80.65797,86.722374
"13099",187.53444,80.550545,86.63551
"13100",187.54778,80.411385,86.51356
"13101",187.56111,80.257576,86.372604
"13102",187.57445,80.113525,86.2366
"13103",187.58778,79.99634,86.12296
"13104",187.60112,79.91821,86.04472
"13105",187.61446,79.87671,86.00066
"13106",187.62779,79.86206,85.98216
"13107",187.64113,79.85718,85.97297
"13108",187.65446,79.84985,85.96118
"13109",187.6678,79.83032,85.93696
"13110",187.68114,79.78882,85.89015
"13111",187.69447,79.727776,85.82251
"13112",187.70781,79.64965,85.73588
"13113",187.72115,79.55688,85.63216
"13114",187.73448,79.46166,85.523094
"13115",187.74782,79.37133,85.41594
"13116",187.76115,79.293205,85.31817
"13117",187.77449,79.22972,85.2326
"13118",187.78783,79.18089,85.1597
"13119",187.80116,79.14671,85.09992
"13120",187.8145,79.12474,85.051285
"13121",187.82784,79.11009,85.009285
"13122",187.84117,79.10765,84.979034
"13123",187.8545,79.11009,84.95359
"13124",187.86784,79.11742,84.933105
"13125",187.88118,79.12962,84.91773
"13126",187.89452,79.13695,84.89786
"13127",187.90785,79.14183,84.87577
"13128",187.92119,79.14183,84.84895
"13129",187.93452,79.13939,84.819695
"13130",187.94786,79.12962,84.783035
"13131",187.9612,79.11742,84.74363
"13132",187.97453,79.10521,84.70384
"13133",187.98787,79.11009,84.68076
"13134",188.0012,79.16136,84.70422
"13135",188.01454,79.31762,84.834274
"13136",188.02788,79.62035,85.115685
"13137",188.04121,80.07446,85.55793
"13138",188.05455,80.638435,86.12423
"13139",188.06789,81.214615,86.72036
"13140",188.08122,81.70046,87.24416
"13141",188.09456,82.003204,87.600044
"13142",188.1079,82.09354,87.752975
"13143",188.12123,81.99832,87.72318
"13144",188.13457,81.778595,87.5659
"13145",188.1479,81.51003,87.35292
"13146",188.16124,81.253685,87.14376
"13147",188.17458,81.041275,86.97053
"13148",188.18791,80.885025,86.84682
"13149",188.20125,80.77516,86.76461
"13150",188.21458,80.69947,86.71314
"13151",188.22792,80.62623,86.66176
"13152",188.24126,80.533455,86.588554
"13153",188.2546,80.41627,86.48804
"13154",188.26793,80.28443,86.36921
"13155",188.28127,80.15503,86.248695
"13156",188.2946,80.04028,86.138794
"13157",188.30794,79.954834,86.0546
"13158",188.32127,79.903564,86.00192
"13159",188.33461,79.87915,85.974495
"13160",188.34795,79.8645,85.95607
"13161",188.36128,79.85474,85.94207
"13162",188.37462,79.83276,85.91556
"13163",188.38795,79.79614,85.87371
"13164",188.40129,79.73754,85.80874
"13165",188.41463,79.6643,85.727295
"13166",188.42796,79.58373,85.63624
"13167",188.4413,79.50561,85.545105
"13168",188.45464,79.42504,85.44909
"13169",188.46797,79.3518,85.35788
"13170",188.48131,79.28832,85.27415
"13171",188.49464,79.22972,85.193306
"13172",188.50798,79.183334,85.12285
"13173",188.52132,79.149155,85.06315
"13174",188.53465,79.12962,85.01703
"13175",188.54799,79.11742,84.97762
"13176",188.56133,79.114975,84.9476
"13177",188.57466,79.11986,84.92483
"13178",188.588,79.12474,84.90221
"13179",188.60133,79.12962,84.87974
"13180",188.61467,79.13451,84.85742
"13181",188.628,79.13451,84.830376
"13182",188.64134,79.12962,84.79845
"13183",188.65468,79.1223,84.76392
"13184",188.66801,79.11253,84.72673
"13185",188.68135,79.11009,84.696556
"13186",188.69469,79.14427,84.70293
"13187",188.70802,79.256584,84.7885
"13188",188.72136,79.49828,85.006966
"13189",188.7347,79.8938,85.3868
"13190",188.74803,80.41871,85.908394
"13191",188.76137,80.99245,86.49522
"13192",188.7747,81.52468,87.058464
"13193",188.78804,81.90799,87.48942
"13194",188.80138,82.08865,87.729706
"13195",188.81471,82.06668,87.773
"13196",188.82805,81.89334,87.664246
"13197",188.84138,81.634544,87.464615
"13198",188.85472,81.36111,87.242256
"13199",188.86806,81.12184,87.045525
"13200",188.8814,80.936295,86.895035
"13201",188.89473,80.81178,86.79978
"13202",188.90807,80.726326,86.73969
"13203",188.9214,80.65797,86.69403
"13204",188.93474,80.5774,86.634026
"13205",188.94807,80.46998,86.54465
"13206",188.96141,80.343025,86.43238
"13207",188.97475,80.20874,86.308815
"13208",188.98808,80.079346,86.18594
"13209",189.00142,79.97925,86.088326
"13210",189.01476,79.91577,86.0242
"13211",189.02809,79.88159,85.98739
"13212",189.04143,79.869385,85.97148
"13213",189.05476,79.86694,85.96496
"13214",189.0681,79.852295,85.94615
"13215",189.08144,79.82544,85.91468
"13216",189.09477,79.781494,85.86528
"13217",189.10811,79.72045,85.79741
"13218",189.12144,79.639885,85.70811
"13219",189.13478,79.54711,85.60408
"13220",189.14812,79.4519,85.49471
"13221",189.16145,79.361565,85.38725
"13222",189.17479,79.281,85.286736
"13223",189.18813,79.2224,85.205666
"13224",189.20146,79.17845,85.13742
"13225",189.2148,79.15404,85.08733
"13226",189.22813,79.13451,85.04137
"13227",189.24147,79.11986,84.99967
"13228",189.2548,79.10765,84.95996
"13229",189.26814,79.10521,84.929634
"13230",189.28148,79.10765,84.90411
"13231",189.29482,79.114975,84.88355
"13232",189.30815,79.12474,84.86566
"13233",189.32149,79.12962,84.84319
"13234",189.33482,79.12474,84.81111
"13235",189.34816,79.114975,84.773994
"13236",189.3615,79.11253,84.7439
"13237",189.37483,79.13695,84.74058
"13238",189.38817,79.237045,84.813705
"13239",189.4015,79.466545,85.01936
"13240",189.41484,79.84741,85.38356
"13241",189.42818,80.36256,85.893936
"13242",189.44151,80.94606,86.48877
"13243",189.45485,81.495384,87.06766
"13244",189.46819,81.90555,87.52455
"13245",189.48152,82.11307,87.79162
"13246",189.49486,82.12039,87.864975
"13247",189.5082,81.969025,87.77987
"13248",189.52153,81.72488,87.59725
"13249",189.53487,81.45632,87.3826
"13250",189.5482,81.20973,87.18152
"13251",189.56154,81.01686,87.02645
"13252",189.57487,80.88014,86.92151
"13253",189.58821,80.78737,86.85624
"13254",189.60155,80.71656,86.810036
"13255",189.61488,80.64088,86.756744
"13256",189.62822,80.54078,86.676674
"13257",189.64156,80.411385,86.56418
"13258",189.65489,80.272224,86.437874
"13259",189.66823,80.13794,86.312096
"13260",189.68156,80.03052,86.208984
"13261",189.6949,79.954834,86.134254
"13262",189.70824,79.91821,86.09622
"13263",189.72157,79.906006,86.08146
"13264",189.73491,79.903564,86.07608
"13265",189.74825,79.89868,86.068184
"13266",189.76158,79.87915,86.04549
"13267",189.77492,79.83765,86.000206
"13268",189.78825,79.76929,85.92677
"13269",189.80159,79.68383,85.83411
"13270",189.81493,79.59106,85.73145
"13271",189.82826,79.49584,85.62346
"13272",189.8416,79.41039,85.522255
"13273",189.85493,79.33471,85.42815
"13274",189.86827,79.276115,85.34876
"13275",189.8816,79.22972,85.27975
"13276",189.89494,79.202866,85.22882
"13277",189.90828,79.18822,85.18926
"13278",189.92162,79.183334,85.15901
"13279",189.93495,79.17845,85.12861
"13280",189.94829,79.17845,85.102936
"13281",189.96162,79.17601,85.07482
"13282",189.97496,79.17357,85.04663
"13283",189.9883,79.166245,85.01348
"13284",190.00163,79.15892,84.9801
"13285",190.01497,79.151596,84.946495
"13286",190.0283,79.14671,84.9151
"13287",190.04164,79.17845,84.92017
"13288",190.05498,79.28344,84.99949
"13289",190.06831,79.50317,85.19682
"13290",190.08165,79.86206,85.54019
"13291",190.09499,80.35035,86.02417
"13292",190.10832,80.89967,86.58444
"13293",190.12166,81.4197,87.13258
"13294",190.135,81.81766,87.574905
"13295",190.14833,82.0325,87.84655
"13296",190.16167,82.04959,87.927155
"13297",190.175,81.91287,87.854485
"13298",190.18834,81.688255,87.689644
"13299",190.20168,81.43435,87.488495
"13300",190.21501,81.20485,87.30382
"13301",190.22835,81.02663,87.163246
"13302",190.24168,80.89967,87.068375
"13303",190.25502,80.81911,87.01592
"13304",190.26836,80.75563,86.97804
"13305",190.2817,80.68726,86.93329
"13306",190.29503,80.59449,86.86199
"13307",190.30836,80.47486,86.76094
"13308",190.3217,80.33814,86.63906
"13309",190.33504,80.20874,86.520226
"13310",190.34837,80.09888,86.416885
"13311",190.36171,80.02319,86.34429
"13312",190.37505,79.98169,86.30351
"13313",190.38838,79.96948,86.29073
"13314",190.40172,79.96704,86.28734
"13315",190.41505,79.9646,86.28387
"13316",190.42839,79.94507,86.26323
"13317",190.44173,79.90845,86.22489
"13318",190.45506,79.84741,86.160995
"13319",190.4684,79.77173,86.08054
"13320",190.48174,79.68627,85.98795
"13321",190.49507,79.59838,85.89026
"13322",190.5084,79.51537,85.7947
"13323",190.52174,79.44457,85.708755
"13324",190.53508,79.38842,85.63525
"13325",190.54842,79.344475,85.57219
"13326",190.56175,79.31518,85.52241
"13327",190.57509,79.290764,85.47659
"13328",190.58842,79.27123,85.4349
"13329",190.60176,79.259026,85.39992
"13330",190.6151,79.256584,85.37432
"13331",190.62843,79.26147,85.35597
"13332",190.64177,79.26391,85.335335
"13333",190.6551,79.26879,85.317215
"13334",190.66844,79.26391,85.28948
"13335",190.68178,79.259026,85.2616
"13336",190.69511,79.273674,85.25309
"13337",190.70845,79.344475,85.30119
"13338",190.72179,79.517815,85.45405
"13339",190.73512,79.823,85.74416
"13340",190.74846,80.25269,86.16833
"13341",190.7618,80.762955,86.686485
"13342",190.77513,81.26345,87.21082
"13343",190.78847,81.66384,87.650696
"13344",190.8018,81.900665,87.939514
"13345",190.81514,81.94949,88.04774
"13346",190.82848,81.84451,88.00368
"13347",190.84181,81.64187,87.85867
"13348",190.85515,81.40749,87.675606
"13349",190.86848,81.18532,87.49741
"13350",190.88182,81.007095,87.35623
"13351",190.89516,80.88258,87.26319
"13352",190.9085,80.797134,87.20532
"13353",190.92183,80.72877,87.161865
"13354",190.93517,80.65064,87.106514
"13355",190.9485,80.53834,87.01454
"13356",190.96184,80.39918,86.892204
"13357",190.97517,80.24536,86.75086
"13358",190.98851,80.09888,86.612045
"13359",191.00185,79.98657,86.50283
"13360",191.01518,79.920654,86.43649
"13361",191.02852,79.89868,86.41204
"13362",191.04185,79.903564,86.41376
"13363",191.05519,79.91821,86.42539
"13364",191.06853,79.920654,86.42528
"13365",191.08186,79.903564,86.40571
"13366",191.0952,79.86206,86.36119
"13367",191.10854,79.801025,86.295845
"13368",191.12187,79.72045,86.20905
"13369",191.13521,79.63256,86.11243
"13370",191.14854,79.54223,86.01061
"13371",191.16188,79.45678,85.91086
"13372",191.17522,79.38354,85.82064
"13373",191.18855,79.327385,85.745224
"13374",191.20189,79.28588,85.6827
"13375",191.21523,79.25414,85.62865
"13376",191.22856,79.22728,85.578476
"13377",191.2419,79.20531,85.53236
"13378",191.25523,79.1931,85.495316
"13379",191.26857,79.18089,85.45789
"13380",191.2819,79.166245,85.41765
"13381",191.29524,79.151596,85.376945
"13382",191.30858,79.12962,85.32846
"13383",191.32191,79.11009,85.28173
"13384",191.33525,79.11009,85.25392
"13385",191.34859,79.17113,85.28715
"13386",191.36192,79.32983,85.419945
"13387",191.37526,79.62524,85.69441
"13388",191.3886,80.05005,86.10751
"13389",191.40193,80.56275,86.62178
"13390",191.41527,81.077896,87.15451
"13391",191.4286,81.50515,87.61545
"13392",191.44194,81.77371,87.931046
"13393",191.45528,81.85672,88.06948
"13394",191.46861,81.77615,88.046936
"13395",191.48195,81.59792,87.92421
"13396",191.49529,81.373314,87.749535
"13397",191.50862,81.160904,87.58004
"13398",191.52196,80.987564,87.44298
"13399",191.5353,80.86305,87.34933
"13400",191.54863,80.780045,87.29329
"13401",191.56197,80.71168,87.2493
"13402",191.5753,80.635994,87.195854
"13403",191.58864,80.533455,87.11319
"13404",191.60197,80.40162,86.998024
"13405",191.61531,80.2478,86.85676
"13406",191.62865,80.09888,86.715576
"13407",191.64198,79.971924,86.59171
"13408",191.65532,79.886475,86.50539
"13409",191.66866,79.84253,86.45789
"13410",191.68199,79.835205,86.44565
"13411",191.69533,79.84009,86.44538
"13412",191.70866,79.84253,86.442825
"13413",191.722,79.83032,86.4257
"13414",191.73534,79.7937,86.38377
"13415",191.74867,79.73022,86.31384
"13416",191.76201,79.65453,86.22973
"13417",191.77534,79.5642,86.1286
"13418",191.78868,79.47387,86.02465
"13419",191.80202,79.38598,85.92032
"13420",191.81535,79.30785,85.823006
"13421",191.82869,79.24437,85.73789
"13422",191.84203,79.200424,85.670334
"13423",191.85536,79.17113,85.61605
"13424",191.8687,79.15648,85.5755
"13425",191.88203,79.149155,85.54182
"13426",191.89537,79.14671,85.51279
"13427",191.9087,79.14427,85.48368
"13428",191.92204,79.14183,85.4545
"13429",191.93538,79.13695,85.4228
"13430",191.94872,79.12962,85.388504
"13431",191.96205,79.12718,85.358864
"13432",191.97539,79.14427,85.34868
"13433",191.98872,79.21019,85.387856
"13434",192.00206,79.37133,85.524315
"13435",192.0154,79.6643,85.79764
"13436",192.02873,80.08667,86.20952
"13437",192.04207,80.59693,86.72249
"13438",192.0554,81.109634,87.253845
"13439",192.06874,81.52712,87.70601
"13440",192.08208,81.778595,88.0052
"13441",192.09541,81.84451,88.1267
"13442",192.10875,81.74685,88.08668
"13443",192.12209,81.55154,87.94595
"13444",192.13542,81.3196,87.762505
"13445",192.14876,81.10231,87.58645
"13446",192.1621,80.93141,87.45
"13447",192.17543,80.814224,87.361916
"13448",192.18877,80.73853,87.31167
"13449",192.2021,80.68482,87.28104
"13450",192.21544,80.62379,87.2414
"13451",192.22878,80.53101,87.16812
"13452",192.24211,80.39918,87.05288
"13453",192.25545,80.24536,86.91154
"13454",192.26878,80.093994,86.76784
"13455",192.28212,79.96704,86.64382
"13456",192.29546,79.87671,86.55246
"13457",192.30879,79.835205,86.5071
"13458",192.32213,79.823,86.489746
"13459",192.33546,79.82788,86.4891
"13460",192.3488,79.823,86.478836
"13461",192.36214,79.80347,86.45377
"13462",192.37547,79.75464,86.3988
"13463",192.38881,79.68383,86.32033
"13464",192.40215,79.5935,86.220116
"13465",192.41548,79.49828,86.1122
"13466",192.42882,79.40063,85.99886
"13467",192.44215,79.31274,85.89224
"13468",192.45549,79.23216,85.79019
"13469",192.46883,79.17113,85.70516
"13470",192.48216,79.12962,85.63776
"13471",192.4955,79.10277,85.5837
"13472",192.50883,79.09056,85.54346
"13473",192.52217,79.08324,85.50771
"13474",192.5355,79.080795,85.47662
"13475",192.54884,79.078354,85.44546
"13476",192.56218,79.07103,85.40933
"13477",192.57552,79.061264,85.37054
"13478",192.58885,79.05394,85.33388
"13479",192.60219,79.046616,85.29699
"13480",192.61552,79.05638,85.27696
"13481",192.62886,79.11009,85.301186
"13482",192.6422,79.2517,85.414986
"13483",192.65553,79.520256,85.66016
"13484",192.66887,79.923096,86.048004
"13485",192.6822,80.42115,86.543655
"13486",192.69554,80.94118,87.07684
"13487",192.70888,81.3904,87.55548
"13488",192.72221,81.68093,87.88946
"13489",192.73555,81.778595,88.03965
"13490",192.74889,81.71511,88.031746
"13491",192.76222,81.54421,87.914444
"13492",192.77556,81.33425,87.75274
"13493",192.7889,81.13893,87.59911
"13494",192.80223,80.99489,87.49066
"13495",192.81557,80.89967,87.42654
"13496",192.8289,80.84352,87.3985
"13497",192.84224,80.799576,87.38091
"13498",192.85558,80.740974,87.3473
"13499",192.86891,80.64332,87.2728
"13500",192.88225,80.50416,87.15374
"13501",192.89558,80.33082,86.996155
"13502",192.90892,80.15015,86.82582
"13503",192.92226,79.991455,86.67182
"13504",192.9356,79.87671,86.55681
"13505",192.94893,79.818115,86.49436
"13506",192.96227,79.80347,86.47403
"13507",192.9756,79.81323,86.47765
"13508",192.98894,79.818115,86.4767
"13509",193.00227,79.80347,86.45637
"13510",193.01561,79.764404,86.41116
"13511",193.02895,79.69604,86.335434
"13512",193.04228,79.61059,86.240486
"13513",193.05562,79.51537,86.1331
"13514",193.06895,79.4226,86.025185
"13515",193.08229,79.33227,85.91681
"13516",193.09563,79.24681,85.810486
"13517",193.10896,79.168686,85.708824
"13518",193.1223,79.10765,85.62181
"13519",193.13564,79.06859,85.55486
"13520",193.14897,79.04906,85.506226
"13521",193.16231,79.04906,85.47651
"13522",193.17564,79.061264,85.459
"13523",193.18898,79.07347,85.44187
"13524",193.20232,79.08324,85.42268
"13525",193.21565,79.08812,85.39892
"13526",193.22899,79.08568,85.36798
"13527",193.24232,79.080795,85.334526
"13528",193.25566,79.07347,85.29848
"13529",193.269,79.06615,85.2622
"13530",193.28233,79.07591,85.24278
"13531",193.29567,79.13695,85.27494
"13532",193.309,79.30297,85.413994
"13533",193.32234,79.60815,85.69739
"13534",193.33568,80.04761,86.1246
"13535",193.34901,80.57252,86.651
"13536",193.36235,81.0901,87.18648
"13537",193.37569,81.51003,87.64047
"13538",193.38902,81.75906,87.93669
"13539",193.40236,81.82498,88.05758
"13540",193.4157,81.739525,88.02915
"13541",193.42903,81.57107,87.915054
"13542",193.44237,81.3782,87.77128
"13543",193.4557,81.20729,87.64344
"13544",193.46904,81.08522,87.5591
"13545",193.48238,81.004654,87.51244
"13546",193.49571,80.953384,87.49257
"13547",193.50905,80.90456,87.47353
"13548",193.52238,80.82887,87.42612
"13549",193.53572,80.709236,87.33238
"13550",193.54906,80.54566,87.19097
"13551",193.5624,80.35279,87.01515
"13552",193.57573,80.15991,86.8333
"13553",193.58907,79.99878,86.67716
"13554",193.6024,79.888916,86.56726
"13555",193.61574,79.83276,86.50764
"13556",193.62907,79.823,86.492645
"13557",193.64241,79.83032,86.49444
"13558",193.65575,79.83765,86.49646
"13559",193.66908,79.82544,86.47918
"13560",193.68242,79.783936,86.43222
"13561",193.69576,79.71801,86.35954
"13562",193.70909,79.635,86.26772
"13563",193.72243,79.53979,86.1611
"13564",193.73576,79.447014,86.05395
"13565",193.7491,79.361565,85.95122
"13566",193.76244,79.281,85.8507
"13567",193.77577,79.21263,85.759865
"13568",193.78911,79.15648,85.67911
"13569",193.80244,79.11742,85.613686
"13570",193.81578,79.09056,85.55925
"13571",193.82912,79.080795,85.521065
"13572",193.84245,79.078354,85.4899
"13573",193.85579,79.08324,85.46598
"13574",193.86913,79.08568,85.43977
"13575",193.88246,79.08568,85.4112
"13576",193.8958,79.07591,85.37286
"13577",193.90913,79.063705,85.33178
"13578",193.92247,79.04906,85.28787
"13579",193.9358,79.03929,85.24839
"13580",193.94914,79.044174,85.22325
"13581",193.96248,79.093,85.24221
"13582",193.97581,79.217514,85.33838
"13583",193.98915,79.45922,85.55563
"13584",194.00249,79.83276,85.91228
"13585",194.01582,80.31373,86.388016
"13586",194.02916,80.83864,86.92273
"13587",194.0425,81.31716,87.42746
"13588",194.05583,81.66384,87.8153
"13589",194.06917,81.832306,88.03576
"13590",194.0825,81.832306,88.09302
"13591",194.09584,81.71023,88.0282
"13592",194.10918,81.52712,87.89854
"13593",194.12251,81.33425,87.75339
"13594",194.13585,81.17311,87.63394
"13595",194.14919,81.06081,87.5583
"13596",194.16252,80.99245,87.52309
"13597",194.17586,80.94606,87.50771
"13598",194.1892,80.88991,87.481125
"13599",194.20253,80.797134,87.41616
"13600",194.21587,80.66041,87.304344
"13601",194.2292,80.48463,87.1492
"13602",194.24254,80.291756,86.97147
"13603",194.25587,80.113525,86.80236
"13604",194.26921,79.96948,86.661865
"13605",194.28255,79.87915,86.57058
"13606",194.29588,79.83276,86.52042
"13607",194.30922,79.815674,86.4981
"13608",194.32256,79.815674,86.49234
"13609",194.33589,79.81079,86.4817
"13610",194.34923,79.79126,86.45625
"13611",194.36256,79.7522,86.41067
"13612",194.3759,79.691154,86.34188
"13613",194.38924,79.61791,86.25899
"13614",194.40257,79.534904,86.16404
"13615",194.41591,79.44457,86.05917
"13616",194.42924,79.35424,85.951485
"13617",194.44258,79.276115,85.85318
"13618",194.45592,79.217514,85.77196
"13619",194.46925,79.17601,85.706
"13620",194.48259,79.149155,85.6534
"13621",194.49593,79.13451,85.61216
"13622",194.50926,79.12474,85.57535
"13623",194.5226,79.114975,85.53823
"13624",194.53593,79.10765,85.50325
"13625",194.54927,79.097885,85.4656
"13626",194.5626,79.093,85.432526
"13627",194.57594,79.08812,85.3993
"13628",194.58928,79.08568,85.36836
"13629",194.60262,79.08324,85.33735
"13630",194.61595,79.07591,85.30138
"13631",194.62929,79.06859,85.265175
"13632",194.64262,79.06615,85.23363
"13633",194.65596,79.09544,85.23374
"13634",194.6693,79.19798,85.308014
"13635",194.68263,79.412834,85.4978
"13636",194.69597,79.764404,85.831024
"13637",194.7093,80.235596,86.29485
"13638",194.72264,80.762955,86.829575
"13639",194.73598,81.25857,87.34903
"13640",194.74931,81.62966,87.75945
"13641",194.76265,81.8201,88.00082
"13642",194.77599,81.829865,88.06746
"13643",194.78932,81.705345,88.00012
"13644",194.80266,81.50759,87.85566
"13645",194.816,81.30251,87.69769
"13646",194.82933,81.129166,87.56505
"13647",194.84267,81.00954,87.480705
"13648",194.856,80.936295,87.43901
"13649",194.86934,80.885025,87.417
"13650",194.88268,80.82887,87.388504
"13651",194.89601,80.75075,87.33628
"13652",194.90935,80.62867,87.23766
"13653",194.92268,80.46998,87.09862
"13654",194.93602,80.291756,86.93508
"13655",194.94936,80.11841,86.77085
"13656",194.96269,79.97681,86.63295
"13657",194.97603,79.87915,86.53457
"13658",194.98936,79.82788,86.47952
"13659",195.0027,79.80591,86.45217
"13660",195.01604,79.798584,86.43878
"13661",195.02937,79.79126,86.42516
"13662",195.04271,79.766846,86.394226
"13663",195.05605,79.71801,86.338104
"13664",195.06938,79.64965,86.26093
"13665",195.08272,79.569084,86.16942
"13666",195.09605,79.47875,86.06562
"13667",195.10939,79.39086,85.96144
"13668",195.12273,79.30785,85.8594
"13669",195.13606,79.237045,85.76696
"13670",195.1494,79.17601,85.68208
"13671",195.16273,79.12962,85.60995
"13672",195.17607,79.093,85.54613
"13673",195.1894,79.07103,85.49581
"13674",195.20274,79.05394,85.44969
"13675",195.21608,79.04173,85.40792
"13676",195.22942,79.03197,85.36821
"13677",195.24275,79.03197,85.33796
"13678",195.25609,79.03929,85.31503
"13679",195.26942,79.044174,85.289894
"13680",195.28276,79.046616,85.26247
"13681",195.2961,79.046616,85.23267
"13682",195.30943,79.044174,85.20044
"13683",195.32277,79.03197,85.15836
"13684",195.3361,79.01976,85.115906
"13685",195.34944,79.01732,85.08283
"13686",195.36278,79.03441,85.069214
"13687",195.37611,79.11009,85.11472
"13688",195.38945,79.290764,85.267586
"13689",195.40279,79.61059,85.56525
"13690",195.41612,80.0647,86.00719
"13691",195.42946,80.59937,86.543884
"13692",195.4428,81.126724,87.089966
"13693",195.45613,81.54177,87.54022
"13694",195.46947,81.778595,87.825226
"13695",195.4828,81.82742,87.929634
"13696",195.49614,81.722435,87.88175
"13697",195.50948,81.532005,87.74515
"13698",195.52281,81.3196,87.58062
"13699",195.53615,81.129166,87.43142
"13700",195.54948,80.98512,87.32266
"13701",195.56282,80.89479,87.263115
"13702",195.57616,80.8362,87.23248
"13703",195.5895,80.79225,87.21467
"13704",195.60283,80.73121,87.17838
"13705",195.61617,80.635994,87.10602
"13706",195.6295,80.49683,86.98673
"13707",195.64284,80.32838,86.8338
"13708",195.65617,80.15259,86.668274
"13709",195.66951,80.00122,86.521675
"13710",195.68285,79.89136,86.41185
"13711",195.69618,79.83276,86.34986
"13712",195.70952,79.81079,86.32266
"13713",195.72285,79.81079,86.31675
"13714",195.73619,79.815674,86.31572
"13715",195.74953,79.80835,86.302635
"13716",195.76286,79.77661,86.26491
"13717",195.7762,79.71557,86.196884
"13718",195.78954,79.635,86.10743
"13719",195.80287,79.53979,86.00081
"13720",195.81621,79.43969,85.88633
"13721",195.82954,79.34692,85.77605
"13722",195.84288,79.26635,85.67507
"13723",195.85622,79.19798,85.58378
"13724",195.86955,79.14427,85.505005
"13725",195.88289,79.10765,85.44164
"13726",195.89622,79.08324,85.38934
"13727",195.90956,79.06859,85.34605
"13728",195.9229,79.06859,85.31694
"13729",195.93623,79.07347,85.29272
"13730",195.94957,79.078354,85.26865
"13731",195.9629,79.080795,85.24229
"13732",195.97624,79.08812,85.22089
"13733",195.98958,79.09056,85.19483
"13734",196.00291,79.08324,85.15909
"13735",196.01625,79.07347,85.120674
"13736",196.02959,79.063705,85.081955
"13737",196.04292,79.05394,85.04293
"13738",196.05626,79.0515,85.010925
"13739",196.0696,79.080795,85.01058
"13740",196.08293,79.183334,85.0844
"13741",196.09627,79.395744,85.271286
"13742",196.1096,79.74975,85.60641
"13743",196.12294,80.22583,86.07467
"13744",196.13628,80.762955,86.61885
"13745",196.14961,81.26345,87.14319
"13746",196.16295,81.62966,87.54888
"13747",196.17628,81.80545,87.7756
"13748",196.18962,81.79813,87.82469
"13749",196.20296,81.64919,87.73195
"13750",196.2163,81.42458,87.558876
"13751",196.22963,81.19264,87.37145
"13752",196.24297,80.99977,87.21585
"13753",196.2563,80.86061,87.10793
"13754",196.26964,80.77516,87.04938
"13755",196.28297,80.72144,87.01988
"13756",196.29631,80.67506,86.99604
"13757",196.30965,80.59937,86.94145
"13758",196.32298,80.48463,86.845436
"13759",196.33632,80.33082,86.70677
"13760",196.34966,80.164795,86.55109
"13761",196.36299,80.008545,86.39999
"13762",196.37633,79.886475,86.27818
"13763",196.38966,79.80835,86.19651
"13764",196.403,79.77905,86.161224
"13765",196.41634,79.781494,86.15676
"13766",196.42967,79.7937,86.16214
"13767",196.44301,79.798584,86.160576
"13768",196.45634,79.783936,86.13963
"13769",196.46968,79.742424,86.09137
"13770",196.48302,79.68383,86.02473
"13771",196.49635,79.605705,85.93672
"13772",196.50969,79.5227,85.84139
"13773",196.52303,79.43969,85.74347
"13774",196.53636,79.35912,85.64539
"13775",196.5497,79.28588,85.552124
"13776",196.56303,79.22972,85.47365
"13777",196.57637,79.18822,85.40807
"13778",196.5897,79.15892,85.35341
"13779",196.60304,79.13939,85.307594
"13780",196.61638,79.132065,85.27338
"13781",196.62971,79.13451,85.248695
"13782",196.64305,79.14427,85.231415
"13783",196.65639,79.16136,85.22176
"13784",196.66972,79.17845,85.21265
"13785",196.68306,79.19554,85.20406
"13786",196.6964,79.202866,85.18625
"13787",196.70973,79.20531,85.16378
"13788",196.72307,79.20775,85.14139
"13789",196.7364,79.20775,85.11663
"13790",196.74974,79.219955,85.10408
"13791",196.76308,79.281,85.14075
"13792",196.77641,79.429924,85.267204
"13793",196.78975,79.70336,85.52283
"13794",196.80309,80.10132,85.911514
"13795",196.81642,80.584724,86.39809
"13796",196.82976,81.07301,86.90465
"13797",196.8431,81.478294,87.34346
"13798",196.85643,81.72488,87.63624
"13799",196.86977,81.7908,87.756065
"13800",196.8831,81.70046,87.72169
"13801",196.89644,81.50271,87.57707
"13802",196.90977,81.26345,87.38477
"13803",196.92311,81.03639,87.1972
"13804",196.93645,80.85329,87.04648
"13805",196.94978,80.726326,86.94618
"13806",196.96312,80.64088,86.88343
"13807",196.97646,80.57252,86.8351
"13808",196.98979,80.49195,86.77242
"13809",197.00313,80.39185,86.6877
"13810",197.01646,80.26978,86.57787
"13811",197.0298,80.15015,86.46667
"13812",197.04314,80.05249,86.3737
"13813",197.05647,79.9939,86.31675
"13814",197.06981,79.97681,86.29947
"13815",197.08315,79.98657,86.30851
"13816",197.09648,80.008545,86.33006
"13817",197.10982,80.01831,86.340096
"13818",197.12315,80.0061,86.32846
"13819",197.13649,79.974365,86.29691
"13820",197.14983,79.92798,86.249725
"13821",197.16316,79.8645,86.184
"13822",197.1765,79.79126,86.10652
"13823",197.18983,79.708244,86.01698
"13824",197.20317,79.62524,85.92486
"13825",197.2165,79.54467,85.83258
"13826",197.22984,79.47631,85.74999
"13827",197.24318,79.42504,85.68236
"13828",197.25652,79.39086,85.63021
"13829",197.26985,79.36889,85.5892
"13830",197.28319,79.35424,85.55483
"13831",197.29652,79.34936,85.52977
"13832",197.30986,79.3518,85.51188
"13833",197.3232,79.34692,85.48674
"13834",197.33653,79.33715,85.456566
"13835",197.34987,79.327385,85.42609
"13836",197.3632,79.310295,85.38798
"13837",197.37654,79.29565,85.351776
"13838",197.38988,79.30541,85.33953
"13839",197.40321,79.37377,85.386185
"13840",197.41655,79.54467,85.53751
"13841",197.42989,79.84497,85.823586
"13842",197.44322,80.26978,86.24355
"13843",197.45656,80.762955,86.745155
"13844",197.4699,81.24391,87.249954
"13845",197.48323,81.61501,87.65993
"13846",197.49657,81.815216,87.9106
"13847",197.5099,81.83719,87.989296
"13848",197.52324,81.71267,87.92219
"13849",197.53658,81.50271,87.76575
"13850",197.54991,81.26589,87.57589
"13851",197.56325,81.05348,87.40304
"13852",197.57658,80.88991,87.272385
"13853",197.58992,80.78493,87.19521
"13854",197.60326,80.719,87.15382
"13855",197.6166,80.67017,87.12746
"13856",197.62993,80.6067,87.08492
"13857",197.64326,80.5066,87.003784
"13858",197.6566,80.36988,86.8829
"13859",197.66994,80.21118,86.735756
"13860",197.68327,80.05737,86.58855
"13861",197.69661,79.92554,86.4585
"13862",197.70995,79.84009,86.37073
"13863",197.72328,79.801025,86.32667
"13864",197.73662,79.79614,86.31557
"13865",197.74995,79.81079,86.323845
"13866",197.76329,79.82056,86.3277
"13867",197.77663,79.815674,86.31721
"13868",197.78996,79.781494,86.27727
"13869",197.8033,79.72289,86.21184
"13870",197.81664,79.639885,86.12017
"13871",197.82997,79.54467,86.0137
"13872",197.8433,79.44457,85.899376
"13873",197.85664,79.344475,85.78192
"13874",197.86998,79.25414,85.671104
"13875",197.88332,79.183334,85.57699
"13876",197.89665,79.13451,85.50264
"13877",197.90999,79.10765,85.44874
"13878",197.92332,79.10033,85.41353
"13879",197.93666,79.10277,85.387856
"13880",197.95,79.114975,85.372025
"13881",197.96333,79.12474,85.35413
"13882",197.97667,79.12962,85.331665
"13883",197.99,79.132065,85.30691
"13884",198.00334,79.132065,85.279785
"13885",198.01668,79.132065,85.25266
"13886",198.03001,79.149155,85.24263
"13887",198.04335,79.2224,85.28928
"13888",198.05669,79.395744,85.43833
"13889",198.07002,79.70092,85.724625
"13890",198.08336,80.1355,86.14986
"13891",198.0967,80.65064,86.669235
"13892",198.11003,81.15846,87.19739
"13893",198.12337,81.5613,87.63643
"13894",198.1367,81.795685,87.9196
"13895",198.15004,81.849396,88.02943
"13896",198.16338,81.75174,87.98956
"13897",198.17671,81.5613,87.85387
"13898",198.19005,81.34402,87.68537
"13899",198.20338,81.1487,87.53205
"13900",198.21672,80.99489,87.41414
"13901",198.23006,80.89967,87.35001
"13902",198.2434,80.84596,87.32442
"13903",198.25673,80.814224,87.319115
"13904",198.27007,80.77272,87.303055
"13905",198.2834,80.69215,87.24663
"13906",198.29674,80.56275,87.13886
"13907",198.31007,80.394295,86.98799
"13908",198.32341,80.21362,86.81964
"13909",198.33675,80.045166,86.65786
"13910",198.35008,79.91333,86.527435
"13911",198.36342,79.83276,86.44416
"13912",198.37675,79.7937,86.39987
"13913",198.39009,79.77905,86.37878
"13914",198.40343,79.77661,86.36943
"13915",198.41676,79.766846,86.352684
"13916",198.4301,79.73754,86.31609
"13917",198.44344,79.68383,86.25418
"13918",198.45677,79.605705,86.166176
"13919",198.47011,79.51049,86.05864
"13920",198.48344,79.41039,85.943245
"13921",198.49678,79.310295,85.82472
"13922",198.51012,79.2224,85.71527
"13923",198.52345,79.151596,85.62017
"13924",198.53679,79.097885,85.53995
"13925",198.55013,79.06615,85.48002
"13926",198.56346,79.05882,85.44351
"13927",198.5768,79.06859,85.42387
"13928",198.59013,79.09056,85.41673
"13929",198.60347,79.11986,85.41761
"13930",198.6168,79.14427,85.41452
"13931",198.63014,79.15892,85.40243
"13932",198.64348,79.166245,85.38347
"13933",198.65681,79.166245,85.357414
"13934",198.67015,79.17357,85.338684
"13935",198.68349,79.22728,85.36657
"13936",198.69682,79.37133,85.48647
"13937",198.71016,79.639885,85.73538
"13938",198.7235,80.04028,86.12453
"13939",198.73683,80.533455,86.61896
"13940",198.75017,81.03395,87.13612
"13941",198.7635,81.45144,87.58592
"13942",198.77684,81.71267,87.89251
"13943",198.79018,81.79813,88.03149
"13944",198.80351,81.7322,88.02175
"13945",198.81685,81.566185,87.90987
"13946",198.83018,81.358665,87.75129
"13947",198.84352,81.163345,87.59843
"13948",198.85686,81.007095,87.47853
"13949",198.8702,80.902115,87.40502
"13950",198.88353,80.83864,87.369736
"13951",198.89687,80.799576,87.35688
"13952",198.9102,80.74586,87.32815
"13953",198.92354,80.66285,87.26845
"13954",198.93687,80.533455,87.15977
"13955",198.95021,80.37476,87.017746
"13956",198.96355,80.20874,86.863434
"13957",198.97688,80.05493,86.71615
"13958",198.99022,79.9353,86.598236
"13959",199.00356,79.86206,86.52297
"13960",199.01689,79.83032,86.48692
"13961",199.03023,79.818115,86.46941
"13962",199.04356,79.81323,86.45885
"13963",199.0569,79.80347,86.443245
"13964",199.07024,79.77173,86.405365
"13965",199.08357,79.72045,86.346954
"13966",199.09691,79.65453,86.2723
"13967",199.11024,79.57397,86.18094
"13968",199.12358,79.48608,86.079735
"13969",199.13692,79.39086,85.96846
"13970",199.15025,79.29565,85.85421
"13971",199.16359,79.21019,85.74674
"13972",199.17693,79.13695,85.64882
"13973",199.19026,79.078354,85.563255
"13974",199.2036,79.03685,85.49295
"13975",199.21693,79.00755,85.433556
"13976",199.23027,78.98558,85.38057
"13977",199.2436,78.96361,85.3269
"13978",199.25694,78.941635,85.27254
"13979",199.27028,78.922104,85.21993
"13980",199.28362,78.90257,85.16672
"13981",199.29695,78.890366,85.12022
"13982",199.31029,78.890366,85.08554
"13983",199.32362,78.91966,85.08016
"13984",199.33696,79.009995,85.136734
"13985",199.3503,79.20775,85.30355
"13986",199.36363,79.534904,85.60595
"13987",199.37697,79.98169,86.0382
"13988",199.3903,80.49439,86.55033
"13989",199.40364,80.987564,87.05895
"13990",199.41698,81.36599,87.46824
"13991",199.43031,81.57351,87.718445
"13992",199.44365,81.61013,87.80424
"13993",199.45699,81.512474,87.7569
"13994",199.47032,81.33669,87.62838
"13995",199.48366,81.146255,87.47971
"13996",199.497,80.98512,87.3544
"13997",199.51033,80.87038,87.27044
"13998",199.52367,80.80446,87.23172
"13999",199.537,80.765396,87.2178
"14000",199.55034,80.73121,87.20753
"14001",199.56367,80.66285,87.16202
"14002",199.57701,80.5481,87.067986
"14003",199.59035,80.38453,86.92154
"14004",199.60368,80.19409,86.74312
"14005",199.61702,80.00366,86.558754
"14006",199.63036,79.84497,86.40018
"14007",199.64369,79.7351,86.28546
"14008",199.65703,79.67162,86.21371
"14009",199.67036,79.64477,86.17659
"14010",199.6837,79.639885,86.16061
"14011",199.69704,79.64233,86.151794
"14012",199.71037,79.63256,86.13085
"14013",199.72371,79.605705,86.092514
"14014",199.73705,79.55932,86.033806
"14015",199.75038,79.500725,85.96144
"14016",199.76372,79.429924,85.87504
"14017",199.77705,79.364006,85.791306
"14018",199.79039,79.30541,85.71284
"14019",199.80373,79.259026,85.644745
"14020",199.81706,79.217514,85.58008
"14021",199.8304,79.185776,85.52389
"14022",199.84373,79.16136,85.47403
"14023",199.85707,79.13939,85.42585
"14024",199.8704,79.12474,85.38431
"14025",199.88374,79.11253,85.34475
"14026",199.89708,79.097885,85.30237
"14027",199.91042,79.080795,85.25709
"14028",199.92375,79.06615,85.213715
"14029",199.93709,79.05638,85.17477
"14030",199.95042,79.063705,85.1526
"14031",199.96376,79.10277,85.16241
"14032",199.9771,79.20775,85.23935
"14033",199.99043,79.412834,85.41968
"14034",200.00377,79.73998,85.72848
"14035",200.0171,80.181885,86.162254
"14036",200.03044,80.68238,86.668434
"14037",200.04378,81.163345,87.17072
"14038",200.05711,81.53445,87.57818
"14039",200.07045,81.74197,87.83365
"14040",200.08379,81.778595,87.92471
"14041",200.09712,81.671165,87.87286
"14042",200.11046,81.48318,87.7371
"14043",200.1238,81.26833,87.5686
"14044",200.13713,81.07301,87.41292
"14045",200.15047,80.92653,87.299965
"14046",200.1638,80.831314,87.2337
"14047",200.17714,80.77028,87.19865
"14048",200.19048,80.71656,87.169
"14049",200.20381,80.64332,87.11815
"14050",200.21715,80.53101,87.02595
"14051",200.23048,80.377205,86.88873
"14052",200.24382,80.20386,86.72717
"14053",200.25716,80.03784,86.56753
"14054",200.2705,79.90112,86.43199
"14055",200.28383,79.81323,86.34101
"14056",200.29716,79.77417,86.29611
"14057",200.3105,79.766846,86.28173
"14058",200.32384,79.77417,86.28177
"14059",200.33717,79.77417,86.27471
"14060",200.35051,79.75708,86.250565
"14061",200.36385,79.71557,86.20146
"14062",200.37718,79.64721,86.124214
"14063",200.39052,79.5642,86.03018
"14064",200.40385,79.46899,85.92135
"14065",200.41719,79.37621,85.81198
"14066",200.43053,79.28832,85.7046
"14067",200.44386,79.21507,85.60911
"14068",200.4572,79.16136,85.53087
"14069",200.47054,79.12718,85.47048
"14070",200.48387,79.10521,85.421234
"14071",200.49721,79.097885,85.38595
"14072",200.51054,79.09544,85.355316
"14073",200.52388,79.097885,85.32949
"14074",200.53722,79.10277,85.30618
"14075",200.55055,79.10765,85.28303
"14076",200.56389,79.10521,85.2527
"14077",200.57722,79.10277,85.2223
"14078",200.59056,79.11009,85.201584
"14079",200.6039,79.15648,85.22016
"14080",200.61723,79.28588,85.323204
"14081",200.63057,79.54711,85.56212
"14082",200.6439,79.94995,85.950806
"14083",200.65724,80.45045,86.44974
"14084",200.67058,80.970474,86.98384
"14085",200.68391,81.41726,87.46095
"14086",200.69725,81.71023,87.79821
"14087",200.71059,81.812775,87.9542
"14088",200.72392,81.74441,87.94248
"14089",200.73726,81.566185,87.81877
"14090",200.7506,81.341576,87.643105
"14091",200.76393,81.129166,87.47262
"14092",200.77727,80.96315,87.34189
"14093",200.7906,80.85573,87.264565
"14094",200.80394,80.79225,87.22783
"14095",200.81728,80.743416,87.20375
"14096",200.83061,80.67506,87.15862
"14097",200.84395,80.57252,87.07718
"14098",200.85728,80.430916,86.95347
"14099",200.87062,80.26978,86.8058
"14100",200.88396,80.113525,86.657974
"14101",200.8973,79.98169,86.529686
"14102",200.91063,79.89624,86.443665
"14103",200.92397,79.85962,86.4038
"14104",200.9373,79.85474,86.39453
"14105",200.95064,79.86694,86.4022
"14106",200.96397,79.87671,86.40781
"14107",200.97731,79.86694,86.39419
"14108",200.99065,79.823,86.346085
"14109",201.00398,79.74975,86.2673
"14110",201.01732,79.656975,86.16671
"14111",201.03065,79.56176,86.060776
"14112",201.04399,79.47143,85.95675
"14113",201.05733,79.39086,85.859665
"14114",201.07066,79.32494,85.77471
"14115",201.084,79.27856,85.70723
"14116",201.09734,79.23949,85.645615
"14117",201.11067,79.21019,85.59255
"14118",201.12401,79.18822,85.5459
"14119",201.13734,79.17113,85.50344
"14120",201.15068,79.15404,85.46045
"14121",201.16402,79.13451,85.41448
"14122",201.17735,79.114975,85.367905
"14123",201.19069,79.10277,85.32804
"14124",201.20403,79.11009,85.30733
"14125",201.21736,79.15648,85.325905
"14126",201.2307,79.28588,85.42895
"14127",201.24403,79.53002,85.65077
"14128",201.25737,79.90112,86.00719
"14129",201.2707,80.36744,86.47041
"14130",201.28404,80.86061,86.97507
"14131",201.29738,81.28054,87.42189
"14132",201.31071,81.55398,87.735344
"14133",201.32405,81.64675,87.87668
"14134",201.33739,81.57595,87.85734
"14135",201.35072,81.392845,87.72348
"14136",201.36406,81.160904,87.535065
"14137",201.3774,80.936295,87.34673
"14138",201.39073,80.75563,87.19533
"14139",201.40407,80.63355,87.09686
"14140",201.4174,80.56031,87.04342
"14141",201.43074,80.50904,87.00966
"14142",201.44408,80.45289,86.96941
"14143",201.45741,80.365,86.895676
"14144",201.47075,80.23804,86.78012
"14145",201.48409,80.08423,86.63375
"14146",201.49742,79.9353,86.48746
"14147",201.51076,79.815674,86.36581
"14148",201.5241,79.73754,86.28191
"14149",201.53743,79.70336,86.23953
"14150",201.55077,79.70092,86.22782
"14151",201.5641,79.710686,86.22824
"14152",201.57744,79.72289,86.23141
"14153",201.59077,79.72045,86.22031
"14154",201.60411,79.693596,86.184715
"14155",201.61745,79.64233,86.12387
"14156",201.63078,79.571526,86.04189
"14157",201.64412,79.48608,85.943054
"14158",201.65746,79.40063,85.841545
"14159",201.67079,79.31762,85.73981
"14160",201.68413,79.24925,85.650116
"14161",201.69746,79.19066,85.56806
"14162",201.7108,79.14183,85.49394
"14163",201.72414,79.10765,85.432945
"14164",201.73747,79.08568,85.38309
"14165",201.75081,79.07103,85.33987
"14166",201.76414,79.06615,85.305954
"14167",201.77748,79.063705,85.27433
"14168",201.79082,79.061264,85.24263
"14169",201.80415,79.061264,85.213295
"14170",201.81749,79.07347,85.19617
"14171",201.83083,79.12718,85.220924
"14172",201.84416,79.26635,85.33282
"14173",201.8575,79.52758,85.57112
"14174",201.87083,79.92554,85.954315
"14175",201.88417,80.41871,86.44516
"14176",201.8975,80.938736,86.97827
"14177",201.91084,81.38552,87.45439
"14178",201.92418,81.68093,87.7931
"14179",201.93752,81.795685,87.96038
"14180",201.95085,81.73708,87.95789
"14181",201.96419,81.566185,87.84128
"14182",201.97752,81.34646,87.670494
"14183",201.99086,81.13649,87.5026
"14184",202.0042,80.97536,87.37698
"14185",202.01753,80.87038,87.30248
"14186",202.03087,80.80934,87.26865
"14187",202.0442,80.76784,87.25243
"14188",202.05754,80.706795,87.215385
"14189",202.07088,80.61158,87.14226
"14190",202.08421,80.47242,87.02221
"14191",202.09755,80.30396,86.868515
"14192",202.11089,80.128174,86.702225
"14193",202.12422,79.97681,86.55486
"14194",202.13756,79.85962,86.43695
"14195",202.1509,79.78882,86.36176
"14196",202.16423,79.75708,86.323425
"14197",202.17757,79.74975,86.3085
"14198",202.1909,79.74975,86.30068
"14199",202.20424,79.73754,86.280655
"14200",202.21758,79.710686,86.2456
"14201",202.23091,79.6643,86.19017
"14202",202.24425,79.59594,86.11132
"14203",202.25758,79.51293,86.015686
"14204",202.27092,79.42748,85.915016
"14205",202.28426,79.33959,85.809235
"14206",202.29759,79.259026,85.70803
"14207",202.31093,79.19554,85.62139
"14208",202.32426,79.14427,85.54498
"14209",202.3376,79.10765,85.48162
"14210",202.35094,79.080795,85.42688
"14211",202.36427,79.05638,85.37374
"14212",202.37761,79.03685,85.32472
"14213",202.39095,79.0222,85.279976
"14214",202.40428,79.00511,85.23233
"14215",202.41762,78.992905,85.18903
"14216",202.43095,78.98802,85.15268
"14217",202.44429,79.009995,85.14303
"14218",202.45763,79.08812,85.190216
"14219",202.47096,79.26635,85.33995
"14220",202.4843,79.57397,85.62464
"14221",202.49763,80.01099,86.04835
"14222",202.51097,80.52125,86.55895
"14223",202.5243,81.0193,87.073296
"14224",202.53764,81.41238,87.49822
"14225",202.55098,81.636986,87.76697
"14226",202.56432,81.685814,87.86695
"14227",202.57765,81.59304,87.82686
"14228",202.59099,81.42458,87.70818
"14229",202.60432,81.24391,87.57203
"14230",202.61766,81.08766,87.45465
"14231",202.631,80.972916,87.37389
"14232",202.64433,80.89967,87.331055
"14233",202.65767,80.84352,87.30302
"14234",202.671,80.782486,87.26834
"14235",202.68434,80.69703,87.20734
"14236",202.69768,80.57252,87.10461
"14237",202.71101,80.411385,86.961365
"14238",202.72435,80.233154,86.79599
"14239",202.73769,80.062256,86.63238
"14240",202.75102,79.923096,86.49516
"14241",202.76436,79.83032,86.39999
"14242",202.7777,79.783936,86.3483
"14243",202.79103,79.77173,86.32934
"14244",202.80437,79.77661,86.32709
"14245",202.8177,79.77905,86.32255
"14246",202.83104,79.75952,86.29611
"14247",202.84438,79.71801,86.247086
"14248",202.85771,79.65942,86.17968
"14249",202.87105,79.586174,86.095795
"14250",202.88438,79.50805,86.00474
"14251",202.89772,79.42748,85.9088
"14252",202.91106,79.3518,85.81522
"14253",202.9244,79.28588,85.72905
"14254",202.93773,79.22484,85.64569
"14255",202.95107,79.17357,85.5702
"14256",202.9644,79.132065,85.50287
"14257",202.97774,79.10033,85.44401
"14258",202.99107,79.078354,85.39392
"14259",203.00441,79.061264,85.34803
"14260",203.01775,79.04906,85.30649
"14261",203.03108,79.03929,85.267006
"14262",203.04442,79.03441,85.2321
"14263",203.05775,79.03929,85.20681
"14264",203.07109,79.06859,85.206085
"14265",203.08443,79.15648,85.26487
"14266",203.09776,79.344475,85.426506
"14267",203.1111,79.656975,85.71852
"14268",203.12444,80.08667,86.1375
"14269",203.13777,80.58228,86.63582
"14270",203.15111,81.06569,87.13742
"14271",203.16444,81.449,87.55403
"14272",203.17778,81.671165,87.82148
"14273",203.19112,81.71999,87.92253
"14274",203.20445,81.634544,87.89083
"14275",203.21779,81.47341,87.78078
"14276",203.23112,81.290306,87.643715
"14277",203.24446,81.13649,87.53022
"14278",203.2578,81.02663,87.45587
"14279",203.27113,80.96071,87.422035
"14280",203.28447,80.91676,87.40811
"14281",203.2978,80.86549,87.38549
"14282",203.31114,80.78493,87.33197
"14283",203.32448,80.66041,87.23198
"14284",203.33781,80.499275,87.091484
"14285",203.35115,80.31617,86.92398
"14286",203.36449,80.14526,86.762955
"14287",203.37782,80.0061,86.628334
"14288",203.39116,79.91333,86.53575
"14289",203.4045,79.871826,86.49154
"14290",203.41783,79.86694,86.48265
"14291",203.43117,79.87671,86.48826
"14292",203.4445,79.87915,86.48685
"14293",203.45784,79.8645,86.46842
"14294",203.47118,79.818115,86.4178
"14295",203.48451,79.75464,86.34864
"14296",203.49785,79.674065,86.2604
"14297",203.51118,79.586174,86.16232
"14298",203.52452,79.49584,86.05906
"14299",203.53786,79.412834,85.9603
"14300",203.5512,79.33471,85.86382
"14301",203.56453,79.27123,85.77956
"14302",203.57787,79.219955,85.705505
"14303",203.5912,79.185776,85.64695
"14304",203.60454,79.166245,85.601974
"14305",203.61787,79.149155,85.55883
"14306",203.63121,79.13939,85.52248
"14307",203.64455,79.12962,85.48582
"14308",203.65788,79.11986,85.44885
"14309",203.67122,79.11009,85.41158
"14310",203.68456,79.10277,85.37645
"14311",203.69789,79.10521,85.35085
"14312",203.71123,79.14671,85.364395
"14313",203.72456,79.26147,85.452484
"14314",203.7379,79.483635,85.65157
"14315",203.75124,79.83276,85.984566
"14316",203.76457,80.27955,86.426125
"14317",203.77791,80.762955,86.91827
"14318",203.79124,81.19997,87.37912
"14319",203.80458,81.51003,87.726685
"14320",203.81792,81.654076,87.917915
"14321",203.83125,81.636986,87.952515
"14322",203.84459,81.50515,87.87183
"14323",203.85793,81.31716,87.73088
"14324",203.87126,81.12428,87.57916
"14325",203.8846,80.96071,87.45072
"14326",203.89793,80.848404,87.36844
"14327",203.91127,80.77028,87.316826
"14328",203.9246,80.709236,87.279854
"14329",203.93794,80.635994,87.228775
"14330",203.95128,80.52857,87.14123
"14331",203.96461,80.38453,87.0137
"14332",203.97795,80.22095,86.86214
"14333",203.99129,80.062256,86.71035
"14334",204.00462,79.9353,86.58534
"14335",204.01796,79.85474,86.502754
"14336",204.0313,79.823,86.46648
"14337",204.04463,79.83765,86.47559
"14338",204.05797,79.871826,86.5047
"14339",204.0713,79.903564,86.53243
"14340",204.08464,79.92554,86.55139
"14341",204.09798,79.91089,86.53442
"14342",204.11131,79.85962,86.48036
"14343",204.12465,79.781494,86.39785
"14344",204.13799,79.68627,86.2958
"14345",204.15132,79.58373,86.18346
"14346",204.16466,79.49096,86.077675
"14347",204.178,79.40551,85.97632
"14348",204.19133,79.33471,85.88694
"14349",204.20467,79.27123,85.80267
"14350",204.218,79.2224,85.731064
"14351",204.23134,79.17601,85.66038
"14352",204.24467,79.12962,85.58824
"14353",204.25801,79.080795,85.512215
"14354",204.27135,79.029526,85.43222
"14355",204.28468,78.96849,85.34086
"14356",204.29802,78.90257,85.24271
"14357",204.31136,78.83177,85.13761
"14358",204.32469,78.765854,85.03519
"14359",204.33803,78.73167,84.96243
"14360",204.35136,78.77074,84.96187
"14361",204.3647,78.91966,85.07238
"14362",204.37804,79.202866,85.32182
"14363",204.39137,79.605705,85.69975
"14364",204.40471,80.06958,86.151306
"14365",204.41805,80.51392,86.597824
"14366",204.43138,80.848404,86.948364
"14367",204.44472,81.02907,87.15554
"14368",204.45805,81.0486,87.20723
"14369",204.47139,80.936295,87.12769
"14370",204.48473,80.7483,86.968956
"14371",204.49806,80.53834,86.78238
"14372",204.5114,80.35279,86.613655
"14373",204.52473,80.21362,86.48551
"14374",204.53807,80.12329,86.401855
"14375",204.5514,80.06714,86.349556
"14376",204.56474,80.02075,86.30527
"14377",204.57808,79.954834,86.24
"14378",204.59142,79.85962,86.14337
"14379",204.60475,79.73754,86.01691
"14380",204.61809,79.62035,85.89152
"14381",204.63142,79.52758,85.78688
"14382",204.64476,79.47631,85.72085
"14383",204.6581,79.45678,85.68495
"14384",204.67143,79.45678,85.66798
"14385",204.68477,79.449455,85.64368
"14386",204.6981,79.42016,85.597176
"14387",204.71144,79.364006,85.5229
"14388",204.72478,79.28588,85.424904
"14389",204.73811,79.200424,85.31713
"14390",204.75145,79.11742,85.20914
"14391",204.76479,79.0515,85.11564
"14392",204.77812,78.995346,85.02985
"14393",204.79146,78.95384,84.95695
"14394",204.8048,78.91722,84.887634
"14395",204.81813,78.89281,84.829384
"14396",204.83147,78.8806,84.78258
"14397",204.8448,78.89525,84.762245
"14398",204.85814,78.93919,84.77167
"14399",204.87148,79.009995,84.80932
"14400",204.88481,79.093,84.86139
"14401",204.89815,79.17357,84.91361
"14402",204.91148,79.24437,84.95859
"14403",204.92482,79.29809,84.98869
"14404",204.93816,79.33959,85.00826
"14405",204.95149,79.39086,85.038895
"14406",204.96483,79.48119,85.11019
"14407",204.97816,79.639885,85.25267
"14408",204.9915,79.903564,85.5051
"14409",205.00484,80.272224,85.87074
"14410",205.01817,80.71168,86.3187
"14411",205.03151,81.15358,86.782845
"14412",205.04485,81.532005,87.19732
"14413",205.05818,81.78592,87.49911
"14414",205.07152,81.89334,87.66234
"14415",205.08485,81.864044,87.69221
"14416",205.09819,81.73708,87.6235
"14417",205.11153,81.55886,87.49956
"14418",205.12486,81.375755,87.365166
"14419",205.1382,81.22438,87.25678
"14420",205.15154,81.11452,87.18518
"14421",205.16487,81.04616,87.15165
"14422",205.1782,80.99977,87.137955
"14423",205.19154,80.953384,87.12281
"14424",205.20488,80.885025,87.08424
"14425",205.21822,80.79469,87.02157
"14426",205.23155,80.69215,86.943855
"14427",205.24489,80.587166,86.860504
"14428",205.25822,80.49439,86.78608
"14429",205.27156,80.41871,86.725845
"14430",205.2849,80.35279,86.67301
"14431",205.29823,80.28199,86.613235
"14432",205.31157,80.2063,86.54636
"14433",205.3249,80.113525,86.46003
"14434",205.33824,80.01343,86.36348
"14435",205.35158,79.91577,86.26624
"14436",205.36491,79.83276,86.1806
"14437",205.37825,79.77173,86.11434
"14438",205.39159,79.72289,86.05837
"14439",205.40492,79.67162,85.99844
"14440",205.41826,79.605705,85.922264
"14441",205.4316,79.520256,85.82449
"14442",205.44493,79.415276,85.70452
"14443",205.45827,79.30785,85.57883
"14444",205.4716,79.217514,85.46686
"14445",205.48494,79.15648,85.38137
"14446",205.49828,79.114975,85.31351
"14447",205.51161,79.08568,85.25655
"14448",205.52495,79.05394,85.19624
"14449",205.53828,79.02464,85.13738
"14450",205.55162,78.99779,85.08005
"14451",205.56496,79.00267,85.05361
"14452",205.5783,79.07347,85.09325
"14453",205.59163,79.24925,85.240074
"14454",205.60497,79.551994,85.519356
"14455",205.6183,79.97681,85.93017
"14456",205.63164,80.46754,86.42017
"14457",205.64497,80.95094,86.91819
"14458",205.65831,81.34646,87.34342
"14459",205.67165,81.59548,87.63452
"14460",205.68498,81.68093,87.76983
"14461",205.69832,81.634544,87.77597
"14462",205.71165,81.50271,87.69521
"14463",205.72499,81.33181,87.57127
"14464",205.73833,81.15602,87.4371
"14465",205.75166,80.99489,87.312096
"14466",205.765,80.86061,87.20891
"14467",205.77834,80.743416,87.11861
"14468",205.79167,80.63111,87.02953
"14469",205.80501,80.50172,86.91986
"14470",205.81834,80.35523,86.789055
"14471",205.83168,80.198975,86.6439
"14472",205.84502,80.04761,86.49875
"14473",205.85835,79.92798,86.38061
"14474",205.87169,79.86206,86.31244
"14475",205.88503,79.852295,86.29836
"14476",205.89836,79.88403,86.325485
"14477",205.9117,79.9353,86.37313
"14478",205.92503,79.98657,86.42238
"14479",205.93837,80.008545,86.44393
"14480",205.9517,79.98901,86.42467
"14481",205.96504,79.923096,86.358406
"14482",205.97838,79.823,86.255905
"14483",205.99171,79.70092,86.128296
"14484",206.00505,79.571526,85.989555
"14485",206.01839,79.4519,85.85654
"14486",206.03172,79.34692,85.73443
"14487",206.04506,79.259026,85.62613
"14488",206.0584,79.19554,85.53949
"14489",206.07173,79.14671,85.46552
"14490",206.08507,79.114975,85.40712
"14491",206.0984,79.093,85.35749
"14492",206.11174,79.080795,85.31694
"14493",206.12508,79.07347,85.28089
"14494",206.13841,79.07103,85.2495
"14495",206.15175,79.06615,85.21558
"14496",206.16508,79.07103,85.191284
"14497",206.17842,79.10765,85.198875
"14498",206.19176,79.217514,85.28085
"14499",206.2051,79.43969,85.47858
"14500",206.21843,79.7937,85.81508
"14501",206.23177,80.257576,86.27251
"14502",206.2451,80.762955,86.785934
"14503",206.25844,81.2195,87.26632
"14504",206.27177,81.54177,87.6267
"14505",206.28511,81.688255,87.821365
"14506",206.29845,81.671165,87.85703
"14507",206.31178,81.532005,87.770096
"14508",206.32512,81.32937,87.61533
"14509",206.33846,81.126724,87.45423
"14510",206.35179,80.96071,87.323425
"14511",206.36513,80.84108,87.23382
"14512",206.37846,80.765396,87.18442
"14513",206.3918,80.71656,87.1595
"14514",206.40514,80.66285,87.12818
"14515",206.41847,80.57252,87.05856
"14516",206.43181,80.44068,86.94462
"14517",206.44514,80.26734,86.78505
"14518",206.45848,80.07446,86.600525
"14519",206.47182,79.89136,86.41975
"14520",206.48515,79.742424,86.26742
"14521",206.49849,79.64233,86.15927
"14522",206.51183,79.58373,86.0895
"14523",206.52516,79.56176,86.05452
"14524",206.5385,79.551994,86.03106
"14525",206.55183,79.54467,86.009735
"14526",206.56517,79.52514,85.975975
"14527",206.5785,79.49096,85.926956
"14528",206.59184,79.44213,85.86222
"14529",206.60518,79.38842,85.79108
"14530",206.61852,79.32494,85.70849
"14531",206.63185,79.256584,85.61903
"14532",206.64519,79.17845,85.51767
"14533",206.65852,79.08812,85.401665
"14534",206.67186,78.98558,85.27063
"14535",206.6852,78.873276,85.126625
"14536",206.69853,78.75853,84.97667
"14537",206.71187,78.65354,84.832886
"14538",206.7252,78.56565,84.70292
"14539",206.73854,78.50706,84.5995
"14540",206.75188,78.47288,84.51867
"14541",206.76521,78.46311,84.46118
"14542",206.77855,78.4802,84.430244
"14543",206.79189,78.52415,84.4267
"14544",206.80522,78.62913,84.48556
"14545",206.81856,78.83421,84.647804
"14546",206.8319,79.17113,84.94829
"14547",206.84523,79.635,85.38626
"14548",206.85857,80.17456,85.91441
"14549",206.8719,80.69459,86.439896
"14550",206.88524,81.10475,86.871765
"14551",206.89857,81.34402,87.14555
"14552",206.91191,81.39529,87.23882
"14553",206.92525,81.29275,87.179886
"14554",206.93858,81.094986,87.02252
"14555",206.95192,80.86549,86.82725
"14556",206.96526,80.64576,86.63456
"14557",206.97859,80.462654,86.471634
"14558",206.99193,80.31373,86.337166
"14559",207.00526,80.19409,86.22733
"14560",207.0186,80.079346,86.11865
"14561",207.03194,79.95239,85.99418
"14562",207.04527,79.79126,85.83156
"14563",207.05861,79.605705,85.63948
"14564",207.07195,79.41039,85.43185
"14565",207.08528,79.22728,85.23031
"14566",207.09862,79.080795,85.05968
"14567",207.11195,78.99046,84.94062
"14568",207.12529,78.958725,84.877335
"14569",207.13863,78.97337,84.85944
"14570",207.15196,79.0222,84.87619
"14571",207.1653,79.09056,84.913994
"14572",207.17863,79.1638,84.95882
"14573",207.19197,79.234604,85.00349
"14574",207.2053,79.28588,85.030846
"14575",207.21864,79.30297,85.02562
"14576",207.23198,79.26879,84.96966
"14577",207.24532,79.17601,84.85403
"14578",207.25865,79.03441,84.686676
"14579",207.27199,78.853745,84.47584
"14580",207.28532,78.658424,84.2447
"14581",207.29866,78.470436,84.014786
"14582",207.312,78.30686,83.80341
"14583",207.32533,78.170135,83.61378
"14584",207.33867,78.0676,83.454056
"14585",207.352,77.98947,83.315544
"14586",207.36534,77.9382,83.20145
"14587",207.37868,77.91379,83.1126
"14588",207.39201,77.92111,83.05473
"14589",207.40535,77.99924,83.067894
"14590",207.41869,78.19211,83.19824
"14591",207.43202,78.54856,83.4982
"14592",207.44536,79.06859,83.97287
"14593",207.4587,79.71557,84.590744
"14594",207.47203,80.394295,85.26058
"14595",207.48537,80.98268,85.86129
"14596",207.4987,81.3904,86.29972
"14597",207.51204,81.57595,86.52872
"14598",207.52538,81.55642,86.55843
"14599",207.53871,81.39529,86.44594
"14600",207.55205,81.16823,86.26248
"14601",207.56538,80.936295,86.067055
"14602",207.57872,80.740974,85.90099
"14603",207.59206,80.601814,85.78499
"14604",207.6054,80.51148,85.71346
"14605",207.61873,80.45289,85.67085
"14606",207.63206,80.39918,85.631294
"14607",207.6454,80.33082,85.57541
"14608",207.65874,80.235596,85.490524
"14609",207.67207,80.10864,85.37093
"14610",207.68541,79.96948,85.23517
"14611",207.69875,79.84497,85.1097
"14612",207.71208,79.7522,85.012085
"14613",207.72542,79.70092,84.953064
"14614",207.73875,79.691154,84.93395
"14615",207.75209,79.710686,84.94383
"14616",207.76543,79.73998,84.96409
"14617",207.77876,79.75464,84.97062
"14618",207.7921,79.74731,84.95562
"14619",207.80544,79.71557,84.915985
"14620",207.81877,79.66918,84.86071
"14621",207.8321,79.61303,84.79422
"14622",207.84544,79.55688,84.725975
"14623",207.85878,79.50561,84.66086
"14624",207.87212,79.466545,84.606346
"14625",207.88545,79.432365,84.5555
"14626",207.89879,79.398186,84.50358
"14627",207.91212,79.36645,84.45303
"14628",207.92546,79.33227,84.399055
"14629",207.9388,79.293205,84.33913
"14630",207.95213,79.24925,84.27309
"14631",207.96547,79.20775,84.20812
"14632",207.9788,79.166245,84.14186
"14633",207.99214,79.132065,84.08163
"14634",208.00548,79.132065,84.054504
"14635",208.01881,79.22484,84.120155
"14636",208.03215,79.466545,84.33764
"14637",208.04549,79.87427,84.72869
"14638",208.05882,80.41871,85.2692
"14639",208.07216,81.02907,85.89265
"14640",208.0855,81.58816,86.483894
"14641",208.09883,81.986115,86.93148
"14642",208.11217,82.16678,87.17421
"14643",208.1255,82.13748,87.21262
"14644",208.13884,81.951935,87.09387
"14645",208.15218,81.68093,86.883865
"14646",208.16551,81.3904,86.64587
"14647",208.17885,81.13649,86.4354
"14648",208.19218,80.93385,86.26828
"14649",208.20552,80.79469,86.1583
"14650",208.21886,80.70191,86.090355
"14651",208.2322,80.63355,86.04393
"14652",208.24553,80.56519,85.99537
"14653",208.25887,80.4773,85.92514
"14654",208.2722,80.35523,85.817986
"14655",208.28554,80.216064,85.68992
"14656",208.29887,80.076904,85.55751
"14657",208.31221,79.96704,85.45005
"14658",208.32555,79.90845,85.39043
"14659",208.33888,79.89868,85.3778
"14660",208.35222,79.92798,85.40393
"14661",208.36555,79.971924,85.445625
"14662",208.37889,80.01099,85.48381
"14663",208.39223,80.0354,85.50857
"14664",208.40556,80.03784,85.512115
"14665",208.4189,80.01099,85.48644
"14666",208.43224,79.96704,85.44284
"14667",208.44557,79.90845,85.38322
"14668",208.45891,79.83276,85.30467
"14669",208.47224,79.74731,85.21399
"14670",208.48558,79.65942,85.1182
"14671",208.49892,79.56664,85.014786
"14672",208.51225,79.47387,84.90847
"14673",208.52559,79.378654,84.796814
"14674",208.53893,79.28344,84.68218
"14675",208.55226,79.185776,84.562126
"14676",208.5656,79.09056,84.44147
"14677",208.57893,79.00755,84.33004
"14678",208.59227,78.958725,84.2502
"14679",208.6056,78.98558,84.244514
"14680",208.61894,79.14671,84.37395
"14681",208.63228,79.48119,84.68176
"14682",208.64561,79.97681,85.16116
"14683",208.65895,80.570076,85.75371
"14684",208.67229,81.146255,86.3477
"14685",208.68562,81.602806,86.84007
"14686",208.69896,81.85672,87.14407
"14687",208.7123,81.900665,87.24604
"14688",208.72563,81.77615,87.18092
"14689",208.73897,81.54421,87.004486
"14690",208.7523,81.28054,86.78907
"14691",208.76564,81.03151,86.580055
"14692",208.77898,80.82643,86.40721
"14693",208.79231,80.672615,86.27922
"14694",208.80565,80.57252,86.20014
"14695",208.81898,80.499275,86.14479
"14696",208.83232,80.42359,86.08471
"14697",208.84566,80.33326,86.007614
"14698",208.859,80.216064,85.90083
"14699",208.87233,80.08423,85.77575
"14700",208.88567,79.94995,85.644104
"14701",208.899,79.83765,85.530235
"14702",208.91234,79.764404,85.45192
"14703",208.92567,79.73022,85.41037
"14704",208.93901,79.73022,85.40194
"14705",208.95235,79.744865,85.40816
"14706",208.96568,79.76196,85.41728
"14707",208.97902,79.77173,85.41961
"14708",208.99236,79.75952,85.40027
"14709",209.00569,79.725334,85.35857
"14710",209.01903,79.676506,85.301155
"14711",209.03236,79.61059,85.22513
"14712",209.0457,79.537346,85.13972
"14713",209.05904,79.46166,85.049576
"14714",209.07237,79.39086,84.96195
"14715",209.08571,79.32494,84.877
"14716",209.09904,79.26879,84.79975
"14717",209.11238,79.22728,84.73539
"14718",209.12572,79.1931,84.67706
"14719",209.13905,79.166245,84.62499
"14720",209.15239,79.14671,84.57941
"14721",209.16573,79.13451,84.540535
"14722",209.17906,79.15404,84.53302
"14723",209.1924,79.24681,84.59936
"14724",209.20573,79.47143,84.80044
"14725",209.21907,79.85474,85.16723
"14726",209.2324,80.38209,85.69004
"14727",209.24574,80.98024,86.30013
"14728",209.25908,81.54665,86.89718
"14729",209.27242,81.97391,87.372765
"14730",209.28575,82.19852,87.65906
"14731",209.29909,82.213165,87.74241
"14732",209.31242,82.0618,87.6602
"14733",209.32576,81.812775,87.47561
"14734",209.3391,81.53933,87.25881
"14735",209.35243,81.28542,87.05301
"14736",209.36577,81.077896,86.88565
"14737",209.3791,80.919205,86.76064
"14738",209.39244,80.799576,86.66974
"14739",209.40578,80.69703,86.59218
"14740",209.41911,80.587166,86.5041
"14741",209.43245,80.45533,86.39061
"14742",209.44579,80.2942,86.243706
"14743",209.45912,80.12085,86.07955
"14744",209.47246,79.95972,85.922195
"14745",209.4858,79.83032,85.79154
"14746",209.49913,79.74975,85.705666
"14747",209.51247,79.72045,85.66855
"14748",209.5258,79.727776,85.66714
"14749",209.53914,79.74975,85.6806
"14750",209.55247,79.76929,85.69232
"14751",209.56581,79.76929,85.68511
"14752",209.57915,79.742424,85.65104
"14753",209.59248,79.68871,85.58928
"14754",209.60582,79.61547,85.50631
"14755",209.61916,79.52758,85.4064
"14756",209.63249,79.42748,85.29154
"14757",209.64583,79.3225,85.16867
"14758",209.65916,79.2224,85.04739
"14759",209.6725,79.12718,84.92788
"14760",209.68584,79.044174,84.8176
"14761",209.69917,78.9807,84.72425
"14762",209.71251,78.93919,84.650894
"14763",209.72585,78.91478,84.59333
"14764",209.73918,78.905014,84.54965
"14765",209.75252,78.9099,84.52032
"14766",209.76585,78.94408,84.52043
"14767",209.77919,79.046616,84.58997
"14768",209.79253,79.273674,84.78724
"14769",209.80586,79.66186,85.152725
"14770",209.8192,80.18921,85.66951
"14771",209.83253,80.797134,86.28335
"14772",209.84587,81.373314,86.88444
"14773",209.8592,81.812775,87.36681
"14774",209.87254,82.03006,87.64075
"14775",209.88588,82.022736,87.69686
"14776",209.89922,81.83475,87.57208
"14777",209.91255,81.54421,87.33888
"14778",209.92589,81.22682,87.06975
"14779",209.93922,80.938736,86.82
"14780",209.95256,80.71412,86.62472
"14781",209.9659,80.56275,86.49567
"14782",209.97923,80.465096,86.415596
"14783",209.99257,80.39918,86.36421
"14784",210.0059,80.32838,86.305885
"14785",210.01924,80.23804,86.22581
"14786",210.03258,80.11597,86.111176
"14787",210.04591,79.971924,85.97076
"14788",210.05925,79.823,85.82095
"14789",210.07259,79.691154,85.68358
"14790",210.08592,79.59594,85.57871
"14791",210.09926,79.537346,85.50749
"14792",210.1126,79.50805,85.46374
"14793",210.12593,79.500725,85.44104
"14794",210.13927,79.49584,85.420555
"14795",210.1526,79.48119,85.39015
"14796",210.16594,79.45434,85.347084
"14797",210.17928,79.412834,85.28853
"14798",210.19261,79.35912,85.21647
"14799",210.20595,79.29809,85.13541
"14800",210.21928,79.237045,85.05243
"14801",210.23262,79.18089,84.972435
"14802",210.24596,79.12962,84.89557
"14803",210.2593,79.08812,84.826866
"14804",210.27263,79.0515,84.76175
"14805",210.28596,79.01488,84.69549
"14806",210.2993,78.98314,84.632965
"14807",210.31264,78.95628,84.57433
"14808",210.32597,78.93675,84.52219
"14809",210.33931,78.93431,84.48652
"14810",210.35265,78.96605,84.484955
"14811",210.36598,79.07103,84.557625
"14812",210.37932,79.30541,84.76298
"14813",210.39265,79.69604,85.1319
"14814",210.40599,80.22583,85.65219
"14815",210.41933,80.82887,86.26229
"14816",210.43266,81.40749,86.86681
"14817",210.446,81.85428,87.35758
"14818",210.45934,82.1033,87.66455
"14819",210.47267,82.15457,87.78155
"14820",210.48601,82.05203,87.74634
"14821",210.49934,81.864044,87.622475
"14822",210.51268,81.64675,87.46343
"14823",210.52602,81.449,87.31714
"14824",210.53935,81.29519,87.20861
"14825",210.55269,81.18288,87.13677
"14826",210.56602,81.10475,87.09561
"14827",210.57936,81.03395,87.05933
"14828",210.5927,80.94606,87.00375
"14829",210.60603,80.81911,86.906364
"14830",210.61937,80.66041,86.77326
"14831",210.6327,80.4773,86.610794
"14832",210.64604,80.2942,86.442604
"14833",210.65938,80.14282,86.30042
"14834",210.67271,80.03296,86.19502
"14835",210.68605,79.96948,86.132576
"14836",210.69939,79.94751,86.10965
"14837",210.71272,79.94751,86.10801
"14838",210.72606,79.94995,86.10881
"14839",210.7394,79.9353,86.0926
"14840",210.75273,79.89136,86.04663
"14841",210.76607,79.815674,85.96755
"14842",210.7794,79.71313,85.859245
"14843",210.79274,79.59594,85.73309
"14844",210.80608,79.48119,85.60572
"14845",210.81941,79.37377,85.482086
"14846",210.83275,79.273674,85.36242
"14847",210.84608,79.185776,85.25182
"14848",210.85942,79.114975,85.15558
"14849",210.87276,79.06859,85.081535
"14850",210.8861,79.03929,85.02313
"14851",210.89943,79.01976,84.97358
"14852",210.91277,79.012436,84.93562
"14853",210.9261,79.012436,84.90476
"14854",210.93944,79.03929,84.90076
"14855",210.95277,79.132065,84.96351
"14856",210.96611,79.34203,85.146355
"14857",210.97945,79.70336,85.48712
"14858",210.99278,80.20386,85.97835
"14859",211.00612,80.78737,86.56823
"14860",211.01945,81.358665,87.16413
"14861",211.03279,81.81766,87.66558
"14862",211.04613,82.09598,88.0007
"14863",211.05946,82.176544,88.14677
"14864",211.0728,82.091095,88.12933
"14865",211.08614,81.900665,88.00425
"14866",211.09947,81.671165,87.834145
"14867",211.11281,81.45632,87.671524
"14868",211.12614,81.2781,87.53881
"14869",211.13948,81.1487,87.44935
"14870",211.15282,81.05104,87.38759
"14871",211.16615,80.96071,87.3301
"14872",211.17949,80.85329,87.2527
"14873",211.19283,80.71656,87.14264
"14874",211.20616,80.54566,86.99413
"14875",211.2195,80.35523,86.820755
"14876",211.23283,80.17456,86.651184
"14877",211.24617,80.02319,86.50527
"14878",211.2595,79.91089,86.39369
"14879",211.27284,79.84497,86.32499
"14880",211.28618,79.815674,86.29085
"14881",211.29951,79.81079,86.280205
"14882",211.31285,79.80591,86.26941
"14883",211.32619,79.79614,86.25358
"14884",211.33952,79.76929,86.22035
"14885",211.35286,79.725334,86.16919
"14886",211.3662,79.6643,86.09957
"14887",211.37953,79.588615,86.0134
"14888",211.39287,79.50561,85.917534
"14889",211.4062,79.4226,85.81908
"14890",211.41954,79.344475,85.72291
"14891",211.43288,79.273674,85.63162
"14892",211.44621,79.217514,85.552765
"14893",211.45955,79.166245,85.47704
"14894",211.47289,79.12718,85.41193
"14895",211.48622,79.10277,85.36024
"14896",211.49956,79.08568,85.31511
"14897",211.5129,79.080795,85.281654
"14898",211.52623,79.09056,85.262695
"14899",211.53957,79.14183,85.285545
"14900",211.5529,79.27856,85.395454
"14901",211.56624,79.54711,85.641464
"14902",211.57957,79.9646,86.0448
"14903",211.59291,80.50416,86.58325
"14904",211.60625,81.08522,87.18007
"14905",211.61958,81.61013,87.73889
"14906",211.63292,81.986115,88.16519
"14907",211.64626,82.161896,88.40304
"14908",211.65959,82.14969,88.45839
"14909",211.67293,81.99588,88.37176
"14910",211.68626,81.76883,88.20708
"14911",211.6996,81.53445,88.02797
"14912",211.71294,81.324486,87.86596
"14913",211.72627,81.163345,87.74621
"14914",211.73961,81.04372,87.66293
"14915",211.75294,80.94606,87.59789
"14916",211.76628,80.84352,87.52492
"14917",211.77962,80.72144,87.4292
"14918",211.79295,80.57252,87.30282
"14919",211.80629,80.40162,87.14981
"14920",211.81963,80.233154,86.9939
"14921",211.83296,80.08667,86.8547
"14922",211.8463,79.98169,86.752426
"14923",211.85963,79.92554,86.6957
"14924",211.87297,79.91577,86.68361
"14925",211.8863,79.93286,86.69807
"14926",211.89964,79.954834,86.71794
"14927",211.91298,79.96216,86.723854
"14928",211.92632,79.940186,86.7007
"14929",211.93965,79.886475,86.64512
"14930",211.95299,79.80347,86.55856
"14931",211.96632,79.69848,86.44743
"14932",211.97966,79.586174,86.32571
"14933",211.993,79.47631,86.20291
"14934",212.00633,79.38354,86.09377
"14935",212.01967,79.30541,85.99638
"14936",212.033,79.24193,85.911194
"14937",212.04634,79.19066,85.836235
"14938",212.05968,79.15648,85.776764
"14939",212.07301,79.12718,85.72111
"14940",212.08635,79.10277,85.66942
"14941",212.09969,79.08324,85.62185
"14942",212.11302,79.07591,85.58588
"14943",212.12636,79.093,85.57409
"14944",212.1397,79.17113,85.62387
"14945",212.15303,79.36645,85.79329
"14946",212.16637,79.7058,86.11285
"14947",212.1797,80.17944,86.57729
"14948",212.19304,80.73121,87.13467
"14949",212.20638,81.26589,87.6922
"14950",212.21971,81.685814,88.15168
"14951",212.23305,81.92264,88.441185
"14952",212.24638,81.96658,88.54521
"14953",212.25972,81.849396,88.48948
"14954",212.27306,81.6321,88.32998
"14955",212.28639,81.38308,88.13196
"14956",212.29973,81.15114,87.94324
"14957",212.31306,80.972916,87.80099
"14958",212.3264,80.84596,87.70444
"14959",212.33974,80.75807,87.64298
"14960",212.35307,80.67994,87.58854
"14961",212.36641,80.57984,87.50969
"14962",212.37975,80.445564,87.39353
"14963",212.39308,80.27955,87.24144
"14964",212.40642,80.1062,87.07683
"14965",212.41975,79.954834,86.92878
"14966",212.43309,79.84253,86.81506
"14967",212.44643,79.781494,86.74911
"14968",212.45976,79.76196,86.72275
"14969",212.4731,79.766846,86.72019
"14970",212.48643,79.77905,86.72511
"14971",212.49977,79.781494,86.72065
"14972",212.5131,79.76196,86.69429
"14973",212.52644,79.710686,86.635574
"14974",212.53978,79.63012,86.54597
"14975",212.55312,79.53002,86.43431
"14976",212.56645,79.42748,86.317085
"14977",212.57979,79.327385,86.1991
"14978",212.59312,79.234604,86.0853
"14979",212.60646,79.15892,85.985695
"14980",212.6198,79.097885,85.89838
"14981",212.63313,79.04906,85.82136
"14982",212.64647,79.01488,85.75746
"14983",212.6598,78.98558,85.69738
"14984",212.67314,78.96605,85.64615
"14985",212.68648,78.9514,85.59919
"14986",212.69981,78.941635,85.556656
"14987",212.71315,78.94896,85.53091
"14988",212.72649,79.00755,85.556656
"14989",212.73982,79.15404,85.67213
"14990",212.75316,79.432365,85.92402
"14991",212.7665,79.85474,86.32865
"14992",212.77983,80.377205,86.84658
"14993",212.79317,80.92897,87.41013
"14994",212.8065,81.40261,87.9128
"14995",212.81984,81.71267,88.26669
"14996",212.83318,81.81766,88.4252
"14997",212.84651,81.73464,88.39899
"14998",212.85985,81.514915,88.23347
"14999",212.87318,81.23903,88.00492
"15000",212.88652,80.96559,87.7702
"15001",212.89986,80.740974,87.57576
"15002",212.9132,80.57252,87.43046
"15003",212.92653,80.45777,87.3336
"15004",212.93987,80.36256,87.25269
"15005",212.9532,80.26002,87.16148
"15006",212.96654,80.128174,87.037766
"15007",212.97987,79.95972,86.873314
"15008",212.99321,79.77417,86.68651
"15009",213.00655,79.59838,86.50366
"15010",213.01988,79.45434,86.34707
"15011",213.03322,79.35912,86.2348
"15012",213.04655,79.31518,86.17083
"15013",213.05989,79.310295,86.14455
"15014",213.07323,79.31762,86.13032
"15015",213.08656,79.31762,86.10899
"15016",213.0999,79.30297,86.07302
"15017",213.11324,79.26391,86.01218
"15018",213.12657,79.20531,85.93057
"15019",213.13991,79.132065,85.8325
"15020",213.15324,79.05638,85.72969
"15021",213.16658,78.9807,85.62452
"15022",213.17992,78.9099,85.521866
"15023",213.19325,78.84886,85.426765
"15024",213.20659,78.802475,85.344406
"15025",213.21992,78.765854,85.27036
"15026",213.23326,78.73899,85.20493
"15027",213.2466,78.7219,85.14844
"15028",213.25993,78.712135,85.09873
"15029",213.27327,78.712135,85.05849
"15030",213.2866,78.71458,85.02068
"15031",213.29994,78.729225,84.99516
"15032",213.31328,78.75609,84.982315
"15033",213.32661,78.81712,85.00448
"15034",213.33995,78.941635,85.092026
"15035",213.35329,79.17845,85.29577
"15036",213.36662,79.551994,85.64364
"15037",213.37996,80.05249,86.130135
"15038",213.3933,80.61158,86.690865
"15039",213.40663,81.14137,87.23977
"15040",213.41997,81.549095,87.68316
"15041",213.4333,81.77371,87.956184
"15042",213.44664,81.81033,88.04823
"15043",213.45998,81.70779,88.00226
"15044",213.47331,81.52224,87.87008
"15045",213.48665,81.31716,87.71257
"15046",213.49998,81.129166,87.565735
"15047",213.51332,80.98268,87.45454
"15048",213.52666,80.88014,87.382706
"15049",213.54,80.799576,87.32964
"15050",213.55333,80.719,87.274055
"15051",213.56667,80.61402,87.19154
"15052",213.58,80.47486,87.07157
"15053",213.59334,80.30396,86.91551
"15054",213.60667,80.12085,86.7419
"15055",213.62001,79.954834,86.57966
"15056",213.63335,79.823,86.44641
"15057",213.64668,79.7351,86.35298
"15058",213.66002,79.691154,86.30076
"15059",213.67336,79.66918,86.269135
"15060",213.68669,79.65453,86.24415
"15061",213.70003,79.63012,86.20894
"15062",213.71336,79.588615,86.155876
"15063",213.7267,79.517815,86.07222
"15064",213.74004,79.432365,85.9717
"15065",213.75337,79.32983,85.851425
"15066",213.76671,79.2224,85.72305
"15067",213.78004,79.11986,85.596214
"15068",213.79338,79.03197,85.48082
"15069",213.80672,78.958725,85.37733
"15070",213.82005,78.90013,85.286194
"15071",213.83339,78.853745,85.20544
"15072",213.84673,78.81468,85.130554
"15073",213.86006,78.7805,85.05933
"15074",213.8734,78.746315,84.98704
"15075",213.88673,78.71702,84.918564
"15076",213.90007,78.692604,84.85406
"15077",213.9134,78.6804,84.800995
"15078",213.92674,78.692604,84.771965
"15079",213.94008,78.76097,84.79948
"15080",213.95341,78.92699,84.92677
"15081",213.96675,79.22484,85.19109
"15082",213.98009,79.65942,85.60145
"15083",213.99342,80.184326,86.115715
"15084",214.00676,80.71656,86.65371
"15085",214.0201,81.17067,87.13021
"15086",214.03343,81.46853,87.46465
"15087",214.04677,81.58816,87.63017
"15088",214.0601,81.55398,87.64562
"15089",214.07344,81.41726,87.557465
"15090",214.08678,81.234146,87.41864
"15091",214.10011,81.05592,87.278984
"15092",214.11345,80.91432,87.17038
"15093",214.12679,80.814224,87.098854
"15094",214.14012,80.74586,87.05593
"15095",214.15346,80.69215,87.02553
"15096",214.1668,80.61646,86.97147
"15097",214.18013,80.5066,86.880875
"15098",214.19347,80.365,86.755104
"15099",214.2068,80.201416,86.60293
"15100",214.22014,80.04028,86.44809
"15101",214.23347,79.91333,86.322395
"15102",214.24681,79.82056,86.22691
"15103",214.26015,79.766846,86.167595
"15104",214.27348,79.74975,86.14321
"15105",214.28682,79.75952,86.145164
"15106",214.30016,79.77661,86.15474
"15107",214.31349,79.77661,86.14776
"15108",214.32683,79.75708,86.12125
"15109",214.34016,79.71313,86.0697
"15110",214.3535,79.64233,85.98994
"15111",214.36684,79.55688,85.89331
"15112",214.38017,79.4641,85.78669
"15113",214.39351,79.37621,85.68205
"15114",214.40685,79.29809,85.584435
"15115",214.42018,79.237045,85.50146
"15116",214.43352,79.1931,85.43367
"15117",214.44685,79.166245,85.3816
"15118",214.46019,79.151596,85.3409
"15119",214.47353,79.13939,85.30218
"15120",214.48686,79.1223,85.258194
"15121",214.5002,79.097885,85.20635
"15122",214.51353,79.07591,85.15619
"15123",214.52687,79.07103,85.12243
"15124",214.5402,79.093,85.11537
"15125",214.55354,79.17357,85.167595
"15126",214.56688,79.35668,85.32488
"15127",214.58022,79.676506,85.6246
"15128",214.59355,80.12085,86.05884
"15129",214.60689,80.64332,86.58508
"15130",214.62022,81.160904,87.12277
"15131",214.63356,81.57595,87.5741
"15132",214.6469,81.8201,87.86749
"15133",214.66023,81.87381,87.97808
"15134",214.67357,81.77371,87.93654
"15135",214.6869,81.58572,87.80397
"15136",214.70024,81.37087,87.63868
"15137",214.71358,81.17311,87.48376
"15138",214.72691,81.0193,87.36661
"15139",214.74025,80.907,87.286156
"15140",214.75359,80.814224,87.221725
"15141",214.76692,80.72144,87.15439
"15142",214.78026,80.604256,87.059746
"15143",214.7936,80.45045,86.92482
"15144",214.80693,80.2649,86.75335
"15145",214.82027,80.06958,86.56631
"15146",214.8336,79.888916,86.38782
"15147",214.84694,79.744865,86.240295
"15148",214.86028,79.65453,86.14199
"15149",214.87361,79.605705,86.08237
"15150",214.88695,79.59106,86.0554
"15151",214.90028,79.586174,86.037735
"15152",214.91362,79.57885,86.01748
"15153",214.92696,79.54711,85.97258
"15154",214.94029,79.4934,85.90472
"15155",214.95363,79.41772,85.8132
"15156",214.96696,79.32983,85.707115
"15157",214.9803,79.22728,85.583626
"15158",214.99364,79.12474,85.45694
"15159",215.00697,79.029526,85.33437
"15160",215.02031,78.94652,85.22104
"15161",215.03365,78.87816,85.11976
"15162",215.04698,78.83177,85.038315
"15163",215.06032,78.79759,84.96763
"15164",215.07365,78.77318,84.90564
"15165",215.08699,78.75609,84.85021
"15166",215.10033,78.74387,84.799126
"15167",215.11366,78.73167,84.747665
"15168",215.127,78.72678,84.70315
"15169",215.14034,78.72678,84.66336
"15170",215.15367,78.746315,84.643105
"15171",215.167,78.79759,84.655205
"15172",215.18034,78.92699,84.747025
"15173",215.19368,79.17357,84.960075
"15174",215.20702,79.55688,85.31756
"15175",215.22035,80.059814,85.80665
"15176",215.23369,80.618904,86.36761
"15177",215.24702,81.14137,86.90942
"15178",215.26036,81.54177,87.34548
"15179",215.2737,81.75906,87.610954
"15180",215.28703,81.79324,87.7001
"15181",215.30037,81.688255,87.65115
"15182",215.3137,81.51003,87.52569
"15183",215.32704,81.31228,87.37512
"15184",215.34038,81.13893,87.24278
"15185",215.35371,81.01686,87.1563
"15186",215.36705,80.94362,87.11484
"15187",215.38039,80.89479,87.0955
"15188",215.39372,80.84108,87.06975
"15189",215.40706,80.75563,87.01058
"15190",215.4204,80.62379,86.90235
"15191",215.43373,80.45289,86.750946
"15192",215.44707,80.2649,86.57711
"15193",215.4604,80.093994,86.41448
"15194",215.47374,79.971924,86.29535
"15195",215.48708,79.91089,86.23344
"15196",215.50041,79.906006,86.22577
"15197",215.51375,79.93042,86.247246
"15198",215.52708,79.957275,86.27193
"15199",215.54042,79.96216,86.275475
"15200",215.55376,79.92554,86.23767
"15201",215.5671,79.852295,86.1621
"15202",215.58043,79.7522,86.05739
"15203",215.59377,79.639885,85.93733
"15204",215.6071,79.5227,85.80889
"15205",215.62044,79.41039,85.68167
"15206",215.63377,79.31274,85.56559
"15207",215.64711,79.22972,85.4611
"15208",215.66045,79.168686,85.37599
"15209",215.67378,79.12718,85.30851
"15210",215.68712,79.097885,85.25194
"15211",215.70045,79.07347,85.19933
"15212",215.71379,79.044174,85.14108
"15213",215.72713,79.01732,85.08436
"15214",215.74046,78.98558,85.02191
"15215",215.7538,78.95384,84.95847
"15216",215.76714,78.924545,84.896484
"15217",215.78047,78.90257,84.840904
"15218",215.79381,78.91722,84.82126
"15219",215.80714,79.01488,84.88508
"15220",215.82048,79.24193,85.081345
"15221",215.83382,79.61303,85.42876
"15222",215.84715,80.10376,85.907394
"15223",215.86049,80.64576,86.45264
"15224",215.87383,81.146255,86.97331
"15225",215.88716,81.51003,87.37291
"15226",215.9005,81.69558,87.605644
"15227",215.91383,81.705345,87.668396
"15228",215.92717,81.58816,87.6045
"15229",215.9405,81.40749,87.473465
"15230",215.95384,81.21706,87.32701
"15231",215.96718,81.05104,87.19903
"15232",215.98051,80.92409,87.10492
"15233",215.99385,80.816666,87.026375
"15234",216.00719,80.70435,86.93958
"15235",216.02052,80.56275,86.81999
"15236",216.03386,80.38453,86.659355
"15237",216.0472,80.181885,86.46873
"15238",216.06053,79.971924,86.26445
"15239",216.07387,79.79126,86.08291
"15240",216.0872,79.65942,85.94454
"15241",216.10054,79.59594,85.87042
"15242",216.11388,79.586174,85.84803
"15243",216.12721,79.60815,85.85707
"15244",216.14055,79.639885,85.876564
"15245",216.15388,79.66186,85.88728
"15246",216.16722,79.65209,85.86695
"15247",216.18056,79.61791,85.8219
"15248",216.1939,79.55932,85.751366
"15249",216.20723,79.48852,85.666794
"15250",216.22057,79.412834,85.57513
"15251",216.2339,79.34203,85.48598
"15252",216.24724,79.281,85.40438
"15253",216.26057,79.22972,85.330635
"15254",216.27391,79.1931,85.26994
"15255",216.28725,79.168686,85.220314
"15256",216.30058,79.151596,85.177246
"15257",216.31392,79.13451,85.133644
"15258",216.32726,79.1223,85.09439
"15259",216.34059,79.10765,85.052315
"15260",216.35393,79.09056,85.00734
"15261",216.36726,79.07591,84.96427
"15262",216.3806,79.06859,84.92807
"15263",216.39394,79.08324,84.91361
"15264",216.40727,79.15648,84.958206
"15265",216.42061,79.33715,85.11252
"15266",216.43394,79.65942,85.41407
"15267",216.44728,80.111084,85.855095
"15268",216.46062,80.64332,86.3908
"15269",216.47395,81.15846,86.92605
"15270",216.48729,81.56374,87.36753
"15271",216.50063,81.78836,87.641014
"15272",216.51396,81.8201,87.72864
"15273",216.5273,81.688255,87.65367
"15274",216.54063,81.463646,87.48182
"15275",216.55397,81.20485,87.26876
"15276",216.5673,80.96559,87.067154
"15277",216.58064,80.7776,86.90934
"15278",216.59398,80.64576,86.801796
"15279",216.60732,80.55787,86.734085
"15280",216.62065,80.48951,86.68316
"15281",216.63399,80.40894,86.61789
"15282",216.64732,80.30396,86.52569
"15283",216.66066,80.17456,86.405785
"15284",216.674,80.04028,86.27696
"15285",216.68733,79.920654,86.15859
"15286",216.70067,79.83765,86.073105
"15287",216.714,79.80591,86.03629
"15288",216.72734,79.818115,86.042435
"15289",216.74068,79.85474,86.07337
"15290",216.75401,79.8938,86.107895
"15291",216.76735,79.920654,86.13143
"15292",216.78069,79.91821,86.12651
"15293",216.79402,79.87915,86.08489
"15294",216.80736,79.81323,86.0152
"15295",216.8207,79.727776,85.923904
"15296",216.83403,79.62768,85.8153
"15297",216.84737,79.5227,85.698685
"15298",216.8607,79.4226,85.58367
"15299",216.87404,79.33471,85.47774
"15300",216.88737,79.26879,85.39103
"15301",216.90071,79.217514,85.3169
"15302",216.91405,79.185776,85.26071
"15303",216.92738,79.168686,85.21818
"15304",216.94072,79.15648,85.17999
"15305",216.95406,79.14671,85.14387
"15306",216.96739,79.14183,85.11232
"15307",216.98073,79.14183,85.0855
"15308",216.99406,79.149155,85.06601
"15309",217.0074,79.17601,85.06628
"15310",217.02074,79.259026,85.12354
"15311",217.03407,79.449455,85.29082
"15312",217.04741,79.77661,85.60077
"15313",217.06075,80.23804,86.055214
"15314",217.07408,80.78493,86.60954
"15315",217.08742,81.32937,87.17851
"15316",217.10075,81.77127,87.66196
"15317",217.11409,82.039825,87.98586
"15318",217.12743,82.11795,88.12773
"15319",217.14076,82.039825,88.11579
"15320",217.1541,81.864044,88.00375
"15321",217.16743,81.654076,87.852036
"15322",217.18077,81.45876,87.70841
"15323",217.1941,81.30984,87.60507
"15324",217.20744,81.214615,87.55078
"15325",217.22078,81.160904,87.53503
"15326",217.23412,81.11452,87.52492
"15327",217.24745,81.0486,87.49383
"15328",217.26079,80.938736,87.41673
"15329",217.27412,80.77516,87.28249
"15330",217.28746,80.570076,87.10163
"15331",217.3008,80.35279,86.90216
"15332",217.31413,80.15747,86.717865
"15333",217.32747,80.008545,86.57386
"15334",217.3408,79.923096,86.48868
"15335",217.35414,79.8938,86.45698
"15336",217.36748,79.903564,86.463425
"15337",217.38081,79.920654,86.4775
"15338",217.39415,79.93042,86.48479
"15339",217.40749,79.91333,86.46552
"15340",217.42082,79.86206,86.411545
"15341",217.43416,79.78638,86.33155
"15342",217.4475,79.691154,86.22965
"15343",217.46083,79.588615,86.11746
"15344",217.47417,79.49096,86.00695
"15345",217.4875,79.40551,85.905594
"15346",217.50084,79.33959,85.8211
"15347",217.51418,79.28344,85.74431
"15348",217.52751,79.237045,85.67552
"15349",217.54085,79.19798,85.61262
"15350",217.55418,79.16136,85.550934
"15351",217.56752,79.12718,85.49055
"15352",217.58086,79.09544,85.43153
"15353",217.5942,79.07103,85.37885
"15354",217.60753,79.05394,85.33273
"15355",217.62086,79.05638,85.30561
"15356",217.6342,79.10277,85.32251
"15357",217.64754,79.234604,85.42631
"15358",217.66087,79.48852,85.6563
"15359",217.67421,79.87671,86.02851
"15360",217.68755,80.36744,86.51539
"15361",217.70088,80.90456,87.06399
"15362",217.71422,81.392845,87.58054
"15363",217.72755,81.74685,87.97807
"15364",217.74089,81.92264,88.20845
"15365",217.75423,81.917755,88.26365
"15366",217.76756,81.78104,88.18686
"15367",217.7809,81.57351,88.03499
"15368",217.79424,81.358665,87.869316
"15369",217.80757,81.17067,87.72378
"15370",217.8209,81.03639,87.62608
"15371",217.83424,80.9485,87.57058
"15372",217.84758,80.88258,87.5343
"15373",217.86092,80.81178,87.49108
"15374",217.87425,80.709236,87.4139
"15375",217.88759,80.567635,87.294464
"15376",217.90092,80.38941,87.13398
"15377",217.91426,80.18921,86.945946
"15378",217.9276,79.99878,86.76143
"15379",217.94093,79.84741,86.61002
"15380",217.95427,79.742424,86.50027
"15381",217.9676,79.68871,86.43851
"15382",217.98094,79.67162,86.41169
"15383",217.99428,79.674065,86.40387
"15384",218.00761,79.676506,86.396126
"15385",218.02095,79.66674,86.37625
"15386",218.03429,79.63256,86.33166
"15387",218.04762,79.57641,86.26402
"15388",218.06096,79.49828,86.17266
"15389",218.0743,79.40795,86.06665
"15390",218.08763,79.31518,85.955376
"15391",218.10097,79.22484,85.843636
"15392",218.1143,79.14183,85.736404
"15393",218.12764,79.07103,85.63879
"15394",218.14098,79.009995,85.54872
"15395",218.15431,78.96361,85.4714
"15396",218.16765,78.92699,85.40239
"15397",218.18098,78.90257,85.344444
"15398",218.19432,78.887924,85.2955
"15399",218.20766,78.87816,85.250984
"15400",218.221,78.86839,85.20616
"15401",218.23433,78.86351,85.16592
"15402",218.24767,78.87816,85.14505
"15403",218.261,78.94896,85.18079
"15404",218.27434,79.11986,85.31885
"15405",218.28767,79.42748,85.59897
"15406",218.30101,79.86694,86.02054
"15407",218.31435,80.39918,86.548615
"15408",218.32768,80.936295,87.098206
"15409",218.34102,81.38308,87.57425
"15410",218.35435,81.668724,87.903114
"15411",218.36769,81.76639,88.052925
"15412",218.38103,81.7029,88.04464
"15413",218.39436,81.529564,87.924515
"15414",218.4077,81.31472,87.75747
"15415",218.42104,81.1194,87.60323
"15416",218.43437,80.96071,87.47952
"15417",218.44771,80.85329,87.40212
"15418",218.46104,80.780045,87.355545
"15419",218.47438,80.719,87.31888
"15420",218.48772,80.635994,87.25834
"15421",218.50105,80.51148,87.1537
"15422",218.51439,80.343025,87.00123
"15423",218.52773,80.15015,86.81907
"15424",218.54106,79.954834,86.62845
"15425",218.5544,79.783936,86.45614
"15426",218.56773,79.66674,86.33219
"15427",218.58107,79.605705,86.26074
"15428",218.5944,79.59106,86.23377
"15429",218.60774,79.605705,86.23564
"15430",218.62108,79.62768,86.24529
"15431",218.63441,79.63256,86.23854
"15432",218.64775,79.61547,86.20997
"15433",218.66109,79.569084,86.151566
"15434",218.67442,79.4934,86.062416
"15435",218.68776,79.395744,85.94893
"15436",218.7011,79.29565,85.82995
"15437",218.71443,79.19554,85.70783
"15438",218.72777,79.10521,85.59236
"15439",218.7411,79.03197,85.49116
"15440",218.75444,78.97093,85.39987
"15441",218.76778,78.924545,85.32133
"15442",218.78111,78.89525,85.25842
"15443",218.79445,78.8806,85.20925
"15444",218.80779,78.87572,85.16939
"15445",218.82112,78.873276,85.13181
"15446",218.83446,78.86595,85.08928
"15447",218.8478,78.85863,85.04652
"15448",218.86113,78.84886,85.00108
"15449",218.87447,78.85863,84.97488
"15450",218.8878,78.924545,85.00513
"15451",218.90114,79.08812,85.13509
"15452",218.91447,79.39086,85.40934
"15453",218.92781,79.83032,85.829765
"15454",218.94115,80.36744,86.36158
"15455",218.95448,80.91676,86.922386
"15456",218.96782,81.38308,87.41735
"15457",218.98116,81.68337,87.760864
"15458",218.99449,81.795685,87.92578
"15459",219.00783,81.74441,87.93062
"15460",219.02116,81.58816,87.82888
"15461",219.0345,81.3904,87.680756
"15462",219.04784,81.197525,87.53133
"15463",219.06117,81.041275,87.4125
"15464",219.07451,80.92653,87.33029
"15465",219.08784,80.84596,87.27868
"15466",219.10118,80.77516,87.234314
"15467",219.11452,80.68482,87.1682
"15468",219.12785,80.55787,87.062645
"15469",219.14119,80.39185,86.91406
"15470",219.15453,80.201416,86.73587
"15471",219.16786,80.0061,86.54685
"15472",219.1812,79.83765,86.378586
"15473",219.19453,79.71557,86.251434
"15474",219.20787,79.64477,86.171745
"15475",219.2212,79.61547,86.13135
"15476",219.23454,79.61791,86.12177
"15477",219.24788,79.62768,86.1196
"15478",219.26122,79.622795,86.10308
"15479",219.27455,79.59594,86.06444
"15480",219.28789,79.54223,85.9981
"15481",219.30122,79.46899,85.91055
"15482",219.31456,79.38354,85.80851
"15483",219.3279,79.290764,85.69647
"15484",219.34123,79.21019,85.593735
"15485",219.35457,79.14427,85.503136
"15486",219.3679,79.09544,85.42757
"15487",219.38124,79.061264,85.36512
"15488",219.39458,79.04906,85.32358
"15489",219.40791,79.046616,85.29142
"15490",219.42125,79.0515,85.26651
"15491",219.43459,79.061264,85.246635
"15492",219.44792,79.080795,85.23683
"15493",219.46126,79.10765,85.23496
"15494",219.4746,79.13939,85.238815
"15495",219.48793,79.17601,85.24854
"15496",219.50127,79.219955,85.26674
"15497",219.5146,79.29809,85.320496
"15498",219.52794,79.45434,85.45481
"15499",219.54128,79.725334,85.708755
"15500",219.55461,80.12573,86.10057
"15501",219.56795,80.62623,86.604996
"15502",219.58128,81.15846,87.1568
"15503",219.59462,81.62234,87.656876
"15504",219.60796,81.934845,88.02008
"15505",219.62129,82.05936,88.205055
"15506",219.63463,82.01297,88.22302
"15507",219.64796,81.84451,88.11747
"15508",219.6613,81.61501,87.94561
"15509",219.67464,81.38064,87.7617
"15510",219.68797,81.17067,87.59488
"15511",219.70131,80.987564,87.44836
"15512",219.71465,80.82399,87.31564
"15513",219.72798,80.66285,87.18025
"15514",219.74132,80.48463,87.02274
"15515",219.75465,80.28443,86.83769
"15516",219.76799,80.06958,86.63173
"15517",219.78133,79.86206,86.426384
"15518",219.79466,79.68871,86.248726
"15519",219.808,79.571526,86.12181
"15520",219.82133,79.52514,86.062035
"15521",219.83467,79.54223,86.064285
"15522",219.848,79.603264,86.111015
"15523",219.86134,79.68139,86.17674
"15524",219.87468,79.74731,86.232704
"15525",219.88802,79.77905,86.25655
"15526",219.90135,79.75708,86.22768
"15527",219.91469,79.676506,86.13951
"15528",219.92802,79.551994,86.00489
"15529",219.94136,79.41039,85.84929
"15530",219.9547,79.27123,85.6917
"15531",219.96803,79.15892,85.55662
"15532",219.98137,79.07591,85.44733
"15533",219.9947,79.03197,85.374504
"15534",220.00804,79.01488,85.32716
"15535",220.02138,79.00511,85.28661
"15536",220.03471,78.995346,85.24576
"15537",220.04805,78.97337,85.19239
"15538",220.06139,78.92943,85.11636
"15539",220.07472,78.86595,85.01943
"15540",220.08806,78.78783,84.90587
"15541",220.1014,78.72434,84.804504
"15542",220.11473,78.71946,84.75976
"15543",220.12807,78.82445,84.82473
"15544",220.1414,79.07347,85.03702
"15545",220.15474,79.46899,85.40358
"15546",220.16808,79.9646,85.8826
"15547",220.18141,80.47486,86.391754
"15548",220.19475,80.907,86.83873
"15549",220.20808,81.19508,87.15516
"15550",220.22142,81.30007,87.29749
"15551",220.23476,81.234146,87.272194
"15552",220.2481,81.04616,87.12277
"15553",220.26143,80.799576,86.90888
"15554",220.27477,80.54566,86.679955
"15555",220.2881,80.31861,86.469955
"15556",220.30144,80.13306,86.29436
"15557",220.31477,79.991455,86.15691
"15558",220.32811,79.86694,86.032135
"15559",220.34145,79.742424,85.90346
"15560",220.35478,79.605705,85.75869
"15561",220.36812,79.46899,85.60965
"15562",220.38145,79.35668,85.48075
"15563",220.39479,79.28832,85.39229
"15564",220.40813,79.28344,85.365166
"15565",220.42146,79.34203,85.40137
"15566",220.4348,79.447014,85.48579
"15567",220.44814,79.55932,85.58081
"15568",220.46147,79.64721,85.65493
"15569",220.47481,79.693596,85.69029
"15570",220.48814,79.693596,85.68072
"15571",220.50148,79.65209,85.62964
"15572",220.51482,79.58129,85.547966
"15573",220.52815,79.500725,85.454315
"15574",220.54149,79.42016,85.35815
"15575",220.55482,79.34692,85.266785
"15576",220.56816,79.290764,85.19022
"15577",220.5815,79.2517,85.129
"15578",220.59483,79.2224,85.07631
"15579",220.60817,79.1931,85.02271
"15580",220.6215,79.15892,84.96332
"15581",220.63484,79.1223,84.90041
"15582",220.64818,79.09056,84.84125
"15583",220.66151,79.063705,84.78597
"15584",220.67485,79.0515,84.74451
"15585",220.68819,79.06615,84.729515
"15586",220.70152,79.12718,84.76137
"15587",220.71486,79.26391,84.87082
"15588",220.7282,79.517815,85.10172
"15589",220.74153,79.903564,85.472404
"15590",220.75487,80.396736,85.96256
"15591",220.7682,80.92653,86.50475
"15592",220.78154,81.40017,87.00735
"15593",220.79488,81.73708,87.388016
"15594",220.80821,81.89334,87.59856
"15595",220.82155,81.87625,87.64063
"15596",220.83488,81.7322,87.555214
"15597",220.84822,81.529564,87.40671
"15598",220.86156,81.3196,87.244545
"15599",220.8749,81.14137,87.10755
"15600",220.88823,81.00954,87.01138
"15601",220.90157,80.919205,86.9526
"15602",220.9149,80.848404,86.91052
"15603",220.92824,80.77028,86.85891
"15604",220.94157,80.66285,86.77555
"15605",220.95491,80.516365,86.64978
"15606",220.96825,80.32838,86.47793
"15607",220.98158,80.12573,86.285545
"15608",220.99492,79.93286,86.0966
"15609",221.00826,79.783936,85.94558
"15610",221.02159,79.69604,85.85093
"15611",221.03493,79.66674,85.81213
"15612",221.04826,79.68139,85.81637
"15613",221.0616,79.72289,85.847916
"15614",221.07494,79.75952,85.875885
"15615",221.08827,79.77173,85.88058
"15616",221.10161,79.766846,85.86856
"15617",221.11494,79.74975,85.84418
"15618",221.12828,79.72289,85.8095
"15619",221.14162,79.69604,85.77399
"15620",221.15495,79.67162,85.740074
"15621",221.16829,79.64233,85.700516
"15622",221.18163,79.59594,85.64295
"15623",221.19496,79.537346,85.57173
"15624",221.2083,79.46166,85.48159
"15625",221.22163,79.378654,85.38176
"15626",221.23497,79.30541,85.2891
"15627",221.2483,79.25414,85.216125
"15628",221.26164,79.22728,85.165955
"15629",221.27498,79.234604,85.14913
"15630",221.28831,79.27856,85.16917
"15631",221.30165,79.37377,85.24184
"15632",221.31499,79.554436,85.40293
"15633",221.32832,79.852295,85.68687
"15634",221.34166,80.272224,86.10218
"15635",221.355,80.77028,86.60874
"15636",221.36833,81.27322,87.13575
"15637",221.38167,81.68337,87.58569
"15638",221.395,81.93973,87.89465
"15639",221.40834,82.022736,88.03828
"15640",221.42168,81.96658,88.045334
"15641",221.43501,81.82742,87.96763
"15642",221.44835,81.668724,87.866035
"15643",221.46169,81.53933,87.78879
"15644",221.47502,81.45144,87.749
"15645",221.48836,81.39773,87.74065
"15646",221.5017,81.3489,87.7355
"15647",221.51503,81.28054,87.70929
"15648",221.52837,81.16579,87.63455
"15649",221.5417,80.99489,87.500084
"15650",221.55504,80.782486,87.31877
"15651",221.56837,80.550545,87.11128
"15652",221.58171,80.325935,86.90388
"15653",221.59505,80.13306,86.72118
"15654",221.60838,80.00122,86.593506
"15655",221.62172,79.9353,86.527626
"15656",221.63506,79.940186,86.53049
"15657",221.64839,80.01099,86.59942
"15658",221.66173,80.11597,86.70474
"15659",221.67506,80.218506,86.810905
"15660",221.6884,80.28199,86.88122
"15661",221.70174,80.274666,86.882706
"15662",221.71507,80.184326,86.80095
"15663",221.72841,80.01831,86.64069
"15664",221.74174,79.81323,86.43619
"15665",221.75508,79.5935,86.21062
"15666",221.76842,79.38842,85.992836
"15667",221.78175,79.21019,85.795494
"15668",221.79509,79.078354,85.63898
"15669",221.80843,78.9807,85.51252
"15670",221.82176,78.9099,85.40987
"15671",221.8351,78.8513,85.31721
"15672",221.84843,78.79515,85.22516
"15673",221.86177,78.73899,85.13135
"15674",221.8751,78.69016,85.04311
"15675",221.88844,78.66331,84.97533
"15676",221.90178,78.70237,84.97262
"15677",221.91512,78.856186,85.085884
"15678",221.92845,79.15648,85.35043
"15679",221.94179,79.605705,85.7733
"15680",221.95512,80.15991,86.315186
"15681",221.96846,80.73365,86.89392
"15682",221.9818,81.22438,87.40758
"15683",221.99513,81.55398,87.77544
"15684",222.00847,81.69314,87.96316
"15685",222.0218,81.65896,87.98189
"15686",222.03514,81.514915,87.88969
"15687",222.04848,81.322044,87.744156
"15688",222.06181,81.129166,87.59259
"15689",222.07515,80.95827,87.45698
"15690",222.08849,80.81911,87.34776
"15691",222.10182,80.706795,87.26105
"15692",222.11516,80.6067,87.18304
"15693",222.1285,80.49683,87.09213
"15694",222.14183,80.365,86.97582
"15695",222.15517,80.19409,86.81632
"15696",222.1685,79.98657,86.61487
"15697",222.18184,79.74731,86.37518
"15698",222.19518,79.50561,86.12559
"15699",222.20851,79.290764,85.895294
"15700",222.22185,79.11986,85.702225
"15701",222.23518,78.99779,85.55265
"15702",222.24852,78.91966,85.44321
"15703",222.26186,78.870834,85.36062
"15704",222.27519,78.839096,85.293594
"15705",222.28853,78.81224,85.23046
"15706",222.30186,78.77806,85.159164
"15707",222.3152,78.73899,85.08191
"15708",222.32854,78.68772,84.991234
"15709",222.34187,78.624245,84.88675
"15710",222.35521,78.54612,84.76563
"15711",222.36855,78.467995,84.642075
"15712",222.38188,78.38987,84.516075
"15713",222.39522,78.32395,84.39984
"15714",222.40855,78.27024,84.293755
"15715",222.42189,78.22873,84.19819
"15716",222.43523,78.19943,84.11354
"15717",222.44856,78.187225,84.04507
"15718",222.4619,78.19455,83.99574
"15719",222.47523,78.221405,83.96618
"15720",222.48857,78.277565,83.96676
"15721",222.5019,78.39231,84.02768
"15722",222.51524,78.60471,84.18984
"15723",222.52858,78.95628,84.49781
"15724",222.54192,79.447014,84.955925
"15725",222.55525,80.0354,85.52703
"15726",222.56859,80.638435,86.13117
"15727",222.58192,81.146255,86.65894
"15728",222.59526,81.47341,87.02192
"15729",222.6086,81.58816,87.18271
"15730",222.62193,81.52468,87.16886
"15731",222.63527,81.34646,87.038284
"15732",222.6486,81.129166,86.86307
