"","Time..s.","PPG.trace","Preprocessed.PPG"
"43681",595.3663,79.32983,85.30051
"43682",595.3796,79.22728,85.17702
"43683",595.3929,79.13695,85.06254
"43684",595.4062,79.05882,84.95744
"43685",595.4195,79.00511,84.87432
"43686",595.4328,78.9807,84.81882
"43687",595.4461,78.98314,84.789406
"43688",595.4594,79.00023,84.77472
"43689",595.4727,79.029526,84.77277
"43690",595.486,79.05394,84.76686
"43691",595.4993,79.061264,84.74462
"43692",595.51263,79.0515,84.70552
"43693",595.52594,79.03197,84.65635
"43694",595.53925,79.01732,84.61145
"43695",595.55255,79.03197,84.59539
"43696",595.56586,79.14671,84.679886
"43697",595.57916,79.4226,84.92911
"43698",595.59247,79.89624,85.384705
"43699",595.6058,80.54322,86.02844
"43700",595.6191,81.27566,86.777855
"43701",595.6324,81.95438,87.49644
"43702",595.6457,82.44755,88.05068
"43703",595.659,82.684364,88.36398
"43704",595.6723,82.65507,88.41857
"43705",595.6856,82.425575,88.27205
"43706",595.6989,82.08865,88.010925
"43707",595.7122,81.72976,87.7173
"43708",595.7255,81.41238,87.45397
"43709",595.73883,81.17311,87.25884
"43710",595.75214,81.01686,87.13925
"43711",595.76544,80.92409,87.078255
"43712",595.77875,80.86305,87.0461
"43713",595.79205,80.78981,86.999825
"43714",595.80536,80.67506,86.90975
"43715",595.81866,80.5066,86.76239
"43716",595.832,80.2942,86.56582
"43717",595.8453,80.07202,86.35284
"43718",595.8586,79.88403,86.1671
"43719",595.8719,79.75952,86.03896
"43720",595.8852,79.70336,85.97529
"43721",595.8985,79.7058,85.96846
"43722",595.9118,79.73998,85.99345
"43723",595.9251,79.77905,86.02439
"43724",595.9384,79.79126,86.02969
"43725",595.9517,79.76929,86.0012
"43726",595.965,79.71557,85.94027
"43727",595.97833,79.63012,85.84593
"43728",595.99164,79.520256,85.72451
"43729",596.00494,79.398186,85.58745
"43730",596.01825,79.26635,85.436806
"43731",596.03156,79.13939,85.28692
"43732",596.04486,79.029526,85.15016
"43733",596.05817,78.9514,85.04171
"43734",596.0715,78.9099,84.96744
"43735",596.0848,78.89769,84.921165
"43736",596.0981,78.907455,84.896484
"43737",596.1114,78.924545,84.87943
"43738",596.1247,78.93919,84.86047
"43739",596.138,78.941635,84.829765
"43740",596.1513,78.94408,84.79913
"43741",596.1646,78.93675,84.75881
"43742",596.1779,78.922104,84.71094
"43743",596.1912,78.89769,84.65284
"43744",596.2045,78.87816,84.59886
"43745",596.21783,78.89769,84.583336
"43746",596.23114,79.0222,84.6734
"43747",596.24445,79.31762,84.93826
"43748",596.25775,79.81079,85.41011
"43749",596.27106,80.482185,86.07559
"43750",596.28436,81.22926,86.83774
"43751",596.29767,81.91531,87.5622
"43752",596.311,82.41093,88.11767
"43753",596.3243,82.650185,88.43227
"43754",596.3376,82.62577,88.49067
"43755",596.3509,82.406044,88.353
"43756",596.3642,82.07889,88.10103
"43757",596.3775,81.74197,87.82907
"43758",596.3908,81.45144,87.59298
"43759",596.4041,81.24391,87.43081
"43760",596.4174,81.10719,87.33296
"43761",596.4307,81.02907,87.28944
"43762",596.44403,80.972916,87.26544
"43763",596.45734,80.89235,87.21528
"43764",596.47064,80.765396,87.11621
"43765",596.48395,80.584724,86.95946
"43766",596.49725,80.360115,86.75312
"43767",596.51056,80.11841,86.52267
"43768",596.52386,79.8938,86.30176
"43769",596.5372,79.72289,86.12753
"43770",596.5505,79.61547,86.01145
"43771",596.5638,79.571526,85.95549
"43772",596.5771,79.57397,85.94454
"43773",596.5904,79.59594,85.9532
"43774",596.6037,79.62035,85.96499
"43775",596.617,79.62768,85.96045
"43776",596.6303,79.603264,85.9244
"43777",596.6436,79.54467,85.85341
"43778",596.6569,79.46166,85.75617
"43779",596.6702,79.35424,85.63193
"43780",596.68353,79.234604,85.49211
"43781",596.69684,79.12718,85.36077
"43782",596.71014,79.03685,85.243164
"43783",596.72345,78.96361,85.139824
"43784",596.73676,78.9099,85.05373
"43785",596.75006,78.87572,84.98548
"43786",596.76337,78.853745,84.928375
"43787",596.7767,78.836655,84.875465
"43788",596.79,78.82689,84.829346
"43789",596.8033,78.82445,84.790245
"43790",596.8166,78.82689,84.75595
"43791",596.8299,78.82933,84.72173
"43792",596.8432,78.83177,84.68759
"43793",596.8565,78.83177,84.651085
"43794",596.8698,78.83177,84.61458
"43795",596.8831,78.839096,84.585396
"43796",596.8964,78.8806,84.59062
"43797",596.9097,79.00267,84.67771
"43798",596.92303,79.27856,84.92243
"43799",596.93634,79.73754,85.35887
"43800",596.94965,80.36744,85.98057
"43801",596.96295,81.08522,86.70983
"43802",596.97626,81.77371,87.432236
"43803",596.98956,82.29618,88.01013
"43804",597.00287,82.579384,88.36509
"43805",597.0162,82.60868,88.47499
"43806",597.0295,82.43778,88.38561
"43807",597.0428,82.13992,88.16393
"43808",597.0561,81.812775,87.903656
"43809",597.0694,81.51736,87.66489
"43810",597.0827,81.28542,87.48037
"43811",597.096,81.13405,87.36916
"43812",597.1093,81.04372,87.31427
"43813",597.1226,80.98512,87.28829
"43814",597.1359,80.90944,87.24339
"43815",597.14923,80.79225,87.154625
"43816",597.16254,80.618904,87.006035
"43817",597.17584,80.396736,86.80321
"43818",597.18915,80.15259,86.57146
"43819",597.20245,79.92554,86.349174
"43820",597.21576,79.74731,86.16862
"43821",597.22906,79.63012,86.04353
"43822",597.2424,79.58373,85.98559
"43823",597.2557,79.586174,85.97502
"43824",597.269,79.61059,85.9865
"43825",597.2823,79.63012,85.993866
"43826",597.2956,79.63012,85.98231
"43827",597.3089,79.59838,85.93901
"43828",597.3222,79.53246,85.86054
"43829",597.3355,79.43969,85.75316
"43830",597.3488,79.33227,85.62823
"43831",597.3621,79.219955,85.49505
"43832",597.3754,79.10765,85.35837
"43833",597.38873,79.00267,85.2255
"43834",597.40204,78.91478,85.106445
"43835",597.41534,78.84154,84.99929
"43836",597.42865,78.78783,84.90938
"43837",597.44196,78.75853,84.8422
"43838",597.45526,78.746315,84.79119
"43839",597.46857,78.74387,84.74957
"43840",597.4819,78.751205,84.71765
"43841",597.4952,78.76341,84.690834
"43842",597.5085,78.77562,84.6644
"43843",597.5218,78.785385,84.6359
"43844",597.5351,78.79271,84.60527
"43845",597.5484,78.79271,84.56754
"43846",597.5617,78.78783,84.52493
"43847",597.575,78.785385,84.48461
"43848",597.5883,78.819565,84.480835
"43849",597.6016,78.94896,84.57334
"43850",597.6149,79.24193,84.833466
"43851",597.62823,79.727776,85.29562
"43852",597.64154,80.38697,85.94631
"43853",597.65485,81.12184,86.693275
"43854",597.66815,81.795685,87.402176
"43855",597.68146,82.27909,87.941696
"43856",597.69476,82.49882,88.23264
"43857",597.70807,82.459755,88.27167
"43858",597.7214,82.230255,88.11903
"43859",597.7347,81.90311,87.86158
"43860",597.748,81.57107,87.58901
"43861",597.7613,81.28542,87.35246
"43862",597.7746,81.07301,87.18022
"43863",597.7879,80.94118,87.08192
"43864",597.8012,80.86061,87.03076
"43865",597.8145,80.80202,86.99906
"43866",597.8278,80.726326,86.94843
"43867",597.8411,80.601814,86.84662
"43868",597.85443,80.41871,86.68232
"43869",597.86774,80.19653,86.47323
"43870",597.88104,79.96216,86.244995
"43871",597.89435,79.76196,86.04362
"43872",597.90765,79.62035,85.89457
"43873",597.92096,79.54711,85.80946
"43874",597.93427,79.534904,85.783104
"43875",597.9476,79.56664,85.80031
"43876",597.9609,79.60815,85.82827
"43877",597.9742,79.63012,85.838
"43878",597.9875,79.62524,85.821556
"43879",598.0008,79.58373,85.76834
"43880",598.0141,79.50805,85.67965
"43881",598.0274,79.41039,85.56662
"43882",598.0407,79.30297,85.44077
"43883",598.054,79.18822,85.30424
"43884",598.0673,79.078354,85.16901
"43885",598.0806,78.9807,85.04255
"43886",598.09393,78.90013,84.93013
"43887",598.10724,78.84154,84.837166
"43888",598.12054,78.80492,84.76434
"43889",598.13385,78.78294,84.705025
"43890",598.14716,78.77562,84.65967
"43891",598.16046,78.77318,84.618965
"43892",598.17377,78.77806,84.58551
"43893",598.1871,78.785385,84.55465
"43894",598.2004,78.785385,84.51669
"43895",598.2137,78.78294,84.476295
"43896",598.227,78.77074,84.426056
"43897",598.2403,78.75365,84.37055
"43898",598.2536,78.73899,84.31695
"43899",598.2669,78.74876,84.28731
"43900",598.2802,78.83177,84.33122
"43901",598.2935,79.0515,84.51444
"43902",598.3068,79.447014,84.88032
"43903",598.3201,80.01099,85.42701
"43904",598.33344,80.68482,86.10119
"43905",598.34674,81.35378,86.79155
"43906",598.36005,81.88602,87.36609
"43907",598.37335,82.178986,87.717995
"43908",598.38666,82.213165,87.82027
"43909",598.39996,82.03006,87.70632
"43910",598.41327,81.705345,87.445045
"43911",598.4266,81.33181,87.1248
"43912",598.4399,80.99977,86.83438
"43913",598.4532,80.740974,86.60683
"43914",598.4665,80.56275,86.45176
"43915",598.4798,80.445564,86.35216
"43916",598.4931,80.365,86.285515
"43917",598.5064,80.27711,86.20903
"43918",598.5197,80.164795,86.10538
"43919",598.533,80.028076,85.97381
"43920",598.5463,79.87915,85.82576
"43921",598.55963,79.742424,85.68526
"43922",598.57294,79.64721,85.58199
"43923",598.58624,79.603264,85.52702
"43924",598.59955,79.61303,85.52439
"43925",598.61285,79.66186,85.56113
"43926",598.62616,79.72289,85.611595
"43927",598.63947,79.766846,85.64689
"43928",598.6528,79.77661,85.64937
"43929",598.6661,79.74731,85.61308
"43930",598.6794,79.68139,85.53927
"43931",598.6927,79.586174,85.4341
"43932",598.706,79.47387,85.30886
"43933",598.7193,79.35424,85.17279
"43934",598.7326,79.24193,85.0403
"43935",598.7459,79.13451,84.90919
"43936",598.7592,79.044174,84.79181
"43937",598.7725,78.975815,84.69358
"43938",598.7858,78.922104,84.607864
"43939",598.79913,78.88548,84.53756
"43940",598.81244,78.86351,84.48076
"43941",598.82574,78.856186,84.43792
"43942",598.83905,78.86351,84.4095
"43943",598.85236,78.87572,84.38619
"43944",598.86566,78.8806,84.35594
"43945",598.87897,78.87572,84.31608
"43946",598.8923,78.86107,84.2663
"43947",598.9056,78.83421,84.20385
"43948",598.9189,78.81712,84.15033
"43949",598.9322,78.84154,84.13778
"43950",598.9455,78.96605,84.22609
"43951",598.9588,79.259026,84.486755
"43952",598.9721,79.75708,84.961655
"43953",598.9854,80.42115,85.61813
"43954",598.9987,81.15602,86.366165
"43955",599.012,81.8201,87.06637
"43956",599.0253,82.28153,87.58468
"43957",599.03864,82.46464,87.83908
"43958",599.05194,82.37675,87.82821
"43959",599.06525,82.091095,87.61683
"43960",599.07855,81.70779,87.29887
"43961",599.09186,81.31472,86.95917
"43962",599.10516,80.96803,86.653564
"43963",599.11847,80.70435,86.420135
"43964",599.1318,80.52613,86.26392
"43965",599.1451,80.413826,86.16806
"43966",599.1584,80.325935,86.0931
"43967",599.1717,80.235596,86.01295
"43968",599.185,80.12085,85.90556
"43969",599.1983,79.98169,85.77018
"43970",599.2116,79.835205,85.62312
"43971",599.2249,79.708244,85.49101
"43972",599.2382,79.63012,85.40377
"43973",599.2515,79.603264,85.36536
"43974",599.26483,79.63256,85.382256
"43975",599.27814,79.693596,85.43181
"43976",599.29144,79.75952,85.48816
"43977",599.30475,79.801025,85.52215
"43978",599.31805,79.80835,85.523254
"43979",599.33136,79.766846,85.47576
"43980",599.34467,79.68627,85.3879
"43981",599.358,79.57885,85.270676
"43982",599.3713,79.45922,85.137886
"43983",599.3846,79.33471,84.996475
"43984",599.3979,79.2224,84.86337
"43985",599.4112,79.12474,84.74142
"43986",599.4245,79.03929,84.62862
"43987",599.4378,78.96849,84.527794
"43988",599.4511,78.91966,84.44673
"43989",599.4644,78.890366,84.383675
"43990",599.4777,78.88304,84.341675
"43991",599.491,78.88548,84.30921
"43992",599.50433,78.89769,84.28659
"43993",599.51764,78.90257,84.25703
"43994",599.53094,78.89769,84.21785
"43995",599.54425,78.88548,84.171196
"43996",599.55756,78.890366,84.14125
"43997",599.57086,78.941635,84.157845
"43998",599.58417,79.10765,84.29079
"43999",599.5975,79.44457,84.59982
"44000",599.6108,79.971924,85.10982
"44001",599.6241,80.64332,85.780334
"44002",599.6374,81.356224,86.51334
"44003",599.6507,81.97635,87.17585
"44004",599.664,82.388954,87.650215
"44005",599.6773,82.545204,87.88112
"44006",599.6906,82.45731,87.872765
"44007",599.7039,82.19852,87.69076
"44008",599.7172,81.846954,87.4079
"44009",599.7305,81.480736,87.099396
"44010",599.74384,81.15114,86.81607
"44011",599.75714,80.88991,86.59081
"44012",599.77045,80.706795,86.43551
"44013",599.78375,80.59205,86.34285
"44014",599.79706,80.50172,86.27102
"44015",599.81036,80.40162,86.1866
"44016",599.82367,80.2649,86.06243
"44017",599.837,80.093994,85.8998
"44018",599.8503,79.91577,85.72452
"44019",599.8636,79.76196,85.56808
"44020",599.8769,79.65942,85.45809
"44021",599.8902,79.62524,85.41327
"44022",599.9035,79.64477,85.42109
"44023",599.9168,79.69848,85.4637
"44024",599.9301,79.75708,85.51288
"44025",599.9434,79.80347,85.551674
"44026",599.9567,79.815674,85.55774
"44027",599.97003,79.78882,85.52512
"44028",599.98334,79.71801,85.447716
"44029",599.99664,79.61791,85.338806
"44030",600.00995,79.48852,85.19747
"44031",600.02325,79.344475,85.037445
"44032",600.03656,79.21263,84.88512
"44033",600.04987,79.097885,84.745766
"44034",600.0632,79.00755,84.62724
"44035",600.0765,78.94896,84.537636
"44036",600.0898,78.91966,84.475494
"44037",600.1031,78.905014,84.427086
"44038",600.1164,78.90013,84.387985
"44039",600.1297,78.89525,84.34873
"44040",600.143,78.88548,84.30444
"44041",600.1563,78.870834,84.25497
"44042",600.1696,78.8513,84.20015
"44043",600.1829,78.836655,84.149605
"44044",600.1962,78.86107,84.137665
"44045",600.20953,78.97826,84.21926
"44046",600.22284,79.259026,84.4681
"44047",600.23615,79.73998,84.9259
"44048",600.24945,80.40406,85.581856
"44049",600.26276,81.15846,86.348885
"44050",600.27606,81.87137,87.09799
"44051",600.28937,82.39872,87.68382
"44052",600.3027,82.66239,88.02245
"44053",600.316,82.650185,88.093445
"44054",600.3293,82.42802,87.954094
"44055",600.3426,82.08377,87.68572
"44056",600.3559,81.70779,87.374855
"44057",600.3692,81.36111,87.08154
"44058",600.3825,81.08278,86.84575
"44059",600.3958,80.87526,86.672066
"44060",600.4091,80.740974,86.56513
"44061",600.4224,80.65064,86.497955
"44062",600.4357,80.567635,86.43528
"44063",600.44904,80.45289,86.33827
"44064",600.46234,80.291756,86.19129
"44065",600.47565,80.093994,86.00265
"44066",600.48895,79.886475,85.798065
"44067",600.50226,79.7058,85.613846
"44068",600.51556,79.5935,85.49235
"44069",600.5289,79.55688,85.44302
"44070",600.5422,79.58129,85.45359
"44071",600.5555,79.63744,85.49666
"44072",600.5688,79.70336,85.55125
"44073",600.5821,79.74731,85.58592
"44074",600.5954,79.7522,85.58292
"44075",600.6087,79.710686,85.53366
"44076",600.622,79.63012,85.44405
"44077",600.6353,79.520256,85.32263
"44078",600.6486,79.3933,85.18069
"44079",600.6619,79.26635,85.034775
"44080",600.67523,79.14671,84.89221
"44081",600.68854,79.044174,84.76301
"44082",600.70184,78.958725,84.64769
"44083",600.71515,78.89525,84.551674
"44084",600.72845,78.85863,84.48053
"44085",600.74176,78.836655,84.42289
"44086",600.75507,78.82689,84.37677
"44087",600.7684,78.81712,84.330345
"44088",600.7817,78.802475,84.27873
"44089",600.795,78.77806,84.216896
"44090",600.8083,78.75609,84.15674
"44091",600.8216,78.74387,84.10565
"44092",600.8349,78.785385,84.10791
"44093",600.8482,78.94408,84.228645
"44094",600.8615,79.281,84.53257
"44095",600.8748,79.823,85.0521
"44096",600.8881,80.5359,85.75947
"44097",600.9014,81.31228,86.5526
"44098",600.91473,82.01297,87.2943
"44099",600.92804,82.50858,87.85281
"44100",600.94135,82.72831,88.15093
"44101",600.95465,82.684364,88.192245
"44102",600.96796,82.44755,88.039314
"44103",600.98126,82.10086,87.76911
"44104",600.99457,81.73464,87.468544
"44105",601.0079,81.40017,87.18828
"44106",601.0212,81.13893,86.970795
"44107",601.0345,80.953384,86.82084
"44108",601.0478,80.82643,86.72368
"44109",601.0611,80.726326,86.6494
"44110",601.0744,80.62867,86.57444
"44111",601.0877,80.49439,86.45981
"44112",601.101,80.31373,86.29459
"44113",601.1143,80.10132,86.09199
"44114",601.1276,79.888916,85.88275
"44115",601.1409,79.7058,85.69617
"44116",601.15424,79.586174,85.567345
"44117",601.16754,79.53979,85.508026
"44118",601.18085,79.55932,85.513176
"44119",601.19415,79.622795,85.56288
"44120",601.20746,79.691154,85.61945
"44121",601.22076,79.73754,85.65619
"44122",601.2341,79.742424,85.65287
"44123",601.2474,79.7058,85.6082
"44124",601.2607,79.63256,85.525764
"44125",601.274,79.53246,85.414185
"44126",601.2873,79.415276,85.28239
"44127",601.3006,79.29565,85.144485
"44128",601.3139,79.17845,85.00528
"44129",601.3272,79.07347,84.874626
"44130",601.3405,78.98558,84.75778
"44131",601.3538,78.91966,84.660164
"44132",601.3671,78.873276,84.58002
"44133",601.38043,78.84398,84.51551
"44134",601.39374,78.83177,84.46718
"44135",601.40704,78.82933,84.42823
"44136",601.42035,78.83177,84.39409
"44137",601.43365,78.83421,84.36002
"44138",601.44696,78.83177,84.32115
"44139",601.46027,78.82445,84.27732
"44140",601.4736,78.819565,84.2357
"44141",601.4869,78.8513,84.23055
"44142",601.5002,78.9807,84.32405
"44143",601.5135,79.28832,84.59982
"44144",601.5268,79.80347,85.09273
"44145",601.5401,80.50904,85.79216
"44146",601.5534,81.30984,86.608864
"44147",601.5667,82.056915,87.39687
"44148",601.58,82.61112,88.01536
"44149",601.5933,82.882126,88.36796
"44150",601.6066,82.86992,88.445816
"44151",601.61993,82.64286,88.30844
"44152",601.63324,82.2913,88.03947
"44153",601.64655,81.90799,87.72776
"44154",601.65985,81.56863,87.44802
"44155",601.67316,81.30007,87.228485
"44156",601.68646,81.10719,87.07623
"44157",601.69977,80.9778,86.98144
"44158",601.7131,80.87038,86.90457
"44159",601.7264,80.74586,86.80725
"44160",601.7397,80.58961,86.67431
"44161",601.753,80.396736,86.49986
"44162",601.7663,80.17944,86.29497
"44163",601.7796,79.96216,86.08329
"44164",601.7929,79.77173,85.89168
"44165",601.8062,79.63744,85.75026
"44166",601.8195,79.56664,85.66813
"44167",601.8328,79.554436,85.64238
"44168",601.8461,79.59106,85.66508
"44169",601.85944,79.64477,85.70601
"44170",601.87274,79.693596,85.74374
"44171",601.88605,79.71313,85.75369
"44172",601.89935,79.691154,85.722755
"44173",601.91266,79.622795,85.644745
"44174",601.92596,79.5227,85.53286
"44175",601.9393,79.398186,85.39343
"44176",601.9526,79.26147,85.23791
"44177",601.9659,79.12962,85.082985
"44178",601.9792,79.012436,84.9386
"44179",601.9925,78.91966,84.814964
"44180",602.0058,78.853745,84.71529
"44181",602.0191,78.8098,84.63552
"44182",602.0324,78.785385,84.57391
"44183",602.0457,78.78294,84.533516
"44184",602.059,78.78783,84.50037
"44185",602.0723,78.79515,84.46981
"44186",602.08563,78.80003,84.43704
"44187",602.09894,78.802475,84.401985
"44188",602.11224,78.80003,84.36212
"44189",602.12555,78.78783,84.312416
"44190",602.13885,78.77318,84.25989
"44191",602.15216,78.76097,84.20934
"44192",602.16547,78.78294,84.1926
"44193",602.1788,78.89769,84.26931
"44194",602.1921,79.18089,84.51807
"44195",602.2054,79.68383,84.99541
"44196",602.2187,80.38941,85.69111
"44197",602.232,81.20729,86.52116
"44198",602.2453,81.99588,87.34747
"44199",602.2586,82.598915,88.01288
"44200",602.2719,82.92363,88.41881
"44201",602.2852,82.95537,88.54191
"44202",602.2985,82.75029,88.429184
"44203",602.3118,82.406044,88.17088
"44204",602.32513,82.020294,87.86032
"44205",602.33844,81.651634,87.554794
"44206",602.35175,81.341576,87.29635
"44207",602.36505,81.109634,87.10633
"44208",602.37836,80.955826,86.9872
"44209",602.39166,80.85329,86.91453
"44210",602.40497,80.77028,86.858185
"44211",602.4183,80.66773,86.77971
"44212",602.4316,80.51881,86.65165
"44213",602.4449,80.31617,86.465225
"44214",602.4582,80.079346,86.23828
"44215",602.4715,79.85718,86.01859
"44216",602.4848,79.68139,85.83834
"44217",602.4981,79.57397,85.72096
"44218",602.5114,79.537346,85.67103
"44219",602.5247,79.55688,85.6761
"44220",602.538,79.60815,85.713524
"44221",602.55133,79.66186,85.75499
"44222",602.56464,79.693596,85.77616
"44223",602.57794,79.693596,85.76659
"44224",602.59125,79.64721,85.710625
"44225",602.60455,79.56176,85.61415
"44226",602.61786,79.449455,85.48815
"44227",602.63116,79.3225,85.343994
"44228",602.6445,79.18822,85.18854
"44229",602.6578,79.061264,85.03622
"44230",602.6711,78.95384,84.89946
"44231",602.6844,78.86839,84.78132
"44232",602.6977,78.80736,84.68492
"44233",602.711,78.77318,84.61347
"44234",602.7243,78.75365,84.5556
"44235",602.7376,78.74876,84.511765
"44236",602.7509,78.751205,84.47511
"44237",602.7642,78.75853,84.44341
"44238",602.7775,78.77074,84.416824
"44239",602.79083,78.78294,84.39062
"44240",602.80414,78.79027,84.35991
"44241",602.81744,78.79759,84.32943
"44242",602.83075,78.79271,84.28697
"44243",602.84406,78.7805,84.23704
"44244",602.85736,78.76097,84.1794
"44245",602.87067,78.76097,84.14068
"44246",602.884,78.836655,84.17764
"44247",602.8973,79.07591,84.38055
"44248",602.9106,79.53979,84.815544
"44249",602.9239,80.22339,85.484764
"44250",602.9372,81.05104,86.3194
"44251",602.9505,81.88602,87.18722
"44252",602.9638,82.56962,87.929756
"44253",602.9771,82.98222,88.42266
"44254",602.9904,83.089645,88.623276
"44255",603.0037,82.93828,88.56846
"44256",603.017,82.61112,88.33312
"44257",603.03033,82.21561,88.0192
"44258",603.04364,81.82254,87.69537
"44259",603.05695,81.49294,87.42273
"44260",603.07025,81.24635,87.22279
"44261",603.08356,81.077896,87.093285
"44262",603.09686,80.96315,87.01222
"44263",603.11017,80.87038,86.94955
"44264",603.1235,80.765396,86.871765
"44265",603.1368,80.618904,86.74919
"44266",603.1501,80.42603,86.57566
"44267",603.1634,80.198975,86.361916
"44268",603.1767,79.971924,86.14108
"44269",603.19,79.77661,85.94489
"44270",603.2033,79.64477,85.80607
"44271",603.2166,79.58373,85.73393
"44272",603.2299,79.57885,85.71604
"44273",603.2432,79.60815,85.73218
"44274",603.25653,79.64721,85.758995
"44275",603.26984,79.674065,85.774826
"44276",603.28314,79.674065,85.76464
"44277",603.29645,79.63744,85.717834
"44278",603.30975,79.569084,85.638145
"44279",603.32306,79.4641,85.5197
"44280",603.33636,79.33959,85.37844
"44281",603.3497,79.20531,85.22352
"44282",603.363,79.07591,85.06929
"44283",603.3763,78.96361,84.92811
"44284",603.3896,78.873276,84.80539
"44285",603.4029,78.80492,84.70182
"44286",603.4162,78.75853,84.61809
"44287",603.4295,78.72678,84.54755
"44288",603.4428,78.70725,84.48823
"44289",603.4561,78.70237,84.44295
"44290",603.4694,78.70725,84.40728
"44291",603.4827,78.71946,84.37909
"44292",603.49603,78.73167,84.35128
"44293",603.50934,78.74387,84.32385
"44294",603.52264,78.74876,84.28948
"44295",603.53595,78.751205,84.25283
"44296",603.54926,78.751205,84.213806
"44297",603.56256,78.74876,84.17233
"44298",603.57587,78.74876,84.13323
"44299",603.5892,78.7805,84.12588
"44300",603.6025,78.90257,84.20984
"44301",603.6158,79.19554,84.46851
"44302",603.6291,79.710686,84.95852
"44303",603.6424,80.43336,85.67215
"44304",603.6557,81.270775,86.52311
"44305",603.669,82.08377,87.37582
"44306",603.6823,82.71366,88.07082
"44307",603.6956,83.06279,88.50475
"44308",603.7089,83.11162,88.64929
"44309",603.7222,82.91875,88.55366
"44310",603.73553,82.57206,88.29818
"44311",603.74884,82.16922,87.975716
"44312",603.76215,81.78348,87.65776
"44313",603.77545,81.45388,87.383896
"44314",603.78876,81.20485,87.1803
"44315",603.80206,81.03395,87.04705
"44316",603.81537,80.91432,86.95973
"44317",603.8287,80.82155,86.89553
"44318",603.842,80.71168,86.81133
"44319",603.8553,80.56031,86.682205
"44320",603.8686,80.35767,86.49708
"44321",603.8819,80.12329,86.27387
"44322",603.8952,79.8938,86.04823
"44323",603.9085,79.70092,85.852036
"44324",603.9218,79.58129,85.72306
"44325",603.9351,79.537346,85.66603
"44326",603.9484,79.554436,85.66866
"44327",603.96173,79.605705,85.70601
"44328",603.97504,79.66186,85.74984
"44329",603.98834,79.69848,85.775894
"44330",604.00165,79.70092,85.76891
"44331",604.01495,79.66186,85.720505
"44332",604.02826,79.57885,85.62693
"44333",604.04156,79.4641,85.49902
"44334",604.0549,79.32494,85.34312
"44335",604.0682,79.17845,85.17553
"44336",604.0815,79.044174,85.01558
"44337",604.0948,78.92943,84.870964
"44338",604.1081,78.84154,84.74962
"44339",604.1214,78.77318,84.64506
"44340",604.1347,78.73167,84.56521
"44341",604.148,78.70237,84.49628
"44342",604.1613,78.68772,84.44108
"44343",604.1746,78.6804,84.392746
"44344",604.1879,78.68528,84.35639
"44345",604.20123,78.69749,84.327515
"44346",604.21454,78.71458,84.3039
"44347",604.22784,78.73167,84.28082
"44348",604.24115,78.74876,84.25828
"44349",604.25446,78.76097,84.23139
"44350",604.26776,78.768295,84.2
"44351",604.28107,78.768295,84.16151
"44352",604.2944,78.77074,84.12546
"44353",604.3077,78.81712,84.13343
"44354",604.321,78.9807,84.26004
"44355",604.3343,79.33715,84.58464
"44356",604.3476,79.923096,85.14987
"44357",604.3609,80.70191,85.926285
"44358",604.3742,81.566185,86.81249
"44359",604.3875,82.354774,87.650024
"44360",604.4008,82.91875,88.28758
"44361",604.4141,83.177536,88.63758
"44362",604.4274,83.140915,88.70026
"44363",604.44073,82.8748,88.532295
"44364",604.45404,82.48173,88.22906
"44365",604.46735,82.054474,87.87936
"44366",604.48065,81.65896,87.54804
"44367",604.49396,81.33669,87.27762
"44368",604.50726,81.09743,87.080124
"44369",604.52057,80.92897,86.94596
"44370",604.5339,80.80934,86.85536
"44371",604.5472,80.70191,86.773224
"44372",604.5605,80.57252,86.665764
"44373",604.5738,80.40894,86.52008
"44374",604.5871,80.21362,86.33754
"44375",604.6004,80.00366,86.134254
"44376",604.6137,79.80835,85.93906
"44377",604.627,79.65942,85.784134
"44378",604.6403,79.56664,85.68072
"44379",604.6536,79.53979,85.64032
"44380",604.66693,79.55932,85.64547
"44381",604.68024,79.60082,85.6732
"44382",604.69354,79.64233,85.70223
"44383",604.70685,79.6643,85.71303
"44384",604.72015,79.64965,85.68789
"44385",604.73346,79.60082,85.62811
"44386",604.74677,79.51537,85.53019
"44387",604.7601,79.40307,85.40274
"44388",604.7734,79.273674,85.25469
"44389",604.7867,79.14183,85.10015
"44390",604.8,79.01976,84.95126
"44391",604.8133,78.91478,84.81565
"44392",604.8266,78.83177,84.69873
"44393",604.8399,78.77318,84.60363
"44394",604.8532,78.729225,84.52134
"44395",604.8665,78.695045,84.44745
"44396",604.8798,78.67307,84.3847
"44397",604.8931,78.66331,84.333466
"44398",604.90643,78.66331,84.291695
"44399",604.91974,78.67063,84.25725
"44400",604.93304,78.6804,84.22547
"44401",604.94635,78.695045,84.19888
"44402",604.95966,78.709694,84.17275
"44403",604.97296,78.71702,84.139755
"44404",604.98627,78.72434,84.10699
"44405",604.9996,78.72678,84.069565
"44406",605.0129,78.73411,84.0371
"44407",605.0262,78.79515,84.058586
"44408",605.0395,78.98314,84.20892
"44409",605.0528,79.37621,84.57022
"44410",605.0661,80.0061,85.18062
"44411",605.0794,80.82155,85.996254
"44412",605.0927,81.70046,86.90084
"44413",605.106,82.48417,87.737686
"44414",605.1193,83.0164,88.34755
"44415",605.1326,83.22148,88.64689
"44416",605.14594,83.13115,88.65723
"44417",605.15924,82.828415,88.45234
"44418",605.17255,82.41581,88.12812
"44419",605.18585,81.986115,87.77392
"44420",605.19916,81.60525,87.45512
"44421",605.21246,81.304955,87.20499
"44422",605.22577,81.08522,87.02603
"44423",605.2391,80.936295,86.91102
"44424",605.2524,80.82887,86.832855
"44425",605.2657,80.72877,86.75865
"44426",605.279,80.601814,86.65447
"44427",605.2923,80.4358,86.50726
"44428",605.3056,80.233154,86.31824
"44429",605.3189,80.02075,86.11312
"44430",605.3322,79.83276,85.92578
"44431",605.3455,79.68871,85.776505
"44432",605.3588,79.60815,85.68621
"44433",605.37213,79.586174,85.65199
"44434",605.38544,79.603264,85.65615
"44435",605.39874,79.63744,85.67793
"44436",605.41205,79.67162,85.70078
"44437",605.42535,79.68139,85.70029
"44438",605.43866,79.65942,85.66836
"44439",605.45197,79.605705,85.604004
"44440",605.4653,79.520256,85.50623
"44441",605.4786,79.41039,85.38138
"44442",605.4919,79.28588,85.23844
"44443",605.5052,79.15404,85.08428
"44444",605.5185,79.03197,84.935776
"44445",605.5318,78.924545,84.7981
"44446",605.5451,78.83177,84.67172
"44447",605.5584,78.76097,84.564415
"44448",605.5717,78.71458,84.4793
"44449",605.585,78.68772,84.41228
"44450",605.5983,78.67063,84.35418
"44451",605.61163,78.66819,84.310196
"44452",605.62494,78.677956,84.27834
"44453",605.63824,78.692604,84.25168
"44454",605.65155,78.712135,84.230354
"44455",605.66486,78.73167,84.20964
"44456",605.67816,78.74387,84.18221
"44457",605.69147,78.746315,84.1454
"44458",605.7048,78.74143,84.10134
"44459",605.7181,78.73655,84.05713
"44460",605.7314,78.768295,84.04939
"44461",605.7447,78.89769,84.1403
"44462",605.758,79.202866,84.411026
"44463",605.7713,79.742424,84.925674
"44464",605.7846,80.50416,85.67936
"44465",605.7979,81.38552,86.57648
"44466",605.8112,82.23514,87.46939
"44467",605.8245,82.899216,88.203316
"44468",605.8378,83.26055,88.65525
"44469",605.85114,83.299614,88.7962
"44470",605.86444,83.075,88.6747
"44471",605.87775,82.69169,88.38748
"44472",605.89105,82.24979,88.02969
"44473",605.90436,81.82498,87.67519
"44474",605.91766,81.463646,87.37089
"44475",605.93097,81.180435,87.133415
"44476",605.9443,80.97536,86.965225
"44477",605.9576,80.831314,86.85166
"44478",605.9709,80.719,86.76533
"44479",605.9842,80.59693,86.665726
"44480",605.9975,80.445564,86.53301
"44481",606.0108,80.26002,86.36139
"44482",606.0241,80.05493,86.16443
"44483",606.0374,79.85474,85.96595
"44484",606.0507,79.69848,85.80515
"44485",606.064,79.603264,85.700516
"44486",606.07733,79.57397,85.65882
"44487",606.09064,79.59106,85.6626
"44488",606.10394,79.63744,85.696205
"44489",606.11725,79.67895,85.72638
"44490",606.13055,79.70336,85.74076
"44491",606.14386,79.69604,85.72417
"44492",606.15717,79.65209,85.67072
"44493",606.1705,79.56664,85.5744
"44494",606.1838,79.45434,85.448555
"44495",606.1971,79.32494,85.30211
"44496",606.2104,79.19066,85.14673
"44497",606.2237,79.05882,84.9896
"44498",606.237,78.94408,84.84544
"44499",606.2503,78.8513,84.71967
"44500",606.2636,78.77806,84.610535
"44501",606.2769,78.72678,84.52107
"44502",606.2902,78.692604,84.447105
"44503",606.3035,78.67063,84.38428
"44504",606.31683,78.658424,84.33053
"44505",606.33014,78.65354,84.28372
"44506",606.34344,78.66331,84.25141
"44507",606.35675,78.68284,84.22917
"44508",606.37006,78.709694,84.21487
"44509",606.38336,78.73655,84.2014
"44510",606.39667,78.75365,84.179016
"44511",606.41,78.75853,84.14495
"44512",606.4233,78.76097,84.1086
"44513",606.4366,78.79027,84.099174
"44514",606.4499,78.91234,84.18344
"44515",606.4632,79.21507,84.45219
"44516",606.4765,79.74975,84.96233
"44517",606.4898,80.49683,85.7016
"44518",606.5031,81.36843,86.58872
"44519",606.5164,82.213165,87.47622
"44520",606.5297,82.8748,88.207016
"44521",606.543,83.23857,88.66062
"44522",606.55634,83.29229,88.815544
"44523",606.56964,83.09453,88.720665
"44524",606.58295,82.73319,88.45603
"44525",606.59625,82.30595,88.1142
"44526",606.60956,81.88846,87.76877
"44527",606.62286,81.52224,87.46156
"44528",606.63617,81.234146,87.22104
"44529",606.6495,81.02174,87.0472
"44530",606.6628,80.87038,86.927765
"44531",606.6761,80.74586,86.830444
"44532",606.6894,80.61646,86.72436
"44533",606.7027,80.465096,86.592255
"44534",606.716,80.289314,86.43101
"44535",606.7293,80.10376,86.25449
"44536",606.7426,79.93042,86.0844
"44537",606.7559,79.798584,85.950386
"44538",606.7692,79.72289,85.8684
"44539",606.78253,79.693596,85.830444
"44540",606.79584,79.70092,85.82819
"44541",606.80914,79.725334,85.84326
"44542",606.82245,79.7522,85.86154
"44543",606.83575,79.75952,85.86112
"44544",606.84906,79.742424,85.83651
"44545",606.86237,79.693596,85.77963
"44546",606.8757,79.61303,85.68949
"44547",606.889,79.50317,85.567535
"44548",606.9023,79.37133,85.42017
"44549",606.9156,79.23216,85.26136
"44550",606.9289,79.10277,85.10797
"44551",606.9422,78.995346,84.97251
"44552",606.9555,78.9099,84.85567
"44553",606.9688,78.84886,84.76057
"44554",606.9821,78.80492,84.68065
"44555",606.9954,78.7805,84.61889
"44556",607.0087,78.76341,84.56369
"44557",607.02203,78.75853,84.520164
"44558",607.03534,78.75853,84.48137
"44559",607.04865,78.765854,84.4499
"44560",607.06195,78.77318,84.418655
"44561",607.07526,78.7805,84.38764
"44562",607.08856,78.78783,84.35686
"44563",607.10187,78.79027,84.32142
"44564",607.1152,78.79271,84.28606
"44565",607.1285,78.80736,84.26298
"44566",607.1418,78.890366,84.308716
"44567",607.1551,79.11986,84.50353
"44568",607.1684,79.569084,84.925255
"44569",607.1817,80.2478,85.59051
"44570",607.195,81.08522,86.43567
"44571",607.2083,81.95438,87.33874
"44572",607.2216,82.686806,88.13224
"44573",607.2349,83.15068,88.68008
"44574",607.2482,83.3045,88.93235
"44575",607.26154,83.17998,88.911095
"44576",607.27484,82.86015,88.69064
"44577",607.28815,82.44022,88.36009
"44578",607.30145,82.005646,88.00177
"44579",607.31476,81.61501,87.67381
"44580",607.32806,81.307396,87.416664
"44581",607.3414,81.08034,87.23046
"44582",607.3547,80.921646,87.10553
"44583",607.368,80.80446,87.01714
"44584",607.3813,80.69703,86.93485
"44585",607.3946,80.56519,86.8248
"44586",607.4079,80.40162,86.67889
"44587",607.4212,80.21118,86.501
"44588",607.4345,80.01343,86.309845
"44589",607.4478,79.835205,86.13204
"44590",607.4611,79.70092,85.99261
"44591",607.4744,79.622795,85.905136
"44592",607.48773,79.59838,85.868935
"44593",607.50104,79.61059,85.86859
"44594",607.51434,79.63744,85.88328
"44595",607.52765,79.656975,85.89148
"44596",607.54095,79.656975,85.88076
"44597",607.55426,79.62035,85.83342
"44598",607.56757,79.551994,85.7532
"44599",607.5809,79.45434,85.64154
"44600",607.5942,79.33471,85.50486
"44601",607.6075,79.20531,85.35467
"44602",607.6208,79.080795,85.20532
"44603",607.6341,78.96849,85.06429
"44604",607.6474,78.870834,84.9344
"44605",607.6607,78.79759,84.825874
"44606",607.674,78.746315,84.73702
"44607",607.6873,78.712135,84.663666
"44608",607.7006,78.695045,84.60633
"44609",607.7139,78.692604,84.56311
"44610",607.72723,78.70237,84.53202
"44611",607.74054,78.71458,84.50368
"44612",607.75385,78.72678,84.475716
"44613",607.76715,78.73899,84.448135
"44614",607.78046,78.746315,84.41605
"44615",607.79376,78.746315,84.37688
"44616",607.80707,78.74387,84.33526
"44617",607.8204,78.746315,84.29845
"44618",607.8337,78.765854,84.27881
"44619",607.847,78.85863,84.333015
"44620",607.8603,79.097885,84.536606
"44621",607.8736,79.55688,84.96741
"44622",607.8869,80.24048,85.63716
"44623",607.9002,81.08766,86.49186
"44624",607.9135,81.9617,87.39989
"44625",607.9268,82.69901,88.1985
"44626",607.9401,83.17021,88.75404
"44627",607.9534,83.32647,89.00937
"44628",607.96674,83.211716,88.998566
"44629",607.98004,82.90654,88.793755
"44630",607.99335,82.50858,88.486626
"44631",608.00665,82.1033,88.15974
"44632",608.01996,81.73708,87.859245
"44633",608.03326,81.43435,87.610794
"44634",608.0466,81.20485,87.42612
"44635",608.0599,81.041275,87.30019
"44636",608.0732,80.92897,87.22043
"44637",608.0865,80.831314,87.1518
"44638",608.0998,80.719,87.06547
"44639",608.1131,80.5774,86.946335
"44640",608.1264,80.396736,86.783714
"44641",608.1397,80.184326,86.5837
"44642",608.153,79.974365,86.3795
"44643",608.1663,79.81079,86.215126
"44644",608.1796,79.70336,86.10178
"44645",608.19293,79.65453,86.043686
"44646",608.20624,79.64721,86.025566
"44647",608.21954,79.6643,86.03163
"44648",608.23285,79.67895,86.03579
"44649",608.24615,79.66918,86.01599
"44650",608.25946,79.62768,85.96415
"44651",608.27277,79.55932,85.884155
"44652",608.2861,79.46166,85.77273
"44653",608.2994,79.33959,85.633835
"44654",608.3127,79.21263,85.48624
"44655",608.326,79.09544,85.344444
"44656",608.3393,78.992905,85.21364
"44657",608.3526,78.9099,85.09916
"44658",608.3659,78.84642,85.00162
"44659",608.3792,78.79271,84.91186
"44660",608.3925,78.75365,84.83507
"44661",608.4058,78.7219,84.76437
"44662",608.4191,78.69749,84.70002
"44663",608.43243,78.68528,84.64711
"44664",608.44574,78.68528,84.606026
"44665",608.45905,78.692604,84.572266
"44666",608.47235,78.69993,84.538734
"44667",608.48566,78.712135,84.510315
"44668",608.49896,78.71946,84.477394
"44669",608.51227,78.71946,84.43738
"44670",608.5256,78.69993,84.37783
"44671",608.5389,78.68284,84.320114
"44672",608.5522,78.70725,84.30337
"44673",608.5655,78.84642,84.40214
"44674",608.5788,79.183334,84.703
"44675",608.5921,79.75708,85.25123
"44676",608.6054,80.54322,86.02978
"44677",608.6187,81.42458,86.928116
"44678",608.632,82.24002,87.78807
"44679",608.6453,82.847946,88.465996
"44680",608.6586,83.158005,88.86505
"44681",608.67194,83.16777,88.9735
"44682",608.68524,82.93828,88.843
"44683",608.69855,82.579384,88.57593
"44684",608.71185,82.1741,88.25125
"44685",608.72516,81.78836,87.93345
"44686",608.73846,81.47097,87.67194
"44687",608.7518,81.23659,87.48353
"44688",608.7651,81.06813,87.353714
"44689",608.7784,80.94118,87.26014
"44690",608.7917,80.82643,87.174805
"44691",608.805,80.69459,87.06879
"44692",608.8183,80.533455,86.92936
"44693",608.8316,80.34058,86.75316
"44694",608.8449,80.13306,86.556274
"44695",608.8582,79.93286,86.36024
"44696",608.8715,79.766846,86.19212
"44697",608.8848,79.64721,86.0652
"44698",608.89813,79.58129,85.98826
"44699",608.91144,79.56176,85.95564
"44700",608.92474,79.57397,85.954155
"44701",608.93805,79.59106,85.95793
"44702",608.95135,79.59106,85.94515
"44703",608.96466,79.56664,85.90796
"44704",608.97797,79.51293,85.840706
"44705",608.9913,79.42748,85.740036
"44706",609.0046,79.32006,85.61472
"44707",609.0179,79.19798,85.4714
"44708",609.0312,79.07591,85.324265
"44709",609.0445,78.96361,85.18308
"44710",609.0578,78.870834,85.05792
"44711",609.0711,78.79515,84.94695
"44712",609.0844,78.74143,84.85558
"44713",609.0977,78.70725,84.782074
"44714",609.111,78.68284,84.71726
"44715",609.1243,78.67063,84.663895
"44716",609.13763,78.67063,84.62235
"44717",609.15094,78.66819,84.57837
"44718",609.16425,78.660866,84.52943
"44719",609.17755,78.66331,84.49002
"44720",609.19086,78.677956,84.4629
"44721",609.20416,78.69993,84.44356
"44722",609.21747,78.72434,84.427345
"44723",609.2308,78.75609,84.41923
"44724",609.2441,78.79759,84.42186
"44725",609.2574,78.8806,84.46729
"44726",609.2707,79.078354,84.630066
"44727",609.284,79.47631,84.99922
"44728",609.2973,80.09155,85.5981
"44729",609.3106,80.88014,86.38955
"44730",609.3239,81.72488,87.26179
"44731",609.3372,82.47196,88.062775
"44732",609.3505,82.98222,88.65028
"44733",609.36383,83.18974,88.951
"44734",609.37714,83.1165,88.97743
"44735",609.39044,82.84062,88.79894
"44736",609.40375,82.459755,88.50684
"44737",609.41705,82.054474,88.17843
"44738",609.43036,81.688255,87.87641
"44739",609.44366,81.38308,87.62399
"44740",609.457,81.15358,87.43771
"44741",609.4703,80.98512,87.305305
"44742",609.4836,80.85573,87.206696
"44743",609.4969,80.73853,87.11624
"44744",609.5102,80.6067,87.007484
"44745",609.5235,80.445564,86.86531
"44746",609.5368,80.257576,86.691246
"44747",609.5501,80.06958,86.5113
"44748",609.5634,79.90845,86.35234
"44749",609.5767,79.798584,86.23962
"44750",609.59,79.742424,86.17716
"44751",609.60333,79.73754,86.16423
"44752",609.61664,79.76196,86.18045
"44753",609.62994,79.783936,86.194984
"44754",609.64325,79.783936,86.18823
"44755",609.65656,79.75952,86.15707
"44756",609.66986,79.70092,86.09095
"44757",609.68317,79.61547,85.996155
"44758",609.6965,79.51293,85.8816
"44759",609.7098,79.398186,85.75163
"44760",609.7231,79.28344,85.61808
"44761",609.7364,79.168686,85.480934
"44762",609.7497,79.06615,85.35242
"44763",609.763,78.975815,85.2329
"44764",609.7763,78.90257,85.127655
"44765",609.7896,78.84886,85.03965
"44766",609.8029,78.81712,84.97194
"44767",609.8162,78.80003,84.917885
"44768",609.8295,78.79515,84.8755
"44769",609.84283,78.802475,84.84518
"44770",609.85614,78.81224,84.81752
"44771",609.86945,78.82445,84.79261
"44772",609.88275,78.83421,84.76564
"44773",609.89606,78.839096,84.73409
"44774",609.90936,78.83421,84.69293
"44775",609.92267,78.82201,84.644295
"44776",609.936,78.82201,84.60748
"44777",609.9493,78.887924,84.63659
"44778",609.9626,79.093,84.806915
"44779",609.9759,79.50317,85.188736
"44780",609.9892,80.12573,85.79578
"44781",610.0025,80.902115,86.57609
"44782",610.0158,81.69802,87.400185
"44783",610.0291,82.36454,88.11977
"44784",610.0424,82.78691,88.61603
"44785",610.0557,82.913864,88.83007
"44786",610.06903,82.77959,88.78685
"44787",610.08234,82.46464,88.55876
"44788",610.09564,82.06668,88.23782
"44789",610.10895,81.65896,87.894684
"44790",610.12225,81.30251,87.59008
"44791",610.13556,81.024185,87.352455
"44792",610.14886,80.831314,87.19159
"44793",610.1622,80.70435,87.09061
"44794",610.1755,80.604256,87.01252
"44795",610.1888,80.49683,86.92398
"44796",610.2021,80.365,86.80767
"44797",610.2154,80.2063,86.66038
"44798",610.2287,80.04028,86.50081
"44799",610.242,79.8938,86.35558
"44800",610.2553,79.78638,86.24484
"44801",610.2686,79.727776,86.179565
"44802",610.2819,79.70336,86.146645
"44803",610.2952,79.70336,86.137375
"44804",610.30853,79.710686,86.13543
"44805",610.32184,79.71313,86.12883
"44806",610.33514,79.69848,86.10522
"44807",610.34845,79.66186,86.05917
"44808",610.36176,79.603264,85.99001
"44809",610.37506,79.52758,85.90193
"44810",610.38837,79.432365,85.791954
"44811",610.4017,79.32494,85.666794
"44812",610.415,79.219955,85.54071
"44813",610.4283,79.11986,85.41624
"44814",610.4416,79.03197,85.30084
"44815",610.4549,78.96117,85.19979
"44816",610.4682,78.907455,85.11362
"44817",610.4815,78.86839,85.04041
"44818",610.4948,78.84642,84.98308
"44819",610.5081,78.84154,84.94215
"44820",610.5214,78.84642,84.91083
"44821",610.5347,78.853745,84.8821
"44822",610.54803,78.86595,84.85849
"44823",610.56134,78.870834,84.827934
"44824",610.57465,78.86839,84.79021
"44825",610.58795,78.856186,84.74264
"44826",610.60126,78.84886,84.69957
"44827",610.61456,78.85863,84.67336
"44828",610.62787,78.92943,84.708496
"44829",610.6412,79.12962,84.87524
"44830",610.6545,79.520256,85.23867
"44831",610.6678,80.11597,85.81939
"44832",610.6811,80.86305,86.5701
"44833",610.6944,81.63943,87.37344
"44834",610.7077,82.303505,88.08875
"44835",610.721,82.72831,88.58554
"44836",610.7343,82.862595,88.805084
"44837",610.7476,82.738075,88.77002
"44838",610.7609,82.425575,88.54308
"44839",610.77423,82.022736,88.21604
"44840",610.78754,81.61013,87.866646
"44841",610.80084,81.24391,87.55074
"44842",610.81415,80.953384,87.29909
"44843",610.82745,80.74586,87.12135
"44844",610.84076,80.59693,86.995735
"44845",610.85406,80.48707,86.904526
"44846",610.8674,80.37965,86.812325
"44847",610.8807,80.257576,86.70212
"44848",610.894,80.113525,86.56612
"44849",610.9073,79.96948,86.42562
"44850",610.9206,79.83765,86.29283
"44851",610.9339,79.74731,86.19742
"44852",610.9472,79.70336,86.14558
"44853",610.9605,79.69848,86.131424
"44854",610.9738,79.72045,86.143974
"44855",610.9871,79.74975,86.164536
"44856",611.0004,79.764404,86.17137
"44857",611.01373,79.75708,86.156685
"44858",611.02704,79.72045,86.112465
"44859",611.04034,79.65453,86.03781
"44860",611.05365,79.55932,85.9318
"44861",611.06696,79.447014,85.805725
"44862",611.08026,79.327385,85.668816
"44863",611.09357,79.21263,85.53304
"44864",611.1069,79.11009,85.4059
"44865",611.1202,79.027084,85.29508
"44866",611.1335,78.96605,85.20364
"44867",611.1468,78.924545,85.12983
"44868",611.1601,78.89525,85.066925
"44869",611.1734,78.8806,85.01775
"44870",611.1867,78.870834,84.97301
"44871",611.2,78.86351,84.9304
"44872",611.2133,78.86351,84.89488
"44873",611.2266,78.86107,84.856926
"44874",611.2399,78.86107,84.821335
"44875",611.25323,78.856186,84.78086
"44876",611.26654,78.84642,84.73535
"44877",611.27985,78.839096,84.69198
"44878",611.29315,78.8513,84.66791
"44879",611.30646,78.924545,84.70525
"44880",611.31976,79.12718,84.87428
"44881",611.33307,79.5227,85.24252
"44882",611.3464,80.11597,85.82088
"44883",611.3597,80.850845,86.55938
"44884",611.373,81.617455,87.35258
"44885",611.3863,82.266884,88.05255
"44886",611.3996,82.67704,88.53355
"44887",611.4129,82.79668,88.73684
"44888",611.4262,82.65751,88.68507
"44889",611.4395,82.33036,88.44096
"44890",611.4528,81.91531,88.09874
"44891",611.4661,81.495384,87.73866
"44892",611.47943,81.13893,87.42894
"44893",611.49274,80.867935,87.193535
"44894",611.50604,80.68482,87.037544
"44895",611.51935,80.56275,86.936874
"44896",611.53265,80.46998,86.86169
"44897",611.54596,80.36988,86.776276
"44898",611.55927,80.24536,86.663315
"44899",611.5726,80.1062,86.53182
"44900",611.5859,79.96948,86.39842
"44901",611.5992,79.852295,86.28028
"44902",611.6125,79.77173,86.1951
"44903",611.6258,79.73998,86.15622
"44904",611.6391,79.742424,86.150536
"44905",611.6524,79.766846,86.16691
"44906",611.6657,79.78882,86.181595
"44907",611.679,79.79126,86.17744
"44908",611.6923,79.76196,86.14162
"44909",611.7056,79.69848,86.070694
"44910",611.71893,79.60815,85.97094
"44911",611.73224,79.49584,85.84639
"44912",611.74554,79.37377,85.708565
"44913",611.75885,79.256584,85.57181
"44914",611.77216,79.151596,85.44359
"44915",611.78546,79.05882,85.3243
"44916",611.79877,78.98314,85.21921
"44917",611.8121,78.924545,85.12884
"44918",611.8254,78.88304,85.05373
"44919",611.8387,78.853745,84.989525
"44920",611.852,78.82933,84.92929
"44921",611.8653,78.80736,84.870735
"44922",611.8786,78.785385,84.81149
"44923",611.8919,78.765854,84.754005
"44924",611.9052,78.75365,84.70323
"44925",611.9185,78.74876,84.65939
"44926",611.9318,78.73411,84.605644
"44927",611.9451,78.712135,84.54411
"44928",611.95844,78.69993,84.49166
"44929",611.97174,78.729225,84.48033
"44930",611.98505,78.86595,84.57735
"44931",611.99835,79.17845,84.85441
"44932",612.01166,79.7058,85.35609
"44933",612.02496,80.40894,86.05003
"44934",612.03827,81.18776,86.84163
"44935",612.0516,81.91287,87.60386
"44936",612.0649,82.44511,88.19587
"44937",612.0782,82.69901,88.526184
"44938",612.0915,82.6746,88.58611
"44939",612.1048,82.43046,88.42555
"44940",612.1181,82.056915,88.12796
"44941",612.1314,81.64919,87.784515
"44942",612.1447,81.27566,87.46252
"44943",612.158,80.972916,87.19964
"44944",612.1713,80.75075,87.00787
"44945",612.18463,80.59937,86.87996
"44946",612.19794,80.49439,86.79371
"44947",612.21124,80.39918,86.71394
"44948",612.22455,80.28687,86.61411
"44949",612.23785,80.15015,86.48635
"44950",612.25116,80.0061,86.347
"44951",612.26447,79.87427,86.215355
"44952",612.2778,79.77661,86.11377
"44953",612.2911,79.73022,86.060394
"44954",612.3044,79.73022,86.05196
"44955",612.3177,79.75464,86.067955
"44956",612.331,79.783936,86.089584
"44957",612.3443,79.801025,86.09992
"44958",612.3576,79.79614,86.08882
"44959",612.3709,79.75952,86.04583
"44960",612.3842,79.693596,85.97239
"44961",612.3975,79.603264,85.87248
"44962",612.4108,79.49828,85.755104
"44963",612.42413,79.38354,85.62468
"44964",612.43744,79.26635,85.48823
"44965",612.45074,79.15892,85.35787
"44966",612.46405,79.06859,85.24126
"44967",612.47736,78.995346,85.13891
"44968",612.49066,78.94652,85.058685
"44969",612.50397,78.91722,84.99647
"44970",612.5173,78.90013,84.94554
"44971",612.5306,78.887924,84.898964
"44972",612.5439,78.87816,84.85445
"44973",612.5572,78.85863,84.79986
"44974",612.5705,78.82201,84.72757
"44975",612.5838,78.78783,84.65658
"44976",612.5971,78.76097,84.59184
"44977",612.6104,78.74143,84.533585
"44978",612.6237,78.75365,84.50647
"44979",612.637,78.84398,84.55785
"44980",612.6503,79.07103,84.74878
"44981",612.66364,79.48119,85.12991
"44982",612.67694,80.08667,85.71918
"44983",612.69025,80.82399,86.459206
"44984",612.70355,81.57351,87.234474
"44985",612.71686,82.196075,87.90621
"44986",612.73016,82.581825,88.36059
"44987",612.74347,82.686806,88.54625
"44988",612.7568,82.54276,88.48617
"44989",612.7701,82.22537,88.24824
"44990",612.7834,81.832306,87.92471
"44991",612.7967,81.43191,87.58157
"44992",612.81,81.08522,87.27963
"44993",612.8233,80.816666,87.04499
"44994",612.8366,80.63111,86.88496
"44995",612.8499,80.49683,86.7704
"44996",612.8632,80.39185,86.68095
"44997",612.8765,80.28199,86.58333
"44998",612.88983,80.15503,86.46518
"44999",612.90314,80.01587,86.330864
"45000",612.91644,79.89136,86.20685
"45001",612.92975,79.80591,86.118004
"45002",612.94305,79.766846,86.072876
"45003",612.95636,79.77173,86.07047
"45004",612.96967,79.80591,86.09752
"45005",612.983,79.84497,86.130516
"45006",612.9963,79.869385,86.150085
"45007",613.0096,79.869385,86.146
"45008",613.0229,79.84009,86.112625
"45009",613.0362,79.77905,86.04659
"45010",613.0495,79.68871,85.94935
"45011",613.0628,79.57885,85.82976
"45012",613.0761,79.45678,85.69453
"45013",613.0894,79.33959,85.56036
"45014",613.1027,79.23216,85.4323
"45015",613.116,79.14427,85.32041
"45016",613.12933,79.07347,85.22287
"45017",613.14264,79.0222,85.14265
"45018",613.15594,78.98558,85.07547
"45019",613.16925,78.958725,85.016914
"45020",613.18256,78.93675,84.9624
"45021",613.19586,78.91722,84.909645
"45022",613.20917,78.89281,84.851395
"45023",613.2225,78.873276,84.797264
"45024",613.2358,78.84886,84.73764
"45025",613.2491,78.83421,84.68702
"45026",613.2624,78.85863,84.675
"45027",613.2757,78.97093,84.75164
"45028",613.289,79.237045,84.985596
"45029",613.3023,79.69604,85.420746
"45030",613.3156,80.32838,86.04359
"45031",613.3289,81.05348,86.77895
"45032",613.3422,81.74197,87.50036
"45033",613.3555,82.266884,88.07971
"45034",613.36884,82.54032,88.42399
"45035",613.38214,82.55009,88.51314
"45036",613.39545,82.34501,88.38775
"45037",613.40875,82.01297,88.12899
"45038",613.42206,81.6321,87.81103
"45039",613.43536,81.270775,87.5007
"45040",613.44867,80.96803,87.23767
"45041",613.462,80.73853,87.03842
"45042",613.4753,80.570076,86.89304
"45043",613.4886,80.44312,86.783905
"45044",613.5019,80.32838,86.68301
"45045",613.5152,80.2063,86.57119
"45046",613.5285,80.06958,86.44092
"45047",613.5418,79.9353,86.308815
"45048",613.5551,79.82788,86.19937
"45049",613.5684,79.75952,86.12563
"45050",613.5817,79.742424,86.10102
"45051",613.59503,79.766846,86.11739
"45052",613.60834,79.81323,86.156494
"45053",613.62164,79.85962,86.197044
"45054",613.63495,79.8938,86.22684
"45055",613.64825,79.8938,86.22352
"45056",613.66156,79.85718,86.18358
"45057",613.67487,79.77905,86.10099
"45058",613.6882,79.674065,85.9891
"45059",613.7015,79.54955,85.8544
"45060",613.7148,79.42504,85.71581
"45061",613.7281,79.310295,85.5831
"45062",613.7414,79.20775,85.459
"45063",613.7547,79.12718,85.353676
"45064",613.768,79.05882,85.25804
"45065",613.7813,79.00511,85.17492
"45066",613.7946,78.96361,85.102325
"45067",613.8079,78.93431,85.04064
"45068",613.8212,78.905014,84.97804
"45069",613.83453,78.87816,84.91697
"45070",613.84784,78.853745,84.8575
"45071",613.86115,78.836655,84.80459
"45072",613.87445,78.86839,84.79997
"45073",613.88776,79.009995,84.90621
"45074",613.90106,79.3225,85.18778
"45075",613.91437,79.83276,85.67687
"45076",613.9277,80.499275,86.33816
"45077",613.941,81.22438,87.078865
"45078",613.9543,81.87625,87.769
"45079",613.9676,82.340126,88.291504
"45080",613.9809,82.55009,88.57459
"45081",613.9942,82.51835,88.62254
"45082",614.0075,82.30595,88.48884
"45083",614.0208,81.99832,88.25327
"45084",614.0341,81.66384,87.98124
"45085",614.0474,81.36111,87.7305
"45086",614.0607,81.1194,87.53133
"45087",614.07404,80.94362,87.390526
"45088",614.08734,80.816666,87.29306
"45089",614.10065,80.706795,87.20871
"45090",614.11395,80.584724,87.10873
"45091",614.12726,80.428474,86.97075
"45092",614.14056,80.24536,86.801025
"45093",614.1539,80.05493,86.61826
"45094",614.1672,79.8938,86.45885
"45095",614.1805,79.783936,86.345665
"45096",614.1938,79.744865,86.29984
"45097",614.2071,79.76196,86.30897
"45098",614.2204,79.81079,86.35036
"45099",614.2337,79.8645,86.398155
"45100",614.247,79.89624,86.42566
"45101",614.2603,79.8938,86.419975
"45102",614.2736,79.84741,86.37027
"45103",614.2869,79.764404,86.28249
"45104",614.30023,79.656975,86.1677
"45105",614.31354,79.53246,86.03247
"45106",614.32684,79.40551,85.89091
"45107",614.34015,79.28832,85.75514
"45108",614.35345,79.185776,85.630356
"45109",614.36676,79.10521,85.524345
"45110",614.38007,79.04906,85.44023
"45111",614.3934,79.00511,85.36657
"45112",614.4067,78.96849,85.29886
"45113",614.42,78.93187,85.23
"45114",614.4333,78.890366,85.15512
"45115",614.4466,78.84886,85.07894
"45116",614.4599,78.83421,85.02832
"45117",614.4732,78.88548,85.04316
"45118",614.4865,79.061264,85.18411
"45119",614.4998,79.41772,85.51123
"45120",614.5131,79.96216,86.037476
"45121",614.5264,80.65308,86.72722
"45122",614.53973,81.38308,87.47762
"45123",614.55304,82.02518,88.16294
"45124",614.56635,82.46464,88.66569
"45125",614.57965,82.65507,88.933136
"45126",614.59296,82.616005,88.97704
"45127",614.60626,82.408485,88.85127
"45128",614.61957,82.11551,88.63356
"45129",614.6329,81.81766,88.40182
"45130",614.6462,81.55886,88.19982
"45131",614.6595,81.356224,88.0459
"45132",614.6728,81.21217,87.94423
"45133",614.6861,81.10719,87.87713
"45134",614.6994,80.99733,87.801865
"45135",614.7127,80.850845,87.68655
"45136",614.726,80.66041,87.5227
"45137",614.7393,80.4358,87.318726
"45138",614.7526,80.201416,87.09796
"45139",614.7659,79.98901,86.89185
"45140",614.77924,79.84253,86.745026
"45141",614.79254,79.764404,86.66198
"45142",614.80585,79.7522,86.64241
"45143",614.81915,79.781494,86.66396
"45144",614.83246,79.83032,86.70596
"45145",614.84576,79.85474,86.725075
"45146",614.8591,79.83765,86.703445
"45147",614.8724,79.77661,86.63734
"45148",614.8857,79.68383,86.537575
"45149",614.899,79.569084,86.41295
"45150",614.9123,79.447014,86.27741
"45151",614.9256,79.33471,86.14783
"45152",614.9389,79.234604,86.02693
"45153",614.9522,79.14183,85.91024
"45154",614.9655,79.061264,85.80286
"45155",614.9788,79.00023,85.71249
"45156",614.9921,78.94896,85.629974
"45157",615.00543,78.90257,85.55074
"45158",615.01874,78.856186,85.47006
"45159",615.03204,78.8098,85.38793
"45160",615.04535,78.768295,85.309235
"45161",615.05865,78.73411,85.23656
"45162",615.07196,78.74387,85.206764
"45163",615.08527,78.8513,85.27494
"45164",615.0986,79.11986,85.5076
"45165",615.1119,79.5935,85.953735
"45166",615.1252,80.24536,86.592896
"45167",615.1385,80.99489,87.35009
"45168",615.1518,81.71267,88.09896
"45169",615.1651,82.27177,88.71158
"45170",615.1784,82.58671,89.09751
"45171",615.1917,82.650185,89.24182
"45172",615.205,82.52323,89.197685
"45173",615.2183,82.286415,89.03972
"45174",615.2316,82.00809,88.83284
"45175",615.24493,81.75174,88.639244
"45176",615.25824,81.54421,88.48646
"45177",615.27155,81.39529,88.38579
"45178",615.28485,81.28298,88.317085
"45179",615.29816,81.180435,88.25463
"45180",615.31146,81.06081,88.17189
"45181",615.32477,80.89723,88.041466
"45182",615.3381,80.67017,87.842445
"45183",615.3514,80.39918,87.59239
"45184",615.3647,80.12573,87.33142
"45185",615.378,79.90112,87.11074
"45186",615.3913,79.7522,86.958725
"45187",615.4046,79.691154,86.88994
"45188",615.4179,79.7058,86.894936
"45189",615.4312,79.75708,86.93702
"45190",615.4445,79.801025,86.97337
"45191",615.4578,79.80835,86.97448
"45192",615.4711,79.76196,86.922104
"45193",615.48444,79.67162,86.824326
"45194",615.49774,79.54711,86.68955
"45195",615.51105,79.40795,86.53624
"45196",615.52435,79.26879,86.37858
"45197",615.53766,79.14183,86.22877
"45198",615.55096,79.03197,86.09209
"45199",615.5643,78.941635,85.971504
"45200",615.5776,78.870834,85.86763
"45201",615.5909,78.81468,85.77619
"45202",615.6042,78.77806,85.70253
"45203",615.6175,78.74876,85.63504
"45204",615.6308,78.7219,85.569084
"45205",615.6441,78.69749,85.50473
"45206",615.6574,78.66575,85.43229
"45207",615.6707,78.63645,85.3613
"45208",615.684,78.6096,85.29183
"45209",615.6973,78.59495,85.233734
"45210",615.71063,78.63157,85.22645
"45211",615.72394,78.785385,85.3375
"45212",615.73724,79.11742,85.63158
"45213",615.75055,79.65453,86.14111
"45214",615.76385,80.36256,86.83834
"45215",615.77716,81.143814,87.63093
"45216",615.79047,81.85184,88.374695
"45217",615.8038,82.36698,88.94771
"45218",615.8171,82.62577,89.280464
"45219",615.8304,82.63554,89.372284
"45220",615.8437,82.46708,89.28619
"45221",615.857,82.20584,89.10204
"45222",615.8703,81.93729,88.90242
"45223",615.8836,81.70779,88.73346
"45224",615.8969,81.53933,88.61837
"45225",615.9102,81.427025,88.55417
"45226",615.9235,81.341576,88.51331
"45227",615.9368,81.248795,88.462456
"45228",615.95013,81.109634,88.36232
"45229",615.96344,80.902115,88.189476
"45230",615.97675,80.62867,87.94422
"45231",615.99005,80.32105,87.65625
"45232",616.00336,80.028076,87.37331
"45233",616.01666,79.78882,87.134926
"45234",616.02997,79.62768,86.967186
"45235",616.0433,79.55688,86.88475
"45236",616.0566,79.55688,86.8709
"45237",616.0699,79.588615,86.888794
"45238",616.0832,79.62035,86.90768
"45239",616.0965,79.635,86.91046
"45240",616.1098,79.61303,86.87708
"45241",616.1231,79.54955,86.80151
"45242",616.1364,79.449455,86.68734
"45243",616.1497,79.32494,86.54562
"45244",616.163,79.19066,86.39024
"45245",616.17633,79.05638,86.230675
"45246",616.18964,78.93187,86.076675
"45247",616.20294,78.82201,85.93343
"45248",616.21625,78.73167,85.80628
"45249",616.22955,78.660866,85.69585
"45250",616.24286,78.60227,85.595406
"45251",616.25616,78.55833,85.50778
"45252",616.2695,78.52659,85.43099
"45253",616.2828,78.49973,85.35809
"45254",616.2961,78.47776,85.28924
"45255",616.3094,78.46311,85.22702
"45256",616.3227,78.46311,85.17899
"45257",616.336,78.47532,85.14317
"45258",616.3493,78.48264,85.10285
"45259",616.3626,78.47532,85.04811
"45260",616.3759,78.46067,84.98582
"45261",616.3892,78.43626,84.9133
"45262",616.4025,78.41428,84.84246
"45263",616.41583,78.44358,84.822205
"45264",616.42914,78.59983,84.92982
"45265",616.44244,78.94896,85.23519
"45266",616.45575,79.51049,85.76388
"45267",616.46906,80.257576,86.49567
"45268",616.48236,81.077896,87.324036
"45269",616.49567,81.83719,88.11701
"45270",616.509,82.39872,88.735954
"45271",616.5223,82.69413,89.10632
"45272",616.5356,82.72587,89.22225
"45273",616.5489,82.564735,89.1463
"45274",616.5622,82.30595,88.96766
"45275",616.5755,82.03494,88.768715
"45276",616.5888,81.80057,88.59793
"45277",616.6021,81.634544,88.488174
"45278",616.6154,81.52712,88.43183
"45279",616.6287,81.45632,88.40875
"45280",616.642,81.375755,88.373695
"45281",616.65533,81.253685,88.29462
"45282",616.66864,81.06813,88.14824
"45283",616.69525,80.51148,87.65041
"45284",616.70856,80.19653,87.35145
"45285",616.72186,79.91577,87.07683
"45286",616.73517,79.7058,86.86423
"45287",616.7485,79.58129,86.73052
"45288",616.7618,79.54223,86.678375
"45289",616.7751,79.55688,86.67872
"45290",616.7884,79.588615,86.69661
"45291",616.8017,79.61059,86.70573
"45292",616.815,79.60082,86.68379
"45293",616.8283,79.551994,86.62249
"45294",616.8416,79.46166,86.51816
"45295",616.8549,79.344475,86.38415
"45296",616.8682,79.21263,86.23182
"45297",616.88153,79.07347,86.068054
"45298",616.89484,78.93675,85.90238
"45299",616.90814,78.8098,85.7422
"45300",616.92145,78.70725,85.60246
"45301",616.93475,78.62913,85.48394
"45302",616.94806,78.57542,85.38739
"45303",616.96136,78.54368,85.311134
"45304",616.9747,78.51682,85.23877
"45305",616.988,78.487526,85.163124
"45306",617.0013,78.45579,85.08412
"45307",617.0146,78.41917,84.999245
"45308",617.0279,78.39231,84.92299
"45309",617.0412,78.37278,84.85322
"45310",617.0545,78.3679,84.797485
"45311",617.0678,78.37278,84.751366
"45312",617.0811,78.37766,84.7054
"45313",617.0944,78.380104,84.65714
"45314",617.1077,78.37522,84.60164
"45315",617.12103,78.3679,84.54354
"45316",617.13434,78.36057,84.485214
"45317",617.14764,78.35569,84.4291
"45318",617.16095,78.3679,84.38992
"45319",617.17426,78.44358,84.414604
"45320",617.18756,78.658424,84.58081
"45321",617.20087,79.06859,84.94905
"45322",617.2142,79.691154,85.54251
"45323",617.2275,80.47242,86.314125
"45324",617.2408,81.29763,87.1541
"45325",617.2541,82.01785,87.91487
"45326",617.2674,82.511024,88.4711
"45327",617.2807,82.72831,88.76685
"45328",617.294,82.69901,88.822815
"45329",617.3073,82.50614,88.71429
"45330",617.3206,82.2327,88.51916
"45331",617.3339,81.95926,88.31549
"45332",617.3472,81.73464,88.1521
"45333",617.36053,81.57351,88.04517
"45334",617.37384,81.46853,87.989365
"45335",617.38715,81.392845,87.95957
"45336",617.40045,81.30984,87.92009
"45337",617.41376,81.18532,87.8365
"45338",617.42706,80.99733,87.685555
"45339",617.44037,80.74586,87.46525
"45340",617.4537,80.45777,87.20047
"45341",617.467,80.16724,86.92424
"45342",617.4803,79.91333,86.67556
"45343",617.4936,79.725334,86.484856
"45344",617.5069,79.61059,86.36153
"45345",617.5202,79.5642,86.30297
"45346",617.5335,79.56664,86.291794
"45347",617.5468,79.586174,86.29778
"45348",617.5601,79.603264,86.30194
"45349",617.5734,79.5935,86.27978
"45350",617.58673,79.54467,86.21825
"45351",617.60004,79.45434,86.113686
"45352",617.61334,79.33471,85.977005
"45353",617.62665,79.19798,85.81949
"45354",617.63995,79.061264,85.65771
"45355",617.65326,78.93431,85.50142
"45356",617.66656,78.82445,85.35825
"45357",617.6799,78.73655,85.23362
"45358",617.6932,78.66575,85.12334
"45359",617.7065,78.61204,85.02793
"45360",617.7198,78.56321,84.93573
"45361",617.7331,78.52415,84.85177
"45362",617.7464,78.48997,84.77147
"45363",617.7597,78.46311,84.697426
"45364",617.773,78.44846,84.63475
"45365",617.7863,78.43626,84.57406
"45366",617.7996,78.433815,84.52275
"45367",617.8129,78.4387,84.47869
"45368",617.82623,78.44358,84.434784
"45369",617.83954,78.44358,84.38615
"45370",617.85284,78.44846,84.34239
"45371",617.86615,78.45335,84.29879
"45372",617.87946,78.45579,84.2529
"45373",617.89276,78.450905,84.19976
"45374",617.90607,78.4387,84.139145
"45375",617.9194,78.42161,84.073265
"45376",617.9327,78.41184,84.014175
"45377",617.946,78.433815,83.98652
"45378",617.9593,78.551,84.05476
"45379",617.9726,78.836655,84.295135
"45380",617.9859,79.33715,84.75928
"45381",617.9992,80.0354,85.43681
"45382",618.0125,80.86061,86.26313
"45383",618.0258,81.67361,87.10302
"45384",618.0391,82.33036,87.81207
"45385",618.0524,82.73075,88.285286
"45386",618.06573,82.85283,88.4927
"45387",618.07904,82.7454,88.47442
"45388",618.09235,82.493935,88.30875
"45389",618.10565,82.19119,88.08394
"45390",618.11896,81.90799,87.86921
"45391",618.13226,81.68337,87.704216
"45392",618.14557,81.52468,87.59813
"45393",618.1589,81.41238,87.53347
"45394",618.1722,81.322044,87.487274
"45395",618.1855,81.22682,87.433365
"45396",618.1988,81.09743,87.34231
"45397",618.2121,80.91432,87.1935
"45398",618.2254,80.67994,86.987686
"45399",618.2387,80.41871,86.7477
"45400",618.252,80.147705,86.489784
"45401",618.2653,79.89624,86.242935
"45402",618.2786,79.710686,86.05414
"45403",618.29193,79.61547,85.94988
"45404",618.30524,79.5935,85.91589
"45405",618.31854,79.62035,85.930046
"45406",618.33185,79.67162,85.96945
"45407",618.34515,79.70336,85.99093
"45408",618.35846,79.691154,85.96945
"45409",618.37177,79.63012,85.898766
"45410",618.3851,79.537346,85.79443
"45411",618.3984,79.41772,85.66035
"45412",618.4117,79.28588,85.510315
"45413",618.425,79.15404,85.356155
"45414",618.4383,79.03197,85.20765
"45415",618.4516,78.91966,85.065094
"45416",618.4649,78.82689,84.93856
"45417",618.4782,78.751205,84.82622
"45418",618.4915,78.695045,84.73103
"45419",618.5048,78.65354,84.64875
"45420",618.5181,78.61692,84.57005
"45421",618.53143,78.58518,84.495094
"45422",618.54474,78.56077,84.42647
"45423",618.55804,78.54612,84.366844
"45424",618.57135,78.54124,84.31653
"45425",618.58466,78.54612,84.275826
"45426",618.59796,78.55833,84.2426
"45427",618.61127,78.57542,84.21464
"45428",618.6246,78.58518,84.179886
"45429",618.6379,78.59251,84.143
"45430",618.6512,78.59983,84.10634
"45431",618.6645,78.607155,84.06991
"45432",618.6778,78.6096,84.028824
"45433",618.6911,78.607155,83.98293
"45434",618.7044,78.59739,83.92964
"45435",618.7177,78.58762,83.876045
"45436",618.731,78.57542,83.8197
"45437",618.7443,78.57542,83.775185
"45438",618.7576,78.63401,83.78926
"45439",618.77094,78.839096,83.95166
"45440",618.78424,79.26635,84.342636
"45441",618.79755,79.93286,84.98622
"45442",618.81085,80.77272,85.82398
"45443",618.82416,81.6614,86.73681
"45444",618.83746,82.425575,87.5529
"45445",618.85077,82.930954,88.13408
"45446",618.8641,83.12627,88.42098
"45447",618.8774,83.04326,88.43567
"45448",618.8907,82.76982,88.25733
"45449",618.904,82.408485,87.98255
"45450",618.9173,82.05936,87.70869
"45451",618.9306,81.77371,87.4874
"45452",618.9439,81.57351,87.34262
"45453",618.9572,81.45632,87.274605
"45454",618.9705,81.38796,87.251755
"45455",618.9838,81.31472,87.221886
"45456",618.99713,81.20729,87.15554
"45457",619.01044,81.0486,87.03458
"45458",619.02374,80.831314,86.85006
"45459",619.03705,80.57252,86.61724
"45460",619.05035,80.306404,86.36902
"45461",619.06366,80.06714,86.13933
"45462",619.07697,79.88403,85.95832
"45463",619.0903,79.77417,85.84483
"45464",619.1036,79.73266,85.796265
"45465",619.1169,79.742424,85.797676
"45466",619.1302,79.77173,85.81893
"45467",619.1435,79.7937,85.83377
"45468",619.1568,79.78638,85.82
"45469",619.1701,79.73998,85.76693
"45470",619.1834,79.65209,85.67091
"45471",619.1967,79.53246,85.54041
"45472",619.21,79.3933,85.38664
"45473",619.2233,79.2517,85.22608
"45474",619.23663,79.11742,85.06841
"45475",619.24994,78.995346,84.91876
"45476",619.26324,78.890366,84.78239
"45477",619.27655,78.80492,84.66226
"45478",619.28986,78.73655,84.55655
"45479",619.30316,78.68772,84.46824
"45480",619.31647,78.64622,84.38573
"45481",619.3298,78.61936,84.31657
"45482",619.3431,78.59983,84.25389
"45483",619.3564,78.590065,84.20037
"45484",619.3697,78.57786,84.144104
"45485",619.383,78.56809,84.0899
"45486",619.3963,78.56077,84.03783
"45487",619.4096,78.56321,83.99529
"45488",619.4229,78.57786,83.96504
"45489",619.4362,78.59739,83.94013
"45490",619.4495,78.624245,83.92316
"45491",619.4628,78.64866,83.90458
"45492",619.47614,78.66575,83.87944
"45493",619.48944,78.66575,83.837746
"45494",619.50275,78.660866,83.79117
"45495",619.51605,78.6511,83.739555
"45496",619.52936,78.63889,83.685196
"45497",619.54266,78.643776,83.647545
"45498",619.55597,78.70481,83.6662
"45499",619.5693,78.90013,83.821045
"45500",619.5826,79.29565,84.18219
"45501",619.5959,79.92554,84.79007
"45502",619.6092,80.740974,85.60318
"45503",619.6225,81.619896,86.50526
"45504",619.6358,82.408485,87.34447
"45505",619.6491,82.97002,87.98126
"45506",619.6624,83.228806,88.33286
"45507",619.6757,83.20439,88.40935
"45508",619.689,82.97978,88.284874
"45509",619.70233,82.6453,88.04351
"45510",619.71564,82.286415,87.76729
"45511",619.72894,81.9617,87.51402
"45512",619.74225,81.705345,87.31897
"45513",619.75555,81.51736,87.18427
"45514",619.76886,81.38796,87.102295
"45515",619.78217,81.28054,87.038246
"45516",619.7955,81.16823,86.96595
"45517",619.8088,81.024185,86.85841
"45518",619.8221,80.82643,86.692665
"45519",619.8354,80.59449,86.48655
"45520",619.8487,80.35279,86.26343
"45521",619.862,80.13306,86.05472
"45522",619.8753,79.954834,85.88065
"45523",619.8886,79.84497,85.76938
"45524",619.9019,79.798584,85.71815
"45525",619.9152,79.798584,85.71185
"45526",619.9285,79.82544,85.732414
"45527",619.94183,79.85474,85.756256
"45528",619.95514,79.8645,85.76148
"45529",619.96844,79.83765,85.73039
"45530",619.98175,79.76929,85.65696
"45531",619.99506,79.66674,85.5472
"45532",620.00836,79.53979,85.409836
"45533",620.02167,79.40795,85.26362
"45534",620.035,79.276115,85.11328
"45535",620.0483,79.15892,84.973465
"45536",620.0616,79.05394,84.8422
"45537",620.0749,78.96849,84.72719
"45538",620.0882,78.90013,84.626595
"45539",620.1015,78.84886,84.540955
"45540",620.1148,78.81224,84.46836
"45541",620.1281,78.78294,84.40195
"45542",620.1414,78.75609,84.33706
"45543",620.1547,78.73899,84.28109
"45544",620.168,78.72678,84.22948
"45545",620.18134,78.72434,84.18725
"45546",620.19464,78.72678,84.149826
"45547",620.20795,78.73655,84.119804
"45548",620.22125,78.751205,84.09498
"45549",620.23456,78.765854,84.0706
"45550",620.24786,78.77562,84.0418
"45551",620.26117,78.77806,84.00598
"45552",620.2745,78.77318,83.96291
"45553",620.2878,78.765854,83.91725
"45554",620.3011,78.75853,83.87136
"45555",620.3144,78.751205,83.82524
"45556",620.3277,78.74876,83.78377
"45557",620.341,78.785385,83.781296
"45558",620.3543,78.93187,83.889824
"45559",620.3676,79.26391,84.188484
"45560",620.3809,79.823,84.72457
"45561",620.3942,80.59205,85.48809
"45562",620.40753,81.461205,86.37575
"45563",620.42084,82.28153,87.24174
"45564",620.43414,82.90654,87.93804
"45565",620.44745,83.245895,88.368225
"45566",620.46075,83.29229,88.51605
"45567",620.47406,83.11162,88.43826
"45568",620.48737,82.78447,88.20835
"45569",620.5007,82.4036,87.9145
"45570",620.514,82.0325,87.61851
"45571",620.5273,81.71511,87.36463
"45572",620.5406,81.47097,87.17409
"45573",620.5539,81.30007,87.04916
"45574",620.5672,81.18288,86.97259
"45575",620.5805,81.077896,86.90457
"45576",620.5938,80.96559,86.82595
"45577",620.6071,80.814224,86.70476
"45578",620.6204,80.62379,86.539764
"45579",620.6337,80.40406,86.33953
"45580",620.64703,80.18677,86.134865
"45581",620.66034,80.00122,85.955154
"45582",620.67365,79.871826,85.8258
"45583",620.68695,79.80347,85.75343
"45584",620.70026,79.78882,85.73264
"45585",620.71356,79.81079,85.74802
"45586",620.72687,79.84009,85.7714
"45587",620.7402,79.84985,85.77617
"45588",620.7535,79.83276,85.75439
"45589",620.7668,79.77905,85.69545
"45590",620.7801,79.68871,85.598206
"45591",620.7934,79.571526,85.47129
"45592",620.8067,79.44213,85.32851
"45593",620.82,79.31274,85.18168
"45594",620.8333,79.18822,85.03568
"45595",620.8466,79.08324,84.905334
"45596",620.8599,78.99779,84.79124
"45597",620.8732,78.92943,84.69156
"45598",620.88654,78.86839,84.59707
"45599",620.89984,78.819565,84.51288
"45600",620.91315,78.7805,84.43693
"45601",620.92645,78.74876,84.36707
"45602",620.93976,78.7219,84.30112
"45603",620.95306,78.70725,84.24653
"45604",620.9664,78.70725,84.20613
"45605",620.9797,78.712135,84.170616
"45606",620.993,78.7219,84.14014
"45607",621.0063,78.72678,84.10508
"45608",621.0196,78.73167,84.070175
"45609",621.0329,78.73655,84.03542
"45610",621.0462,78.73411,83.9935
"45611",621.0595,78.73167,83.9515
"45612",621.0728,78.729225,83.909424
"45613",621.0861,78.73167,83.872154
"45614",621.0994,78.768295,83.86915
"45615",621.11273,78.91478,83.97714
"45616",621.12604,79.24681,84.27526
"45617",621.13934,79.81323,84.818146
"45618",621.15265,80.58228,85.58136
"45619",621.16595,81.45632,86.473595
"45620",621.17926,82.27909,87.34187
"45621",621.19257,82.90654,88.04054
"45622",621.2059,83.245895,88.470726
"45623",621.2192,83.29229,88.61855
"45624",621.2325,83.10918,88.53832
"45625",621.2458,82.78203,88.308334
"45626",621.2591,82.39628,88.00952
"45627",621.2724,82.020294,87.70842
"45628",621.2857,81.69558,87.44684
"45629",621.299,81.44167,87.24592
"45630",621.3123,81.25124,87.10054
"45631",621.3256,81.11452,87.002914
"45632",621.3389,80.99977,86.923
"45633",621.35223,80.8777,86.83217
"45634",621.36554,80.72144,86.70334
"45635",621.37885,80.52857,86.53301
"45636",621.39215,80.31373,86.33469
"45637",621.40546,80.111084,86.141846
"45638",621.41876,79.94507,85.9793
"45639",621.43207,79.84253,85.875046
"45640",621.4454,79.801025,85.82862
"45641",621.4587,79.81079,85.83217
"45642",621.472,79.84009,85.85555
"45643",621.4853,79.86694,85.87741
"45644",621.4986,79.87427,85.88058
"45645",621.5119,79.84985,85.852234
"45646",621.5252,79.78882,85.78651
"45647",621.5385,79.693596,85.684685
"45648",621.5518,79.57397,85.55548
"45649",621.5651,79.44457,85.41277
"45650",621.5784,79.31274,85.26358
"45651",621.59174,79.18822,85.117584
"45652",621.60504,79.07591,84.97991
"45653",621.61835,78.97337,84.848495
"45654",621.63165,78.890366,84.733406
"45655",621.64496,78.82445,84.63281
"45656",621.65826,78.768295,84.539925
"45657",621.6716,78.71946,84.4526
"45658",621.6849,78.68772,84.380844
"45659",621.6982,78.675514,84.32763
"45660",621.7115,78.677956,84.28868
"45661",621.7248,78.692604,84.26202
"45662",621.7381,78.71946,84.24802
"45663",621.7514,78.74387,84.232414
"45664",621.7647,78.751205,84.20049
"45665",621.778,78.751205,84.16147
"45666",621.7913,78.75609,84.12733
"45667",621.8046,78.75609,84.088455
"45668",621.81793,78.75609,84.04958
"45669",621.83124,78.77562,84.03024
"45670",621.84454,78.853745,84.07011
"45671",621.85785,79.07591,84.256454
"45672",621.87115,79.51049,84.662155
"45673",621.88446,80.17212,85.30849
"45674",621.89777,81.00221,86.14396
"45675",621.9111,81.87137,87.04443
"45676",621.9244,82.61845,87.84999
"45677",621.9377,83.1165,88.42987
"45678",621.951,83.30938,88.72014
"45679",621.9643,83.22392,88.7381
"45680",621.9776,82.948044,88.562965
"45681",621.9909,82.564735,88.27178
"45682",622.0042,82.161896,87.94909
"45683",622.0175,81.79324,87.647995
"45684",622.0308,81.4905,87.40129
"45685",622.0441,81.26101,87.218376
"45686",622.05743,81.10231,87.09908
"45687",622.07074,80.98268,87.0139
"45688",622.08405,80.87038,86.932304
"45689",622.09735,80.740974,86.8301
"45690",622.11066,80.57496,86.68724
"45691",622.12396,80.377205,86.507454
"45692",622.13727,80.164795,86.30683
"45693",622.1506,79.96948,86.11667
"45694",622.1639,79.81323,85.959465
"45695",622.1772,79.71801,85.858406
"45696",622.1905,79.676506,85.80809
"45697",622.2038,79.68139,85.802864
"45698",622.2171,79.7058,85.81732
"45699",622.2304,79.725334,85.82766
"45700",622.2437,79.727776,85.82152
"45701",622.257,79.691154,85.77639
"45702",622.2703,79.61791,85.6935
"45703",622.2836,79.51049,85.574135
"45704",622.29694,79.37621,85.42456
"45705",622.31024,79.23216,85.26102
"45706",622.32355,79.10033,85.10519
"45707",622.33685,78.98802,84.96477
"45708",622.35016,78.89525,84.84037
"45709",622.36346,78.82933,84.73993
"45710",622.3768,78.7805,84.65452
"45711",622.3901,78.73899,84.5749
"45712",622.4034,78.709694,84.506195
"45713",622.4167,78.68772,84.4439
"45714",622.43,78.675514,84.390686
"45715",622.4433,78.675514,84.3493
"45716",622.4566,78.68284,84.31523
"45717",622.4699,78.695045,84.28628
"45718",622.4832,78.70725,84.257706
"45719",622.4965,78.71946,84.229515
"45720",622.5098,78.7219,84.19194
"45721",622.52313,78.7219,84.152
"45722",622.53644,78.712135,84.102295
"45723",622.54974,78.709694,84.05961
"45724",622.56305,78.73411,84.0437
"45725",622.57635,78.84886,84.1189
"45726",622.58966,79.132065,84.36613
"45727",622.60297,79.64477,84.85171
"45728",622.6163,80.377205,85.573044
"45729",622.6296,81.248795,86.45642
"45730",622.6429,82.11795,87.3646
"45731",622.6562,82.83086,88.14369
"45732",622.6695,83.26299,88.66429
"45733",622.6828,83.39239,88.89565
"45734",622.6961,83.25811,88.867386
"45735",622.7094,82.95781,88.6689
"45736",622.7227,82.57206,88.37558
"45737",622.736,82.18387,88.067764
"45738",622.7493,81.83963,87.79177
"45739",622.76263,81.566185,87.57581
"45740",622.77594,81.358665,87.41724
"45741",622.78925,81.20973,87.31076
"45742",622.80255,81.0901,87.228935
"45743",622.81586,80.9778,87.150696
"45744",622.82916,80.83864,87.04209
"45745",622.84247,80.66041,86.89007
"45746",622.8558,80.45289,86.703186
"45747",622.8691,80.23804,86.50249
"45748",622.8824,80.03784,86.30973
"45749",622.8957,79.87671,86.14978
"45750",622.909,79.77173,86.04095
"45751",622.9223,79.72045,85.98254
"45752",622.9356,79.7058,85.95915
"45753",622.9489,79.71313,85.95728
"45754",622.9622,79.72045,85.95564
"45755",622.9755,79.708244,85.9347
"45756",622.98883,79.66674,85.88408
"45757",623.00214,79.588615,85.79554
"45758",623.01544,79.48608,85.680145
"45759",623.02875,79.361565,85.53957
"45760",623.04205,79.23216,85.39022
"45761",623.05536,79.11009,85.244156
"45762",623.06866,79.00267,85.108925
"45763",623.082,78.907455,84.982544
"45764",623.0953,78.83421,84.87516
"45765",623.1086,78.7805,84.78502
"45766",623.1219,78.73899,84.7054
"45767",623.1352,78.70725,84.634254
"45768",623.1485,78.68528,84.571884
"45769",623.1618,78.66575,84.51127
"45770",623.1751,78.65354,84.45737
"45771",623.1884,78.6511,84.41285
"45772",623.2017,78.65354,84.37314
"45773",623.215,78.660866,84.33839
"45774",623.22833,78.675514,84.31119
"45775",623.24164,78.692604,84.28689
"45776",623.25494,78.70725,84.26068
"45777",623.26825,78.712135,84.22517
"45778",623.28156,78.7219,84.19469
"45779",623.29486,78.77806,84.21091
"45780",623.30817,78.95628,84.350945
"45781",623.3215,79.32983,84.69187
"45782",623.3348,79.9353,85.276405
"45783",623.3481,80.72877,86.06785
"45784",623.3614,81.59792,86.95978
"45785",623.3747,82.391396,87.803185
"45786",623.388,82.95781,88.44433
"45787",623.4013,83.22392,88.80287
"45788",623.4146,83.20195,88.881645
"45789",623.4279,82.96269,88.74245
"45790",623.4412,82.6038,88.476135
"45791",623.4545,82.21561,88.16931
"45792",623.46783,81.85916,87.8821
"45793",623.48114,81.56374,87.64478
"45794",623.49445,81.341576,87.47148
"45795",623.50775,81.18776,87.35959
"45796",623.52106,81.07301,87.28196
"45797",623.53436,80.97536,87.217834
"45798",623.54767,80.85817,87.13113
"45799",623.561,80.70435,87.00413
"45800",623.5743,80.51148,86.83327
"45801",623.5876,80.30152,86.63929
"45802",623.6009,80.096436,86.44363
"45803",623.6142,79.92554,86.27574
"45804",623.6275,79.81079,86.15867
"45805",623.6408,79.74975,86.09171
"45806",623.6541,79.73266,86.0668
"45807",623.6674,79.73998,86.06577
"45808",623.6807,79.74731,86.06497
"45809",623.69403,79.7351,86.04487
"45810",623.70734,79.69848,85.99997
"45811",623.72064,79.62524,85.917305
"45812",623.73395,79.53002,85.81038
"45813",623.74725,79.415276,85.68095
"45814",623.76056,79.29565,85.543045
"45815",623.77386,79.17601,85.4014
"45816",623.7872,79.06859,85.26823
"45817",623.8005,78.97337,85.143906
"45818",623.8138,78.89525,85.0337
"45819",623.8271,78.82933,84.93326
"45820",623.8404,78.77806,84.845406
"45821",623.8537,78.73899,84.76815
"45822",623.867,78.71458,84.70433
"45823",623.8803,78.70237,84.651955
"45824",623.8936,78.70237,84.611404
"45825",623.9069,78.71702,84.5855
"45826",623.9202,78.73411,84.5625
"45827",623.93353,78.74876,84.53759
"45828",623.94684,78.76097,84.510704
"45829",623.96014,78.765854,84.47687
"45830",623.97345,78.76097,84.43342
"45831",623.98676,78.75609,84.38982
"45832",624.00006,78.768295,84.36315
"45833",624.01337,78.84886,84.40523
"45834",624.0267,79.06859,84.58898
"45835",624.04,79.49584,84.98713
"45836",624.0533,80.13794,85.61347
"45837",624.0666,80.92897,86.40881
"45838",624.0799,81.74441,87.25328
"45839",624.0932,82.43778,88.00117
"45840",624.1065,82.88457,88.52413
"45841",624.1198,83.038376,88.76808
"45842",624.1331,82.933395,88.75805
"45843",624.1464,82.650185,88.566505
"45844",624.1597,82.27665,88.27579
"45845",624.17303,81.8909,87.96118
"45846",624.18634,81.54421,87.673584
"45847",624.19965,81.26833,87.44596
"45848",624.21295,81.07057,87.287834
"45849",624.22626,80.93141,87.18213
"45850",624.23956,80.82643,87.106255
"45851",624.25287,80.726326,87.031975
"45852",624.2662,80.604256,86.9326
"45853",624.2795,80.45289,86.80012
"45854",624.2928,80.27711,86.63849
"45855",624.3061,80.093994,86.464035
"45856",624.3194,79.9353,86.30828
"45857",624.3327,79.815674,86.18663
"45858",624.346,79.742424,86.10762
"45859",624.3593,79.71801,86.07516
"45860",624.3726,79.72045,86.06879
"45861",624.3859,79.73022,86.06982
"45862",624.39923,79.725334,86.0565
"45863",624.41254,79.69848,86.021065
"45864",624.42584,79.63744,85.95061
"45865",624.43915,79.54467,85.846504
"45866",624.45245,79.432365,85.71997
"45867",624.46576,79.30785,85.57772
"45868",624.47906,79.19066,85.438896
"45869",624.4924,79.08812,85.311066
"45870",624.5057,79.00023,85.19468
"45871",624.519,78.93431,85.09752
"45872",624.5323,78.887924,85.01783
"45873",624.5456,78.84886,84.944016
"45874",624.5589,78.819565,84.878746
"45875",624.5722,78.79759,84.819885
"45876",624.5855,78.78294,84.76766
"45877",624.5988,78.77806,84.72475
"45878",624.6121,78.77806,84.68656
"45879",624.6254,78.785385,84.6557
"45880",624.63873,78.79759,84.62995
"45881",624.65204,78.80736,84.60214
"45882",624.66534,78.8098,84.567314
"45883",624.67865,78.80736,84.52768
"45884",624.69196,78.81468,84.497734
"45885",624.70526,78.86595,84.51196
"45886",624.71857,79.027084,84.63766
"45887",624.7319,79.37377,84.95394
"45888",624.7452,79.93042,85.49102
"45889",624.7585,80.66041,86.218834
"45890",624.7718,81.45144,87.0305
"45891",624.7851,82.16434,87.78876
"45892",624.7984,82.65995,88.352005
"45893",624.8117,82.86992,88.645096
"45894",624.825,82.804,88.66886
"45895",624.8383,82.53788,88.490364
"45896",624.8516,82.17166,88.20345
"45897",624.8649,81.78836,87.888016
"45898",624.87823,81.446556,87.6021
"45899",624.89154,81.17799,87.37874
"45900",624.90485,80.990005,87.22756
"45901",624.91815,80.86305,87.131546
"45902",624.93146,80.76784,87.0633
"45903",624.94476,80.67017,86.98963
"45904",624.95807,80.54566,86.88606
"45905",624.9714,80.38697,86.74442
"45906",624.9847,80.2063,86.57584
"45907",624.998,80.03296,86.40895
"45908",625.0113,79.89136,86.26838
"45909",625.0246,79.80591,86.179535
"45910",625.0379,79.77417,86.14173
"45911",625.0512,79.781494,86.142
"45912",625.0645,79.798584,86.15226
"45913",625.0778,79.801025,86.14841
"45914",625.0911,79.78638,86.12754
"45915",625.10443,79.74731,86.081795
"45916",625.11774,79.68871,86.015305
"45917",625.13104,79.61303,85.92989
"45918",625.14435,79.52758,85.83235
"45919",625.15765,79.432365,85.722374
"45920",625.17096,79.32983,85.6021
"45921",625.18427,79.22484,85.476166
"45922",625.1976,79.12962,85.35673
"45923",625.2109,79.04906,85.24896
"45924",625.2242,78.98802,85.15821
"45925",625.2375,78.94896,85.087524
"45926",625.2508,78.92699,85.03271
"45927",625.2641,78.91966,84.99185
"45928",625.2774,78.91722,84.95565
"45929",625.2907,78.91722,84.921814
"45930",625.304,78.91234,84.883095
"45931",625.3173,78.905014,84.84178
"45932",625.3306,78.89769,84.80024
"45933",625.34393,78.89525,84.76335
"45934",625.35724,78.887924,84.721504
"45935",625.37054,78.8806,84.67943
"45936",625.38385,78.890366,84.65421
"45937",625.39716,78.96361,84.69278
"45938",625.41046,79.16136,84.85815
"45939",625.42377,79.54711,85.21769
"45940",625.4371,80.12573,85.78216
"45941",625.4504,80.84352,86.503876
"45942",625.4637,81.58083,87.26755
"45943",625.477,82.19852,87.93463
"45944",625.4903,82.58671,88.391525
"45945",625.5036,82.703896,88.58955
"45946",625.5169,82.579384,88.54953
"45947",625.5302,82.29374,88.34449
"45948",625.5435,81.93729,88.059715
"45949",625.5568,81.58083,87.7638
"45950",625.5701,81.270775,87.50314
"45951",625.58344,81.02907,87.30115
"45952",625.59674,80.86061,87.16485
"45953",625.61005,80.743416,87.07455
"45954",625.62335,80.64332,86.99768
"45955",625.63666,80.53101,86.90548
"45956",625.64996,80.39918,86.79024
"45957",625.66327,80.235596,86.63913
"45958",625.6766,80.0647,86.47559
"45959",625.6899,79.91089,86.32381
"45960",625.7032,79.79126,86.20139
"45961",625.7165,79.72289,86.1265
"45962",625.7298,79.710686,86.10564
"45963",625.7431,79.7351,86.12101
"45964",625.7564,79.76929,86.14692
"45965",625.7697,79.7937,86.16412
"45966",625.783,79.78882,86.152794
"45967",625.7963,79.742424,86.0998
"45968",625.80963,79.66186,86.011185
"45969",625.82294,79.55932,85.89808
"45970",625.83624,79.447014,85.772
"45971",625.84955,79.32983,85.637535
"45972",625.86285,79.219955,85.50672
"45973",625.87616,79.12474,85.38713
"45974",625.88947,79.04173,85.27677
"45975",625.9028,78.9807,85.18579
"45976",625.9161,78.93919,85.112434
"45977",625.9294,78.9099,85.04999
"45978",625.9427,78.89281,84.99883
"45979",625.956,78.88304,84.95447
"45980",625.9693,78.87816,84.91468
"45981",625.9826,78.86839,84.86986
"45982",625.9959,78.86107,84.82717
"45983",626.0092,78.8513,84.781815
"45984",626.0225,78.84398,84.738594
"45985",626.0358,78.839096,84.697586
"45986",626.04913,78.84154,84.66375
"45987",626.06244,78.86595,84.65196
"45988",626.07574,78.96361,84.71418
"45989",626.08905,79.1931,84.911285
"45990",626.10236,79.59838,85.29135
"45991",626.11566,80.184326,85.864746
"45992",626.12897,80.88258,86.56876
"45993",626.1423,81.583275,87.297035
"45994",626.1556,82.14969,87.912926
"45995",626.1689,82.48417,88.31458
"45996",626.1822,82.55253,88.46057
"45997",626.1955,82.39628,88.38409
"45998",626.2088,82.09354,88.15623
"45999",626.2221,81.73464,87.862755
"46000",626.2354,81.3904,87.57272
"46001",626.2487,81.10475,87.33052
"46002",626.262,80.89235,87.15264
"46003",626.2753,80.74586,87.034035
"46004",626.28864,80.64088,86.95236
"46005",626.30194,80.550545,86.88206
"46006",626.31525,80.445564,86.79428
"46007",626.32855,80.31373,86.67637
"46008",626.34186,80.15991,86.53236
"46009",626.35516,80.00122,86.37866
"46010",626.36847,79.8645,86.24198
"46011",626.3818,79.77173,86.14497
"46012",626.3951,79.725334,86.091446
"46013",626.4084,79.71313,86.070656
"46014",626.4217,79.725334,86.0739
"46015",626.435,79.73754,86.07752
"46016",626.4483,79.7351,86.06688
"46017",626.4616,79.7058,86.029305
"46018",626.4749,79.64965,85.96396
"46019",626.4882,79.571526,85.874886
"46020",626.5015,79.47875,85.76872
"46021",626.51483,79.37621,85.649895
"46022",626.52814,79.26879,85.52298
"46023",626.54144,79.17113,85.402466
"46024",626.55475,79.08568,85.291115
"46025",626.56805,79.009995,85.18686
"46026",626.58136,78.9514,85.09733
"46027",626.59467,78.905014,85.01817
"46028",626.608,78.870834,84.949776
"46029",626.6213,78.84886,84.89252
"46030",626.6346,78.83177,84.839455
"46031",626.6479,78.82445,84.79562
"46032",626.6612,78.82445,84.75889
"46033",626.6745,78.82445,84.72215
"46034",626.6878,78.819565,84.680534
"46035",626.7011,78.8098,84.63388
"46036",626.7144,78.79515,84.58204
"46037",626.7277,78.785385,84.53462
"46038",626.741,78.819565,84.530846
"46039",626.75433,78.95384,84.628235
"46040",626.76764,79.24681,84.88851
"46041",626.78094,79.73754,85.355705
"46042",626.79425,80.39185,86.001816
"46043",626.80756,81.1194,86.74161
"46044",626.82086,81.78348,87.44067
"46045",626.83417,82.25956,87.97248
"46046",626.8475,82.47196,88.25549
"46047",626.8608,82.43046,88.29124
"46048",626.8741,82.19119,88.12792
"46049",626.8874,81.85184,87.85704
"46050",626.9007,81.49294,87.556015
"46051",626.914,81.16823,87.277954
"46052",626.9273,80.90456,87.05079
"46053",626.9406,80.71412,86.88862
"46054",626.9539,80.59205,86.788864
"46055",626.9672,80.50416,86.719475
"46056",626.9805,80.42359,86.65466
"46057",626.99384,80.323494,86.5678
"46058",627.00714,80.19653,86.45095
"46059",627.02045,80.045166,86.305725
"46060",627.03375,79.8938,86.15577
"46061",627.04706,79.77661,86.03526
"46062",627.06036,79.7058,85.95747
"46063",627.07367,79.68383,85.92631
"46064",627.087,79.691154,85.92375
"46065",627.1003,79.708244,85.93119
"46066",627.1136,79.72045,85.93428
"46067",627.1269,79.708244,85.91334
"46068",627.1402,79.67162,85.8676
"46069",627.1535,79.60815,85.79386
"46070",627.1668,79.53002,85.70349
"46071",627.1801,79.43725,85.59603
"46072",627.1934,79.33715,85.47835
"46073",627.2067,79.22728,85.34776
"46074",627.22003,79.12474,85.22108
"46075",627.23334,79.03441,85.10339
"46076",627.24664,78.96117,84.99998
"46077",627.25995,78.90013,84.90648
"46078",627.27325,78.856186,84.82816
"46079",627.28656,78.82201,84.75824
"46080",627.29987,78.78783,84.68725
"46081",627.3132,78.76097,84.62251
"46082",627.3265,78.746315,84.56914
"46083",627.3398,78.74143,84.52508
"46084",627.3531,78.74143,84.48575
"46085",627.3664,78.74387,84.44886
"46086",627.3797,78.74143,84.407166
"46087",627.393,78.74387,84.37028
"46088",627.4063,78.785385,84.372536
"46089",627.4196,78.93675,84.48595
"46090",627.4329,79.256584,84.77255
"46091",627.4462,79.76929,85.262024
"46092",627.45953,80.44312,85.92865
"46093",627.47284,81.17799,86.67737
"46094",627.48615,81.83963,87.37582
"46095",627.49945,82.303505,87.89718
"46096",627.51276,82.50126,88.166916
"46097",627.52606,82.44999,88.19381
"46098",627.53937,82.210724,88.031105
"46099",627.5527,81.866486,87.75595
"46100",627.566,81.497826,87.44562
"46101",627.5793,81.16823,87.16283
"46102",627.5926,80.907,86.9381
"46103",627.6059,80.723885,86.78333
"46104",627.6192,80.6067,86.68877
"46105",627.6325,80.52125,86.62228
"46106",627.6458,80.430916,86.54823
"46107",627.6591,80.31373,86.44451
"46108",627.6724,80.15991,86.3005
"46109",627.6857,79.991455,86.13704
"46110",627.69904,79.835205,85.98052
"46111",627.71234,79.72045,85.86062
"46112",627.72565,79.66186,85.79329
"46113",627.73895,79.656975,85.77784
"46114",627.75226,79.68871,85.79886
"46115",627.76556,79.73754,85.83796
"46116",627.7789,79.77905,85.87127
"46117",627.7922,79.78882,85.87413
"46118",627.8055,79.764404,85.84312
"46119",627.8188,79.69848,85.76983
"46120",627.8321,79.59838,85.66031
"46121",627.8454,79.47631,85.52569
"46122",627.8587,79.34692,85.37993
"46123",627.872,79.219955,85.23256
"46124",627.8853,79.11253,85.10076
"46125",627.8986,79.02464,84.98514
"46126",627.9119,78.95384,84.88386
"46127",627.92523,78.905014,84.80234
"46128",627.93854,78.87572,84.73882
"46129",627.95184,78.85863,84.6866
"46130",627.96515,78.84642,84.638725
"46131",627.97845,78.83177,84.58803
"46132",627.99176,78.81224,84.53199
"46133",628.00507,78.78783,84.47046
"46134",628.0184,78.765854,84.41061
"46135",628.0317,78.75365,84.35983
"46136",628.045,78.7805,84.34774
"46137",628.0583,78.89525,84.42438
"46138",628.0716,79.16136,84.65597
"46139",628.0849,79.61547,85.08387
"46140",628.0982,80.24292,85.6993
"46141",628.1115,80.96803,86.43201
"46142",628.1248,81.6614,87.155624
"46143",628.1381,82.19852,87.74466
"46144",628.1514,82.48905,88.1039
"46145",628.16473,82.51835,88.210976
"46146",628.17804,82.340126,88.11145
"46147",628.19135,82.03006,87.87451
"46148",628.20465,81.671165,87.579056
"46149",628.21796,81.32693,87.28704
"46150",628.23126,81.03883,87.04041
"46151",628.24457,80.82155,86.85559
"46152",628.2579,80.67506,86.73477
"46153",628.2712,80.56275,86.64356
"46154",628.2845,80.46021,86.55861
"46155",628.2978,80.33814,86.45092
"46156",628.3111,80.18921,86.31255
"46157",628.3244,80.02319,86.15245
"46158",628.3377,79.871826,86.00181
"46159",628.351,79.75708,85.88306
"46160",628.3643,79.68871,85.8071
"46161",628.3776,79.674065,85.78272
"46162",628.3909,79.69848,85.79695
"46163",628.40424,79.742424,85.831474
"46164",628.41754,79.77905,85.860054
"46165",628.43085,79.7937,85.8678
"46166",628.44415,79.77173,85.83938
"46167",628.45746,79.708244,85.76876
"46168",628.47076,79.61059,85.66199
"46169",628.4841,79.483635,85.522865
"46170",628.4974,79.34936,85.37245
"46171",628.5107,79.22484,85.2276
"46172",628.524,79.1223,85.10084
"46173",628.5373,79.04173,84.99284
"46174",628.5506,78.99046,84.91163
"46175",628.5639,78.95384,84.84346
"46176",628.5772,78.92699,84.78391
"46177",628.5905,78.90013,84.723526
"46178",628.6038,78.87816,84.66718
"46179",628.6171,78.85863,84.612595
"46180",628.63043,78.84398,84.56228
"46181",628.64374,78.82689,84.50906
"46182",628.65704,78.819565,84.46508
"46183",628.67035,78.84398,84.45261
"46184",628.68365,78.94896,84.52146
"46185",628.69696,79.202866,84.74252
"46186",628.71027,79.64721,85.16196
"46187",628.7236,80.2649,85.76862
"46188",628.7369,80.98268,86.49468
"46189",628.7502,81.67605,87.21876
"46190",628.7635,82.21561,87.81069
"46191",628.7768,82.513466,88.17779
"46192",628.7901,82.55497,88.29784
"46193",628.8034,82.38651,88.20922
"46194",628.8167,82.08865,87.98594
"46195",628.83,81.739525,87.70208
"46196",628.8433,81.40505,87.42197
"46197",628.8566,81.129166,87.18999
"46198",628.86993,80.92897,87.02508
"46199",628.88324,80.79469,86.91983
"46200",628.89655,80.70435,86.854324
"46201",628.90985,80.61402,86.786
"46202",628.92316,80.49439,86.68556
"46203",628.93646,80.3357,86.54232
"46204",628.94977,80.14526,86.36237
"46205",628.9631,79.954834,86.17648
"46206",628.9764,79.79614,86.01638
"46207",628.9897,79.693596,85.90746
"46208",629.003,79.65209,85.856384
"46209",629.0163,79.66186,85.85528
"46210",629.0296,79.70336,85.886215
"46211",629.0429,79.74975,85.92333
"46212",629.0562,79.77661,85.942375
"46213",629.0695,79.76929,85.92807
"46214",629.0828,79.72045,85.872025
"46215",629.0961,79.63012,85.77296
"46216",629.10944,79.50561,85.63689
"46217",629.12274,79.37621,85.49204
"46218",629.13605,79.259026,85.35536
"46219",629.14935,79.1638,85.236984
"46220",629.16266,79.09056,85.13761
"46221",629.17596,79.04173,85.06036
"46222",629.1893,79.00267,84.991356
"46223",629.2026,78.96605,84.92357
"46224",629.2159,78.924545,84.849754
"46225",629.2292,78.887924,84.779526
"46226",629.2425,78.8513,84.70815
"46227",629.2558,78.819565,84.64052
"46228",629.2691,78.79515,84.579216
"46229",629.2824,78.79759,84.54401
"46230",629.2957,78.88304,84.59188
"46231",629.309,79.11009,84.78403
"46232",629.3223,79.52514,85.171265
"46233",629.33563,80.12329,85.75458
"46234",629.34894,80.833755,86.468895
"46235",629.36224,81.53445,87.19564
"46236",629.37555,82.09842,87.80756
"46237",629.38885,82.43778,88.2125
"46238",629.40216,82.51835,88.36925
"46239",629.41547,82.391396,88.32099
"46240",629.4288,82.13016,88.13448
"46241",629.4421,81.81766,87.88855
"46242",629.4554,81.51736,87.64505
"46243",629.4687,81.26833,87.44344
"46244",629.482,81.08766,87.30241
"46245",629.4953,80.95827,87.207
"46246",629.5086,80.85817,87.13685
"46247",629.5219,80.75319,87.058685
"46248",629.5352,80.618904,86.94794
"46249",629.5485,80.44068,86.789055
"46250",629.5618,80.23071,86.59286
"46251",629.57513,80.01343,86.38278
"46252",629.58844,79.823,86.19277
"46253",629.60175,79.68383,86.04807
"46254",629.61505,79.61791,85.972275
"46255",629.62836,79.622795,85.96522
"46256",629.64166,79.66918,85.99982
"46257",629.65497,79.72289,86.04319
"46258",629.6683,79.76196,86.0736
"46259",629.6816,79.764404,86.0686
"46260",629.6949,79.72045,86.01729
"46261",629.7082,79.639885,85.927986
"46262",629.7215,79.537346,85.81419
"46263",629.7348,79.42016,85.68255
"46264",629.7481,79.30053,85.5448
"46265",629.7614,79.19066,85.41307
"46266",629.7747,79.093,85.29012
"46267",629.788,79.01732,85.1861
"46268",629.80133,78.96117,85.099236
"46269",629.81464,78.91722,85.02283
"46270",629.82794,78.88304,84.95481
"46271",629.84125,78.8513,84.88817
"46272",629.85455,78.819565,84.82053
"46273",629.86786,78.79027,84.75435
"46274",629.88116,78.77318,84.699455
"46275",629.8945,78.80003,84.68797
"46276",629.9078,78.91722,84.76766
"46277",629.9211,79.19066,85.00726
"46278",629.9344,79.656975,85.44829
"46279",629.9477,80.289314,86.06991
"46280",629.961,81.00954,86.79917
"46281",629.9743,81.69558,87.51676
"46282",629.9876,82.22537,88.09954
"46283",630.0009,82.513466,88.45718
"46284",630.0142,82.562294,88.58455
"46285",630.0275,82.42069,88.52302
"46286",630.04083,82.17166,88.34963
"46287",630.05414,81.88602,88.13185
"46288",630.06744,81.619896,87.92467
"46289",630.08075,81.40505,87.760445
"46290",630.09406,81.24635,87.64565
"46291",630.10736,81.129166,87.56741
"46292",630.12067,81.02907,87.5026
"46293",630.134,80.919205,87.4249
"46294",630.1473,80.765396,87.29981
"46295",630.1606,80.56031,87.118645
"46296",630.1739,80.323494,86.89934
"46297",630.1872,80.08423,86.67018
"46298",630.2005,79.87427,86.46285
"46299",630.2138,79.727776,86.31243
"46300",630.2271,79.65209,86.22824
"46301",630.2404,79.64233,86.2076
"46302",630.2537,79.66918,86.22328
"46303",630.267,79.708244,86.25201
"46304",630.28033,79.7351,86.269745
"46305",630.29364,79.727776,86.25414
"46306",630.30695,79.68383,86.20169
"46307",630.32025,79.60082,86.1088
"46308",630.33356,79.49584,85.99135
"46309",630.34686,79.378654,85.858406
"46310",630.36017,79.256584,85.71692
"46311",630.3735,79.13695,85.57405
"46312",630.3868,79.03685,85.44698
"46313",630.4001,78.95628,85.33632
"46314",630.4134,78.89525,85.24267
"46315",630.4267,78.8513,85.1642
"46316",630.44,78.82689,85.10389
"46317",630.4533,78.80736,85.0477
"46318",630.4666,78.7805,84.983574
"46319",630.4799,78.751205,84.91617
"46320",630.4932,78.71946,84.8454
"46321",630.50653,78.692604,84.77853
"46322",630.51984,78.70481,84.74988
"46323",630.53314,78.80736,84.81195
"46324",630.54645,79.06615,85.03347
"46325",630.55975,79.5227,85.46084
"46326",630.57306,80.16235,86.08558
"46327",630.58636,80.89723,86.82553
"46328",630.5997,81.61501,87.57135
"46329",630.613,82.18387,88.190674
"46330",630.6263,82.513466,88.58852
"46331",630.6396,82.58915,88.742744
"46332",630.6529,82.459755,88.69426
"46333",630.6662,82.20584,88.51721
"46334",630.6795,81.91287,88.293175
"46335",630.6928,81.64675,88.08683
"46336",630.7061,81.43679,87.92833
"46337",630.7194,81.290306,87.826744
"46338",630.7327,81.18532,87.76208
"46339",630.74603,81.0901,87.7039
"46340",630.75934,80.97536,87.62322
"46341",630.77264,80.816666,87.49501
"46342",630.78595,80.6067,87.31056
"46343",630.79926,80.35767,87.0805
"46344",630.81256,80.09888,86.83288
"46345",630.82587,79.86694,86.604034
"46346",630.8392,79.693596,86.42653
"46347",630.8525,79.59594,86.3193
"46348",630.8658,79.57641,86.28714
"46349",630.8791,79.60815,86.30564
"46350",630.8924,79.65942,86.344666
"46351",630.9057,79.70092,86.37553
"46352",630.919,79.708244,86.373505
"46353",630.9323,79.66674,86.32288
"46354",630.9456,79.588615,86.234344
"46355",630.9589,79.47631,86.109184
"46356",630.9722,79.34692,85.963425
"46357",630.98553,79.21019,85.80629
"46358",630.99884,79.08324,85.654655
"46359",631.01215,78.97337,85.51614
"46360",631.02545,78.88548,85.39617
"46361",631.03876,78.819565,85.295425
"46362",631.05206,78.77562,85.21459
"46363",631.06537,78.74876,85.14947
"46364",631.0787,78.73167,85.09328
"46365",631.092,78.71946,85.041435
"46366",631.1053,78.70481,84.98677
"46367",631.1186,78.677956,84.91944
"46368",631.1319,78.64866,84.84883
"46369",631.1452,78.61936,84.777306
"46370",631.1585,78.59495,84.70975
"46371",631.1718,78.5803,84.65119
"46372",631.1851,78.60471,84.63124
"46373",631.1984,78.7219,84.70483
"46374",631.21173,78.99046,84.93345
"46375",631.22504,79.45678,85.36822
"46376",631.23834,80.113525,86.00799
"46377",631.25165,80.88258,86.780594
"46378",631.26495,81.62722,87.55281
"46379",631.27826,82.22293,88.19937
"46380",631.29156,82.56962,88.615524
"46381",631.3049,82.65751,88.783714
"46382",631.3182,82.53544,88.74469
"46383",631.3315,82.2913,88.57978
"46384",631.3448,82.00076,88.36085
"46385",631.3581,81.73708,88.15969
"46386",631.3714,81.529564,88.006454
"46387",631.3847,81.375755,87.900444
"46388",631.398,81.26101,87.82869
"46389",631.4113,81.16579,87.77287
"46390",631.4246,81.058365,87.70188
"46391",631.4379,80.91188,87.58847
"46392",631.45123,80.71412,87.419205
"46393",631.46454,80.47486,87.20226
"46394",631.47784,80.216064,86.958305
"46395",631.49115,79.96216,86.71115
"46396",631.50446,79.74975,86.49756
"46397",631.51776,79.60815,86.34814
"46398",631.53107,79.54711,86.27486
"46399",631.5444,79.54711,86.260704
"46400",631.5577,79.58129,86.28073
"46401",631.571,79.62524,86.31159
"46402",631.5843,79.64477,86.31941
"46403",631.5976,79.62035,86.2839
"46404",631.6109,79.551994,86.203674
"46405",631.6242,79.447014,86.084694
"46406",631.6375,79.31762,85.93802
"46407",631.6508,79.18089,85.77997
"46408",631.6641,79.04906,85.622536
"46409",631.6774,78.93675,85.480515
"46410",631.69073,78.84886,85.3594
"46411",631.70404,78.7805,85.255066
"46412",631.71735,78.72434,85.1608
"46413",631.73065,78.68284,85.07943
"46414",631.74396,78.64622,85.00165
"46415",631.75726,78.61936,84.93249
"46416",631.77057,78.59739,84.86737
"46417",631.7839,78.58762,84.813774
"46418",631.7972,78.58762,84.76964
"46419",631.8105,78.59251,84.730385
"46420",631.8238,78.59739,84.691284
"46421",631.8371,78.59983,84.649895
"46422",631.8504,78.59495,84.60126
"46423",631.8637,78.57542,84.53782
"46424",631.877,78.54368,84.46156
"46425",631.8903,78.51194,84.384315
"46426",631.9036,78.51438,84.340256
"46427",631.91693,78.61692,84.39637
"46428",631.93024,78.89525,84.63148
"46429",631.94354,79.38354,85.08524
"46430",631.95685,80.07202,85.75446
"46431",631.97015,80.87038,86.55507
"46432",631.98346,81.64675,87.35864
"46433",631.99677,82.25712,88.02047
"46434",632.0101,82.61356,88.44745
"46435",632.0234,82.69901,88.61457
"46436",632.0367,82.57694,88.57684
"46437",632.05,82.33036,88.41079
"46438",632.0633,82.04959,88.20284
"46439",632.0766,81.79813,88.01543
"46440",632.0899,81.60525,87.87874
"46441",632.1032,81.47097,87.794624
"46442",632.1165,81.375755,87.74538
"46443",632.1298,81.29275,87.70536
"46444",632.1431,81.18776,87.64077
"46445",632.15643,81.03883,87.52896
"46446",632.16974,80.833755,87.356346
"46447",632.18304,80.5774,87.126045
"46448",632.19635,80.29908,86.86577
"46449",632.20966,80.028076,86.60411
"46450",632.22296,79.80347,86.38038
"46451",632.23627,79.64721,86.21798
"46452",632.2496,79.571526,86.13127
"46453",632.2629,79.55688,86.10323
"46454",632.2762,79.58373,86.11624
"46455",632.2895,79.61791,86.13741
"46456",632.3028,79.635,86.14256
"46457",632.3161,79.61791,86.11407
"46458",632.3294,79.55932,86.04353
"46459",632.3427,79.466545,85.93699
"46460",632.356,79.35668,85.810455
"46461",632.3693,79.234604,85.668274
"46462",632.3826,79.11253,85.522285
"46463",632.39594,78.99779,85.37981
"46464",632.40924,78.89769,85.24839
"46465",632.42255,78.81468,85.130936
"46466",632.43585,78.74876,85.02797
"46467",632.44916,78.69749,84.9376
"46468",632.46246,78.658424,84.857834
"46469",632.47577,78.62913,84.78661
"46470",632.4891,78.607155,84.7218
"46471",632.5024,78.57786,84.64898
"46472",632.5157,78.54612,84.5728
"46473",632.529,78.52415,84.505394
"46474",632.5423,78.521706,84.45683
"46475",632.5556,78.53147,84.4204
"46476",632.5689,78.553444,84.396484
"46477",632.5822,78.58518,84.38302
"46478",632.5955,78.61448,84.3681
"46479",632.6088,78.626686,84.33701
"46480",632.62213,78.624245,84.29166
"46481",632.63544,78.61448,84.2389
"46482",632.64874,78.59983,84.180954
"46483",632.66205,78.61204,84.14941
"46484",632.67535,78.712135,84.20613
"46485",632.68866,78.97826,84.43201
"46486",632.70197,79.466545,84.88837
"46487",632.7153,80.15259,85.55774
"46488",632.7286,80.96071,86.37063
"46489",632.7419,81.75418,87.19412
"46490",632.7552,82.38651,87.88127
"46491",632.7685,82.75517,88.32451
"46492",632.7818,82.85283,88.50826
"46493",632.7951,82.72587,88.47045
"46494",632.8084,82.459755,88.28952
"46495",632.8217,82.142365,88.048996
"46496",632.835,81.84207,87.81565
"46497",632.8483,81.602806,87.63395
"46498",632.86163,81.43679,87.51802
"46499",632.87494,81.341576,87.467705
"46500",632.88824,81.28054,87.44859
"46501",632.90155,81.20485,87.41292
"46502",632.91486,81.08522,87.33094
"46503",632.92816,80.89967,87.179306
"46504",632.94147,80.655525,86.96327
"46505",632.9548,80.37476,86.702995
"46506",632.9681,80.1062,86.446144
"46507",632.9814,79.886475,86.22974
"46508",632.9947,79.73022,86.06993
"46509",633.008,79.64477,85.97605
"46510",633.0213,79.61791,85.938095
"46511",633.0346,79.63256,85.9408
"46512",633.0479,79.656975,85.953735
"46513",633.0612,79.66674,85.95278
"46514",633.0745,79.65209,85.92772
"46515",633.0878,79.60082,85.86558
"46516",633.10114,79.517815,85.770096
"46517",633.11444,79.41039,85.647606
"46518",633.12775,79.290764,85.50955
"46519",633.14105,79.166245,85.36287
"46520",633.15436,79.04906,85.21963
"46521",633.16766,78.941635,85.08249
"46522",633.18097,78.8513,84.95908
"46523",633.1943,78.77806,84.849945
"46524",633.2076,78.71702,84.75072
"46525",633.2209,78.66575,84.659355
"46526",633.2342,78.62913,84.58104
"46527",633.2475,78.60471,84.51379
"46528",633.2608,78.59251,84.45798
"46529",633.2741,78.590065,84.41155
"46530",633.2874,78.59495,84.372375
"46531",633.3007,78.59983,84.33335
"46532",633.314,78.60471,84.29448
"46533",633.32733,78.607155,84.25332
"46534",633.34064,78.61692,84.21956
"46535",633.35394,78.63401,84.19343
"46536",633.36725,78.65354,84.17027
"46537",633.38055,78.67307,84.14773
"46538",633.39386,78.6804,84.11359
"46539",633.40717,78.677956,84.06991
"46540",633.4205,78.66575,84.01639
"46541",633.4338,78.65598,83.96493
"46542",633.4471,78.68284,83.94978
"46543",633.4604,78.81712,84.04291
"46544",633.4737,79.132065,84.320885
"46545",633.487,79.66674,84.82844
"46546",633.5003,80.39185,85.54314
"46547",633.5136,81.21706,86.380585
"46548",633.5269,81.99832,87.19988
"46549",633.5402,82.58671,87.850716
"46550",633.5535,82.899216,88.24406
"46551",633.56683,82.93828,88.37372
"46552",633.58014,82.760056,88.287315
"46553",633.59344,82.45487,88.06838
"46554",633.60675,82.11307,87.80329
"46555",633.62006,81.80789,87.56415
"46556",633.63336,81.57107,87.38382
"46557",633.64667,81.409935,87.27178
"46558",633.66,81.31228,87.218185
"46559",633.6733,81.24391,87.19083
"46560",633.6866,81.163345,87.14913
"46561",633.6999,81.041275,87.063416
"46562",633.7132,80.86549,86.92017
"46563",633.7265,80.64088,86.7226
"46564",633.7398,80.38941,86.491165
"46565",633.7531,80.14038,86.2543
"46566",633.7664,79.93042,86.04873
"46567",633.7797,79.78638,85.90251
"46568",633.793,79.71313,85.822586
"46569",633.80634,79.693596,85.79409
"46570",633.81964,79.71557,85.80649
"46571",633.83295,79.742424,85.824455
"46572",633.84625,79.7522,85.82618
"46573",633.85956,79.73266,85.7989
"46574",633.87286,79.68383,85.741714
"46575",633.88617,79.59838,85.646385
"46576",633.8995,79.49096,85.52641
"46577",633.9128,79.364006,85.38355
"46578",633.9261,79.234604,85.234276
"46579",633.9394,79.10765,85.083405
"46580",633.9527,78.99779,84.945656
"46581",633.966,78.90257,84.81912
"46582",633.9793,78.83177,84.71403
"46583",633.9926,78.78294,84.62869
"46584",634.0059,78.746315,84.55403
"46585",634.0192,78.7219,84.49044
"46586",634.03253,78.709694,84.43829
"46587",634.04584,78.69749,84.385765
"46588",634.05914,78.69016,84.33774
"46589",634.07245,78.68284,84.28948
"46590",634.08575,78.6804,84.24588
"46591",634.09906,78.68528,84.209526
"46592",634.11237,78.692604,84.175766
"46593",634.1257,78.69993,84.142235
"46594",634.139,78.712135,84.113815
"46595",634.1523,78.7219,84.083336
"46596",634.1656,78.729225,84.05072
"46597",634.1789,78.73655,84.01833
"46598",634.1922,78.73899,83.98129
"46599",634.2055,78.73411,83.937004
"46600",634.2188,78.72434,83.88768
"46601",634.2321,78.73411,83.85758
"46602",634.2454,78.82933,83.913246
"46603",634.2587,79.08324,84.13057
"46604",634.27203,79.554436,84.57312
"46605",634.28534,80.24048,85.24524
"46606",634.29865,81.06325,86.07552
"46607",634.31195,81.881134,86.926636
"46608",634.32526,82.547646,87.65193
"46609",634.33856,82.95293,88.136826
"46610",634.35187,83.06767,88.34385
"46611",634.3652,82.94316,88.3152
"46612",634.3785,82.65995,88.12396
"46613",634.3918,82.31083,87.85796
"46614",634.4051,81.96658,87.58593
"46615",634.4184,81.68093,87.36173
"46616",634.4317,81.46853,87.20186
"46617",634.445,81.32693,87.10615
"46618",634.4583,81.234146,87.05483
"46619",634.4716,81.15358,87.01283
"46620",634.4849,81.05104,86.94634
"46621",634.4982,80.90456,86.8327
"46622",634.51154,80.70191,86.658325
"46623",634.52484,80.46021,86.43856
"46624",634.53815,80.21362,86.20635
"46625",634.55145,79.9939,85.9933
"46626",634.56476,79.823,85.82221
"46627",634.57806,79.72289,85.716576
"46628",634.5914,79.68871,85.67374
"46629",634.6047,79.69848,85.673775
"46630",634.618,79.725334,85.69121
"46631",634.6313,79.75464,85.71193
"46632",634.6446,79.75464,85.70426
"46633",634.6579,79.71801,85.659966
"46634",634.6712,79.64477,85.57791
"46635",634.6845,79.54223,85.46427
"46636",634.6978,79.42016,85.327896
"46637",634.7111,79.290764,85.18038
"46638",634.7244,79.1638,85.03126
"46639",634.73773,79.044174,84.8855
"46640",634.75104,78.94408,84.75553
"46641",634.76434,78.86107,84.63953
"46642",634.77765,78.802475,84.54534
"46643",634.79095,78.75365,84.45909
"46644",634.80426,78.712135,84.37863
"46645",634.81757,78.677956,84.30421
"46646",634.8309,78.66331,84.248245
"46647",634.8442,78.66331,84.206474
"46648",634.8575,78.677956,84.17935
"46649",634.8708,78.69993,84.16001
"46650",634.8841,78.729225,84.14868
"46651",634.8974,78.74876,84.1285
"46652",634.9107,78.76097,84.101616
"46653",634.924,78.77074,84.07266
"46654",634.9373,78.7805,84.044014
"46655",634.9506,78.78783,84.01323
"46656",634.9639,78.79027,83.97779
"46657",634.97723,78.79271,83.94243
"46658",634.99054,78.78783,83.89982
"46659",635.00385,78.7805,83.854614
"46660",635.01715,78.78294,83.81895
"46661",635.03046,78.84398,83.84195
"46662",635.04376,79.03197,83.99381
"46663",635.05707,79.41772,84.34931
"46664",635.0704,80.03296,84.94636
"46665",635.0837,80.82399,85.73842
"46666",635.097,81.66628,86.60646
"46667",635.1103,82.41337,87.40562
"46668",635.1236,82.930954,87.99862
"46669",635.1369,83.158005,88.31726
"46670",635.1502,83.10918,88.36712
"46671",635.1635,82.86992,88.22502
"46672",635.1768,82.530556,87.97534
"46673",635.1901,82.16922,87.693085
"46674",635.2034,81.84451,87.436165
"46675",635.21674,81.58083,87.230125
"46676",635.23004,81.38552,87.08421
"46677",635.24335,81.24391,86.9859
"46678",635.25665,81.13893,86.91979
"46679",635.26996,81.03395,86.8504
"46680",635.28326,80.89723,86.745995
"46681",635.2966,80.71412,86.59092
"46682",635.3099,80.499275,86.39839
"46683",635.3232,80.274666,86.189384
"46684",635.3365,80.076904,86.000206
"46685",635.3498,79.92798,85.85368
"46686",635.3631,79.84253,85.76598
"46687",635.3764,79.81323,85.731766
"46688",635.3897,79.81323,85.72593
"46689",635.403,79.823,85.72986
"46690",635.4163,79.83276,85.73409
"46691",635.4296,79.818115,85.71422
"46692",635.44293,79.77661,85.66703
"46693",635.45624,79.71313,85.596565
"46694",635.46954,79.62524,85.49971
"46695",635.48285,79.517815,85.38058
"46696",635.49615,79.40307,85.25076
"46697",635.50946,79.28832,85.11736
"46698",635.52277,79.17845,84.98525
"46699",635.5361,79.078354,84.85948
"46700",635.5494,78.992905,84.74523
"46701",635.5627,78.92699,84.64784
"46702",635.576,78.870834,84.55816
"46703",635.5893,78.82689,84.47893
"46704",635.6026,78.79515,84.41053
"46705",635.6159,78.77562,84.35335
"46706",635.6292,78.765854,84.30532
"46707",635.6425,78.76341,84.26431
"46708",635.6558,78.768295,84.23055
"46709",635.6691,78.77318,84.196945
"46710",635.68243,78.78294,84.16837
"46711",635.69574,78.79271,84.14011
"46712",635.70905,78.79759,84.10726
"46713",635.72235,78.80003,84.07213
"46714",635.73566,78.80492,84.03951
"46715",635.74896,78.802475,83.999725
"46716",635.76227,78.79515,83.95498
"46717",635.7756,78.79027,83.912445
"46718",635.7889,78.78783,83.8722
"46719",635.8022,78.82201,83.8685
"46720",635.8155,78.958725,83.96841
"46721",635.8288,79.276115,84.25326
"46722",635.8421,79.81323,84.76775
"46723",635.8554,80.5481,85.49679
"46724",635.8687,81.38308,86.34889
"46725",635.882,82.1741,87.183136
"46726",635.8953,82.777145,87.85412
"46727",635.9086,83.09697,88.26073
"46728",635.92194,83.12138,88.38192
"46729",635.93524,82.92363,88.28171
"46730",635.94855,82.59647,88.04591
"46731",635.96185,82.22293,87.75351
"46732",635.97516,81.866486,87.46653
"46733",635.98846,81.57107,87.22944
"46734",636.0018,81.34646,87.053925
"46735",636.0151,81.18288,86.93242
"46736",636.0284,81.06081,86.84731
"46737",636.0417,80.955826,86.77548
"46738",636.055,80.84596,86.69549
"46739",636.0683,80.70435,86.580315
"46740",636.0816,80.52613,86.4241
"46741",636.0949,80.325935,86.24035
"46742",636.1082,80.130615,86.055214
"46743",636.1215,79.9646,85.89328
"46744",636.1348,79.84985,85.77743
"46745",636.14813,79.78882,85.7117
"46746",636.16144,79.77173,85.68801
"46747",636.17474,79.78882,85.69797
"46748",636.18805,79.81323,85.71578
"46749",636.20135,79.823,85.71971
"46750",636.21466,79.80591,85.69709
"46751",636.22797,79.7522,85.637314
"46752",636.2413,79.66186,85.53923
"46753",636.2546,79.54955,85.41636
"46754",636.2679,79.429924,85.28265
"46755",636.2812,79.3225,85.15742
"46756",636.2945,79.217514,85.03126
"46757",636.3078,79.11742,84.90671
"46758",636.3211,79.029526,84.79124
"46759",636.3344,78.94896,84.68034
"46760",636.3477,78.8806,84.57914
"46761",636.361,78.82933,84.49289
"46762",636.3743,78.802475,84.42945
"46763",636.38763,78.78783,84.37738
"46764",636.40094,78.77806,84.329735
"46765",636.41425,78.77074,84.284225
"46766",636.42755,78.77074,84.24581
"46767",636.44086,78.77806,84.21472
"46768",636.45416,78.79027,84.18874
"46769",636.46747,78.8098,84.17047
"46770",636.4808,78.82933,84.15281
"46771",636.4941,78.84398,84.130875
"46772",636.5074,78.853745,84.104515
"46773",636.5207,78.856186,84.07114
"46774",636.534,78.853745,84.03295
"46775",636.5473,78.856186,83.99957
"46776",636.5606,78.88548,83.993126
"46777",636.5739,78.995346,84.06816
"46778",636.5872,79.26635,84.30777
"46779",636.6005,79.74975,84.76824
"46780",636.61383,80.44068,85.451355
"46781",636.62714,81.26589,86.29034
"46782",636.64044,82.08621,87.150215
"46783",636.65375,82.75273,87.88193
"46784",636.66705,83.14824,88.36346
"46785",636.68036,83.24834,88.561935
"46786",636.69366,83.104294,88.5194
"46787",636.707,82.794235,88.30635
"46788",636.7203,82.41093,88.01036
"46789",636.7336,82.03006,87.704834
"46790",636.7469,81.69558,87.43379
"46791",636.7602,81.42947,87.220665
"46792",636.7735,81.22926,87.06513
"46793",636.7868,81.092545,86.96683
"46794",636.8001,80.98268,86.891106
"46795",636.8134,80.87038,86.80951
"46796",636.8267,80.73853,86.704865
"46797",636.84,80.57252,86.56193
"46798",636.85333,80.38453,86.39183
"46799",636.86664,80.19409,86.21341
"46800",636.87994,80.03052,86.0559
"46801",636.89325,79.91089,85.937225
"46802",636.90656,79.84985,85.873405
"46803",636.91986,79.83276,85.85162
"46804",636.93317,79.84497,85.858604
"46805",636.9465,79.8645,85.87329
"46806",636.9598,79.871826,85.87638
"46807",636.9731,79.84985,85.8504
"46808",636.9864,79.79614,85.792
"46809",636.9997,79.710686,85.70017
"46810",637.013,79.603264,85.58371
"46811",637.0263,79.47387,85.44192
"46812",637.0396,79.33959,85.2912
"46813",637.0529,79.21263,85.1436
"46814",637.0662,79.10277,85.00913
"46815",637.0795,79.01488,84.8932
"46816",637.09283,78.94408,84.79162
"46817",637.10614,78.89525,84.70979
"46818",637.11945,78.85863,84.63865
"46819",637.13275,78.83177,84.576126
"46820",637.14606,78.81468,84.52253
"46821",637.15936,78.80736,84.478165
"46822",637.17267,78.80736,84.440895
"46823",637.186,78.81224,84.40851
"46824",637.1993,78.82445,84.3836
"46825",637.2126,78.83421,84.35663
"46826",637.2259,78.84886,84.33485
"46827",637.2392,78.86107,84.31108
"46828",637.2525,78.873276,84.2877
"46829",637.2658,78.8806,84.25981
"46830",637.2791,78.88304,84.22727
"46831",637.2924,78.87816,84.187485
"46832",637.3057,78.90013,84.1744
"46833",637.31903,79.01488,84.254776
"46834",637.33234,79.29809,84.5072
"46835",637.34564,79.801025,84.988205
"46836",637.35895,80.51392,85.694885
"46837",637.37225,81.35134,86.54836
"46838",637.38556,82.16678,87.40603
"46839",637.39886,82.80644,88.1134
"46840",637.4122,83.17265,88.567314
"46841",637.4255,83.243454,88.73726
"46842",637.4388,83.07988,88.67504
"46843",637.4521,82.76494,88.456345
"46844",637.4654,82.388954,88.16676
"46845",637.4787,82.01297,87.86543
"46846",637.492,81.68093,87.5963
"46847",637.5053,81.40261,87.37051
"46848",637.5186,81.1902,87.20193
"46849",637.5319,81.03883,87.08775
"46850",637.5452,80.921646,87.00303
"46851",637.55853,80.81178,86.92197
"46852",637.57184,80.68482,86.82037
"46853",637.58514,80.53101,86.687965
"46854",637.59845,80.34791,86.521454
"46855",637.61176,80.15991,86.34433
"46856",637.62506,79.9939,86.18331
"46857",637.63837,79.869385,86.05861
"46858",637.6517,79.79126,85.9764
"46859",637.665,79.75464,85.93326
"46860",637.6783,79.74975,85.9207
"46861",637.6916,79.75464,85.91777
"46862",637.7049,79.74975,85.90521
"46863",637.7182,79.727776,85.87542
"46864",637.7315,79.68139,85.820526
"46865",637.7448,79.60082,85.73
"46866",637.7581,79.500725,85.61743
"46867",637.7714,79.38842,85.489525
"46868",637.7847,79.273674,85.35567
"46869",637.79803,79.16136,85.22066
"46870",637.81134,79.05638,85.08947
"46871",637.82465,78.96605,84.96965
"46872",637.83795,78.89525,84.86654
"46873",637.85126,78.83421,84.77098
"46874",637.86456,78.79027,84.690605
"46875",637.87787,78.76097,84.623505
"46876",637.8912,78.746315,84.57013
"46877",637.9045,78.74387,84.52851
"46878",637.9178,78.751205,84.49659
"46879",637.9311,78.765854,84.47221
"46880",637.9444,78.78294,84.45074
"46881",637.9577,78.79515,84.42491
"46882",637.971,78.802475,84.394585
"46883",637.9843,78.802475,84.35716
"46884",637.9976,78.79759,84.31486
"46885",638.0109,78.785385,84.265076
"46886",638.02423,78.77318,84.21491
"46887",638.03754,78.77806,84.18146
"46888",638.05084,78.83421,84.199425
"46889",638.06415,79.01488,84.34366
"46890",638.07745,79.38598,84.683975
"46891",638.09076,79.98169,85.2605
"46892",638.10406,80.75807,86.03631
"46893",638.1174,81.61257,86.9145
"46894",638.1307,82.388954,87.74127
"46895",638.144,82.95293,88.3799
"46896",638.1573,83.23125,88.750496
"46897",638.1706,83.228806,88.84903
"46898",638.1839,83.01396,88.735085
"46899",638.1972,82.65995,88.47526
"46900",638.2105,82.252235,88.150665
"46901",638.2238,81.8616,87.830414
"46902",638.2371,81.52712,87.55411
"46903",638.2504,81.270775,87.34548
"46904",638.26373,81.094986,87.209404
"46905",638.27704,80.98268,87.13132
"46906",638.29034,80.89479,87.074135
"46907",638.30365,80.797134,87.00444
"46908",638.31696,80.66529,86.89751
"46909",638.33026,80.50172,86.75472
"46910",638.34357,80.31861,86.587296
"46911",638.3569,80.13794,86.41658
"46912",638.3702,79.98169,86.26464
"46913",638.3835,79.8645,86.14688
"46914",638.3968,79.79126,86.069405
"46915",638.4101,79.75464,86.02626
"46916",638.4234,79.73754,86.001495
"46917",638.4367,79.73022,85.98597
"46918",638.45,79.72045,85.96777
"46919",638.4633,79.69848,85.937065
"46920",638.4766,79.65209,85.881256
"46921",638.4899,79.57885,85.79714
"46922",638.50323,79.483635,85.68877
"46923",638.51654,79.37133,85.560326
"46924",638.52985,79.256584,85.425934
"46925",638.54315,79.151596,85.297714
"46926",638.55646,79.05638,85.17599
"46927",638.56976,78.97337,85.06349
"46928",638.58307,78.90013,84.95817
"46929",638.5964,78.839096,84.86276
"46930",638.6097,78.78783,84.775215
"46931",638.623,78.751205,84.700714
"46932",638.6363,78.73167,84.64215
"46933",638.6496,78.72434,84.59519
"46934",638.6629,78.7219,84.55289
"46935",638.6762,78.72434,84.51539
"46936",638.6895,78.7219,84.47308
"46937",638.7028,78.70725,84.418495
"46938",638.7161,78.69749,84.36833
"46939",638.72943,78.69749,84.32763
"46940",638.74274,78.70481,84.29425
"46941",638.75604,78.70725,84.25622
"46942",638.76935,78.71946,84.22803
"46943",638.78265,78.76341,84.231964
"46944",638.79596,78.90013,84.33004
"46945",638.80927,79.20775,84.60329
"46946",638.8226,79.73266,85.10344
"46947",638.8359,80.45045,85.812874
"46948",638.8492,81.26345,86.63995
"46949",638.8625,82.03494,87.45093
"46950",638.8758,82.61845,88.09802
"46951",638.8891,82.930954,88.492355
"46952",638.9024,82.97246,88.62545
"46953",638.9157,82.791794,88.537674
"46954",638.929,82.46708,88.3002
"46955",638.9423,82.08377,87.99399
