"","Time..s.","PPG.trace","Preprocessed.PPG"
"96608",1318.0994,79.217514,187.34758
"96609",1318.1127,78.91966,187.02527
"96610",1318.126,78.61936,186.69121
"96611",1318.1393,78.3386,186.3673
"96612",1318.1526,78.07736,186.05414
"96613",1318.1659,77.838104,185.75479
"96614",1318.1792,77.61349,185.46262
"96615",1318.1925,77.41085,185.1854
"96616",1318.2058,77.21797,184.9116
"96617",1318.2191,77.03975,184.64644
"96618",1318.2324,76.87373,184.38791
"96619",1318.2457,76.7248,184.14128
"96620",1318.259,76.60761,183.92174
"96621",1318.2723,76.578316,183.78642
"96622",1318.2856,76.732124,183.8333
"96623",1318.299,77.18379,184.18285
"96624",1318.3123,78.009,184.92004
"96625",1318.3256,79.21507,186.06389
"96626",1318.3389,80.71412,187.5384
"96627",1318.3522,82.33036,189.17697
"96628",1318.3655,83.83917,190.7586
"96629",1318.3788,85.0428,192.08221
"96630",1318.3921,85.824066,193.02107
"96631",1318.4054,86.14877,193.52779
"96632",1318.4187,86.06821,193.63937
"96633",1318.432,85.68246,193.44325
"96634",1318.4453,85.10872,193.04709
"96635",1318.4586,84.4593,192.55731
"96636",1318.4719,83.81964,192.057
"96637",1318.4852,83.23369,191.59042
"96638",1318.4985,82.718544,191.17633
"96639",1318.5118,82.25956,190.8023
"96640",1318.5251,81.82742,190.44078
"96641",1318.5385,81.40261,190.07307
"96642",1318.5518,80.98512,189.69942
"96643",1318.5651,80.58961,189.33469
"96644",1318.5784,80.25269,189.0162
"96645",1318.5917,80.00366,188.77507
"96646",1318.605,79.85962,188.63113
"96647",1318.6183,79.81079,188.57791
"96648",1318.6316,79.84009,188.60129
"96649",1318.6449,79.906006,188.6622
"96650",1318.6582,79.96948,188.72275
"96651",1318.6715,79.99634,188.74866
"96652",1318.6848,79.957275,188.70947
"96653",1318.6981,79.84253,188.59338
"96654",1318.7114,79.64965,188.39558
"96655",1318.7247,79.39086,188.12584
"96656",1318.738,79.08812,187.80406
"96657",1318.7513,78.76341,187.45085
"96658",1318.7646,78.433815,187.08261
"96659",1318.778,78.1091,186.70895
"96660",1318.7913,77.803925,186.34468
"96661",1318.8046,77.5256,185.99773
"96662",1318.8179,77.27413,185.66893
"96663",1318.8312,77.04707,185.35669
"96664",1318.8445,76.841995,185.05933
"96665",1318.8578,76.65644,184.77509
"96666",1318.8711,76.48066,184.49481
"96667",1318.8844,76.32441,184.22858
"96668",1318.8977,76.23163,184.02094
"96669",1318.911,76.28779,183.95934
"96670",1318.9243,76.61494,184.17047
"96671",1318.9376,77.31075,184.7605
"96672",1318.9509,78.42893,185.79463
"96673",1318.9642,79.91821,187.23482
"96674",1318.9775,81.62478,188.93883
"96675",1318.9908,83.32403,190.68886
"96676",1319.0042,84.78645,192.25516
"96677",1319.0175,85.85336,193.47165
"96678",1319.0308,86.451515,194.25272
"96679",1319.0441,86.60044,194.60326
"96680",1319.0574,86.39048,194.59956
"96681",1319.0707,85.94125,194.35004
"96682",1319.084,85.37484,193.96928
"96683",1319.0973,84.78401,193.54642
"96684",1319.1106,84.23468,193.14659
"96685",1319.1239,83.74883,192.79308
"96686",1319.1372,83.3167,192.4781
"96687",1319.1505,82.9041,192.16914
"96688",1319.1638,82.47929,191.83508
"96689",1319.1771,82.01297,191.44624
"96690",1319.1904,81.514915,191.0111
"96691",1319.2037,81.004654,190.54817
"96692",1319.217,80.533455,190.10837
"96693",1319.2303,80.147705,189.73929
"96694",1319.2437,79.87427,189.47046
"96695",1319.257,79.71801,189.31027
"96696",1319.2703,79.6643,189.24774
"96697",1319.2836,79.66918,189.24213
"96698",1319.2969,79.68871,189.25131
"96699",1319.3102,79.67895,189.23181
"96700",1319.3235,79.603264,189.14609
"96701",1319.3368,79.449455,188.97987
"96702",1319.3501,79.21263,188.72585
"96703",1319.3634,78.91234,188.40094
"96704",1319.3767,78.56809,188.0227
"96705",1319.39,78.20187,187.61174
"96706",1319.4033,77.83078,187.18445
"96707",1319.4166,77.471886,186.75777
"96708",1319.4299,77.13252,186.3394
"96709",1319.4432,76.824905,185.94217
"96710",1319.4565,76.544136,185.56218
"96711",1319.4698,76.299995,185.21004
"96712",1319.4832,76.0827,184.87712
"96713",1319.4965,75.88739,184.55939
"96714",1319.5098,75.716484,184.25996
"96715",1319.5231,75.59441,184.00403
"96716",1319.5364,75.58709,183.85902
"96717",1319.5497,75.80194,183.93597
"96718",1319.563,76.36347,184.36632
"96719",1319.5763,77.3547,185.2439
"96720",1319.5896,78.77074,186.57727
"96721",1319.6029,80.49195,188.26007
"96722",1319.6162,82.31327,190.09677
"96723",1319.6295,83.98566,191.84145
"96724",1319.6428,85.296715,193.27705
"96725",1319.6561,86.13168,194.27754
"96726",1319.6694,86.47593,194.8134
"96727",1319.6827,86.40757,194.94742
"96728",1319.696,86.048676,194.78876
"96729",1319.7094,85.538414,194.46751
"96730",1319.7227,84.98421,194.08638
"96731",1319.736,84.46174,193.71967
"96732",1319.7493,84.00519,193.40254
"96733",1319.7626,83.60723,193.12975
"96734",1319.7759,83.23369,192.86893
"96735",1319.7892,82.83818,192.57448
"96736",1319.8025,82.38651,192.2115
"96737",1319.8158,81.85916,191.75873
"96738",1319.8291,81.27566,191.23332
"96739",1319.8424,80.67994,190.67747
"96740",1319.8557,80.12573,190.14452
"96741",1319.869,79.66918,189.6919
"96742",1319.8823,79.33715,189.34952
"96743",1319.8956,79.13695,189.1286
"96744",1319.9089,79.044174,189.00885
"96745",1319.9222,79.01488,188.94968
"96746",1319.9355,78.99779,188.9018
"96747",1319.9489,78.94652,188.8192
"96748",1319.9622,78.82933,188.66908
"96749",1319.9755,78.63157,188.43474
"96750",1319.9888,78.36057,188.12097
"96751",1320.0021,78.03342,187.74258
"96752",1320.0154,77.67208,187.3198
"96753",1320.0287,77.298546,186.8735
"96754",1320.042,76.927444,186.41798
"96755",1320.0553,76.57343,185.96796
"96756",1320.0686,76.24872,185.53616
"96757",1320.0819,75.95575,185.12596
"96758",1320.0952,75.69207,184.7359
"96759",1320.1085,75.45281,184.36201
"96760",1320.1218,75.23552,184.00262
"96761",1320.1351,75.04021,183.65842
"96762",1320.1484,74.86931,183.33252
"96763",1320.1617,74.737465,183.04034
"96764",1320.175,74.686195,182.82462
"96765",1320.1884,74.79607,182.76843
"96766",1320.2017,75.18425,182.99399
"96767",1320.215,75.965515,183.62476
"96768",1320.2283,77.17891,184.71207
"96769",1320.2416,78.7805,186.2255
"96770",1320.2549,80.59449,188.00137
"96771",1320.2682,82.38407,189.80954
"96772",1320.2815,83.90021,191.40018
"96773",1320.2948,84.97688,192.59874
"96774",1320.3081,85.555504,193.33289
"96775",1320.3214,85.680016,193.63101
"96776",1320.3347,85.46517,193.59367
"96777",1320.348,85.04768,193.34697
"96778",1320.3613,84.55207,193.0091
"96779",1320.3746,84.068665,192.66794
"96780",1320.388,83.64141,192.36783
"96781",1320.4012,83.2752,192.11542
"96782",1320.4146,82.94316,191.88573
"96783",1320.4279,82.60136,191.6359
"96784",1320.4412,82.196075,191.3119
"96785",1320.4545,81.705345,190.8898
"96786",1320.4678,81.13161,190.36935
"96787",1320.4811,80.51392,189.78703
"96788",1320.4944,79.903564,189.19273
"96789",1320.5077,79.36645,188.6526
"96790",1320.521,78.9514,188.21776
"96791",1320.5343,78.67063,187.90422
"96792",1320.5476,78.51682,187.70886
"96793",1320.5609,78.45335,187.59903
"96794",1320.5742,78.43137,187.52872
"96795",1320.5875,78.399635,187.44795
"96796",1320.6008,78.31663,187.31493
"96797",1320.6141,78.16525,187.11095
"96798",1320.6274,77.94064,186.829
"96799",1320.6407,77.65499,186.47899
"96800",1320.654,77.32052,186.07123
"96801",1320.6674,76.964066,185.63104
"96802",1320.6807,76.60517,185.17728
"96803",1320.694,76.26093,184.72694
"96804",1320.7073,75.948425,184.29759
"96805",1320.7206,75.67986,183.90242
"96806",1320.7339,75.45281,183.54036
"96807",1320.7472,75.26971,183.21515
"96808",1320.7605,75.11101,182.90863
"96809",1320.7738,74.97673,182.62157
"96810",1320.7871,74.85466,182.34251
"96811",1320.8004,74.74479,182.07185
"96812",1320.8137,74.64225,181.80508
"96813",1320.827,74.55192,181.54732
"96814",1320.8403,74.478676,181.30382
"96815",1320.8536,74.459145,181.11174
"96816",1320.867,74.56168,181.04112
"96817",1320.8802,74.898605,181.2081
"96818",1320.8936,75.58709,181.73717
"96819",1320.9069,76.68818,182.70035
"96820",1320.9202,78.17502,184.0837
"96821",1320.9335,79.90112,185.75276
"96822",1320.9468,81.64675,187.4953
"96823",1320.9601,83.16289,189.0629
"96824",1320.9734,84.27131,190.27016
"96825",1320.9867,84.893875,191.0262
"96826",1321,85.06477,191.35004
"96827",1321.0133,84.88899,191.33253
"96828",1321.0266,84.505684,191.102
"96829",1321.0399,84.04913,190.78625
"96830",1321.0532,83.61944,190.4831
"96831",1321.0665,83.26299,190.23976
"96832",1321.0798,82.98955,190.06828
"96833",1321.0931,82.76738,189.93954
"96834",1321.1064,82.545204,189.80385
"96835",1321.1198,82.269325,189.60751
"96836",1321.133,81.90555,189.31465
"96837",1321.1464,81.449,188.91765
"96838",1321.1597,80.92409,188.43802
"96839",1321.173,80.38941,187.93222
"96840",1321.1863,79.903564,187.45854
"96841",1321.1996,79.51537,187.06734
"96842",1321.2129,79.24925,186.78607
"96843",1321.2262,79.10765,186.621
"96844",1321.2395,79.06615,186.5516
"96845",1321.2528,79.07103,186.5273
"96846",1321.2661,79.078354,186.50558
"96847",1321.2794,79.04173,186.44016
"96848",1321.2927,78.93919,186.30766
"96849",1321.306,78.75365,186.08896
"96850",1321.3193,78.49973,185.7961
"96851",1321.3326,78.19455,185.44403
"96852",1321.346,77.8674,185.06046
"96853",1321.3593,77.53292,184.65933
"96854",1321.3726,77.21553,184.26485
"96855",1321.3859,76.927444,183.88974
"96856",1321.3992,76.67109,183.53737
"96857",1321.4125,76.45136,183.21361
"96858",1321.4258,76.27314,182.92448
"96859",1321.4391,76.13153,182.66641
"96860",1321.4524,76.02167,182.43565
"96861",1321.4657,75.93622,182.22588
"96862",1321.479,75.86786,182.03052
"96863",1321.4923,75.80194,181.83546
"96864",1321.5056,75.7409,181.64323
"96865",1321.5189,75.684746,181.45398
"96866",1321.5322,75.631035,181.26541
"96867",1321.5455,75.58465,181.08249
"96868",1321.5588,75.55779,180.91765
"96869",1321.5721,75.60174,180.82277
"96870",1321.5854,75.80438,180.88797
"96871",1321.5988,76.28535,181.23782
"96872",1321.612,77.14229,181.97868
"96873",1321.6254,78.38987,183.13696
"96874",1321.6387,79.95239,184.64917
"96875",1321.652,81.63943,186.33472
"96876",1321.6653,83.19951,187.94603
"96877",1321.6786,84.41535,189.26186
"96878",1321.6919,85.16731,190.1518
"96879",1321.7052,85.45052,190.59648
"96880",1321.7185,85.34554,190.66183
"96881",1321.7318,84.996414,190.47975
"96882",1321.7451,84.542305,190.18178
"96883",1321.7584,84.09552,189.87694
"96884",1321.7717,83.71221,189.62161
"96885",1321.785,83.424126,189.44954
"96886",1321.7983,83.211716,189.34413
"96887",1321.8116,83.03105,189.26384
"96888",1321.825,82.83086,189.15837
"96889",1321.8383,82.56962,188.9856
"96890",1321.8516,82.21805,188.71432
"96891",1321.8649,81.78592,188.35152
"96892",1321.8782,81.3196,187.94101
"96893",1321.8915,80.86549,187.52814
"96894",1321.9048,80.4773,187.16699
"96895",1321.9181,80.19165,186.89626
"96896",1321.9314,80.01587,186.72647
"96897",1321.9447,79.937744,186.64883
"96898",1321.958,79.920654,186.62979
"96899",1321.9713,79.920654,186.62732
"96900",1321.9846,79.89868,186.60287
"96901",1321.9979,79.818115,186.51913
"96902",1322.0112,79.66674,186.36208
"96903",1322.0245,79.447014,186.13193
"96904",1322.0378,79.17357,185.8412
"96905",1322.0511,78.85863,185.50043
"96906",1322.0645,78.53391,185.14005
"96907",1322.0778,78.21164,184.77196
"96908",1322.0911,77.908905,184.41333
"96909",1322.1044,77.628136,184.06721
"96910",1322.1177,77.38644,183.75139
"96911",1322.131,77.17647,183.45975
"96912",1322.1443,77.00557,183.2006
"96913",1322.1576,76.86641,182.96786
"96914",1322.1709,76.754105,182.75763
"96915",1322.1842,76.66865,182.57074
"96916",1322.1975,76.60761,182.4056
"96917",1322.2108,76.55634,182.2483
"96918",1322.2241,76.50996,182.0943
"96919",1322.2374,76.46113,181.9364
"96920",1322.2507,76.40742,181.7721
"96921",1322.264,76.351265,181.60367
"96922",1322.2773,76.29511,181.43349
"96923",1322.2906,76.25605,181.27864
"96924",1322.304,76.282906,181.18849
"96925",1322.3173,76.453804,181.24323
"96926",1322.3306,76.8835,181.5621
"96927",1322.3439,77.67452,182.25574
"96928",1322.3572,78.85863,183.36717
"96929",1322.3705,80.36744,184.84032
"96930",1322.3838,82.03006,186.51442
"96931",1322.3971,83.60479,188.15259
"96932",1322.4104,84.86946,189.5299
"96933",1322.4237,85.680016,190.49263
"96934",1322.437,86.01694,191.00705
"96935",1322.4503,85.943695,191.12184
"96936",1322.4636,85.592125,190.95601
"96937",1322.4769,85.10628,190.64491
"96938",1322.4902,84.61555,190.31375
"96939",1322.5035,84.19318,190.03561
"96940",1322.5168,83.87091,189.84439
"96941",1322.5302,83.64141,189.73586
"96942",1322.5435,83.46807,189.67632
"96943",1322.5568,83.29229,189.60892
"96944",1322.5701,83.06523,189.48474
"96945",1322.5834,82.75029,189.2656
"96946",1322.5967,82.34745,188.9487
"96947",1322.61,81.88846,188.56306
"96948",1322.6233,81.427025,188.16064
"96949",1322.6366,81.01442,187.79263
"96950",1322.6499,80.69215,187.50206
"96951",1322.6632,80.479744,187.3113
"96952",1322.6765,80.36988,187.21643
"96953",1322.6898,80.325935,187.18405
"96954",1322.7031,80.30396,187.17227
"96955",1322.7164,80.26978,187.1476
"96956",1322.7297,80.19409,187.08034
"96957",1322.743,80.05493,186.94724
"96958",1322.7563,79.84741,186.74142
"96959",1322.7697,79.58373,186.47298
"96960",1322.783,79.281,186.15723
"96961",1322.7963,78.95384,185.8076
"96962",1322.8096,78.61936,185.44043
"96963",1322.8229,78.28977,185.06769
"96964",1322.8362,77.98459,184.70906
"96965",1322.8495,77.71114,184.37263
"96966",1322.8628,77.471886,184.06184
"96967",1322.8761,77.27169,183.78264
"96968",1322.8894,77.10567,183.53136
"96969",1322.9027,76.96895,183.30418
"96970",1322.916,76.859085,183.0996
"96971",1322.9293,76.77852,182.92087
"96972",1322.9426,76.7248,182.76648
"96973",1322.9559,76.69306,182.63239
"96974",1322.9692,76.67353,182.5095
"96975",1322.9825,76.65888,182.3909
"96976",1322.9958,76.63935,182.26695
"96977",1323.0092,76.60761,182.13019
"96978",1323.0225,76.56611,181.98267
"96979",1323.0358,76.51972,181.82896
"96980",1323.0491,76.46845,181.66893
"96981",1323.0624,76.42451,181.51462
"96982",1323.0757,76.404976,181.38335
"96983",1323.089,76.48554,181.35156
"96984",1323.1023,76.773636,181.52983
"96985",1323.1156,77.38888,182.04425
"96986",1323.1289,78.40452,182.97829
"96987",1323.1422,79.81079,184.3347
"96988",1323.1555,81.46853,185.98653
"96989",1323.1688,83.158005,187.7219
"96990",1323.1821,84.630196,189.29277
"96991",1323.1954,85.68978,190.49706
"96992",1323.2087,86.261086,191.24617
"96993",1323.222,86.366066,191.54681
"96994",1323.2354,86.11215,191.49184
"96995",1323.2487,85.65072,191.2214
"96996",1323.262,85.11604,190.86331
"96997",1323.2753,84.613106,190.52025
"96998",1323.2886,84.20294,190.25424
"96999",1323.3019,83.90021,190.08286
"97000",1323.3152,83.685356,189.98988
"97001",1323.3285,83.509575,189.92928
"97002",1323.3418,83.32159,189.85097
"97003",1323.3551,83.070114,189.7033
"97004",1323.3684,82.73319,189.46231
"97005",1323.3817,82.32548,189.14001
"97006",1323.395,81.88846,188.77567
"97007",1323.4083,81.461205,188.40742
"97008",1323.4216,81.09987,188.09175
"97009",1323.4349,80.82887,187.85513
"97010",1323.4482,80.65797,187.71013
"97011",1323.4615,80.57252,187.64525
"97012",1323.4749,80.5359,187.62653
"97013",1323.4882,80.5066,187.61398
"97014",1323.5015,80.45045,187.57367
"97015",1323.5148,80.3357,187.473
"97016",1323.5281,80.15015,187.29794
"97017",1323.5414,79.89868,187.05118
"97018",1323.5547,79.60082,186.75015
"97019",1323.568,79.276115,186.41296
"97020",1323.5813,78.93919,186.05342
"97021",1323.5946,78.607155,185.68823
"97022",1323.6079,78.294655,185.3322
"97023",1323.6212,78.00656,184.99081
"97024",1323.6345,77.74044,184.6624
"97025",1323.6478,77.50851,184.35985
"97026",1323.6611,77.30831,184.08179
"97027",1323.6744,77.137405,183.82677
"97028",1323.6877,76.998245,183.59814
"97029",1323.701,76.893265,183.39935
"97030",1323.7144,76.81026,183.21925
"97031",1323.7277,76.749214,183.05853
"97032",1323.741,76.70771,182.91544
"97033",1323.7543,76.67597,182.7808
"97034",1323.7676,76.65156,182.65251
"97035",1323.7809,76.63203,182.52834
"97036",1323.7942,76.610054,182.40111
"97037",1323.8075,76.5832,182.26831
"97038",1323.8208,76.54658,182.12491
"97039",1323.8341,76.50263,181.97304
"97040",1323.8474,76.453804,181.81491
"97041",1323.8607,76.40986,181.66014
"97042",1323.874,76.404976,181.54306
"97043",1323.8873,76.507515,181.53325
"97044",1323.9006,76.82735,181.74394
"97045",1323.914,77.48165,182.2991
"97046",1323.9272,78.536354,183.2751
"97047",1323.9406,79.96216,184.65517
"97048",1323.9539,81.62478,186.3166
"97049",1323.9672,83.299614,188.04222
"97050",1323.9805,84.74494,189.59067
"97051",1323.9938,85.78012,190.77412
"97052",1324.0071,86.33189,191.50652
"97053",1324.0204,86.4271,191.7996
"97054",1324.0337,86.170746,191.7441
"97055",1324.047,85.70199,191.46817
"97056",1324.0603,85.15022,191.09459
"97057",1324.0736,84.62043,190.72574
"97058",1324.0869,84.173645,190.42334
"97059",1324.1002,83.82941,190.20953
"97060",1324.1135,83.57549,190.07529
"97061",1324.1268,83.36797,189.9795
"97062",1324.1401,83.15068,189.86746
"97063",1324.1534,82.879684,189.69493
"97064",1324.1667,82.53544,189.44067
"97065",1324.18,82.1326,189.11707
"97066",1324.1934,81.70779,188.7589
"97067",1324.2067,81.31472,188.4192
"97068",1324.22,80.99733,188.1429
"97069",1324.2333,80.77516,187.9519
"97070",1324.2466,80.65064,187.85161
"97071",1324.2599,80.59449,187.8158
"97072",1324.2732,80.57252,187.81241
"97073",1324.2865,80.550545,187.80833
"97074",1324.2998,80.48463,187.75963
"97075",1324.3131,80.35035,187.6405
"97076",1324.3264,80.16235,187.46346
"97077",1324.3397,79.92554,187.23172
"97078",1324.353,79.65453,186.95839
"97079",1324.3663,79.36645,186.6595
"97080",1324.3796,79.07347,186.34673
"97081",1324.393,78.77806,186.02235
"97082",1324.4062,78.485085,185.6912
"97083",1324.4196,78.19943,185.3582
"97084",1324.4329,77.93332,185.03581
"97085",1324.4462,77.696495,184.7344
"97086",1324.4595,77.486534,184.45245
"97087",1324.4728,77.31075,184.19812
"97088",1324.4861,77.1667,183.97003
"97089",1324.4994,77.049515,183.7643
"97090",1324.5127,76.95918,183.58176
"97091",1324.526,76.89082,183.41837
"97092",1324.5393,76.841995,183.27237
"97093",1324.5526,76.81026,183.14194
"97094",1324.5659,76.79805,183.03004
"97095",1324.5792,76.79805,182.92998
"97096",1324.5925,76.807816,182.83968
"97097",1324.6058,76.822464,182.75456
"97098",1324.6191,76.83711,182.6699
"97099",1324.6324,76.85176,182.58571
"97100",1324.6458,76.86885,182.50441
"97101",1324.659,76.91768,182.45538
"97102",1324.6724,77.06416,182.50554
"97103",1324.6857,77.39864,182.74828
"97104",1324.699,78.028534,183.29688
"97105",1324.7123,79.01976,184.22649
"97106",1324.7256,80.35279,185.52888
"97107",1324.7389,81.917755,187.10487
"97108",1324.7522,83.50225,188.7493
"97109",1324.7655,84.88655,190.24304
"97110",1324.7788,85.889984,191.39919
"97111",1324.7921,86.42466,192.11792
"97112",1324.8054,86.502785,192.39682
"97113",1324.8187,86.21713,192.31438
"97114",1324.832,85.694664,191.98619
"97115",1324.8453,85.06966,191.53914
"97116",1324.8586,84.45197,191.07988
"97117",1324.872,83.90997,190.677
"97118",1324.8853,83.48272,190.37193
"97119",1324.8986,83.15556,190.15361
"97120",1324.9119,82.899216,189.99588
"97121",1324.9252,82.650185,189.83745
"97122",1324.9385,82.36942,189.63951
"97123",1324.9518,82.022736,189.36687
"97124",1324.9651,81.6321,189.03944
"97125",1324.9784,81.22926,188.6876
"97126",1324.9917,80.867935,188.3647
"97127",1325.005,80.58228,188.10617
"97128",1325.0183,80.39918,187.94127
"97129",1325.0316,80.32838,187.88295
"97130",1325.0449,80.35523,187.92007
"97131",1325.0582,80.43336,188.00931
"97132",1325.0715,80.52613,188.11563
"97133",1325.0848,80.587166,188.19312
"97134",1325.0981,80.5774,188.2017
"97135",1325.1115,80.479744,188.1221
"97136",1325.1248,80.2942,187.95155
"97137",1325.1381,80.03296,187.69951
"97138",1325.1514,79.72045,187.38803
"97139",1325.1647,79.381096,187.03993
"97140",1325.178,79.03929,186.67879
"97141",1325.1913,78.712135,186.32161
"97142",1325.2046,78.4094,185.97862
"97143",1325.2179,78.1384,185.65791
"97144",1325.2312,77.89914,185.36047
"97145",1325.2445,77.68429,185.07997
"97146",1325.2578,77.4963,184.81961
"97147",1325.2711,77.33517,184.58023
"97148",1325.2844,77.20088,184.36267
"97149",1325.2977,77.09346,184.16777
"97150",1325.311,77.00801,183.99149
"97151",1325.3243,76.93721,183.82718
"97152",1325.3376,76.87862,183.67287
"97153",1325.351,76.83711,183.53381
"97154",1325.3643,76.807816,183.40567
"97155",1325.3776,76.788284,183.28638
"97156",1325.3909,76.77608,183.1738
"97157",1325.4042,76.76387,183.06084
"97158",1325.4175,76.73945,182.93529
"97159",1325.4308,76.70527,182.79921
"97160",1325.4441,76.66132,182.6523
"97161",1325.4574,76.62226,182.5089
"97162",1325.4707,76.63447,182.41554
"97163",1325.484,76.79805,182.47395
"97164",1325.4973,77.23018,182.80602
"97165",1325.5106,78.0383,183.52757
"97166",1325.5239,79.26635,184.69432
"97167",1325.5372,80.85817,186.26321
"97168",1325.5505,82.650185,188.08205
"97169",1325.5638,84.41047,189.92516
"97170",1325.5771,85.907074,191.55959
"97171",1325.5905,86.96666,192.80377
"97172",1325.6038,87.52575,193.58057
"97173",1325.6171,87.60876,193.89876
"97174",1325.6304,87.310905,193.83868
"97175",1325.6437,86.766464,193.5227
"97176",1325.657,86.10239,193.07008
"97177",1325.6703,85.42855,192.58694
"97178",1325.6836,84.81331,192.14134
"97179",1325.6969,84.2884,191.76685
"97180",1325.7102,83.85626,191.46872
"97181",1325.7235,83.4876,191.22057
"97182",1325.7368,83.140915,190.98286
"97183",1325.7501,82.78447,190.72458
"97184",1325.7634,82.40116,190.42828
"97185",1325.7767,82.01053,190.11269
"97186",1325.79,81.636986,189.80197
"97187",1325.8033,81.31472,189.53087
"97188",1325.8167,81.07301,189.33025
"97189",1325.83,80.921646,189.21242
"97190",1325.8433,80.850845,189.17043
"97191",1325.8566,80.831314,189.17749
"97192",1325.8699,80.81911,189.19127
"97193",1325.8832,80.7776,189.17537
"97194",1325.8965,80.67994,189.102
"97195",1325.9098,80.50172,188.94504
"97196",1325.9231,80.24292,188.70192
"97197",1325.9364,79.920654,188.38724
"97198",1325.9497,79.55688,188.02098
"97199",1325.963,79.168686,187.61894
"97200",1325.9763,78.77806,187.20233
"97201",1325.9896,78.397194,186.78328
"97202",1326.0029,78.04074,186.37674
"97203",1326.0162,77.71114,185.98592
"97204",1326.0295,77.41329,185.61653
"97205",1326.0428,77.14961,185.27202
"97206",1326.0562,76.92012,184.95345
"97207",1326.0695,76.72236,184.65944
"97208",1326.0828,76.558784,184.39343
"97209",1326.0961,76.42451,184.15161
"97210",1326.1094,76.317085,183.93245
"97211",1326.1227,76.22919,183.72946
"97212",1326.136,76.155945,183.53838
"97213",1326.1493,76.09247,183.35477
"97214",1326.1626,76.0412,183.18138
"97215",1326.1759,75.99481,183.01128
"97216",1326.1892,75.95087,182.84216
"97217",1326.2025,75.911804,182.67656
"97218",1326.2158,75.8703,182.5073
"97219",1326.2291,75.82391,182.33185
"97220",1326.2424,75.77997,182.1574
"97221",1326.2557,75.755554,182.0011
"97222",1326.269,75.81659,181.92949
"97223",1326.2823,76.07294,182.0551
"97224",1326.2957,76.64179,182.50124
"97225",1326.309,77.611046,183.36554
"97226",1326.3223,78.98314,184.66298
"97227",1326.3356,80.65308,186.30115
"97228",1326.3489,82.43046,188.09894
"97229",1326.3622,84.08331,189.82774
"97230",1326.3755,85.40658,191.27861
"97231",1326.3888,86.28306,192.32405
"97232",1326.4021,86.67368,192.91103
"97233",1326.4154,86.6273,193.0732
"97234",1326.4287,86.23422,192.88722
"97235",1326.442,85.61898,192.4668
"97236",1326.4553,84.89876,191.92216
"97237",1326.4686,84.18097,191.35747
"97238",1326.4819,83.52422,190.83138
"97239",1326.4952,82.967575,190.38486
"97240",1326.5085,82.496376,190.0064
"97241",1326.5219,82.07889,189.66692
"97242",1326.5352,81.68337,189.33636
"97243",1326.5485,81.29763,189.00323
"97244",1326.5618,80.919205,188.66536
"97245",1326.5751,80.5774,188.35228
"97246",1326.5884,80.308846,188.10178
"97247",1326.6017,80.13306,187.93564
"97248",1326.615,80.05737,187.8641
"97249",1326.6283,80.07202,187.88055
"97250",1326.6416,80.14526,187.95605
"97251",1326.6549,80.233154,188.0485
"97252",1326.6682,80.29664,188.11926
"97253",1326.6815,80.30152,188.13342
"97254",1326.6948,80.22583,188.06715
"97255",1326.7081,80.0647,187.91309
"97256",1326.7214,79.82788,187.67828
"97257",1326.7347,79.53246,187.37749
"97258",1326.748,79.1931,187.02351
"97259",1326.7614,78.83421,186.6394
"97260",1326.7747,78.47288,186.24164
"97261",1326.788,78.12619,185.84723
"97262",1326.8013,77.80881,185.47128
"97263",1326.8146,77.5256,185.1196
"97264",1326.8279,77.27169,184.78836
"97265",1326.8412,77.03731,184.46872
"97266",1326.8545,76.8127,184.15152
"97267",1326.8678,76.592964,183.83218
"97268",1326.8811,76.37324,183.50598
"97269",1326.8944,76.14862,183.16803
"97270",1326.9077,75.911804,182.81085
"97271",1326.921,75.68719,182.45848
"97272",1326.9343,75.50164,182.13815
"97273",1326.9476,75.36248,181.85841
"97274",1326.9609,75.2868,181.6378
"97275",1326.9742,75.28191,181.48563
"97276",1326.9875,75.3576,181.41386
"97277",1327.0009,75.55779,181.46898
"97278",1327.0142,75.96063,181.733
"97279",1327.0275,76.66865,182.31479
"97280",1327.0408,77.73556,183.27759
"97281",1327.0541,79.132065,184.60333
"97282",1327.0674,80.73365,186.1778
"97283",1327.0807,82.34989,187.81697
"97284",1327.094,83.76349,189.304
"97285",1327.1073,84.805984,190.46411
"97286",1327.1206,85.38705,191.19536
"97287",1327.1339,85.49203,191.46869
"97288",1327.1472,85.18196,191.33025
"97289",1327.1605,84.55451,190.86473
"97290",1327.1738,83.734184,190.18674
"97291",1327.1871,82.8333,189.40254
"97292",1327.2004,81.93973,188.59752
"97293",1327.2137,81.10475,187.82317
"97294",1327.227,80.34791,187.10085
"97295",1327.2404,79.66186,186.42567
"97296",1327.2537,79.04173,185.79498
"97297",1327.267,78.49729,185.2206
"97298",1327.2803,78.05539,184.73174
"97299",1327.2936,77.75021,184.36578
"97300",1327.3069,77.60372,184.14899
"97301",1327.3202,77.61837,184.08875
"97302",1327.3335,77.75998,184.15593
"97303",1327.3468,77.98215,184.30809
"97304",1327.3601,78.22385,184.48672
"97305",1327.3734,78.43626,184.64363
"97306",1327.3867,78.58762,184.74612
"97307",1327.4,78.65598,184.77034
"97308",1327.4133,78.63889,184.71124
"97309",1327.4266,78.536354,184.56616
"97310",1327.44,78.3679,184.35196
"97311",1327.4532,78.14572,184.07878
"97312",1327.4666,77.88693,183.76204
"97313",1327.4799,77.61349,183.42256
"97314",1327.4932,77.347374,183.08186
"97315",1327.5065,77.0959,182.7475
"97316",1327.5198,76.87129,182.43213
"97317",1327.5331,76.67841,182.14148
"97318",1327.5464,76.51728,181.87654
"97319",1327.5597,76.383,181.63342
"97320",1327.573,76.280464,181.41785
"97321",1327.5863,76.19745,181.2186
"97322",1327.5996,76.12665,181.02896
"97323",1327.6129,76.05585,180.83711
"97324",1327.6262,75.98993,180.64793
"97325",1327.6395,75.92401,180.4567
"97326",1327.6528,75.860535,180.26584
"97327",1327.6661,75.809265,180.0852
"97328",1327.6794,75.78241,179.92738
"97329",1327.6927,75.80194,179.81511
"97330",1327.706,75.945984,179.82796
"97331",1327.7194,76.3415,180.09679
"97332",1327.7327,77.10811,180.74907
"97333",1327.746,78.32151,181.8721
"97334",1327.7593,79.96216,183.4603
"97335",1327.7726,81.898224,185.39517
"97336",1327.7859,83.90753,187.4638
"97337",1327.7992,85.73373,189.41211
"97338",1327.8125,87.16441,191.02197
"97339",1327.8258,88.079956,192.1614
"97340",1327.8391,88.45838,192.79233
"97341",1327.8524,88.34608,192.94435
"97342",1327.8657,87.86023,192.71931
"97343",1327.879,87.13512,192.23984
"97344",1327.8923,86.29282,191.62051
"97345",1327.9056,85.43832,190.96266
"97346",1327.919,84.63996,190.33426
"97347",1327.9323,83.93439,189.77368
"97348",1327.9456,83.3167,189.27895
"97349",1327.9589,82.757614,188.8235
"97350",1327.9722,82.24002,188.39209
"97351",1327.9855,81.75906,187.98114
"97352",1327.9988,81.32937,187.60641
"97353",1328.0121,80.98024,187.29883
"97354",1328.0254,80.743416,187.09264
"97355",1328.0387,80.63355,187.00601
"97356",1328.052,80.62867,187.02094
"97357",1328.0653,80.69947,187.11139
"97358",1328.0786,80.80202,187.2358
"97359",1328.0919,80.88991,187.34875
"97360",1328.1052,80.92653,187.4132
"97361",1328.1185,80.88258,187.39821
"97362",1328.1318,80.7483,187.2915
"97363",1328.1451,80.52125,187.08784
"97364",1328.1584,80.22095,186.80383
"97365",1328.1718,79.871826,186.46161
"97366",1328.185,79.48852,186.0743
"97367",1328.1984,79.10033,185.67012
"97368",1328.2117,78.71946,185.26114
"97369",1328.225,78.363014,184.86467
"97370",1328.2383,78.03586,184.48636
"97371",1328.2516,77.74288,184.132
"97372",1328.2649,77.486534,183.80511
"97373",1328.2782,77.26681,183.50684
"97374",1328.2915,77.07637,183.23099
"97375",1328.3048,76.90791,182.97116
"97376",1328.3181,76.756546,182.72316
"97377",1328.3314,76.612495,182.47775
"97378",1328.3447,76.47578,182.23517
"97379",1328.358,76.34394,181.9932
"97380",1328.3713,76.22919,181.76419
"97381",1328.3846,76.16571,181.58287
"97382",1328.398,76.23895,181.53629
"97383",1328.4113,76.57343,181.75323
"97384",1328.4246,77.30587,182.37859
"97385",1328.4379,78.5095,183.49802
"97386",1328.4512,80.17944,185.12138
"97387",1328.4645,82.18875,187.13629
"97388",1328.4778,84.31037,189.32631
"97389",1328.4911,86.26841,191.41905
"97390",1328.5044,87.833374,193.1799
"97391",1328.5177,88.86366,194.45499
"97392",1328.531,89.325096,195.1934
"97393",1328.5443,89.2665,195.42622
"97394",1328.5576,88.80995,195.25925
"97395",1328.5709,88.10925,194.83386
"97396",1328.5842,87.30358,194.2816
"97397",1328.5975,86.505226,193.71149
"97398",1328.6108,85.78256,193.19211
"97399",1328.6241,85.16487,192.75513
"97400",1328.6375,84.63996,192.39162
"97401",1328.6508,84.16388,192.06053
"97402",1328.6641,83.69512,191.7219
"97403",1328.6774,83.20439,191.34663
"97404",1328.6907,82.68192,190.9243
"97405",1328.704,82.14969,190.47588
"97406",1328.7173,81.64919,190.04256
"97407",1328.7306,81.22438,189.66928
"97408",1328.7439,80.89967,189.38284
"97409",1328.7572,80.68482,189.1961
"97410",1328.7705,80.56519,189.09789
"97411",1328.7838,80.50172,189.05208
"97412",1328.7971,80.45533,189.02138
"97413",1328.8104,80.377205,188.95749
"97414",1328.8237,80.24048,188.83255
"97415",1328.837,80.028076,188.62766
"97416",1328.8503,79.742424,188.34288
"97417",1328.8636,79.38842,187.98082
"97418",1328.877,78.992905,187.5662
"97419",1328.8903,78.572975,187.11479
"97420",1328.9036,78.150604,186.64783
"97421",1328.9169,77.738,186.17743
"97422",1328.9302,77.35226,185.721
"97423",1328.9435,76.998245,185.28424
"97424",1328.9568,76.67841,184.8706
"97425",1328.9701,76.39277,184.48116
"97426",1328.9834,76.1413,184.11696
"97427",1328.9967,75.92157,183.77664
"97428",1329.01,75.72869,183.45631
"97429",1329.0233,75.560234,183.15437
"97430",1329.0366,75.41131,182.8667
"97431",1329.0499,75.27947,182.59146
"97432",1329.0632,75.16228,182.32675
"97433",1329.0765,75.071945,182.08524
"97434",1329.0898,75.04021,181.89949
"97435",1329.1031,75.16228,181.86656
"97436",1329.1165,75.57244,182.12555
"97437",1329.1298,76.41474,182.82948
"97438",1329.1431,77.76486,184.06757
"97439",1329.1564,79.5935,185.82635
"97440",1329.1697,81.74685,187.967
"97441",1329.183,83.96857,190.2433
"97442",1329.1963,85.97055,192.36931
"97443",1329.2096,87.50866,194.094
"97444",1329.2229,88.47059,195.29057
"97445",1329.2362,88.84413,195.92882
"97446",1329.2495,88.71229,196.07335
"97447",1329.2628,88.224,195.85732
"97448",1329.2761,87.54528,195.4356
"97449",1329.2894,86.803085,194.92918
"97450",1329.3027,86.0975,194.4362
"97451",1329.316,85.47738,194.00662
"97452",1329.3293,84.947586,193.648
"97453",1329.3427,84.48127,193.33629
"97454",1329.356,84.0296,193.02466
"97455",1329.3693,83.546196,192.66718
"97456",1329.3826,82.99443,192.22623
"97457",1329.3959,82.38163,191.707
"97458",1329.4092,81.73464,191.13445
"97459",1329.4225,81.11452,190.56853
"97460",1329.4358,80.57252,190.06136
"97461",1329.4491,80.147705,189.65443
"97462",1329.4624,79.84741,189.35876
"97463",1329.4757,79.656975,189.16356
"97464",1329.489,79.54223,189.03809
"97465",1329.5023,79.4641,188.94565
"97466",1329.5156,79.37621,188.841
"97467",1329.5289,79.24681,188.69211
"97468",1329.5422,79.05394,188.4757
"97469",1329.5555,78.79515,188.18733
"97470",1329.5688,78.467995,187.82253
"97471",1329.5822,78.09445,187.40111
"97472",1329.5955,77.68185,186.92896
"97473",1329.6088,77.25704,186.4317
"97474",1329.6221,76.83223,185.92117
"97475",1329.6354,76.42451,185.41446
"97476",1329.6487,76.04364,184.92186
"97477",1329.662,75.701836,184.45642
"97478",1329.6753,75.40154,184.0218
"97479",1329.6886,75.14763,183.62419
"97480",1329.7019,74.94011,183.26503
"97481",1329.7152,74.77898,182.94577
"97482",1329.7285,74.6569,182.66054
"97483",1329.7418,74.57145,182.40811
"97484",1329.7551,74.50309,182.1701
"97485",1329.7684,74.444496,181.93973
"97486",1329.7817,74.38834,181.70996
"97487",1329.795,74.33219,181.47844
"97488",1329.8083,74.28336,181.25249
"97489",1329.8217,74.26627,181.05675
"97490",1329.835,74.34928,180.96057
"97491",1329.8483,74.64469,181.07939
"97492",1329.8616,75.30633,181.57367
"97493",1329.8749,76.45136,182.57202
"97494",1329.8882,78.12131,184.13107
"97495",1329.9015,80.23071,186.18176
"97496",1329.9148,82.564735,188.523
"97497",1329.9281,84.82796,190.86636
"97498",1329.9414,86.73228,192.92155
"97499",1329.9547,88.08484,194.4845
"97500",1329.968,88.80995,195.46227
"97501",1329.9813,88.95155,195.87918
"97502",1329.9946,88.64149,195.84885
"97503",1330.0079,88.05798,195.53539
"97504",1330.0212,87.35729,195.0865
"97505",1330.0345,86.6688,194.62793
"97506",1330.0479,86.06088,194.22841
"97507",1330.0612,85.56283,193.91975
"97508",1330.0745,85.14046,193.67122
"97509",1330.0878,84.74494,193.43634
"97510",1330.1011,84.30793,193.14761
"97511",1330.1144,83.792786,192.76709
"97512",1330.1277,83.1873,192.28014
"97513",1330.141,82.51591,191.70834
"97514",1330.1543,81.83475,191.1058
"97515",1330.1676,81.20729,190.53569
"97516",1330.1809,80.67506,190.04118
"97517",1330.1942,80.272224,189.65945
"97518",1330.2075,79.99634,189.39207
"97519",1330.2208,79.82544,189.22107
"97520",1330.2341,79.71313,189.1033
"97521",1330.2474,79.62035,189.00156
"97522",1330.2607,79.500725,188.87006
"97523",1330.274,79.32494,188.67867
"97524",1330.2874,79.08568,188.4183
"97525",1330.3007,78.7805,188.08455
"97526",1330.314,78.41428,187.68022
"97527",1330.3273,78.013885,187.23027
"97528",1330.3406,77.58907,186.7434
"97529",1330.3539,77.154495,186.23347
"97530",1330.3672,76.7248,185.71486
"97531",1330.3805,76.317085,185.20479
"97532",1330.3938,75.93866,184.71127
"97533",1330.4071,75.596855,184.24255
"97534",1330.4204,75.30633,183.81442
"97535",1330.4337,75.0695,183.43092
"97536",1330.447,74.88884,183.09618
"97537",1330.4603,74.75456,182.80217
"97538",1330.4736,74.65934,182.54303
"97539",1330.4869,74.59342,182.31021
"97540",1330.5002,74.53971,182.08754
"97541",1330.5135,74.49821,181.8754
"97542",1330.5269,74.461586,181.66684
"97543",1330.5402,74.43229,181.46446
"97544",1330.5535,74.40299,181.26117
"97545",1330.5668,74.38346,181.06673
"97546",1330.5801,74.38102,180.88876
"97547",1330.5934,74.43961,180.77176
"97548",1330.6067,74.66178,180.82016
"97549",1330.62,75.1989,181.19046
"97550",1330.6333,76.192566,182.03409
"97551",1330.6466,77.71603,183.43857
"97552",1330.6599,79.73022,185.38138
"97553",1330.6732,82.06424,187.70697
"97554",1330.6865,84.439766,190.147
"97555",1330.6998,86.54917,192.39516
"97556",1330.7131,88.148315,194.19896
"97557",1330.7264,89.12245,195.42773
"97558",1330.7397,89.46914,196.0595
"97559",1330.753,89.2958,196.18207
"97560",1330.7664,88.76112,195.93788
"97561",1330.7797,88.04822,195.49876
"97562",1330.793,87.29626,194.9983
"97563",1330.8063,86.60288,194.53294
"97564",1330.8196,86.01694,194.15334
"97565",1330.8329,85.52865,193.85307
"97566",1330.8462,85.08675,193.58394
"97567",1330.8595,84.63752,193.29367
"97568",1330.8728,84.122375,192.92345
"97569",1330.8861,83.51934,192.44923
"97570",1330.8994,82.85039,191.89026
"97571",1330.9127,82.16678,191.29573
"97572",1330.926,81.529564,190.72623
"97573",1330.9393,80.98268,190.22714
"97574",1330.9526,80.55787,189.83304
"97575",1330.966,80.255135,189.54774
"97576",1330.9792,80.04761,189.34819
"97577",1330.9926,79.89868,189.20074
"97578",1331.0059,79.781494,189.08038
"97579",1331.0192,79.64721,188.93927
"97580",1331.0325,79.47143,188.75246
"97581",1331.0458,79.23216,188.49667
"97582",1331.0591,78.93187,188.17238
"97583",1331.0724,78.572975,187.7801
"97584",1331.0857,78.17258,187.33511
"97585",1331.099,77.747765,186.8532
"97586",1331.1123,77.315636,186.35068
"97587",1331.1256,76.88594,185.8371
"97588",1331.1389,76.47822,185.33206
"97589",1331.1522,76.09735,184.84114
"97590",1331.1655,75.755554,184.37738
"97591",1331.1788,75.45525,183.94444
"97592",1331.1921,75.20134,183.54851
"97593",1331.2054,74.99626,183.19347
"97594",1331.2188,74.83757,182.8784
"97595",1331.232,74.72282,182.60233
"97596",1331.2454,74.64225,182.35684
"97597",1331.2587,74.58366,182.13081
"97598",1331.272,74.54215,181.92004
"97599",1331.2853,74.5153,181.72263
"97600",1331.2986,74.495766,181.5317
"97601",1331.3119,74.486,181.34991
"97602",1331.3252,74.478676,181.17027
"97603",1331.3385,74.47379,180.99284
"97604",1331.3518,74.47135,180.8177
"97605",1331.3651,74.49088,180.66446
"97606",1331.3784,74.59586,180.59727
"97607",1331.3917,74.91325,180.74579
"97608",1331.405,75.58953,181.2631
"97609",1331.4183,76.75166,182.28741
"97610",1331.4316,78.44114,183.87538
"97611",1331.445,80.58228,185.9678
"97612",1331.4583,82.95537,188.35909
"97613",1331.4716,85.262535,190.7586
"97614",1331.4849,87.2108,192.87132
"97615",1331.4982,88.59022,194.47607
"97616",1331.5248,89.43984,195.8854
"97617",1331.5381,89.07851,195.81906
"97618",1331.5514,88.41688,195.44113
"97619",1331.5647,87.61852,194.9058
"97620",1331.578,86.82506,194.35042
"97621",1331.5913,86.11459,193.85324
"97622",1331.6046,85.521324,193.45105
"97623",1331.6179,85.01839,193.12065
"97624",1331.6312,84.55451,192.8136
"97625",1331.6445,84.071106,192.47252
"97626",1331.6578,83.526665,192.0553
"97627",1331.6711,82.91875,191.55759
"97628",1331.6844,82.27665,191.0067
"97629",1331.6978,81.6614,190.4626
"97630",1331.711,81.13161,189.98473
"97631",1331.7244,80.726326,189.6148
"97632",1331.7377,80.45289,189.36407
"97633",1331.751,80.2942,189.21954
"97634",1331.7643,80.21118,189.14572
"97635",1331.7776,80.15259,189.09372
"97636",1331.7909,80.07446,189.02036
"97637",1331.8042,79.94995,188.89816
"97638",1331.8175,79.75952,188.70618
"97639",1331.8308,79.4934,188.43254
"97640",1331.8441,79.15892,188.08223
"97641",1331.8574,78.77562,187.67264
"97642",1331.8707,78.35325,187.212
"97643",1331.884,77.908905,186.7162
"97644",1331.8973,77.46456,186.20651
"97645",1331.9106,77.03975,185.70247
"97646",1331.924,76.64179,185.212
"97647",1331.9373,76.28535,184.75061
"97648",1331.9506,75.97528,184.32446
"97649",1331.9639,75.716484,183.9399
"97650",1331.9772,75.50164,183.59119
"97651",1331.9905,75.318535,183.2675
"97652",1332.0038,75.16472,182.96739
"97653",1332.0171,75.03044,182.682
"97654",1332.0304,74.91325,182.40952
"97655",1332.0437,74.80583,182.14313
"97656",1332.057,74.70817,181.88315
"97657",1332.0703,74.62272,181.63232
"97658",1332.0836,74.5568,181.39836
"97659",1332.0969,74.529945,181.2014
"97660",1332.1102,74.600746,181.10126
"97661",1332.1235,74.881516,181.2133
"97662",1332.1368,75.50652,181.67836
"97663",1332.1501,76.595406,182.62682
"97664",1332.1635,78.17746,184.10248
"97665",1332.1768,80.177,186.04506
"97666",1332.1901,82.37919,188.25278
"97667",1332.2034,84.505684,190.45363
"97668",1332.2167,86.27085,192.3596
"97669",1332.23,87.484245,193.76897
"97670",1332.2433,88.07019,194.58879
"97671",1332.2566,88.06531,194.8361
"97672",1332.2699,87.59167,194.6145
"97673",1332.2832,86.81285,194.07292
"97674",1332.2965,85.892426,193.3654
"97675",1332.3098,84.95735,192.61447
"97676",1332.3231,84.088196,191.90024
"97677",1332.3364,83.32159,191.26138
"97678",1332.3497,82.63554,190.67914
"97679",1332.363,82.005646,190.1316
"97680",1332.3763,81.39773,189.58636
"97681",1332.3896,80.81178,189.0441
"97682",1332.403,80.26978,188.52747
"97683",1332.4163,79.81323,188.07935
"97684",1332.4296,79.48852,187.7488
"97685",1332.4429,79.310295,187.55458
"97686",1332.4562,79.276115,187.49884
"97687",1332.4695,79.34692,187.54701
"97688",1332.4828,79.47387,187.65355
"97689",1332.4961,79.588615,187.75185
"97690",1332.5094,79.64965,187.80002
"97691",1332.5227,79.61547,187.75488
"97692",1332.536,79.47387,187.60126
"97693",1332.5493,79.22484,187.33578
"97694",1332.5626,78.890366,186.97708
"97695",1332.5759,78.49729,186.54933
"97696",1332.5892,78.07492,186.08
"97697",1332.6025,77.65255,185.59747
"97698",1332.6158,77.24727,185.11884
"97699",1332.6292,76.87373,184.65927
"97700",1332.6425,76.53925,184.2271
"97701",1332.6558,76.241394,183.82109
"97702",1332.6691,75.98505,183.44728
"97703",1332.6824,75.76288,183.09964
"97704",1332.6957,75.57244,182.7768
"97705",1332.709,75.406425,182.47241
"97706",1332.7223,75.2575,182.17993
"97707",1332.7356,75.11833,181.89256
"97708",1332.7489,74.98894,181.61061
"97709",1332.7622,74.86687,181.33194
"97710",1332.7755,74.759445,181.0641
"97711",1332.7888,74.683754,180.82465
"97712",1332.8021,74.69108,180.66583
"97713",1332.8154,74.88396,180.69281
"97714",1332.8287,75.406425,181.0554
"97715",1332.842,76.39521,181.90063
"97716",1332.8553,77.91135,183.30412
"97717",1332.8687,79.906006,185.2335
"97718",1332.882,82.19852,187.52307
"97719",1332.8953,84.508125,189.90138
"97720",1332.9086,86.52964,192.06378
"97721",1332.9219,88.02869,193.76688
"97722",1332.9352,88.883194,194.87228
"97723",1332.9485,89.093155,195.35985
"97724",1332.9618,88.75868,195.30954
"97725",1332.9751,88.03845,194.86302
"97726",1332.9884,87.113144,194.18892
"97727",1333.0017,86.12924,193.4273
"97728",1333.015,85.19173,192.68134
"97729",1333.0283,84.35676,192.0086
"97730",1333.0416,83.62432,191.41232
"97731",1333.0549,82.96513,190.8664
"97732",1333.0682,82.337685,190.3316
"97733",1333.0815,81.72488,189.79185
"97734",1333.0948,81.13649,189.25737
"97735",1333.1082,80.6067,188.76309
"97736",1333.1215,80.18677,188.36212
"97737",1333.1348,79.91577,188.09695
"97738",1333.1481,79.79126,187.96982
"97739",1333.1614,79.79126,187.96329
"97740",1333.1747,79.869385,188.03488
"97741",1333.188,79.974365,188.13577
"97742",1333.2013,80.045166,188.20578
"97743",1333.2146,80.04761,188.20963
"97744",1333.2279,79.94995,188.11346
"97745",1333.2412,79.744865,187.90681
"97746",1333.2545,79.43481,187.58878
"97747",1333.2678,79.044174,187.18048
"97748",1333.2811,78.60227,186.70871
"97749",1333.2944,78.135956,186.19872
"97750",1333.3077,77.68185,185.68636
"97751",1333.321,77.25216,185.18422
"97752",1333.3344,76.85664,184.70284
"97753",1333.3477,76.50507,184.25304
"97754",1333.361,76.19501,183.83376
"97755",1333.3743,75.91913,183.43896
"97756",1333.3876,75.6701,183.06241
"97757",1333.4009,75.44305,182.70004
"97758",1333.4142,75.23308,182.34767
"97759",1333.4275,75.037766,182.00339
"97760",1333.4408,74.861984,181.67253
"97761",1333.4541,74.72526,181.37524
"97762",1333.4674,74.67155,181.1567
"97763",1333.4807,74.80339,181.12202
"97764",1333.494,75.25994,181.41618
"97765",1333.5073,76.18524,182.19336
"97766",1333.5206,77.65743,183.54634
"97767",1333.5339,79.64233,185.45802
"97768",1333.5472,81.971466,187.77599
"97769",1333.5605,84.37141,190.23753
"97770",1333.5739,86.519875,192.52261
"97771",1333.5872,88.16052,194.367
"97772",1333.6005,89.15175,195.61325
"97773",1333.6138,89.47646,196.22395
"97774",1333.6271,89.22255,196.26617
"97775",1333.6404,88.54871,195.88054
"97776",1333.6537,87.640495,195.23947
"97777",1333.667,86.66636,194.5041
"97778",1333.6803,85.73373,193.7798
"97779",1333.6936,84.90852,193.13377
"97780",1333.7069,84.19562,192.57426
"97781",1333.7202,83.55596,192.06572
"97782",1333.7335,82.93828,191.55916
"97783",1333.7468,82.303505,191.0162
"97784",1333.7601,81.654076,190.43877
"97785",1333.7734,81.01686,189.85324
"97786",1333.7867,80.448006,189.31616
"97787",1333.8,80.00122,188.88338
"97788",1333.8134,79.708244,188.59044
"97789",1333.8267,79.56664,188.43971
"97790",1333.84,79.54223,188.40175
"97791",1333.8533,79.588615,188.43382
"97792",1333.8666,79.64233,188.47467
"97793",1333.8799,79.65209,188.47325
"97794",1333.8932,79.57397,188.38425
"97795",1333.9065,79.3933,188.19026
"97796",1333.9198,79.10277,187.88077
"97797",1333.9331,78.72678,187.47675
"97798",1333.9464,78.28733,186.9975
"97799",1333.9597,77.821014,186.47766
"97800",1333.973,77.35714,185.9457
"97801",1333.9863,76.91524,185.4212
"97802",1333.9996,76.507515,184.91708
"97803",1334.013,76.14374,184.44417
"97804",1334.0262,75.81659,183.9965
"97805",1334.0396,75.526054,183.57524
"97806",1334.0529,75.25994,183.16931
"97807",1334.0662,75.018234,182.77948
"97808",1334.0795,74.793625,182.39919
"97809",1334.0928,74.59098,182.03384
"97810",1334.1061,74.4152,181.68903
"97811",1334.1194,74.30045,181.39975
"97812",1334.1327,74.3151,181.23628
"97813",1334.146,74.59586,181.33939
"97814",1334.1593,75.299,181.87364
"97815",1334.1726,76.55146,182.97919
"97816",1334.1859,78.37522,184.69518
"97817",1334.1992,80.66041,186.92958
"97818",1334.2125,83.15312,189.44293
"97819",1334.2258,85.523766,191.91211
"97820",1334.2391,87.464714,194.02568
"97821",1334.2524,88.77821,195.57245
"97822",1334.2657,89.393456,196.462
"97823",1334.279,89.37881,196.7409
"97824",1334.2924,88.88808,196.54326
"97825",1334.3057,88.10437,196.03731
"97826",1334.319,87.21324,195.39944
"97827",1334.3323,86.33921,194.75082
"97828",1334.3456,85.56283,194.17255
"97829",1334.3589,84.893875,193.67743
"97830",1334.3722,84.300606,193.23709
"97831",1334.3855,83.719536,192.79042
"97832",1334.3988,83.09453,192.28165
"97833",1334.4121,82.39872,191.68254
"97834",1334.4254,81.654076,191.01286
"97835",1334.4387,80.91188,190.32236
"97836",1334.452,80.235596,189.67458
"97837",1334.4653,79.69848,189.14482
"97838",1334.4786,79.33471,188.77162
"97839",1334.492,79.14183,188.55795
"97840",1334.5052,79.080795,188.4701
"97841",1334.5186,79.10277,188.46333
"97842",1334.5319,79.132065,188.46458
"97843",1334.5452,79.11253,188.41792
"97844",1334.5585,79.00023,188.27788
"97845",1334.5718,78.77562,188.02202
"97846",1334.5851,78.45335,187.66148
"97847",1334.5984,78.05051,187.21031
"97848",1334.6117,77.593956,186.69284
"97849",1334.625,77.11543,186.13913
"97850",1334.6383,76.63935,185.5729
"97851",1334.6516,76.18768,185.01622
"97852",1334.6649,75.772644,184.48204
"97853",1334.6782,75.39422,183.97151
"97854",1334.6915,75.0573,183.49066
"97855",1334.7048,74.76189,183.04079
"97856",1334.7181,74.50065,182.61586
"97857",1334.7314,74.2736,182.21695
"97858",1334.7448,74.07828,181.84268
"97859",1334.758,73.9147,181.49405
"97860",1334.7714,73.795074,181.18425
"97861",1334.7847,73.76822,180.96349
"97862",1334.798,73.944,180.94452
"97863",1334.8113,74.48112,181.29239
"97864",1334.8246,75.526054,182.16486
"97865",1334.8379,77.16182,183.66081
"97866",1334.8512,79.33227,185.74257
"97867",1334.8645,81.84207,188.2315
"97868",1334.8778,84.38117,190.82817
"97869",1334.8911,86.61265,193.19656
"97870",1334.9044,88.275276,195.06584
"97871",1334.9177,89.24696,196.29613
"97872",1334.931,89.54238,196.88051
"97873",1334.9443,89.28603,196.92236
"97874",1334.9576,88.656136,196.58266
"97875",1334.971,87.84558,196.0426
"97876",1334.9843,87.00572,195.44792
"97877",1334.9976,86.23178,194.89291
"97878",1335.0109,85.56283,194.4187
"97879",1335.0242,84.98421,194.01392
"97880",1335.0375,84.43488,193.62035
"97881",1335.0508,83.84894,193.17299
"97882",1335.0641,83.17998,192.62431
"97883",1335.0774,82.41825,191.96196
"97884",1335.0907,81.600365,191.21965
"97885",1335.104,80.79225,190.46155
"97886",1335.1173,80.07202,189.76608
"97887",1335.1306,79.50317,189.19948
"97888",1335.1439,79.114975,188.79576
"97889",1335.1572,78.90257,188.5557
"97890",1335.1705,78.819565,188.43839
"97891",1335.1838,78.80492,188.38684
"97892",1335.1971,78.79027,188.33484
"97893",1335.2104,78.7219,188.22867
"97894",1335.2238,78.56077,188.02759
"97895",1335.237,78.294655,187.71649
"97896",1335.2504,77.93332,187.30186
"97897",1335.2637,77.4963,186.80026
"97898",1335.277,77.00801,186.23373
"97899",1335.2903,76.507515,185.63974
"97900",1335.3036,76.02899,185.05208
"97901",1335.3169,75.58709,184.48608
"97902",1335.3302,75.19646,183.95755
"97903",1335.3435,74.85954,183.47052
"97904",1335.3568,74.56901,183.01935
"97905",1335.3701,74.31754,182.59816
"97906",1335.3834,74.09537,182.19841
"97907",1335.3967,73.90738,181.8259
"97908",1335.41,73.741356,181.46948
"97909",1335.4233,73.599754,181.1323
"97910",1335.4366,73.48745,180.81998
"97911",1335.45,73.43618,180.56519
"97912",1335.4633,73.52651,180.4504
"97913",1335.4766,73.9025,180.62408
"97914",1335.4899,74.73258,181.26363
"97915",1335.5032,76.14618,182.51262
"97916",1335.5165,78.15793,184.40393
"97917",1335.5298,80.64576,186.8342
"97918",1335.5431,83.32891,189.53754
"97919",1335.5564,85.86313,192.17578
"97920",1335.5697,87.92615,194.42203
"97921",1335.583,89.32021,196.06378
"97922",1335.5963,89.99405,197.02887
"97923",1335.6096,90.02579,197.37292
"97924",1335.6229,89.583885,197.24432
"97925",1335.6362,88.868546,196.82848
"97926",1335.6495,88.05554,196.29262
"97927",1335.6628,87.276726,195.76553
"97928",1335.6761,86.59312,195.30933
"97929",1335.6895,86.012054,194.9343
"97930",1335.7028,85.4847,194.59482
"97931",1335.7161,84.947586,194.2291
"97932",1335.7294,84.32502,193.76114
"97933",1335.7427,83.59014,193.16142
"97934",1335.756,82.74296,192.42644
"97935",1335.7693,81.84451,191.61371
"97936",1335.7826,80.970474,190.79732
"97937",1335.7959,80.21118,190.06836
"97938",1335.8092,79.622795,189.48657
"97939",1335.8225,79.237045,189.08904
"97940",1335.8358,79.027084,188.85522
"97941",1335.8491,78.93919,188.73692
"97942",1335.8624,78.907455,188.67203
"97943",1335.8757,78.86595,188.59637
"97944",1335.889,78.75365,188.44862
"97945",1335.9023,78.54368,188.1997
"97946",1335.9156,78.22629,187.8368
"97947",1335.929,77.81613,187.37122
"97948",1335.9423,77.33761,186.82445
"97949",1335.9556,76.824905,186.22855
"97950",1335.9689,76.30732,185.61174
"97951",1335.9822,75.81659,185.00562
"97952",1335.9955,75.36492,184.42322
"97953",1336.0088,74.966965,183.88042
"97954",1336.0221,74.63004,183.38622
"97955",1336.0354,74.34684,182.9352
"97956",1336.0487,74.107574,182.51927
"97957",1336.062,73.90982,182.13737
"97958",1336.0753,73.7438,181.78104
"97959",1336.0886,73.602196,181.44392
"97960",1336.1019,73.477684,181.11948
"97961",1336.1152,73.375145,180.81311
"97962",1336.1285,73.306786,180.53772
"97963",1336.1418,73.31655,180.33832
"97964",1336.1552,73.52163,180.33453
"97965",1336.1685,74.0856,180.69606
"97966",1336.1818,75.174484,181.60011
"97967",1336.1951,76.8835,183.15833
"97968",1336.2084,79.17601,185.35344
"97969",1336.2217,81.85184,188.00351
"97970",1336.235,84.57404,190.78358
"97971",1336.2483,86.97887,193.33134
"97972",1336.2616,88.7831,195.35367
"97973",1336.2749,89.847565,196.69261
"97974",1336.2882,90.18692,197.3397
"97975",1336.3015,89.94278,197.41391
"97976",1336.3148,89.325096,197.10693
"97977",1336.3281,88.54139,196.61464
"97978",1336.3414,87.743034,196.0832
"97979",1336.3547,87.027695,195.60983
"97980",1336.368,86.41978,195.22153
"97981",1336.3813,85.8851,194.88747
"97982",1336.3947,85.35287,194.53914
"97983",1336.408,84.749825,194.10338
"97984",1336.4213,84.017395,193.51938
"97985",1336.4346,83.14824,192.77577
"97986",1336.4479,82.18387,191.90979
"97987",1336.4612,81.19997,190.99414
"97988",1336.4745,80.28443,190.1161
"97989",1336.4878,79.52758,189.36815
"97990",1336.5011,78.975815,188.80162
"97991",1336.5144,78.62913,188.42293
"97992",1336.5277,78.45335,188.2043
"97993",1336.541,78.38987,188.09248
"97994",1336.5543,78.3679,188.02019
"97995",1336.5676,78.31663,187.91791
"97996",1336.5809,78.187225,187.7359
"97997",1336.5942,77.960175,187.4522
"97998",1336.6075,77.63058,187.05885
"97999",1336.6208,77.21553,186.56976
"98000",1336.6342,76.73701,186.00423
"98001",1336.6475,76.23651,185.40176
"98002",1336.6608,75.733574,184.78122
"98003",1336.6741,75.25506,184.16937
"98004",1336.6874,74.813156,183.5792
"98005",1336.7007,74.4152,183.01915
"98006",1336.714,74.06851,182.49794
"98007",1336.7273,73.77554,182.0196
"98008",1336.7406,73.53384,181.58339
"98009",1336.7539,73.340965,181.18845
"98010",1336.7672,73.18227,180.82166
"98011",1336.7805,73.05043,180.47676
"98012",1336.7938,72.93324,180.1424
"98013",1336.8071,72.8307,179.81902
"98014",1336.8204,72.75258,179.51685
"98015",1336.8337,72.74769,179.28548
"98016",1336.847,72.921036,179.2322
"98017",1336.8604,73.43374,179.52368
"98018",1336.8737,74.4567,180.34145
"98019",1336.887,76.10956,181.82108
"98020",1336.9003,78.38499,183.97493
"98021",1336.9136,81.109634,186.64911
"98022",1336.9269,83.963684,189.53784
"98023",1336.9402,86.556496,192.25452
"98024",1336.9535,88.56336,194.46628
"98025",1336.9668,89.80362,195.97414
"98026",1336.9801,90.26261,196.73949
"98027",1336.9934,90.08194,196.87952
"98028",1337.0067,89.47646,196.5891
"98029",1337.02,88.673225,196.082
"98030",1337.0333,87.84802,195.52783
"98031",1337.0466,87.10338,195.02844
"98032",1337.0599,86.47593,194.62297
"98033",1337.0732,85.93881,194.28822
"98034",1337.0865,85.42611,193.9611
"98035",1337.0999,84.86214,193.5667
"98036",1337.1132,84.18585,193.04236
"98037",1337.1265,83.372856,192.36017
"98038",1337.1398,82.45487,191.54759
"98039",1337.1531,81.497826,190.66727
"98040",1337.1664,80.59205,189.8083
"98041",1337.1797,79.815674,189.05043
"98042",1337.193,79.2224,188.45139
"98043",1337.2063,78.83421,188.0389
"98044",1337.2196,78.61936,187.78761
"98045",1337.2329,78.521706,187.6468
"98046",1337.2462,78.47288,187.55177
"98047",1337.2595,78.4094,187.44057
"98048",1337.2728,78.27268,187.25414
"98049",1337.2861,78.0383,186.96577
"98050",1337.2994,77.7087,186.57487
"98051",1337.3127,77.28634,186.0809
"98052",1337.326,76.79805,185.50781
"98053",1337.3394,76.26826,184.87796
"98054",1337.3527,75.72625,184.21933
"98055",1337.366,75.1989,183.55843
"98056",1337.3793,74.71061,182.9201
"98057",1337.3926,74.27604,182.32024
"98058",1337.4059,73.90982,181.77515
"98059",1337.4192,73.60952,181.28453
"98060",1337.4325,73.38003,180.85533
"98061",1337.4458,73.21156,180.48
"98062",1337.4591,73.08705,180.14334
"98063",1337.4724,72.99672,179.83698
"98064",1337.4857,72.9308,179.5522
"98065",1337.499,72.87465,179.27513
"98066",1337.5123,72.82582,179.00363
"98067",1337.5256,72.781876,178.73549
"98068",1337.539,72.75746,178.4855
"98069",1337.5522,72.7892,178.29091
"98070",1337.5656,72.97719,178.25356
"98071",1337.5789,73.48501,178.54192
"98072",1337.5922,74.48844,179.34175
"98073",1337.6055,76.12421,180.80528
"98074",1337.6188,78.39475,182.95471
"98075",1337.6321,81.146255,185.65605
"98076",1337.6454,84.054016,188.59964
"98077",1337.6587,86.73472,191.40703
"98078",1337.672,88.849014,193.73178
"98079",1337.6853,90.19913,195.35843
"98080",1337.6986,90.74601,196.22403
"98081",1337.7119,90.61906,196.43289
"98082",1337.7252,90.02823,196.1739
"98083",1337.7385,89.20058,195.65964
"98084",1337.7518,88.32899,195.07556
"98085",1337.7651,87.53063,194.53749
"98086",1337.7784,86.86412,194.10631
"98087",1337.7917,86.312355,193.76904
"98088",1337.805,85.8143,193.46825
"98089",1337.8184,85.28451,193.12015
"98090",1337.8317,84.65217,192.65295
"98091",1337.845,83.88312,192.02928
"98092",1337.8583,82.99687,191.26439
"98093",1337.8716,82.04715,190.40833
"98094",1337.8849,81.129166,189.55432
"98095",1337.8982,80.33326,188.7937
"98096",1337.9115,79.71313,188.18399
"98097",1337.9248,79.28832,187.75021
"98098",1337.9381,79.03441,187.47406
"98099",1337.9514,78.907455,187.31693
"98100",1337.9647,78.836655,187.21198
"98101",1337.978,78.75365,187.0926
"98102",1337.9913,78.61204,186.91205
"98103",1338.0046,78.380104,186.63673
"98104",1338.018,78.048065,186.25407
"98105",1338.0312,77.61837,185.76338
"98106",1338.0446,77.11055,185.18114
"98107",1338.0579,76.561226,184.54152
"98108",1338.0712,75.999695,183.87253
"98109",1338.0845,75.45525,183.20308
"98110",1338.0978,74.95476,182.56056
"98111",1338.1111,74.512856,181.961
"98112",1338.1244,74.13931,181.41599
"98113",1338.1377,73.83414,180.92766
"98114",1338.151,73.59487,180.49571
"98115",1338.1643,73.41665,180.11732
"98116",1338.1776,73.29702,179.79196
"98117",1338.1909,73.22377,179.50925
"98118",1338.2042,73.19447,179.26819
"98119",1338.2175,73.19203,179.05307
"98120",1338.2308,73.20668,178.85497
"98121",1338.2441,73.22621,178.6622
"98122",1338.2574,73.24086,178.46516
"98123",1338.2708,73.24574,178.25882
"98124",1338.284,73.24574,178.04774
"98125",1338.2974,73.25063,177.84157
"98126",1338.3107,73.29214,177.67215
"98127",1338.324,73.43862,177.60901
"98128",1338.3373,73.829254,177.7946
"98129",1338.3506,74.64225,178.41476
"98130",1338.3639,76.03876,179.64384
"98131",1338.3772,78.09445,181.57574
"98132",1338.3905,80.726326,184.14807
"98133",1338.4038,83.67803,187.12248
"98134",1338.4171,86.571144,190.13054
"98135",1338.4304,89.02724,192.79198
"98136",1338.4437,90.77043,194.81728
"98137",1338.457,91.69085,196.07426
"98138",1338.4703,91.85199,196.60074
"98139",1338.4836,91.42962,196.54874
"98140",1338.497,90.66056,196.13686
"98141",1338.5103,89.75723,195.56667
"98142",1338.5236,88.883194,194.99754
"98143",1338.5369,88.1239,194.51585
"98144",1338.5502,87.49401,194.13983
"98145",1338.5635,86.95201,193.83202
"98146",1338.5768,86.42222,193.51947
"98147",1338.5901,85.821625,193.11957
"98148",1338.6034,85.09895,192.57883
"98149",1338.6167,84.24689,191.88611
"98150",1338.63,83.3045,191.07643
"98151",1338.6433,82.34989,190.2251
"98152",1338.6566,81.47341,189.42206
"98153",1338.6699,80.7483,188.743
"98154",1338.6832,80.21118,188.22926
"98155",1338.6965,79.85718,187.88187
"98156",1338.7098,79.65453,187.67476
"98157",1338.7231,79.53979,187.54921
"98158",1338.7365,79.44457,187.4396
"98159",1338.7498,79.31274,187.2904
"98160",1338.7631,79.10521,187.0614
"98161",1338.7764,78.80003,186.72826
"98162",1338.7897,78.40208,186.2928
"98163",1338.803,77.925995,185.76678
"98164",1338.8163,77.39864,185.17462
"98165",1338.8296,76.839554,184.53424
"98166",1338.8429,76.282906,183.87883
"98167",1338.8562,75.75067,183.23044
"98168",1338.8695,75.26238,182.60936
"98169",1338.8828,74.84001,182.03894
"98170",1338.8961,74.48844,181.52612
"98171",1338.9094,74.20523,181.07068
"98172",1338.9227,73.985504,180.66986
"98173",1338.936,73.82681,180.32321
"98174",1338.9493,73.71938,180.02287
"98175",1338.9626,73.65835,179.76556
"98176",1338.976,73.63882,179.54785
"98177",1338.9893,73.651024,179.36127
"98178",1339.0026,73.67788,179.18971
"98179",1339.0159,73.71206,179.02632
"98180",1339.0292,73.7438,178.86156
"98181",1339.0425,73.76578,178.68803
"98182",1339.0558,73.7731,178.50053
"98183",1339.0691,73.7731,178.30594
"98184",1339.0824,73.77066,178.1089
"98185",1339.0957,73.79019,177.93376
"98186",1339.109,73.90494,177.85445
"98187",1339.1223,74.25895,178.01799
"98188",1339.1356,75.037766,178.6174
"98189",1339.1489,76.39765,179.82222
"98190",1339.1622,78.41917,181.73116
"98191",1339.1755,81.03151,184.2941
"98192",1339.1888,83.99054,187.28537
"98193",1339.2021,86.92027,190.33981
"98194",1339.2155,89.4374,193.0732
"98195",1339.2288,91.26116,195.19188
"98196",1339.2421,92.24994,196.53256
"98197",1339.2554,92.44282,197.10825
"98198",1339.2687,92.00824,197.0625
"98199",1339.282,91.18547,196.61499
"98200",1339.2953,90.1918,195.97087
"98201",1339.3086,89.20546,195.30302
"98202",1339.3219,88.33387,194.7191
"98203",1339.3352,87.61364,194.25931
"98204",1339.3485,87.010605,193.8942
"98205",1339.3618,86.45884,193.56151
"98206",1339.3751,85.875336,193.17984
"98207",1339.3884,85.19661,192.68472
"98208",1339.4017,84.4007,192.05121
"98209",1339.415,83.52178,191.30981
"98210",1339.4283,82.62333,190.52142
"98211",1339.4417,81.79324,189.77332
"98212",1339.455,81.09743,189.13354
"98213",1339.4683,80.5774,188.64781
"98214",1339.4816,80.233154,188.32161
"98215",1339.4949,80.0354,188.13113
"98216",1339.5082,79.923096,188.01993
"98217",1339.5215,79.835205,187.92963
"98218",1339.5348,79.71313,187.8024
"98219",1339.5481,79.51537,187.59567
"98220",1339.5614,79.219955,187.28511
"98221",1339.5747,78.82689,186.86766
"98222",1339.588,78.35325,186.35736
"98223",1339.6013,77.823456,185.77611
"98224",1339.6146,77.26681,185.15144
"98225",1339.6279,76.70527,184.50449
"98226",1339.6412,76.16571,183.86197
"98227",1339.6545,75.667656,183.2441
"98228",1339.6678,75.22575,182.66681
"98229",1339.6812,74.847336,182.13919
"98230",1339.6945,74.53483,181.66566
"98231",1339.7078,74.285805,181.24585
"98232",1339.7211,74.09537,180.87685
"98233",1339.7344,73.95865,180.5556
"98234",1339.7477,73.865875,180.27403
"98235",1339.761,73.80972,180.02618
"98236",1339.7743,73.79019,179.8132
"98237",1339.7876,73.797516,179.62646
"98238",1339.8009,73.831696,179.46681
"98239",1339.8142,73.88541,179.32776
"98240",1339.8275,73.95621,179.20747
"98241",1339.8408,74.03189,179.09428
"98242",1339.8541,74.10513,178.98102
"98243",1339.8674,74.17349,178.86516
"98244",1339.8807,74.229645,178.73923
"98245",1339.894,74.27604,178.6053
"98246",1339.9073,74.30778,178.45816
"98247",1339.9207,74.32731,178.2998
"98248",1339.934,74.34196,178.13718
"98249",1339.9473,74.35905,177.97745
"98250",1339.9606,74.43473,177.87685
"98251",1339.9739,74.686195,177.95439
"98252",1339.9872,75.29412,178.39626
"98253",1340.0005,76.45136,179.40643
"98254",1340.0138,78.28733,181.1315
"98255",1340.0271,80.79469,183.58534
"98256",1340.0404,83.79523,186.61072
"98257",1340.0537,86.94713,189.88123
"98258",1340.067,89.83536,192.98656
"98259",1340.0803,92.10101,195.55957
"98260",1340.0936,93.52926,197.36597
"98261",1340.1069,94.07858,198.33807
"98262",1340.1202,93.85397,198.55342
"98263",1340.1335,93.067825,198.20021
"98264",1340.1469,91.97406,197.51482
"98265",1340.1602,90.78996,196.70491
"98266",1340.1735,89.669334,195.92146
"98267",1340.1868,88.6952,195.2495
"98268",1340.2001,87.88464,194.71066
"98269",1340.2134,87.19371,194.26613
"98270",1340.2267,86.54917,193.84639
"98271",1340.24,85.88022,193.3821
"98272",1340.2533,85.14778,192.83342
"98273",1340.2666,84.34699,192.1935
"98274",1340.2799,83.51934,191.5017
"98275",1340.2932,82.73319,190.82553
"98276",1340.3065,82.054474,190.23222
"98277",1340.3198,81.529564,189.77151
"98278",1340.3331,81.16823,189.45798
"98279",1340.3464,80.95094,189.2772
"98280",1340.3597,80.82399,189.17998
"98281",1340.373,80.72144,189.10318
"98282",1340.3864,80.58961,188.9939
"98283",1340.3997,80.38209,188.80481
"98284",1340.413,80.07446,188.50912
"98285",1340.4263,79.66674,188.10373
"98286",1340.4396,79.168686,187.59526
"98287",1340.4529,78.607155,187.00775
"98288",1340.4662,78.009,186.36607
"98289",1340.4795,77.39864,185.6935
"98290",1340.4928,76.805374,185.01894
"98291",1340.5061,76.25361,184.36734
"98292",1340.5194,75.755554,183.75221
"98293",1340.5327,75.32342,183.18744
"98294",1340.546,74.96208,182.67996
"98295",1340.5593,74.66422,182.22467
"98296",1340.5726,74.424965,181.81866
"98297",1340.5859,74.23941,181.4589
"98298",1340.5992,74.10025,181.13971
"98299",1340.6125,74.005035,180.86012
"98300",1340.6259,73.94888,180.61662
"98301",1340.6392,73.92691,180.40555
"98302",1340.6525,73.93179,180.22064
"98303",1340.6658,73.95865,180.05786
"98304",1340.6791,74.00748,179.9179
"98305",1340.6924,74.06119,179.78433
"98306",1340.7057,74.11978,179.65733
"98307",1340.719,74.175934,179.52972
"98308",1340.7323,74.21988,179.39166
"98309",1340.7456,74.249176,179.24033
"98310",1340.7589,74.268715,179.08015
"98311",1340.7722,74.27604,178.90837
"98312",1340.7855,74.285805,178.73926
"98313",1340.7988,74.33219,178.60707
"98314",1340.8121,74.52262,178.62038
"98315",1340.8254,75.02312,178.9497
"98316",1340.8387,76.033875,179.80493
"98317",1340.852,77.70138,181.3485
"98318",1340.8654,80.059814,183.6351
"98319",1340.8787,82.97002,186.54718
"98320",1340.892,86.12192,189.7919
"98321",1340.9053,89.11513,192.97643
"98322",1340.9186,91.56634,195.71248
"98323",1340.9319,93.21919,197.72678
"98324",1340.9452,93.97604,198.89673
"98325",1340.9585,93.9028,199.26024
"98326",1340.9718,93.187454,198.97935
"98327",1340.9851,92.069275,198.27328
"98328",1340.9984,90.775314,197.35649
"98329",1341.0117,89.481346,196.39925
"98330",1341.025,88.307014,195.52121
"98331",1341.0383,87.30114,194.77493
"98332",1341.0516,86.44175,194.1437
"98333",1341.065,85.67513,193.5784
"98334",1341.0782,84.93782,193.01843
"98335",1341.0916,84.16632,192.40125
"98336",1341.1049,83.35821,191.72333
"98337",1341.1182,82.54276,191.01283
"98338",1341.1315,81.778595,190.32812
"98339",1341.1448,81.126724,189.73184
"98340",1341.1581,80.64332,189.28365
"98341",1341.1714,80.343025,189.00346
"98342",1341.1847,80.201416,188.87257
"98343",1341.198,80.16235,188.83981
"98344",1341.2113,80.16724,188.84976
"98345",1341.2246,80.14282,188.83057
"98346",1341.2379,80.0354,188.7276
"98347",1341.2512,79.815674,188.50897
"98348",1341.2645,79.47387,188.1614
"98349",1341.2778,79.027084,187.69818
"98350",1341.2911,78.49973,187.14043
"98351",1341.3044,77.92355,186.51736
"98352",1341.3177,77.330284,185.8592
"98353",1341.331,76.749214,185.1947
"98354",1341.3444,76.19989,184.5438
"98355",1341.3577,75.69451,183.91966
"98356",1341.371,75.2404,183.33101
"98357",1341.3843,74.847336,182.7892
"98358",1341.3976,74.512856,182.2937
"98359",1341.4109,74.246735,181.85611
"98360",1341.4242,74.039215,181.4688
"98361",1341.4375,73.89517,181.13847
"98362",1341.4508,73.80484,180.85736
"98363",1341.4641,73.75357,180.61249
"98364",1341.4774,73.72915,180.39287
"98365",1341.4907,73.724266,180.19202
"98366",1341.504,73.73403,180.00566
"98367",1341.5173,73.75845,179.83427
"98368",1341.5306,73.797516,179.67828
"98369",1341.544,73.848785,179.53572
"98370",1341.5573,73.900055,179.39476
"98371",1341.5706,73.92935,179.23343
"98372",1341.5839,73.936676,179.05104
"98373",1341.5972,73.94644,178.87132
"98374",1341.6105,74.03677,178.77248
"98375",1341.6238,74.3444,178.89375
"98376",1341.6371,75.0573,179.42992
"98377",1341.6504,76.33173,180.5499
"98378",1341.6637,78.22629,182.32982
"98379",1341.677,80.67017,184.71828
"98380",1341.6903,83.44366,187.51271
"98381",1341.7036,86.21225,190.38892
"98382",1341.7169,88.62684,192.99763
"98383",1341.7302,90.409096,195.04948
"98384",1341.7435,91.405205,196.37088
"98385",1341.7568,91.60784,196.92993
"98386",1341.7701,91.124435,196.80927
"98387",1341.7834,90.13321,196.16568
"98388",1341.7968,88.84413,195.19327
"98389",1341.81,87.43786,194.06337
"98390",1341.8234,86.065765,192.9237
"98391",1341.8367,84.81087,191.85837
"98392",1341.85,83.69512,190.89296
"98393",1341.8633,82.71366,190.02698
"98394",1341.8766,81.83719,189.2353
"98395",1341.8899,81.06325,188.51878
"98396",1341.9032,80.41871,187.90747
"98397",1341.9165,79.940186,187.44203
"98398",1341.9298,79.65942,187.1594
"98399",1341.9431,79.588615,187.07794
"98400",1341.9564,79.68871,187.16518
"98401",1341.9697,79.906006,187.37274
"98402",1341.983,80.17456,187.63837
"98403",1341.9963,80.43824,187.9075
"98404",1342.0096,80.64332,188.12628
"98405",1342.023,80.75075,188.25381
"98406",1342.0363,80.726326,188.25285
"98407",1342.0496,80.55787,188.1071
"98408",1342.0629,80.23804,187.8047
"98409",1342.0762,79.78882,187.36292
"98410",1342.0895,79.23949,186.80698
"98411",1342.1028,78.63401,186.17773
"98412",1342.1161,78.011444,185.51248
"98413",1342.1294,77.401085,184.83998
"98414",1342.1427,76.83223,184.18991
"98415",1342.156,76.31953,183.57822
"98416",1342.1693,75.8703,183.01398
"98417",1342.1826,75.48455,182.49918
"98418",1342.1959,75.16228,182.0358
"98419",1342.2092,74.898605,181.62094
"98420",1342.2225,74.686195,181.24911
"98421",1342.2358,74.510414,180.90727
"98422",1342.2491,74.36393,180.58923
"98423",1342.2625,74.23941,180.28859
"98424",1342.2758,74.13199,180.00114
"98425",1342.2891,74.03189,179.71767
"98426",1342.3024,73.94644,179.44571
"98427",1342.3157,73.8732,179.18329
"98428",1342.329,73.831696,178.95032
"98429",1342.3423,73.848785,178.77464
"98430",1342.3556,74.02457,178.7582
"98431",1342.3689,74.527504,179.0744
"98432",1342.3822,75.53338,179.90926
"98433",1342.3955,77.16914,181.40544
"98434",1342.4088,79.46166,183.6095
"98435",1342.4221,82.27665,186.40765
"98436",1342.4354,85.32845,189.53061
"98437",1342.4487,88.24109,192.60976
"98438",1342.462,90.66056,195.28676
"98439",1342.4753,92.34272,197.30206
"98440",1342.4886,93.17525,198.5203
"98441",1342.502,93.189896,198.94667
"98442",1342.5153,92.540474,198.70943
"98443",1342.5286,91.4345,197.99535
"98444",1342.5419,90.08194,197.0001
"98445",1342.5552,88.66834,195.90157
"98446",1342.5685,87.32311,194.82722
"98447",1342.5818,86.117035,193.84999
"98448",1342.5951,85.05989,192.98401
"98449",1342.6084,84.1297,192.21194
"98450",1342.6217,83.27764,191.48894
"98451",1342.635,82.46952,190.78325
"98452",1342.6483,81.7029,190.09381
"98453",1342.6616,81.004654,189.44878
"98454",1342.6749,80.42359,188.89911
"98455",1342.6882,79.991455,188.48021
"98456",1342.7015,79.73266,188.22115
"98457",1342.7148,79.62768,188.1078
"98458",1342.7281,79.63256,188.10104
"98459",1342.7415,79.69848,188.15547
"98460",1342.7548,79.766846,188.21442
"98461",1342.7681,79.77905,188.21933
"98462",1342.7814,79.69604,188.12941
"98463",1342.7947,79.49584,187.91971
"98464",1342.808,79.17113,187.57924
"98465",1342.8213,78.74387,187.12608
"98466",1342.8346,78.24582,186.58878
"98467",1342.8479,77.70626,185.9944
"98468",1342.8612,77.15694,185.3734
"98469",1342.8745,76.61494,184.74255
"98470",1342.8878,76.09735,184.11919
"98471",1342.9011,75.61883,183.5187
"98472",1342.9144,75.191574,182.95454
"98473",1342.9277,74.827805,182.4405
"98474",1342.941,74.527504,181.97858
"98475",1342.9543,74.29069,181.57074
"98476",1342.9677,74.110016,181.21165
"98477",1342.981,73.97818,180.89575
"98478",1342.9943,73.8732,180.60258
"98479",1343.0076,73.78531,180.32323
"98480",1343.0209,73.71206,180.05577
"98481",1343.0342,73.64126,179.78847
"98482",1343.0475,73.5729,179.5214
"98483",1343.0608,73.50698,179.25462
"98484",1343.0741,73.460594,179.00533
"98485",1343.0874,73.477684,178.81805
"98486",1343.1007,73.66567,178.80222
"98487",1343.114,74.215,179.1536
"98488",1343.1273,75.32342,180.08124
"98489",1343.1406,77.1252,181.73688
"98490",1343.1539,79.63256,184.1544
"98491",1343.1672,82.69413,187.20448
"98492",1343.1805,85.98276,190.5773
"98493",1343.1938,89.093155,193.87466
"98494",1343.2072,91.649345,196.71501
"98495",1343.2205,93.40475,198.83446
"98496",1343.2338,94.25437,200.10298
"98497",1343.2471,94.25681,200.55087
"98498",1343.2604,93.58541,200.325
"98499",1343.2737,92.477,199.64113
"98500",1343.287,91.14397,198.698
"98501",1343.3003,89.776764,197.67905
"98502",1343.3136,88.50965,196.71745
"98503",1343.3269,87.40124,195.87497
"98504",1343.3402,86.451515,195.15654
"98505",1343.3535,85.61898,194.52562
"98506",1343.3668,84.825516,193.90775
"98507",1343.3801,84.017395,193.25043
"98508",1343.3934,83.175095,192.53368
"98509",1343.4067,82.31815,191.77596
"98510",1343.42,81.50271,191.03296
"98511",1343.4333,80.79469,190.3719
"98512",1343.4467,80.23804,189.84009
"98513",1343.46,79.852295,189.46179
"98514",1343.4733,79.622795,189.22768
"98515",1343.4866,79.51293,189.10602
"98516",1343.4999,79.46899,189.04684
"98517",1343.5132,79.429924,188.99118
"98518",1343.5265,79.33959,188.88303
"98519",1343.5398,79.15892,188.68172
"98520",1343.5531,78.873276,188.36978
"98521",1343.5664,78.487526,187.94882
"98522",1343.5797,78.01633,187.43036
"98523",1343.593,77.48409,186.83614
"98524",1343.6063,76.92256,186.19598
"98525",1343.6196,76.34882,185.52608
"98526",1343.6329,75.78485,184.848
"98527",1343.6462,75.24773,184.17915
"98528",1343.6595,74.759445,183.54236
"98529",1343.6729,74.33219,182.95134
"98530",1343.6862,73.970856,182.41289
"98531",1343.6995,73.68032,181.93394
"98532",1343.7128,73.45815,181.51428
"98533",1343.7261,73.29458,181.14627
"98534",1343.7394,73.17494,180.8171
"98535",1343.7527,73.08461,180.51347
"98536",1343.766,73.01625,180.229
"98537",1343.7793,72.955215,179.94972
"98538",1343.7926,72.89906,179.67342
"98539",1343.8059,72.84779,179.40024
"98540",1343.8192,72.8185,179.14743
"98541",1343.8325,72.850235,178.95474
"98542",1343.8458,73.05287,178.93394
"98543",1343.8591,73.61196,179.27594
"98544",1343.8724,74.7277,180.19205
"98545",1343.8857,76.544136,181.84372
"98546",1343.899,79.08324,184.27483
"98547",1343.9124,82.18631,187.34924
"98548",1343.9257,85.52621,190.75746
"98549",1343.939,88.687874,194.09183
"98550",1343.9523,91.29046,196.96591
"98551",1343.9656,93.07759,199.10587
"98552",1343.9789,93.94919,200.38614
"98553",1343.9922,93.97116,200.84402
"98554",1344.0055,93.32174,200.6312
"98555",1344.0188,92.23285,199.9586
"98556",1344.0321,90.93889,199.04692
"98557",1344.0454,89.62783,198.0777
"98558",1344.0587,88.42176,197.1725
"98559",1344.072,87.37682,196.39075
"98560",1344.0853,86.485695,195.73015
"98561",1344.0986,85.69222,195.13936
"98562",1344.1119,84.92073,194.54575
"98563",1344.1252,84.11505,193.89384
"98564",1344.1385,83.24834,193.15573
"98565",1344.1519,82.340126,192.34903
"98566",1344.1652,81.449,191.53104
"98567",1344.1785,80.64576,190.77309
"98568",1344.1918,79.97925,190.12675
"98569",1344.2051,79.49096,189.63782
"98570",1344.2184,79.17113,189.30208
"98571",1344.2317,78.99779,189.10283
"98572",1344.245,78.91478,188.9885
"98573",1344.2583,78.86595,188.90575
"98574",1344.2716,78.79027,188.79462
"98575",1344.2849,78.64866,188.6152
"98576",1344.2982,78.41184,188.33615
"98577",1344.3115,78.07736,187.95204
"98578",1344.3248,77.65499,187.46959
"98579",1344.3381,77.15938,186.9007
"98580",1344.3514,76.60761,186.26016
"98581",1344.3647,76.03143,185.57797
"98582",1344.378,75.45037,184.8729
"98583",1344.3914,74.896164,184.17651
"98584",1344.4047,74.38102,183.50188
"98585",1344.418,73.92691,182.87218
"98586",1344.4313,73.53628,182.29176
"98587",1344.4446,73.214005,181.7675
"98588",1344.4579,72.96498,181.30641
"98589",1344.4712,72.78432,180.9059
"98590",1344.4845,72.66224,180.55833
"98591",1344.4978,72.59144,180.25822
"98592",1344.5111,72.55482,179.99008
"98593",1344.5244,72.54505,179.74765
"98594",1344.5377,72.54017,179.5098
"98595",1344.551,72.54017,179.27667
"98596",1344.5643,72.53773,179.0411
"98597",1344.5776,72.54505,178.81523
"98598",1344.591,72.57923,178.61644
"98599",1344.6042,72.708626,178.51393
"98600",1344.6176,73.074844,178.6523
"98601",1344.6309,73.88052,179.24156
"98602",1344.6442,75.30877,180.47858
"98603",1344.6575,77.46212,182.48532
"98604",1344.6708,80.30152,185.2454
"98605",1344.6841,83.59014,188.54346
"98606",1344.6974,86.94957,192.01508
"98607",1344.7107,89.95743,195.24011
"98608",1344.724,92.2768,197.87065
"98609",1344.7373,93.70992,199.68742
"98610",1344.7506,94.2446,200.65053
"98611",1344.7639,93.99313,200.84421
"98612",1344.7772,93.16304,200.4514
"98613",1344.7905,91.983826,199.68353
"98614",1344.8038,90.67277,198.74696
"98615",1344.8171,89.38125,197.78897
"98616",1344.8304,88.20691,196.90779
"98617",1344.8438,87.183945,196.1413
"98618",1344.857,86.29282,195.47467
"98619",1344.8704,85.472496,194.851
"98620",1344.8837,84.65949,194.20901
"98621",1344.897,83.807434,193.50256
"98622",1344.9103,82.90654,192.72066
"98623",1344.9236,81.99588,191.90083
"98624",1344.9369,81.13161,191.09894
"98625",1344.9502,80.38453,190.38722
"98626",1344.9635,79.798584,189.8133
"98627",1344.9768,79.39086,189.39928
"98628",1344.9901,79.14671,189.1361
"98629",1345.0034,79.01976,188.98247
"98630",1345.0167,78.9514,188.88347
"98631",1345.03,78.88304,188.78233
"98632",1345.0433,78.77074,188.63512
"98633",1345.0566,78.5803,188.40627
"98634",1345.07,78.28977,188.07137
"98635",1345.0833,77.90158,187.62973
"98636",1345.0966,77.4255,187.08807
"98637",1345.1099,76.88106,186.46318
"98638",1345.1232,76.297554,185.78221
"98639",1345.1365,75.70916,185.07811
"98640",1345.1498,75.14519,184.38005
"98641",1345.1631,74.6276,183.71075
"98642",1345.1764,74.16861,183.08388
"98643",1345.1897,73.77554,182.50858
"98644",1345.203,73.44839,181.98691
"98645",1345.2163,73.18959,181.52338
"98646",1345.2296,72.989395,181.11035
"98647",1345.2429,72.84291,180.74478
"98648",1345.2562,72.73548,180.4137
"98649",1345.2695,72.65736,180.10855
"98650",1345.2828,72.59876,179.8205
"98651",1345.2961,72.552376,179.54282
"98652",1345.3094,72.518196,179.2759
"98653",1345.3228,72.49622,179.02011
"98654",1345.336,72.50355,178.79294
"98655",1345.3494,72.620735,178.67586
"98656",1345.3627,72.99672,178.82124
"98657",1345.376,73.8439,179.44957
"98658",1345.3893,75.338066,180.75136
"98659",1345.4026,77.56222,182.82982
"98660",1345.4159,80.4358,185.62721
"98661",1345.4292,83.70489,188.90993
"98662",1345.4425,86.9691,192.28992
"98663",1345.4558,89.81583,195.35443
"98664",1345.4691,91.932556,197.77791
"98665",1345.4824,93.155716,199.37396
"98666",1345.4957,93.47799,200.10735
"98667",1345.509,93.04585,200.09639
"98668",1345.5223,92.08392,199.54214
"98669",1345.5356,90.829025,198.66487
"98670",1345.549,89.49111,197.66536
"98671",1345.5623,88.21179,196.68263
"98672",1345.5756,87.07164,195.7991
"98673",1345.5889,86.082855,195.03131
"98674",1345.6022,85.2137,194.35225
"98675",1345.6155,84.39094,193.69241
"98676",1345.6288,83.5584,192.9971
"98677",1345.6421,82.68925,192.23915
"98678",1345.6554,81.80301,191.43695
"98679",1345.6687,80.94606,190.63635
"98680",1345.682,80.184326,189.90419
"98681",1345.6953,79.58373,189.30936
"98682",1345.7086,79.17113,188.88374
"98683",1345.7219,78.93675,188.62346
"98684",1345.7352,78.839096,188.49257
"98685",1345.7485,78.81712,188.43431
"98686",1345.7618,78.819565,188.39978
"98687",1345.7751,78.7805,188.32382
"98688",1345.7885,78.660866,188.16608
"98689",1345.8018,78.44358,187.90694
"98690",1345.8151,78.12131,187.53603
"98691",1345.8284,77.70382,187.05983
"98692",1345.8417,77.21065,186.4949
"98693",1345.855,76.66865,185.86574
"98694",1345.8683,76.104675,185.19766
"98695",1345.8816,75.55535,184.52661
"98696",1345.8949,75.037766,183.87013
"98697",1345.9082,74.56657,183.24387
"98698",1345.9215,74.15152,182.65903
"98699",1345.9348,73.795074,182.11981
"98700",1345.9481,73.497215,181.62805
"98701",1345.9614,73.255516,181.18314
"98702",1345.9747,73.06508,180.78194
"98703",1345.988,72.918594,180.41873
"98704",1346.0013,72.80385,180.08269
"98705",1346.0146,72.71351,179.76747
"98706",1346.028,72.64271,179.46896
"98707",1346.0413,72.584114,179.18045
"98708",1346.0546,72.54261,178.9072
"98709",1346.0679,72.53773,178.66927
"98710",1346.0812,72.65003,178.54837
"98711",1346.0945,73.02602,178.69467
"98712",1346.1078,73.86832,179.31903
"98713",1346.1211,75.3576,180.6167
"98714",1346.1344,77.576866,182.69089
"98715",1346.1477,80.44312,185.48141
"98716",1346.161,83.700005,188.75215
"98717",1346.1743,86.956894,192.12466
"98718",1346.1876,89.80118,195.18636
"98719",1346.2009,91.91547,197.60693
"98720",1346.2142,93.138626,199.20245
"98721",1346.2275,93.4609,199.9353
"98722",1346.2408,93.016556,199.9116
"98723",1346.2542,92.02777,199.32959
"98724",1346.2675,90.72648,198.40416
"98725",1346.2808,89.322655,197.33554
"98726",1346.2941,87.97009,196.2743
"98727",1346.3074,86.76158,195.31487
"98728",1346.3207,85.70931,194.47389
"98729",1346.334,84.771805,193.7148
"98730",1346.3473,83.888,192.98012
"98731",1346.3606,83.01396,192.22758
"98732",1346.3739,82.12039,191.4282
"98733",1346.3872,81.23903,190.61311
"98734",1346.4005,80.42603,189.83884
"98735",1346.4138,79.74731,189.17343
"98736",1346.4271,79.24681,188.66504
"98737",1346.4404,78.94652,188.3412
"98738",1346.4537,78.81712,188.17888
"98739",1346.467,78.8098,188.13458
"98740",1346.4803,78.86107,188.14865
"98741",1346.4937,78.907455,188.15944
"98742",1346.507,78.88548,188.10332
"98743",1346.5203,78.76341,187.94641
"98744",1346.5336,78.52903,187.67339
"98745",1346.5469,78.184784,187.28317
"98746",1346.5602,77.74532,186.78699
"98747",1346.5735,77.2375,186.20871
"98748",1346.5868,76.68574,185.57062
"98749",1346.6001,76.12665,184.90796
"98750",1346.6134,75.579765,184.24004
"98751",1346.6267,75.071945,183.59409
"98752",1346.64,74.615395,182.98354
"98753",1346.6533,74.22232,182.4222
"98754",1346.6666,73.88785,181.90717
"98755",1346.6799,73.60952,181.43784
"98756",1346.6932,73.38247,181.01108
"98757",1346.7065,73.2018,180.62361
"98758",1346.7198,73.04799,180.25735
"98759",1346.7332,72.91615,179.90826
"98760",1346.7465,72.80141,179.57214
"98761",1346.7598,72.7013,179.24709
"98762",1346.7731,72.61829,178.93599
"98763",1346.7864,72.584114,178.67113
"98764",1346.7997,72.68421,178.53947
"98765",1346.813,73.0724,178.69905
"98766",1346.8263,73.94888,179.35904
"98767",1346.8396,75.474785,180.69585
"98768",1346.8529,77.70138,182.78102
"98769",1346.8662,80.52613,185.53394
"98770",1346.8795,83.67315,188.6974
"98771",1346.8928,86.74204,191.88109
"98772",1346.9061,89.34463,194.69437
"98773",1346.9194,91.20744,196.8492
"98774",1346.9327,92.18402,198.17601
"98775",1346.946,92.29145,198.66418
"98776",1346.9594,91.666435,198.42328
"98777",1346.9727,90.51896,197.64038
"98778",1346.986,89.0663,196.51643
"98779",1346.9993,87.50866,195.24211
"98780",1347.0126,85.997406,193.9655
"98781",1347.0259,84.61555,192.77106
"98782",1347.0392,83.3753,191.67505
"98783",1347.0525,82.25712,190.66235
"98784",1347.0658,81.23659,189.71236
"98785",1347.0791,80.308846,188.82326
"98786",1347.0924,79.4934,188.01747
"98787",1347.1057,78.84154,187.34978
"98788",1347.119,78.397194,186.86923
"98789",1347.1323,78.18967,186.61162
"98790",1347.1456,78.19455,186.55992
"98791",1347.1589,78.365456,186.67441
"98792",1347.1722,78.624245,186.88211
"98793",1347.1855,78.89281,187.10768
"98794",1347.1989,79.09544,187.27571
"98795",1347.2122,79.183334,187.33533
"98796",1347.2255,79.132065,187.25853
"98797",1347.2388,78.93675,187.03609
"98798",1347.2521,78.61204,186.67815
"98799",1347.2654,78.184784,186.20752
"98800",1347.2787,77.69405,185.66006
"98801",1347.292,77.16914,185.0631
"98802",1347.3053,76.646675,184.45216
"98803",1347.3186,76.155945,183.85664
"98804",1347.3319,75.70672,183.2873
"98805",1347.3452,75.30389,182.75029
"98806",1347.3585,74.94743,182.24709
"98807",1347.3718,74.62516,181.76692
"98808",1347.3851,74.33219,181.30598
"98809",1347.3984,74.06607,180.86275
"98810",1347.4117,73.81705,180.42828
"98811",1347.425,73.59243,180.01045
"98812",1347.4384,73.38735,179.60513
"98813",1347.4517,73.214005,179.22514
"98814",1347.465,73.12367,178.92274
"98815",1347.4783,73.23598,178.82016
"98816",1347.4916,73.741356,179.11417
"98817",1347.5049,74.83269,180.00992
"98818",1347.5182,76.63203,181.64778
"98819",1347.5315,79.11986,184.03036
"98820",1347.5448,82.108185,186.99118
"98821",1347.5581,85.25521,190.20409
"98822",1347.5714,88.162964,193.27606
"98823",1347.5847,90.48722,195.85541
"98824",1347.598,92.0058,197.7017
"98825",1347.6113,92.65278,198.72386
"98826",1347.6246,92.48188,198.94836
"98827",1347.638,91.65179,198.50833
"98828",1347.6512,90.372475,197.59314
"98829",1347.6646,88.85634,196.40114
"98830",1347.6779,87.28161,195.10316
"98831",1347.6912,85.770355,193.81946
"98832",1347.7045,84.37873,192.60815
"98833",1347.7178,83.1165,191.48276
"98834",1347.7311,81.96414,190.4278
"98835",1347.7444,80.919205,189.44424
"98836",1347.7577,80.00122,188.555
"98837",1347.771,79.25414,187.80795
"98838",1347.7843,78.72434,187.25484
"98839",1347.7976,78.450905,186.94153
"98840",1347.8109,78.41917,186.86137
"98841",1347.8242,78.58274,186.97554
"98842",1347.8375,78.870834,187.21935
"98843",1347.8508,79.202866,187.51608
"98844",1347.8641,79.49828,187.78659
"98845",1347.8774,79.68383,187.95645
"98846",1347.8907,79.71801,187.98074
"98847",1347.904,79.59106,187.84497
"98848",1347.9174,79.310295,187.55142
"98849",1347.9307,78.9099,187.12947
"98850",1347.944,78.42649,186.612
"98851",1347.9573,77.90158,186.03792
"98852",1347.9706,77.36202,185.43279
"98853",1347.9839,76.82979,184.81812
"98854",1347.9972,76.32685,184.21611
"98855",1348.0105,75.862976,183.63745
"98856",1348.0238,75.44305,183.08824
"98857",1348.0371,75.06706,182.56985
"98858",1348.0504,74.72526,182.0739
"98859",1348.0637,74.4152,181.599
"98860",1348.077,74.127106,181.13638
"98861",1348.0903,73.865875,180.69162
"98862",1348.1036,73.66079,180.29485
"98863",1348.117,73.616844,180.0528
"98864",1348.1302,73.90982,180.1463
"98865",1348.1436,74.75212,180.79828
"98866",1348.1569,76.30244,182.1846
"98867",1348.1702,78.59251,184.35912
"98868",1348.1835,81.4905,187.21312
"98869",1348.1968,84.68635,190.45555
"98870",1348.2101,87.767456,193.6831
"98871",1348.2234,90.34318,196.50156
"98872",1348.2367,92.137634,198.61923
"98873",1348.25,93.03609,199.89699
"98874",1348.2633,93.06294,200.33122
"98875",1348.2766,92.367134,200.04362
"98876",1348.2899,91.16838,199.23134
"98877",1348.3032,89.69131,198.10327
"98878",1348.3165,88.13367,196.84848
"98879",1348.3298,86.63706,195.60605
"98880",1348.3431,85.2723,194.4487
"98881",1348.3564,84.04181,193.38297
"98882",1348.3698,82.916306,192.38377
"98883",1348.383,81.864044,191.42265
"98884",1348.3964,80.87526,190.49213
"98885",1348.4097,79.98169,189.62592
"98886",1348.423,79.237045,188.8807
"98887",1348.4363,78.70237,188.32219
"98888",1348.4496,78.40208,187.98134
"98889",1348.4629,78.31907,187.84839
"98890",1348.4762,78.4094,187.88618
"98891",1348.4895,78.59495,188.02202
"98892",1348.5028,78.80003,188.1832
"98893",1348.5161,78.958725,188.30438
"98894",1348.5294,79.027084,188.3402
"98895",1348.5427,78.97826,188.26096
"98896",1348.556,78.819565,188.07033
"98897",1348.5693,78.56077,187.77464
"98898",1348.5826,78.21408,187.38298
"98899",1348.596,77.7966,186.90968
"98900",1348.6093,77.32296,186.36719
"98901",1348.6226,76.81026,185.77083
"98902",1348.6359,76.280464,185.14136
"98903",1348.6492,75.757996,184.50266
"98904",1348.6625,75.25994,183.87204
"98905",1348.6758,74.79607,183.26004
"98906",1348.6891,74.37858,182.67993
"98907",1348.7024,74.005035,182.13072
"98908",1348.7157,73.67544,181.61378
"98909",1348.729,73.411766,181.15247
"98910",1348.7423,73.287254,180.82207
"98911",1348.7556,73.46548,180.79051
"98912",1348.7689,74.16373,181.28456
"98913",1348.7822,75.560234,182.49869
"98914",1348.7955,77.72579,184.5255
"98915",1348.8088,80.55787,187.2865
"98916",1348.8221,83.775696,190.52176
"98917",1348.8354,86.96178,193.82584
"98918",1348.8488,89.69863,196.78024
"98919",1348.862,91.67864,199.06334
"98920",1348.8754,92.76265,200.5123
"98921",1348.8887,92.96529,201.11377
"98922",1348.902,92.44038,200.99402
"98923",1348.9153,91.41253,200.35493
"98924",1348.9286,90.12344,199.42249
"98925",1348.9419,88.76845,198.38385
"98926",1348.9552,87.47448,197.36389
"98927",1348.9685,86.30259,196.42558
"98928",1348.9818,85.25277,195.57272
"98929",1348.9951,84.27863,194.76274
"98930",1349.0084,83.3167,193.93452
"98931",1349.0217,82.3328,193.05428
"98932",1349.035,81.32937,192.12375
"98933",1349.0483,80.365,191.20093
"98934",1349.0616,79.51537,190.36272
"98935",1349.075,78.85863,189.69083
"98936",1349.0883,78.44602,189.24255
"98937",1349.1016,78.27268,189.02065
"98938",1349.1149,78.29221,188.98619
"98939",1349.1282,78.43626,189.07686
"98940",1349.1415,78.61448,189.2062
"98941",1349.1548,78.74387,189.2923
"98942",1349.1681,78.75365,189.26282
"98943",1349.1814,78.6096,189.07982
"98944",1349.1947,78.29954,188.7263
"98945",1349.208,77.85275,188.22638
"98946",1349.2213,77.30099,187.60751
"98947",1349.2346,76.69062,186.9128
"98948",1349.2479,76.068054,186.18681
"98949",1349.2612,75.46258,185.45847
"98950",1349.2745,74.89372,184.74782
"98951",1349.2878,74.37614,184.07066
"98952",1349.3011,73.9147,183.43349
"98953",1349.3145,73.50942,182.83804
"98954",1349.3278,73.15541,182.2812
"98955",1349.3411,72.86488,181.77678
"98956",1349.3544,72.64759,181.33652
"98957",1349.3677,72.57679,181.03595
"98958",1349.381,72.80141,181.0286
"98959",1349.3943,73.53628,181.53851
"98960",1349.4076,74.96452,182.76477
"98961",1349.4209,77.171585,184.81447
"98962",1349.4342,80.06714,187.62163
"98963",1349.4475,83.370415,190.927
"98964",1349.4608,86.65415,194.31607
"98965",1349.4741,89.48623,197.3561
"98966",1349.4874,91.5346,199.70091
"98967",1349.5007,92.65034,201.17711
"98968",1349.514,92.84566,201.76775
"98969",1349.5273,92.29389,201.6174
"98970",1349.5406,91.244064,200.95175
"98971",1349.554,89.952545,200.01161
"98972",1349.5673,88.636604,199.00668
"98973",1349.5806,87.432976,198.07295
"98974",1349.5939,86.400246,197.2725
"98975",1349.6072,85.51644,196.58871
"98976",1349.6205,84.70588,195.95055
"98977",1349.6338,83.878235,195.26996
"98978",1349.6471,82.9749,194.48782
"98979",1349.6604,81.986115,193.59201
"98980",1349.6737,80.955826,192.6238
"98981",1349.687,79.96704,191.66489
"98982",1349.7003,79.11742,190.81424
"98983",1349.7136,78.4802,190.14944
"98984",1349.7269,78.08957,189.71132
"98985",1349.7402,77.91867,189.48071
"98986",1349.7535,77.91135,189.40834
"98987",1349.7668,77.97238,189.4041
"98988",1349.7802,78.00412,189.37247
"98989",1349.7935,77.91379,189.21976
"98990",1349.8068,77.6379,188.87868
"98991",1349.8201,77.152054,188.31902
"98992",1349.8334,76.48554,187.5635
"98993",1349.8467,75.69207,186.6602
"98994",1349.86,74.84245,185.67596
"98995",1349.8733,74.00015,184.67249
"98996",1349.8866,73.21156,183.6964
"98997",1349.8999,72.50355,182.77625
"98998",1349.9132,71.888306,181.92674
"98999",1349.9265,71.363396,181.14835
"99000",1349.9398,70.93614,180.4512
"99001",1349.9531,70.6041,179.83592
"99002",1349.9664,70.35264,179.29083
"99003",1349.9797,70.17929,178.81601
"99004",1349.993,70.11093,178.44075
"99005",1350.0063,70.25254,178.27333
"99006",1350.0197,70.78233,178.49852
"99007",1350.033,71.91516,179.34329
"99008",1350.0463,73.8024,180.97787
"99009",1350.0596,76.453804,183.43561
"99010",1350.0729,79.693596,186.56458
"99011",1350.0862,83.158005,190.01941
"99012",1350.0995,86.397804,193.3579
"99013",1350.1128,89.01991,196.17993
"99014",1350.1261,90.78752,198.22942
"99015",1350.1394,91.63958,199.41858
"99016",1350.1527,91.68841,199.83115
"99017",1350.166,91.14885,199.65685
"99018",1350.1793,90.2797,199.1361
"99019",1350.1926,89.288475,198.46611
"99020",1350.2059,88.33387,197.80177
"99021",1350.2192,87.484245,197.21259
"99022",1350.2325,86.751816,196.71404
"99023",1350.2458,86.07065,196.24387
"99024",1350.2592,85.35775,195.72067
"99025",1350.2725,84.53254,195.0629
"99026",1350.2858,83.5584,194.23041
"99027",1350.2991,82.45487,193.23808
"99028",1350.3124,81.307396,192.16733
"99029",1350.3257,80.22339,191.12418
"99030",1350.339,79.31274,190.2205
"99031",1350.3523,78.6511,189.53738
"99032",1350.3656,78.25803,189.10216
"99033",1350.3789,78.101776,188.89146
"99034",1350.3922,78.10666,188.83702
"99035",1350.4055,78.184784,188.85597
"99036",1350.4188,78.24338,188.85783
"99037",1350.4321,78.21408,188.77364
"99038",1350.4454,78.05051,188.55424
"99039",1350.4587,77.747765,188.19058
"99040",1350.472,77.32296,187.69539
"99041",1350.4854,76.81026,187.09903
"99042",1350.4987,76.243835,186.43292
"99043",1350.512,75.65789,185.7296
"99044",1350.5253,75.07927,185.01529
"99045",1350.5386,74.53727,184.31952
"99046",1350.5519,74.0441,183.65564
"99047",1350.5652,73.60708,183.0325
"99048",1350.5785,73.22865,182.4543
"99049",1350.5918,72.903946,181.91798
"99050",1350.6051,72.62318,181.41547
"99051",1350.6184,72.376595,180.93835
"99052",1350.6317,72.17883,180.50237
"99053",1350.645,72.0885,180.16762
"99054",1350.6583,72.254524,180.08641
"99055",1350.6716,72.8893,180.47914
"99056",1350.6849,74.20279,181.57042
"99057",1350.6982,76.30488,183.49135
"99058",1350.7115,79.13939,186.21039
"99059",1350.7249,82.42802,189.47212
"99060",1350.7382,85.73861,192.8586
"99061",1350.7515,88.60975,195.90907
"99062",1350.7648,90.69962,198.268
"99063",1350.7781,91.84955,199.75229
"99064",1350.7914,92.09613,200.36917
"99065",1350.8047,91.63714,200.28818
"99066",1350.818,90.72404,199.73874
"99067",1350.8313,89.60342,198.95325
"99068",1350.8446,88.463264,198.1132
"99069",1350.8579,87.413445,197.32787
"99070",1350.8712,86.48814,196.63423
"99071",1350.8845,85.662926,196.01178
"99072",1350.8978,84.86214,195.38795
"99073",1350.9111,83.99298,194.67075
"99074",1350.9244,82.99931,193.80186
"99075",1350.9377,81.864044,192.76033
"99076",1350.951,80.62623,191.58076
"99077",1350.9644,79.38598,190.36009
"99078",1350.9777,78.25803,189.21295
"99079",1350.991,77.34005,188.24052
"99080",1351.0043,76.68574,187.50308
"99081",1351.0176,76.297554,187.01132
"99082",1351.0309,76.12421,186.72227
"99083",1351.0442,76.09247,186.56941
"99084",1351.0575,76.10712,186.46194
"99085",1351.0708,76.0827,186.31587
"99086",1351.0841,75.96307,186.07382
"99087",1351.0974,75.7116,185.6962
"99088",1351.1107,75.33074,185.18132
"99089",1351.124,74.84245,184.54712
"99090",1351.1373,74.28336,183.82686
"99091",1351.1506,73.69009,183.05493
"99092",1351.164,73.09682,182.26448
"99093",1351.1772,72.5304,181.48235
"99094",1351.1906,72.01526,180.73378
"99095",1351.2039,71.56115,180.03015
"99096",1351.2172,71.17784,179.38313
"99097",1351.2305,70.86778,178.79738
"99098",1351.2438,70.62852,178.27274
"99099",1351.2571,70.44785,177.79921
"99100",1351.2704,70.313576,177.36642
"99101",1351.2837,70.220795,176.97095
"99102",1351.297,70.17441,176.61896
"99103",1351.3103,70.22568,176.36317
"99104",1351.3236,70.50889,176.34094
"99105",1351.3369,71.24376,176.77922
"99106",1351.3502,72.6598,177.92163
"99107",1351.3635,74.89372,179.92618
"99108",1351.3768,77.91379,182.78667
"99109",1351.3901,81.47097,186.27866
"99110",1351.4034,85.12581,189.97946
"99111",1351.4167,88.38026,193.39409
"99112",1351.43,90.84856,196.12427
"99113",1351.4434,92.32563,197.94035
"99114",1351.4567,92.82124,198.82114
"99115",1351.47,92.51606,198.91661
"99116",1351.4833,91.68841,198.48009
"99117",1351.4966,90.614174,197.77112
"99118",1351.5099,89.515526,197.00417
"99119",1351.5232,88.51942,196.30542
"99120",1351.5365,87.67223,195.72447
"99121",1351.5498,86.939804,195.2318
"99122",1351.5631,86.23422,194.74309
"99123",1351.5764,85.46029,194.16397
"99124",1351.5897,84.54963,193.42395
"99125",1351.603,83.4876,192.5041
"99126",1351.6163,82.31571,191.44121
"99127",1351.6296,81.129166,190.32703
"99128",1351.643,80.03296,189.26611
"99129",1351.6562,79.13451,188.36868
"99130",1351.6696,78.48997,187.6971
"99131",1351.6829,78.10666,187.2666
"99132",1351.6962,77.943085,187.04385
"99133",1351.7095,77.93088,186.96736
"99134",1351.7228,77.9675,186.93932
"99135",1351.7361,77.9675,186.8758
"99136",1351.7494,77.86008,186.70485
"99137",1351.7627,77.61349,186.39139
"99138",1351.776,77.21797,185.9213
"99139",1351.7893,76.700386,185.31677
"99140",1351.8026,76.09247,184.60574
"99141",1351.8159,75.44549,183.83665
"99142",1351.8292,74.80095,183.04979
"99143",1351.8425,74.195465,182.28183
"99144",1351.8558,73.653465,181.55844
"99145",1351.8691,73.196915,180.90356
"99146",1351.8824,72.82582,180.31987
"99147",1351.8958,72.535286,179.80515
"99148",1351.909,72.31556,179.35214
"99149",1351.9224,72.149536,178.94598
"99150",1351.9357,72.02991,178.58102
"99151",1351.949,71.93713,178.23918
"99152",1351.9623,71.86145,177.91153
"99153",1351.9756,71.800415,177.59616
"99154",1351.9889,71.763794,177.3033
"99155",1352.0022,71.78821,177.07033
"99156",1352.0155,72.00305,177.02855
"99157",1352.0288,72.6305,177.4061
"99158",1352.0421,73.90738,178.45268
"99159",1352.0554,76.00946,180.36436
"99160",1352.0687,78.93431,183.1645
"99161",1352.082,82.4744,186.6713
"99162",1352.0953,86.202484,190.4767
"99163",1352.1086,89.61074,194.07878
"99164",1352.122,92.25483,197.02321
"99165",1352.1353,93.893036,199.04437
"99166",1352.1486,94.49119,200.07668
"99167",1352.1619,94.20798,200.2463
"99168",1352.1752,93.31197,199.7943
"99169",1352.1885,92.10101,198.99933
"99170",1352.2018,90.826584,198.10306
"99171",1352.2151,89.652245,197.26704
"99172",1352.2284,88.64637,196.5628
"99173",1352.2417,87.80652,195.99315
"99174",1352.255,87.05699,195.48758
"99175",1352.2683,86.29282,194.94394
"99176",1352.2816,85.42855,194.27632
"99177",1352.2949,84.41291,193.43033
"99178",1352.3082,83.27032,192.42564
"99179",1352.3215,82.074005,191.33153
"99180",1352.3348,80.936295,190.25864
"99181",1352.3481,79.96704,189.31865
"99182",1352.3615,79.23949,188.59006
"99183",1352.3748,78.77074,188.09753
"99184",1352.3881,78.52659,187.81497
"99185",1352.4014,78.44114,187.68347
"99186",1352.4147,78.41917,187.61278
"99187",1352.428,78.37522,187.51942
"99188",1352.4413,78.24582,187.33925
"99189",1352.4546,77.98947,187.02808
"99190",1352.4679,77.5964,186.57217
"99191",1352.4812,77.08858,185.98924
"99192",1352.4945,76.48798,185.29767
"99193",1352.5078,75.83368,184.53362
"99194",1352.5211,75.16228,183.73201
"99195",1352.5344,74.50797,182.92653
"99196",1352.5477,73.90494,182.15187
"99197",1352.561,73.37759,181.43405
"99198",1352.5743,72.938126,180.78764
"99199",1352.5876,72.59632,180.22516
"99200",1352.601,72.34974,179.74721
"99201",1352.6143,72.17883,179.33723
"99202",1352.6276,72.06897,178.98296
"99203",1352.6409,71.99817,178.6643
"99204",1352.6542,71.95422,178.3703
"99205",1352.6675,71.91516,178.0798
"99206",1352.6808,71.8761,177.78809
"99207",1352.6941,71.83948,177.49759
"99208",1352.7074,71.81995,177.22304
"99209",1352.7207,71.854126,177.00159
"99210",1352.734,72.078735,176.97163
"99211",1352.7473,72.70374,177.3491
"99212",1352.7606,73.98062,178.39798
"99213",1352.7739,76.09003,180.31927
"99214",1352.7872,79.04173,183.14879
"99215",1352.8005,82.62821,186.70532
"99216",1352.8138,86.41978,190.57903
"99217",1352.8271,89.898834,194.2587
"99218",1352.8405,92.60639,197.27559
"99219",1352.8538,94.28611,199.34926
"99220",1352.8671,94.89891,200.4085
"99221",1352.8804,94.60349,200.57867
"99222",1352.8937,93.67574,200.10728
"99223",1352.907,92.420845,199.27975
"99224",1352.9203,91.10002,198.34708
"99225",1352.9336,89.884186,197.47812
"99226",1352.9469,88.85634,196.75916
"99227",1352.9602,88.00183,196.18141
"99228",1352.9735,87.25475,195.68439
"99229",1352.9868,86.502785,195.15913
"99230",1353.0001,85.6556,194.51517
"99231",1353.0134,84.65949,193.6958
"99232",1353.0267,83.53887,192.7208
"99233",1353.04,82.354774,191.6473
"99234",1353.0533,81.2195,190.5856
"99235",1353.0667,80.23804,189.64226
"99236",1353.08,79.483635,188.8953
"99237",1353.0933,78.9807,188.37622
"99238",1353.1066,78.70481,188.06848
"99239",1353.1199,78.59739,187.92058
"99240",1353.1332,78.56809,187.84744
"99241",1353.1465,78.53147,187.76607
"99242",1353.1598,78.41917,187.60786
"99243",1353.1731,78.187225,187.32652
"99244",1353.1864,77.81613,186.89877
"99245",1353.1997,77.315636,186.33003
"99246",1353.213,76.717476,185.64798
"99247",1353.2263,76.050964,184.87889
"99248",1353.2396,75.3576,184.06212
"99249",1353.2529,74.67887,183.23831
"99250",1353.2662,74.04654,182.4397
"99251",1353.2795,73.48257,181.68968
"99252",1353.2928,73.00404,181.00749
"99253",1353.3062,72.61829,180.40312
"99254",1353.3195,72.325325,179.87947
"99255",1353.3328,72.12512,179.43944
"99256",1353.3461,72.00061,179.06883
"99257",1353.3594,71.94202,178.76025
"99258",1353.3727,71.92737,178.49379
"99259",1353.386,71.94202,178.25616
"99260",1353.3993,71.96887,178.0312
"99261",1353.4126,71.99573,177.80708
"99262",1353.4259,72.0177,177.57892
"99263",1353.4392,72.03235,177.34412
"99264",1353.4525,72.042114,177.10489
"99265",1353.4658,72.06653,176.88062
"99266",1353.4791,72.17395,176.74011
"99267",1353.4924,72.5304,176.852
"99268",1353.5057,73.38003,177.4682
"99269",1353.519,74.9572,178.8385
"99270",1353.5323,77.39132,181.11504
"99271",1353.5457,80.62867,184.27086
"99272",1353.559,84.37629,188.03813
"99273",1353.5723,88.15076,191.94936
"99274",1353.5856,91.43206,195.48537
"99275",1353.5989,93.82712,198.23767
"99276",1353.6122,95.150375,199.99303
"99277",1353.6255,95.4287,200.74481
"99278",1353.6388,94.86961,200.66788
"99279",1353.6521,93.7612,200.02414
"99280",1353.6654,92.40131,199.09428
"99281",1353.6787,91.019455,198.09996
"99282",1353.692,89.77188,197.19675
"99283",1353.7053,88.71717,196.4474
"99284",1353.7186,87.83826,195.8409
"99285",1353.7319,87.05211,195.2997
"99286",1353.7452,86.261086,194.72905
"99287",1353.7585,85.3724,194.03603
"99288",1353.7719,84.35676,193.18828
"99289",1353.7852,83.245895,192.21356
"99290",1353.7985,82.127716,191.19682
"99291",1353.8118,81.09987,190.23547
"99292",1353.8251,80.255135,189.42511
"99293",1353.8384,79.64965,188.8276
"99294",1353.8517,79.281,188.448
"99295",1353.865,79.10277,188.2473
"99296",1353.8783,79.04173,188.15822
"99297",1353.8916,79.01488,188.10141
"99298",1353.9049,78.93431,187.99005
"99299",1353.9182,78.751205,187.77364
"99300",1353.9315,78.43626,187.41966
"99301",1353.9448,77.98703,186.92157
"99302",1353.9581,77.42794,186.29958
"99303",1353.9714,76.788284,185.57954
"99304",1353.9847,76.104675,184.79556
"99305",1353.998,75.41131,183.98047
"99306",1354.0114,74.74479,183.17055
"99307",1354.0247,74.13443,182.39597
"99308",1354.038,73.59731,181.67555
"99309",1354.0513,73.145645,181.0238
"99310",1354.0646,72.781876,180.44583
"99311",1354.0779,72.51087,179.94926
"99312",1354.0912,72.325325,179.52968
"99313",1354.1045,72.21301,179.17754
"99314",1354.1178,72.1593,178.88048
"99315",1354.1311,72.14221,178.61836
"99316",1354.1444,72.149536,178.38013
"99317",1354.1577,72.16907,178.15433
"99318",1354.171,72.1886,177.92914
"99319",1354.1843,72.20325,177.69968
"99320",1354.1976,72.215454,177.46823
"99321",1354.2109,72.22278,177.23228
"99322",1354.2242,72.24719,177.01366
"99323",1354.2375,72.37171,176.8959
"99324",1354.2509,72.76967,177.05548
"99325",1354.2642,73.67788,177.73775
"99326",1354.2775,75.32098,179.18327
"99327",1354.2908,77.81369,181.52977
"99328",1354.3041,81.06813,184.71588
"99329",1354.3174,84.78157,188.4627
"99330",1354.3307,88.465706,192.29626
"99331",1354.344,91.62249,195.7176
"99332",1354.3573,93.875946,198.33426
"99333",1354.3706,95.062485,199.95442
"99334",1354.3839,95.21141,200.57405
"99335",1354.3972,94.53025,200.36826
"99336",1354.4105,93.30465,199.59673
"99337",1354.4238,91.82025,198.52809
"99338",1354.4371,90.31388,197.3911
"99339",1354.4504,88.94179,196.34131
"99340",1354.4637,87.77234,195.4513
"99341",1354.477,86.7982,194.72005
"99342",1354.4904,85.94858,194.08287
"99343",1354.5037,85.12337,193.44356
"99344",1354.517,84.24689,192.72719
"99345",1354.5303,83.302055,191.91507
"99346",1354.5436,82.31571,191.03192
"99347",1354.5569,81.36111,190.14969
"99348",1354.5702,80.52125,189.35237
"99349",1354.5835,79.871826,188.71924
"99350",1354.5968,79.43725,188.28065
"99351",1354.6101,79.20775,188.03357
"99352",1354.6234,79.132065,187.93312
"99353",1354.6367,79.132065,187.90599
"99354",1354.65,79.12718,187.87398
"99355",1354.6633,79.044174,187.76369
"99356",1354.6766,78.83421,187.52385
"99357",1354.69,78.48997,187.14317
"99358",1354.7032,78.01633,186.62234
"99359",1354.7166,77.44259,185.98662
"99360",1354.7299,76.79561,185.25972
"99361",1354.7432,76.10956,184.47353
"99362",1354.7565,75.41375,183.65614
"99363",1354.7698,74.74235,182.84142
"99364",1354.7831,74.11734,182.05211
"99365",1354.7964,73.56313,181.31407
"99366",1354.8097,73.094376,180.64417
"99367",1354.823,72.71839,180.05238
"99368",1354.8363,72.44251,179.54895
"99369",1354.8496,72.254524,179.12479
"99370",1354.8629,72.149536,178.77776
"99371",1354.8762,72.10315,178.48604
"99372",1354.8895,72.10315,178.23926
"99373",1354.9028,72.12756,178.01689
"99374",1354.9161,72.1593,177.80261
"99375",1354.9294,72.18616,177.58444
"99376",1354.9427,72.20569,177.35979
"99377",1354.956,72.217896,177.12842
"99378",1354.9694,72.2301,176.89743
"99379",1354.9827,72.25208,176.6766
"99380",1354.996,72.342415,176.52481
"99381",1355.0093,72.64271,176.5858
"99382",1355.0226,73.38003,177.0932
"99383",1355.0359,74.793625,178.29993
"99384",1355.0492,77.03975,180.38335
"99385",1355.0625,80.10376,183.35484
"99386",1355.0758,83.73907,186.9934
"99387",1355.0891,87.50866,190.87984
"99388",1355.1024,90.897385,194.5032
"99389",1355.1157,93.48043,197.42679
"99390",1355.129,95.011215,199.37883
"99391",1355.1423,95.465324,200.30203
"99392",1355.1556,94.98924,200.30923
"99393",1355.169,93.84421,199.63261
"99394",1355.1823,92.32075,198.54178
"99395",1355.1956,90.67765,197.2837
"99396",1355.2089,89.110245,196.04997
"99397",1355.2222,87.7235,194.94792
"99398",1355.2355,86.554054,194.01984
"99399",1355.2488,85.56527,193.23587
"99400",1355.2621,84.67658,192.5211
"99401",1355.2754,83.809875,191.80054
"99402",1355.2887,82.92851,191.03824
"99403",1355.302,82.04227,190.24352
"99404",1355.3153,81.19997,189.46504
"99405",1355.3286,80.46998,188.77255
"99406",1355.3419,79.91821,188.23547
"99407",1355.3552,79.56664,187.88135
"99408",1355.3685,79.40063,187.70178
"99409",1355.3818,79.37377,187.65619
"99410",1355.3951,79.42016,187.683
"99411",1355.4084,79.46166,187.70638
"99412",1355.4218,79.432365,187.66025
"99413",1355.435,79.281,187.49113
"99414",1355.4484,78.98558,187.17325
"99415",1355.4617,78.551,186.70697
"99416",1355.475,77.996796,186.10748
"99417",1355.4883,77.3547,185.40279
"99418",1355.5016,76.66621,184.63162
"99419",1355.5149,75.97772,183.83896
"99420",1355.5282,75.32098,183.05652
"99421",1355.5415,74.71793,182.30725
"99422",1355.5548,74.18326,181.60751
"99423",1355.5681,73.73159,180.97408
"99424",1355.5814,73.3605,180.40709
"99425",1355.5947,73.06264,179.90175
"99426",1355.608,72.833145,179.45546
"99427",1355.6213,72.66468,179.06303
"99428",1355.6346,72.55726,178.72638
"99429",1355.648,72.498665,178.4352
"99430",1355.6613,72.48402,178.18613
"99431",1355.6746,72.50599,177.97322
"99432",1355.6879,72.54505,177.77809
"99433",1355.7012,72.589,177.58907
"99434",1355.7145,72.62562,177.39409
"99435",1355.7278,72.64515,177.18317
"99436",1355.7411,72.65247,176.96065
"99437",1355.7544,72.65247,176.73103
"99438",1355.7677,72.65736,176.5063
"99439",1355.781,72.73304,176.35252
"99440",1355.7943,73.02602,176.41841
"99441",1355.8076,73.75845,176.9329
"99442",1355.8209,75.157394,178.1368
"99443",1355.8342,77.36446,180.19254
"99444",1355.8475,80.35523,183.10094
"99445",1355.8608,83.90021,186.65701
"99446",1355.8741,87.57946,190.45815
"99447",1355.8875,90.91203,194.02757
"99448",1355.9008,93.48531,196.94185
"99449",1355.9141,95.05272,198.93066
"99450",1355.9274,95.56298,199.91132
"99451",1355.9407,95.14061,199.97528
"99452",1355.954,94.01755,199.32536
"99453",1355.9673,92.472115,198.21797
"99454",1355.9806,90.76799,196.9036
"99455",1355.9939,89.0956,195.5677
"99456",1356.0072,87.586784,194.34312
"99457",1356.0205,86.28062,193.27405
"99458",1356.0338,85.15755,192.34724
"99459",1356.0471,84.14679,191.49767
"99460",1356.0604,83.18486,190.66533
"99461",1356.0737,82.2327,189.8127
"99462",1356.087,81.30007,188.94984
"99463",1356.1003,80.43336,188.12376
"99464",1356.1136,79.70092,187.40488
"99465",1356.127,79.15892,186.85353
"99466",1356.1403,78.82933,186.49765
"99467",1356.1536,78.69749,186.32922
"99468",1356.1669,78.71458,186.3056
"99469",1356.1802,78.81224,186.3631
"99470",1356.1935,78.91234,186.42607
"99471",1356.2068,78.94408,186.42381
"99472",1356.2201,78.85863,186.30536
"99473",1356.2334,78.63645,186.04752
"99474",1356.2467,78.28977,185.65822
"99475",1356.26,77.83566,185.15067
"99476",1356.2733,77.30343,184.5508
"99477",1356.2866,76.734566,183.89766
"99478",1356.2999,76.15839,183.21944
"99479",1356.3132,75.596855,182.53786
"99480",1356.3265,75.07927,181.88268
"99481",1356.3398,74.617836,181.26747
"99482",1356.3531,74.21744,180.69888
"99483",1356.3665,73.87076,180.1715
"99484",1356.3798,73.57534,179.68454
"99485",1356.3931,73.31899,179.22742
"99486",1356.4064,73.10658,178.80623
"99487",1356.4197,72.93324,178.41747
"99488",1356.433,72.78432,178.0477
"99489",1356.4463,72.65736,177.69525
"99490",1356.4596,72.54505,177.35349
"99491",1356.4729,72.43763,177.01309
"99492",1356.4862,72.32777,176.6669
"99493",1356.4995,72.22278,176.32216
"99494",1356.5128,72.13733,175.99367
"99495",1356.5261,72.11047,175.7211
"99496",1356.5394,72.2301,175.59418
"99497",1356.5527,72.67933,175.8006
"99498",1356.566,73.68276,176.57526
"99499",1356.5793,75.406425,178.1015
"99500",1356.5927,77.89914,180.45067
"99501",1356.606,81.02907,183.51494
"99502",1356.6193,84.47883,186.99686
"99503",1356.6326,87.82361,190.4816
"99504",1356.6459,90.64347,193.54594
"99505",1356.6592,92.64301,195.8781
"99506",1356.6725,93.68795,197.31813
"99507",1356.6858,93.802704,197.86063
"99508",1356.6991,93.12642,197.61568
"99509",1356.7124,91.878845,196.7783
"99510",1356.7257,90.29191,195.56258
"99511",1356.739,88.58045,194.17274
"99512",1356.7523,86.905624,192.76605
"99513",1356.7656,85.365074,191.4413
"99514",1356.7789,83.983215,190.2271
"99515",1356.7922,82.757614,189.12598
"99516",1356.8055,81.6614,188.11594
"99517",1356.8188,80.68482,187.19128
"99518",1356.8322,79.84497,186.37283
"99519",1356.8455,79.19066,185.71368
"99520",1356.8588,78.76097,185.2587
"99521",1356.8721,78.57786,185.03687
"99522",1356.8854,78.6218,185.03636
"99523",1356.8987,78.84642,185.21791
"99524",1356.912,79.17357,185.509
"99525",1356.9253,79.50805,185.81766
"99526",1356.9386,79.77905,186.07329
"99527",1356.9519,79.91821,186.20554
"99528",1356.9652,79.89624,186.181
"99529",1356.9785,79.69848,185.98
"99530",1356.9918,79.3518,185.62389
"99531",1357.0051,78.88548,185.13731
"99532",1357.0184,78.3386,184.5556
"99533",1357.0317,77.752655,183.91774
"99534",1357.045,77.15938,183.25423
"99535",1357.0583,76.595406,182.60149
"99536",1357.0717,76.07538,181.97507
"99537",1357.085,75.61639,181.39343
"99538",1357.0983,75.22331,180.86337
"99539",1357.1116,74.88396,180.37474
"99540",1357.1249,74.59098,179.92189
"99541",1357.1382,74.33219,179.49406
"99542",1357.1515,74.10269,179.08745
"99543",1357.1648,73.89517,178.69563
"99544",1357.1781,73.71206,178.32175
"99545",1357.1914,73.53872,177.9519
"99546",1357.2047,73.38003,177.5913
"99547",1357.218,73.24086,177.24525
"99548",1357.2313,73.14809,176.94125
"99549",1357.2446,73.18959,176.76863
"99550",1357.2579,73.53384,176.90005
"99551",1357.2712,74.39323,177.55737
"99552",1357.2845,75.931335,178.92027
"99553",1357.2979,78.20676,181.06854
"99554",1357.3112,81.09987,183.90561
"99555",1357.3245,84.334785,187.1749
"99556",1357.3378,87.50622,190.4818
"99557",1357.3511,90.213776,193.42392
"99558",1357.3644,92.157166,195.6865
"99559",1357.3777,93.19234,197.10158
"99560",1357.391,93.32662,197.64812
"99561",1357.4043,92.68696,197.42491
"99562",1357.4176,91.476006,196.61043
"99563",1357.4309,89.918365,195.4114
"99564",1357.4442,88.22156,194.02455
"99565",1357.4575,86.539406,192.59932
"99566",1357.4708,84.95979,191.22406
"99567",1357.4841,83.51934,189.9386
"99568",1357.4974,82.21561,188.74484
"99569",1357.5107,81.041275,187.63976
"99570",1357.524,80.00366,186.63469
"99571",1357.5374,79.13695,185.7681
"99572",1357.5507,78.49241,185.09659
"99573",1357.564,78.10422,184.66129
"99574",1357.5773,77.97482,184.47264
"99575",1357.5906,78.07248,184.507
"99576",1357.6039,78.331276,184.70557
"99577",1357.6172,78.66575,184.98788
"99578",1357.6305,79.00023,185.28067
"99579",1357.6438,79.26391,185.5131
"99580",1357.6571,79.40063,185.62682
"99581",1357.6704,79.38598,185.59343
"99582",1357.6837,79.20775,185.39601
"99583",1357.697,78.8806,185.0441
"99584",1357.7103,78.43137,184.55989
"99585",1357.7236,77.891815,183.97131
"99586",1357.7369,77.296104,183.30972
"99587",1357.7502,76.680855,182.60997
"99588",1357.7635,76.07782,181.90321
"99589",1357.7769,75.508965,181.21179
"99590",1357.7902,74.99382,180.5563
"99591",1357.8035,74.54215,179.9482
"99592",1357.8168,74.1564,179.39189
"99593",1357.8301,73.82681,178.87968
"99594",1357.8434,73.54604,178.406
"99595",1357.8567,73.304344,177.96262
"99596",1357.87,73.08949,177.53853
"99597",1357.8833,72.903946,177.13702
"99598",1357.8966,72.742805,176.75414
"99599",1357.9099,72.603645,176.38818
"99600",1357.9232,72.49378,176.04718
"99601",1357.9365,72.427864,175.74669
"99602",1357.9498,72.47913,175.56133
"99603",1357.9631,72.813614,175.66078
"99604",1357.9764,73.64858,176.27118
"99605",1357.9897,75.18669,177.61081
"99606",1358.003,77.50851,179.78221
"99607",1358.0164,80.54322,182.73906
"99608",1358.0297,84.017395,186.23021
"99609",1358.043,87.52575,189.8641
"99610",1358.0563,90.63126,193.2048
"99611",1358.0696,93.00191,195.90767
"99612",1358.0829,94.44724,197.75931
"99613",1358.0962,94.93553,198.69907
"99614",1358.1095,94.58396,198.81424
"99615",1358.1228,93.59518,198.2812
"99616",1358.1361,92.21088,197.32175
"99617",1358.1494,90.650795,196.14325
"99618",1358.1627,89.08827,194.91356
"99619",1358.176,87.638054,193.74734
"99620",1358.1893,86.346535,192.69452
"99621",1358.2026,85.20393,191.75024
"99622",1358.216,84.16876,190.8777
"99623",1358.2292,83.18974,190.02896
"99624",1358.2426,82.24979,189.18869
"99625",1358.2559,81.36599,188.3752
"99626",1358.2692,80.57496,187.62686
"99627",1358.2825,79.93042,187.00029
"99628",1358.2958,79.466545,186.53424
"99629",1358.3091,79.1931,186.24413
"99630",1358.3224,79.09056,186.11636
"99631",1358.3357,79.10521,186.10258
"99632",1358.349,79.18089,186.1503
"99633",1358.3623,79.24925,186.19305
"99634",1358.3756,79.256584,186.17693
"99635",1358.3889,79.14671,186.04382
"99636",1358.4022,78.905014,185.77545
"99637",1358.4155,78.538795,185.37502
"99638",1358.4288,78.07248,184.86304
"99639",1358.4421,77.52804,184.25836
"99640",1358.4554,76.93965,183.59273
"99641",1358.4688,76.3415,182.89894
"99642",1358.482,75.755554,182.19867
"99643",1358.4954,75.1989,181.50937
"99644",1358.5087,74.69108,180.85152
"99645",1358.522,74.246735,180.24127
"99646",1358.5353,73.86832,179.68306
"99647",1358.5486,73.55337,179.1765
"99648",1358.5619,73.29946,178.72113
"99649",1358.5752,73.08461,178.29689
"99650",1358.5885,72.901505,177.89767
"99651",1358.6018,72.740364,177.51471
"99652",1358.6151,72.59388,177.14136
"99653",1358.6284,72.46204,176.77808
"99654",1358.6417,72.36439,176.44485
"99655",1358.655,72.36683,176.20868
"99656",1358.6683,72.603645,176.20695
"99657",1358.6816,73.29214,176.6643
"99658",1358.695,74.64225,177.8048
"99659",1358.7083,76.77852,179.77364
"99660",1358.7216,79.674065,182.56851
"99661",1358.7349,83.11162,185.99588
"99662",1358.7482,86.70786,189.68936
"99663",1358.7615,90.01358,193.2047
"99664",1358.7748,92.65278,196.15681
"99665",1358.7881,94.38621,198.28564
"99666",1358.8014,95.147934,199.49693
"99667",1358.8147,95.02342,199.8458
"99668",1358.828,94.21774,199.5096
"99669",1358.8413,92.96529,198.70145
"99670",1358.8546,91.5053,197.64662
"99671",1358.8679,90.03311,196.53397
"99672",1358.8812,88.673225,195.48761
"99673",1358.8945,87.481804,194.56723
"99674",1358.9078,86.451515,193.77075
"99675",1358.9211,85.53109,193.05194
"99676",1358.9344,84.647285,192.34099
"99677",1358.9478,83.74883,191.58777
"99678",1358.961,82.82109,190.77718
"99679",1358.9744,81.90311,189.94736
"99680",1358.9877,81.058365,189.1621
"99681",1359.001,80.34058,188.47739
"99682",1359.0143,79.78882,187.93626
"99683",1359.0276,79.4226,187.56345
"99684",1359.0409,79.21263,187.33543
"99685",1359.0542,79.11742,187.2156
"99686",1359.0675,79.08324,187.15384
"99687",1359.0808,79.046616,187.08856
"99688",1359.0941,78.96361,186.97575
"99689",1359.1074,78.79271,186.77246
"99690",1359.1207,78.51682,186.45885
"99691",1359.134,78.14084,186.03651
"99692",1359.1473,77.679405,185.51698
"99693",1359.1606,77.152054,184.91711
"99694",1359.174,76.58076,184.25682
"99695",1359.1873,75.999695,183.56891
"99696",1359.2006,75.42596,182.87016
"99697",1359.2139,74.8864,182.18767
"99698",1359.2272,74.39323,181.5347
"99699",1359.2405,73.96353,180.9298
"99700",1359.2538,73.599754,180.37738
"99701",1359.2671,73.306786,179.8844
"99702",1359.2804,73.074844,179.4433
"99703",1359.2937,72.89418,179.04622
"99704",1359.307,72.75014,178.68011
"99705",1359.3203,72.62806,178.33148
"99706",1359.3336,72.515755,177.9888
"99707",1359.3469,72.413216,177.65237
"99708",1359.3602,72.342415,177.34448
"99709",1359.3735,72.393684,177.15645
"99710",1359.3868,72.740364,177.26543
"99711",1359.4001,73.60708,177.90527
"99712",1359.4135,75.194016,179.29243
"99713",1359.4268,77.58663,181.53487
"99714",1359.4401,80.68726,184.56007
"99715",1359.4534,84.21271,188.107
"99716",1359.4667,87.74059,191.76653
"99717",1359.48,90.829025,195.09685
"99718",1359.4933,93.14107,197.7473
"99719",1359.5066,94.51072,199.5276
"99720",1359.5199,94.93065,200.40099
"99721",1359.5332,94.54246,200.47937
"99722",1359.5465,93.573204,199.96457
"99723",1359.5598,92.26948,199.085
"99724",1359.5731,90.851,198.04994
"99725",1359.5864,89.48379,197.02182
"99726",1359.5997,88.2533,196.0877
"99727",1359.613,87.18883,195.28114
"99728",1359.6263,86.25376,194.57072
"99729",1359.6396,85.37484,193.88724
"99730",1359.653,84.48127,193.16164
"99731",1359.6663,83.53399,192.3544
"99732",1359.6796,82.55009,191.48094
"99733",1359.6929,81.58083,190.59138
"99734",1359.7062,80.70191,189.76187
"99735",1359.7195,79.97925,189.06114
"99736",1359.7328,79.449455,188.5307
"99737",1359.7461,79.11253,188.17657
"99738",1359.7594,78.93187,187.96817
"99739",1359.7727,78.853745,187.85666
"99740",1359.786,78.819565,187.78665
"99741",1359.7993,78.76341,187.6936
"99742",1359.8126,78.63645,187.528
"99743",1359.8259,78.41428,187.26321
"99744",1359.8392,78.08957,186.88895
"99745",1359.8525,77.662315,186.402
"99746",1359.8658,77.15694,185.82356
"99747",1359.8792,76.60029,185.17807
"99748",1359.8925,76.01434,184.48589
"99749",1359.9058,75.42596,183.77295
"99750",1359.9191,74.864426,183.06848
"99751",1359.9324,74.3444,182.38797
"99752",1359.9457,73.88541,181.75224
"99753",1359.959,73.48989,181.16565
"99754",1359.9723,73.162735,180.63506
"99755",1359.9856,72.89906,180.15771
"99756",1359.9989,72.68665,179.7234
"99757",1360.0122,72.515755,179.32396
"99758",1360.0255,72.376595,178.95091
"99759",1360.0388,72.256966,178.59305
"99760",1360.0521,72.149536,178.24365
"99761",1360.0654,72.06409,177.91287
"99762",1360.0787,72.027466,177.62825
"99763",1360.092,72.11536,177.467
"99764",1360.1053,72.48402,177.58926
"99765",1360.1187,73.34341,178.21378
"99766",1360.132,74.88396,179.54631
"99767",1360.1453,77.196,181.69847
"99768",1360.1586,80.198975,184.61382
"99769",1360.1719,83.63897,188.06003
"99770",1360.1852,87.113144,191.64792
"99771",1360.1985,90.18204,194.9391
"99772",1360.2118,92.49409,197.56934
"99773",1360.2251,93.87106,199.33675
"99774",1360.2384,94.3032,200.20235
"99775",1360.2517,93.92233,200.26845
"99776",1360.265,92.95308,199.73427
"99777",1360.2783,91.66888,198.85484
"99778",1360.2916,90.287025,197.83765
