"","Time..s.","PPG.trace","Preprocessed.PPG"
"10004",163.0044,76.63935,258.2926
"10005",163.01758,76.646675,258.19492
"10006",163.03076,76.63447,258.0779
"10007",163.04395,76.54902,257.8873
"10008",163.05713,76.36347,257.5939
"10009",163.07031,76.068054,257.18484
"10010",163.0835,75.67498,256.66888
"10011",163.09668,75.20378,256.06253
"10012",163.10986,74.686195,255.39507
"10013",163.12305,74.14908,254.6919
"10014",163.13623,73.62173,253.9817
"10015",163.14941,73.128555,253.28922
"10016",163.1626,72.68421,252.63014
"10017",163.17578,72.29603,252.01334
"10018",163.18896,71.95911,251.43567
"10019",163.20215,71.66369,250.88898
"10020",163.21533,71.395134,250.35991
"10021",163.22852,71.1461,249.84198
"10022",163.2417,70.91905,249.33824
"10023",163.25488,70.7335,248.86891
"10024",163.26807,70.64805,248.49388
"10025",163.28125,70.78722,248.3408
"10026",163.29443,71.36584,248.63153
"10027",163.30762,72.64515,249.64102
"10028",163.3208,74.82048,251.58652
"10029",163.33398,77.8967,254.50087
"10030",163.34717,81.64919,258.18762
"10031",163.36035,85.65316,262.24313
"10032",163.37354,89.393456,266.1601
"10033",163.38672,92.4062,269.46637
"10034",163.3999,94.42771,271.87558
"10035",163.41309,95.40673,273.30545
"10036",163.42627,95.465324,273.84552
"10037",163.43945,94.81102,273.6745
"10038",163.45264,93.68795,273.01428
"10039",163.46582,92.31342,272.0675
"10040",163.479,90.863205,271.00208
"10041",163.49219,89.43252,269.91086
"10042",163.50537,88.06287,268.83597
"10043",163.51855,86.7396,267.76468
"10044",163.53174,85.40902,266.6447
"10045",163.54492,84.02472,265.42944
"10046",163.5581,82.58671,264.11722
"10047",163.57129,81.13161,262.74295
"10048",163.58447,79.742424,261.38913
"10049",163.59766,78.52415,260.1628
"10050",163.61084,77.55489,259.14743
"10051",163.62402,76.87862,258.39474
"10052",163.6372,76.470894,257.88947
"10053",163.65039,76.27802,257.5863
"10054",163.66357,76.224304,257.41626
"10055",163.67676,76.23407,257.30804
"10056",163.68994,76.226746,257.18304
"10057",163.70312,76.155945,256.99432
"10058",163.71631,75.98749,256.70575
"10059",163.72949,75.716484,256.30936
"10060",163.74268,75.34295,255.80196
"10061",163.75586,74.89128,255.20476
"10062",163.76904,74.39323,254.54706
"10063",163.78223,73.87564,253.85426
"10064",163.79541,73.37026,253.1575
"10065",163.8086,72.89906,252.47913
"10066",163.82178,72.47913,251.8373
"10067",163.83496,72.11047,251.23361
"10068",163.84814,71.78821,250.6648
"10069",163.86133,71.502556,250.12253
"10070",163.87451,71.24864,249.60307
"10071",163.8877,71.01671,249.09766
"10072",163.90088,70.804306,248.60452
"10073",163.91406,70.61875,248.1316
"10074",163.92725,70.486916,247.7066
"10075",163.94043,70.467384,247.38979
"10076",163.95361,70.69199,247.3165
"10077",163.9668,71.39269,247.72632
"10078",163.97998,72.833145,248.8978
"10079",163.99316,75.176926,251.01761
"10080",164.00635,78.399635,254.0896
"10081",164.01953,82.2449,257.88486
"10082",164.03271,86.26841,261.97852
"10083",164.0459,89.9379,265.8439
"10084",164.05908,92.806595,269.02316
"10085",164.07227,94.63767,271.25446
"10086",164.08545,95.39941,272.4736
"10087",164.09863,95.22606,272.7815
"10088",164.11182,94.34226,272.3735
"10089",164.125,93.00435,271.4838
"10090",164.13818,91.44915,270.335
"10091",164.15137,89.850006,269.09363
"10092",164.16455,88.31434,267.86578
"10093",164.17773,86.87877,266.69003
"10094",164.19092,85.51156,265.53778
"10095",164.2041,84.15167,264.35013
"10096",164.21729,82.76494,263.09314
"10097",164.23047,81.356224,261.77084
"10098",164.24365,79.971924,260.42892
"10099",164.25684,78.712135,259.16827
"10100",164.27002,77.67208,258.08798
"10101",164.2832,76.92012,257.26328
"10102",164.29639,76.46601,256.71292
"10103",164.30957,76.280464,256.41693
"10104",164.32275,76.29023,256.31046
"10105",164.33594,76.41718,256.32147
"10106",164.34912,76.56611,256.35843
"10107",164.3623,76.67109,256.3561
"10108",164.37549,76.680855,256.26184
"10109",164.38867,76.57343,256.0507
"10110",164.40186,76.34638,255.71655
"10111",164.41504,76.02655,255.28255
"10112",164.42822,75.64568,254.77751
"10113",164.4414,75.228195,254.22395
"10114",164.45459,74.79607,253.6427
"10115",164.46777,74.36881,253.05283
"10116",164.48096,73.951324,252.45937
"10117",164.49414,73.54604,251.86507
"10118",164.50732,73.16762,251.28496
"10119",164.52051,72.81117,250.715
"10120",164.53369,72.47913,250.15831
"10121",164.54688,72.16907,249.61322
"10122",164.56006,71.89075,249.09018
"10123",164.57324,71.639275,248.5853
"10124",164.58643,71.4464,248.13115
"10125",164.59961,71.380486,247.79793
"10126",164.6128,71.58556,247.73364
"10127",164.62598,72.30091,248.18604
"10128",164.63916,73.79019,249.43472
"10129",164.65234,76.21698,251.66745
"10130",164.66553,79.51537,254.84763
"10131",164.67871,83.39971,258.71683
"10132",164.6919,87.38659,262.80994
"10133",164.70508,90.94377,266.59796
"10134",164.71826,93.6318,269.628
"10135",164.73145,95.24315,271.66534
"10136",164.74463,95.77539,272.67395
"10137",164.75781,95.379875,272.77142
"10138",164.771,94.293434,272.1656
"10139",164.78418,92.7773,271.09613
"10140",164.79736,91.070724,269.78885
"10141",164.81055,89.35195,268.41605
"10142",164.82373,87.73327,267.0896
"10143",164.83691,86.236664,265.83466
"10144",164.8501,84.825516,264.6184
"10145",164.86328,83.44854,263.39224
"10146",164.87646,82.056915,262.1084
"10147",164.88965,80.66773,260.7835
"10148",164.90283,79.34203,259.47867
"10149",164.91602,78.17502,258.29108
"10150",164.9292,77.2546,257.31363
"10151",164.94238,76.63447,256.6077
"10152",164.95557,76.3122,256.18027
"10153",164.96875,76.23651,255.98933
"10154",164.98193,76.32929,255.96451
"10155",164.99512,76.50019,256.0207
"10156",165.0083,76.66621,256.07733
"10157",165.02148,76.756546,256.06348
"10158",165.03467,76.732124,255.9377
"10159",165.04785,76.56855,255.672
"10160",165.06104,76.27558,255.27179
"10161",165.07422,75.86786,254.74768
"10162",165.0874,75.37957,254.13026
"10163",165.10059,74.844894,253.4512
"10164",165.11377,74.302895,252.74811
"10165",165.12695,73.78531,252.05249
"10166",165.14014,73.31411,251.38708
"10167",165.15332,72.89662,250.76067
"10168",165.1665,72.54017,250.18224
"10169",165.17969,72.234985,249.64394
"10170",165.19287,71.96399,249.13028
"10171",165.20605,71.7174,248.63257
"10172",165.21924,71.48791,248.14424
"10173",165.23242,71.27062,247.66095
"10174",165.2456,71.08751,247.20505
"10175",165.25879,71.01671,246.85573
"10176",165.27197,71.255974,246.81427
"10177",165.28516,72.09094,247.37599
"10178",165.29834,73.80484,248.84273
"10179",165.31152,76.541695,251.38599
"10180",165.3247,80.201416,254.93764
"10181",165.33789,84.42512,259.16763
"10182",165.35107,88.66834,263.54913
"10183",165.36426,92.37202,267.52368
"10184",165.37744,95.12108,270.65936
"10185",165.39062,96.73243,272.74326
"10186",165.40381,97.24025,273.77396
"10187",165.41699,96.82277,273.89523
"10188",165.43018,95.729,273.32718
"10189",165.44336,94.2153,272.30502
"10190",165.45654,92.508736,271.0427
"10191",165.46973,90.78752,269.71237
"10192",165.48291,89.14931,268.41125
"10193",165.4961,87.620964,267.16882
"10194",165.50928,86.16586,265.95187
"10195",165.52246,84.732735,264.71143
"10196",165.53564,83.27764,263.40424
"10197",165.54883,81.795685,262.02472
"10198",165.56201,80.34547,260.6306
"10199",165.5752,79.01976,259.3157
"10200",165.58838,77.91623,258.18155
"10201",165.60156,77.100784,257.301
"10202",165.61475,76.595406,256.70502
"10203",165.62793,76.35615,256.35938
"10204",165.64111,76.32441,256.21378
"10205",165.6543,76.41474,256.18924
"10206",165.66748,76.53925,256.20172
"10207",165.68066,76.61982,256.17413
"10208",165.69385,76.60517,256.05386
"10209",165.70703,76.46845,255.81105
"10210",165.72021,76.19745,255.42969
"10211",165.7334,75.80438,254.91779
"10212",165.74658,75.318535,254.30083
"10213",165.75977,74.77898,253.61497
"10214",165.77295,74.21744,252.89027
"10215",165.78613,73.66567,252.1578
"10216",165.79932,73.15541,251.4496
"10217",165.8125,72.69886,250.77916
"10218",165.82568,72.29359,250.14572
"10219",165.83887,71.939575,249.55089
"10220",165.85205,71.624626,248.98405
"10221",165.86523,71.33654,248.43423
"10222",165.87842,71.07042,247.89738
"10223",165.8916,70.82384,247.37175
"10224",165.90479,70.608986,246.87015
"10225",165.91797,70.47471,246.4424
"10226",165.93115,70.5626,246.23262
"10227",165.94434,71.12901,246.50412
"10228",165.95752,72.48402,247.58191
"10229",165.9707,74.864426,249.72745
"10230",165.98389,78.28245,252.98499
"10231",165.99707,82.47929,257.12814
"10232",166.01025,86.956894,261.68323
"10233",166.02344,91.11955,266.0633
"10234",166.03662,94.4448,269.73602
"10235",166.0498,96.639656,272.38226
"10236",166.06299,97.652855,273.91547
"10237",166.07617,97.62112,274.43536
"10238",166.08936,96.78371,274.14862
"10239",166.10254,95.40429,273.2937
"10240",166.11572,93.729454,272.10025
"10241",166.1289,91.95941,270.75925
"10242",166.14209,90.230865,269.40442
"10243",166.15527,88.59998,268.09326
"10244",166.16846,87.064316,266.82635
"10245",166.18164,85.575035,265.55783
"10246",166.19482,84.08331,264.24033
"10247",166.20801,82.56718,262.8518
"10248",166.22119,81.05592,261.42078
"10249",166.23438,79.62035,260.01822
"10250",166.24756,78.35569,258.7417
"10251",166.26074,77.34493,257.67957
"10252",166.27393,76.629585,256.88126
"10253",166.28711,76.20233,256.34866
"10254",166.3003,76.02167,256.04932
"10255",166.31348,76.016785,255.9201
"10256",166.32666,76.102234,255.88107
"10257",166.33984,76.19745,255.85448
"10258",166.35303,76.23651,255.7747
"10259",166.36621,76.17792,255.5985
"10260",166.3794,75.999695,255.30083
"10261",166.39258,75.70428,254.8804
"10262",166.40576,75.30877,254.35065
"10263",166.41895,74.83513,253.73041
"10264",166.43213,74.31754,253.05142
"10265",166.44531,73.78531,252.34161
"10266",166.4585,73.26528,251.62738
"10267",166.47168,72.77699,250.92863
"10268",166.48486,72.33265,250.25858
"10269",166.49805,71.92737,249.6137
"10270",166.51123,71.55627,248.99033
"10271",166.52441,71.21202,248.38222
"10272",166.5376,70.889755,247.78532
"10273",166.55078,70.58213,247.19301
"10274",166.56396,70.30625,246.62282
"10275",166.57715,70.101166,246.1148
"10276",166.59033,70.08896,245.79326
"10277",166.60352,70.49912,245.8937
"10278",166.6167,71.639275,246.73695
"10279",166.62988,73.77554,248.61195
"10280",166.64307,76.978714,251.6206
"10281",166.65625,81.04372,255.59119
"10282",166.66943,85.514,260.0941
"10283",166.68262,89.80362,264.55603
"10284",166.6958,93.34615,268.40494
"10285",166.70898,95.78027,271.25613
"10286",166.72217,96.99855,272.96753
"10287",166.73535,97.10841,273.60858
"10288",166.74854,96.32227,273.3571
"10289",166.76172,94.91356,272.45844
"10290",166.7749,93.14839,271.1593
"10291",166.78809,91.25872,269.6805
"10292",166.80127,89.40078,268.1744
"10293",166.81445,87.657585,266.72498
"10294",166.82764,86.04379,265.3505
"10295",166.84082,84.52033,264.0159
"10296",166.854,83.02861,262.66544
"10297",166.86719,81.54177,261.27325
"10298",166.88037,80.08423,259.8639
"10299",166.89355,78.72434,258.50665
"10300",166.90674,77.55001,257.29245
"10301",166.91992,76.63935,256.30524
"10302",166.9331,76.036316,255.59718
"10303",166.94629,75.736015,255.17302
"10304",166.95947,75.68719,254.99094
"10305",166.97266,75.82147,254.99045
"10306",166.98584,76.0412,255.07959
"10307",166.99902,76.27314,255.18782
"10308",167.0122,76.4416,255.2398
"10309",167.02539,76.50507,255.19208
"10310",167.03857,76.436714,255.0145
"10311",167.05176,76.23407,254.7005
"10312",167.06494,75.91669,254.26543
"10313",167.07812,75.50652,253.72766
"10314",167.09131,75.04021,253.12093
"10315",167.10449,74.54948,252.4752
"10316",167.11768,74.056305,251.8117
"10317",167.13086,73.57778,251.14745
"10318",167.14404,73.12367,250.49265
"10319",167.15723,72.69642,249.85051
"10320",167.17041,72.30335,249.2292
"10321",167.1836,71.94202,248.62735
"10322",167.19678,71.60265,248.03618
"10323",167.20996,71.28527,247.45638
"10324",167.22314,71.028915,246.92769
"10325",167.23633,70.941025,246.55945
"10326",167.24951,71.26574,246.60107
"10327",167.2627,72.325325,247.38771
"10328",167.27588,74.39811,249.22066
"10329",167.28906,77.557335,252.20482
"10330",167.30225,81.59792,256.16907
"10331",167.31543,86.06088,260.68198
"10332",167.32861,90.34318,265.1537
"10333",167.3418,93.86618,268.9999
"10334",167.35498,96.26856,271.8356
"10335",167.36816,97.43801,273.51343
"10336",167.38135,97.46975,274.0901
"10337",167.39453,96.59815,273.7644
"10338",167.40771,95.08934,272.7743
"10339",167.4209,93.21919,271.37567
"10340",167.43408,91.21721,269.78677
"10341",167.44727,89.249405,268.1695
"10342",167.46045,87.40124,266.61038
"10343",167.47363,85.68734,265.12778
"10344",167.48682,84.08087,263.69904
"10345",167.5,82.53788,262.28357
"10346",167.51318,81.04616,260.87115
"10347",167.52637,79.63012,259.48782
"10348",167.53955,78.363014,258.20917
"10349",167.55273,77.332726,257.12772
"10350",167.56592,76.60517,256.3168
"10351",167.5791,76.207214,255.81276
"10352",167.59229,76.102234,255.58925
"10353",167.60547,76.21942,255.58463
"10354",167.61865,76.46357,255.71063
"10355",167.63184,76.74189,255.87843
"10356",167.64502,76.95674,255.99147
"10357",167.6582,77.051956,255.99158
"10358",167.67139,77.00557,255.85306
"10359",167.68457,76.807816,255.56172
"10360",167.69775,76.47578,255.12993
"10361",167.71094,76.03876,254.58278
"10362",167.72412,75.53826,253.9585
"10363",167.7373,75.003586,253.2844
"10364",167.75049,74.46647,252.59114
"10365",167.76367,73.951324,251.90308
"10366",167.77686,73.4728,251.23553
"10367",167.79004,73.03578,250.59454
"10368",167.80322,72.6305,249.97163
"10369",167.8164,72.24963,249.36047
"10370",167.82959,71.89075,248.75938
"10371",167.84277,71.54406,248.15929
"10372",167.85596,71.22911,247.5801
"10373",167.86914,71.00694,247.08383
"10374",167.88232,71.06798,246.86383
"10375",167.89551,71.71496,247.23169
"10376",167.90869,73.27749,248.53531
"10377",167.92188,75.95575,251.0035
"10378",167.93506,79.69848,254.61984
"10379",167.94824,84.14679,259.05872
"10380",167.96143,88.724495,263.76602
"10381",167.97461,92.80415,268.11832
"10382",167.9878,95.904785,271.61908
"10383",168.00098,97.79202,274.00336
"10384",168.01416,98.478065,275.2454
"10385",168.02734,98.1387,275.48346
"10386",168.04053,97.02785,274.93945
"10387",168.05371,95.41161,273.85535
"10388",168.0669,93.539024,272.46436
"10389",168.08008,91.61028,270.9587
"10390",168.09326,89.75479,269.46603
"10391",168.10645,88.02869,268.04477
"10392",168.11963,86.41978,266.68677
"10393",168.13281,84.86946,265.33707
"10394",168.146,83.336235,263.95602
"10395",168.15918,81.80057,262.52463
"10396",168.17236,80.31129,261.0916
"10397",168.18555,78.95628,259.74634
"10398",168.19873,77.838104,258.59555
"10399",168.21191,77.02266,257.71255
"10400",168.2251,76.53925,257.1361
"10401",168.23828,76.35615,256.84485
"10402",168.25146,76.39765,256.7725
"10403",168.26465,76.575874,256.83813
"10404",168.27783,76.79317,256.94843
"10405",168.29102,76.964066,257.0191
"10406",168.3042,77.02998,256.99014
"10407",168.31738,76.95186,256.8192
"10408",168.33057,76.71992,256.492
"10409",168.34375,76.35615,256.02573
"10410",168.35693,75.89227,255.44798
"10411",168.37012,75.36492,254.79227
"10412",168.3833,74.810715,254.09322
"10413",168.39648,74.26383,253.38417
"10414",168.40967,73.7438,252.68488
"10415",168.42285,73.26528,252.01085
"10416",168.43604,72.82094,251.35605
"10417",168.44922,72.413216,250.72398
"10418",168.4624,72.027466,250.10115
"10419",168.47559,71.65392,249.47847
"10420",168.48877,71.29015,248.85388
"10421",168.50195,70.958115,248.24966
"10422",168.51514,70.745705,247.7547
"10423",168.52832,70.855576,247.57538
"10424",168.5415,71.60998,248.04402
"10425",168.55469,73.340965,249.51282
"10426",168.56787,76.20477,252.16853
"10427",168.58105,80.10132,255.94647
"10428",168.59424,84.62531,260.47363
"10429",168.60742,89.19325,265.18613
"10430",168.6206,93.18257,269.46274
"10431",168.63379,96.148926,272.84103
"10432",168.64697,97.901886,275.09863
"10433",168.66016,98.492714,276.2489
"10434",168.67334,98.109406,276.44348
"10435",168.68652,97.00343,275.90344
"10436",168.6997,95.44579,274.87717
"10437",168.71289,93.66598,273.58002
"10438",168.72607,91.844666,272.18576
"10439",168.73926,90.089264,270.8005
"10440",168.75244,88.44129,269.46783
"10441",168.76562,86.873886,268.1642
"10442",168.77881,85.33822,266.84335
"10443",168.79199,83.790344,265.4623
"10444",168.80518,82.22049,264.0109
"10445",168.81836,80.68238,262.54218
"10446",168.83154,79.26147,261.14258
"10447",168.84473,78.06027,259.9183
"10448",168.85791,77.14961,258.94702
"10449",168.8711,76.56367,258.272
"10450",168.88428,76.26826,257.8692
"10451",168.89746,76.19989,257.6842
"10452",168.91064,76.265816,257.63138
"10453",168.92383,76.387886,257.63675
"10454",168.93701,76.48066,257.61664
"10455",168.9502,76.48554,257.51154
"10456",168.96338,76.36591,257.28207
"10457",168.97656,76.11444,256.91702
"10458",168.98975,75.736015,256.41718
"10459",169.00293,75.25994,255.80785
"10460",169.01611,74.73258,255.13235
"10461",169.0293,74.18326,254.41843
"10462",169.04248,73.6437,253.6971
"10463",169.05566,73.126114,252.98088
"10464",169.06885,72.637825,252.27779
"10465",169.08203,72.17639,251.58629
"10466",169.09521,71.73937,250.90479
"10467",169.1084,71.32189,250.22916
"10468",169.12158,70.92149,249.55757
"10469",169.13477,70.555275,248.90765
"10470",169.14795,70.26231,248.31953
"10471",169.16113,70.15732,247.91025
"10472",169.17432,70.47471,247.92006
"10473",169.1875,71.53185,248.67953
"10474",169.20068,73.59243,250.47548
"10475",169.21387,76.732124,253.41493
"10476",169.22705,80.75319,257.33386
"10477",169.24023,85.20149,261.8057
"10478",169.25342,89.48623,266.253
"10479",169.2666,93.048294,270.1115
"10480",169.27979,95.536125,273.0071
"10481",169.29297,96.84474,274.80124
"10482",169.30615,97.07179,275.5547
"10483",169.31934,96.42725,275.44363
"10484",169.33252,95.16991,274.69965
"10485",169.3457,93.558556,273.56235
"10486",169.35889,91.810486,272.23798
"10487",169.37207,90.07706,270.87363
"10488",169.38525,88.42664,269.53812
"10489",169.39844,86.86656,268.24136
"10490",169.41162,85.350426,266.93982
"10491",169.4248,83.83185,265.58844
"10492",169.43799,82.286415,264.16275
"10493",169.45117,80.740974,262.68875
"10494",169.46436,79.26635,261.23727
"10495",169.47754,77.9675,259.9155
"10496",169.49072,76.927444,258.81192
"10497",169.5039,76.20233,257.99078
"10498",169.51709,75.79462,257.4644
"10499",169.53027,75.65789,257.19623
"10500",169.54346,75.70672,257.10938
"10501",169.55664,75.84589,257.11438
"10502",169.56982,75.98505,257.12372
"10503",169.58301,76.050964,257.06418
"10504",169.59619,76.00946,256.89926
"10505",169.60938,75.84833,256.61343
"10506",169.62256,75.577324,256.21268
"10507",169.63574,75.21355,255.7107
"10508",169.64893,74.78386,255.13142
"10509",169.66211,74.3151,254.49966
"10510",169.6753,73.82681,253.83372
"10511",169.68848,73.33364,253.14764
"10512",169.70166,72.84779,252.45348
"10513",169.71484,72.38392,251.7661
"10514",169.72803,71.94934,251.09352
"10515",169.74121,71.534294,250.4269
"10516",169.7544,71.13634,249.76439
"10517",169.76758,70.77745,249.12851
"10518",169.78076,70.49668,248.55954
"10519",169.79395,70.40879,248.17467
"10520",169.80713,70.745705,248.21185
"10521",169.82031,71.81018,248.98714
"10522",169.8335,73.84146,250.76248
"10523",169.84668,76.895706,253.62427
"10524",169.85986,80.77516,257.4067
"10525",169.87305,85.0428,261.69858
"10526",169.88623,89.12489,265.93826
"10527",169.89941,92.48432,269.58286
"10528",169.9126,94.77684,272.2655
"10529",169.92578,95.904785,273.85522
"10530",169.93896,95.96094,274.4084
"10531",169.95215,95.16502,274.11127
"10532",169.96533,93.78073,273.20087
"10533",169.97852,92.069275,271.92004
"10534",169.9917,90.25529,270.48322
"10535",170.00488,88.48524,269.03363
"10536",170.01807,86.82262,267.63617
"10537",170.04443,83.76105,264.95236
"10538",170.05762,82.27177,263.58063
"10539",170.0708,80.78981,262.16968
"10540",170.08398,79.361565,260.7661
"10541",170.09717,78.07736,259.46194
"10542",170.11035,77.03731,258.36182
"10543",170.12354,76.30976,257.5417
"10544",170.13672,75.90936,257.02597
"10545",170.1499,75.7995,256.78827
"10546",170.16309,75.90448,256.762
"10547",170.17627,76.12421,256.85373
"10548",170.18945,76.35859,256.96698
"10549",170.20264,76.53193,257.02652
"10550",170.21582,76.58564,256.97186
"10551",170.229,76.490425,256.76996
"10552",170.24219,76.24628,256.41614
"10553",170.25537,75.87274,255.9253
"10554",170.26855,75.406425,255.33
"10555",170.28174,74.88396,254.66399
"10556",170.29492,74.35172,253.97188
"10557",170.3081,73.83414,253.27779
"10558",170.32129,73.34341,252.59438
"10559",170.33447,72.88197,251.92493
"10560",170.34766,72.447395,251.26791
"10561",170.36084,72.03235,250.61685
"10562",170.37402,71.62707,249.96259
"10563",170.3872,71.236435,249.3103
"10564",170.40039,70.88243,248.68243
"10565",170.41357,70.63096,248.14604
"10566",170.42676,70.63828,247.86058
"10567",170.43994,71.17296,248.1027
"10568",170.45312,72.54749,249.2014
"10569",170.46631,74.96208,251.3831
"10570",170.47949,78.38743,254.65102
"10571",170.49268,82.52323,258.73642
"10572",170.50586,86.869,263.16104
"10573",170.51904,90.83147,267.33817
"10574",170.53223,93.91989,270.76508
"10575",170.54541,95.87793,273.1581
"10576",170.5586,96.68604,274.4624
"10577",170.57178,96.48585,274.78363
"10578",170.58496,95.51415,274.32712
"10579",170.59814,94.032196,273.33
"10580",170.61133,92.28413,272.02042
"10581",170.62451,90.47013,270.5903
"10582",170.6377,88.70496,269.1523
"10583",170.65088,87.03258,267.75195
"10584",170.66406,85.43099,266.37015
"10585",170.67725,83.85382,264.9627
"10586",170.69043,82.269325,263.49866
"10587",170.70361,80.689705,261.98996
"10588",170.7168,79.17601,260.49783
"10589",170.72998,77.838104,259.1342
"10590",170.74316,76.7834,258.01193
"10591",170.75635,76.068054,257.19608
"10592",170.76953,75.701836,256.70697
"10593",170.78271,75.63348,256.5043
"10594",170.7959,75.76776,256.50214
"10595",170.80908,76.00946,256.61157
"10596",170.82227,76.24872,256.72614
"10597",170.83545,76.40009,256.76028
"10598",170.84863,76.40742,256.65512
"10599",170.86182,76.25117,256.3866
"10600",170.875,75.9411,255.95938
"10601",170.88818,75.50652,255.39796
"10602",170.90137,74.98894,254.73996
"10603",170.91455,74.43473,254.02916
"10604",170.92773,73.882965,253.30348
"10605",170.94092,73.35073,252.5801
"10606",170.9541,72.86,251.88158
"10607",170.96729,72.41566,251.21411
"10608",170.98047,72.01526,250.5767
"10609",170.99365,71.64904,249.96097
"10610",171.00684,71.29992,249.35088
"10611",171.02002,70.960556,248.73964
"10612",171.0332,70.640724,248.13733
"10613",171.04639,70.364845,247.56897
"10614",171.05957,70.24765,247.15068
"10615",171.07275,70.50645,247.10472
"10616",171.08594,71.46349,247.76509
"10617",171.09912,73.41421,249.44904
"10618",171.1123,76.48554,252.31456
"10619",171.12549,80.516365,256.23557
"10620",171.13867,85.07698,260.81232
"10621",171.15186,89.566795,265.4608
"10622",171.16504,93.39254,269.58548
"10623",171.17822,96.148926,272.76038
"10624",171.1914,97.69924,274.81534
"10625",171.20459,98.13138,275.80057
"10626",171.21777,97.64553,275.88132
"10627",171.23096,96.50538,275.2926
"10628",171.24414,94.96971,274.27274
"10629",171.25732,93.25826,273.02908
"10630",171.27051,91.53216,271.7173
"10631",171.28369,89.884186,270.4297
"10632",171.29688,88.324104,269.1785
"10633",171.31006,86.81285,267.92737
"10634",171.32324,85.28207,266.6095
"10635",171.33643,83.69024,265.18274
"10636",171.34961,82.05936,263.66718
"10637",171.3628,80.45777,262.12994
"10638",171.37598,78.995346,260.68182
"10639",171.38916,77.78195,259.43704
"10640",171.40234,76.88594,258.4717
"10641",171.41553,76.32197,257.81042
"10642",171.42871,76.04852,257.42203
"10643",171.4419,75.99237,257.2424
"10644",171.45508,76.06317,257.18796
"10645",171.46826,76.17059,257.17236
"10646",171.48145,76.23163,257.11374
"10647",171.49463,76.190125,256.95447
"10648",171.50781,76.019226,256.66452
"10649",171.521,75.7116,256.23248
"10650",171.53418,75.27947,255.66634
"10651",171.54736,74.75212,254.99147
"10652",171.56055,74.17349,254.24884
"10653",171.57373,73.582664,253.47594
"10654",171.58691,73.006485,252.69922
"10655",171.6001,72.464485,251.93867
"10656",171.61328,71.96399,251.2027
"10657",171.62646,71.50744,250.49503
"10658",171.63965,71.08995,249.81215
"10659",171.65283,70.7042,249.14796
"10660",171.66602,70.345314,248.49858
"10661",171.6792,70.01572,247.86728
"10662",171.69238,69.752045,247.2916
"10663",171.70557,69.6495,246.8688
"10664",171.71875,69.92294,246.8188
"10665",171.73193,70.88243,247.46338
"10666",171.74512,72.82826,249.12428
"10667",171.7583,75.88495,251.95685
"10668",171.77148,79.89624,255.83954
"10669",171.78467,84.44221,260.38226
"10670",171.79785,88.93446,265.01334
"10671",171.81104,92.7773,269.13538
"10672",171.82422,95.553215,272.31058
"10673",171.8374,97.12306,274.36646
"10674",171.85059,97.564964,275.34344
"10675",171.86377,97.084,275.41138
"10676",171.87695,95.94629,274.80756
"10677",171.89014,94.40818,273.76776
"10678",171.90332,92.70161,272.51144
"10679",171.9165,90.97795,271.18472
"10680",171.92969,89.325096,269.87494
"10681",171.94287,87.75525,268.5965
"10682",171.95605,86.2269,267.3105
"10683",171.96924,84.68391,265.9621
"10684",171.98242,83.087204,264.51178
"10685",171.9956,81.45876,262.97983
"10686",172.00879,79.86694,261.4336
"10687",172.02197,78.416725,259.97922
"10688",172.03516,77.21065,258.72366
"10689",172.04834,76.317085,257.74292
"10690",172.06152,75.75067,257.0614
"10691",172.0747,75.48211,256.66003
"10692",172.08789,75.43572,256.47247
"10693",172.10107,75.526054,256.42017
"10694",172.11426,75.65545,256.40976
"10695",172.12744,75.7409,256.35944
"10696",172.14062,75.72137,256.20682
"10697",172.15381,75.57244,255.92418
"10698",172.16699,75.28924,255.50261
"10699",172.18018,74.89128,254.95744
"10700",172.19336,74.40543,254.31195
"10701",172.20654,73.865875,253.59756
"10702",172.21973,73.304344,252.84435
"10703",172.23291,72.75502,252.08578
"10704",172.2461,72.234985,251.33934
"10705",172.25928,71.75891,250.6206
"10706",172.27246,71.329216,249.93338
"10707",172.28564,70.93614,249.26935
"10708",172.29883,70.572365,248.62233
"10709",172.31201,70.22812,247.98347
"10710",172.3252,69.90585,247.35583
"10711",172.33838,69.6202,246.75475
"10712",172.35156,69.42489,246.23506
"10713",172.36475,69.4493,245.929
"10714",172.37793,69.94003,246.09003
"10715",172.39111,71.219345,247.05496
"10716",172.4043,73.53628,249.0975
"10717",172.41748,76.94209,252.30133
"10718",172.43066,81.20241,256.4661
"10719",172.44385,85.83383,261.1351
"10720",172.45703,90.2211,265.70468
"10721",172.47021,93.81247,269.61545
"10722",172.4834,96.26124,272.49585
"10723",172.49658,97.48684,274.2296
"10724",172.50977,97.60891,274.89813
"10725",172.52295,96.85939,274.69888
"10726",172.53613,95.501945,273.8683
"10727",172.54932,93.805145,272.6559
"10728",172.5625,91.97894,271.2611
"10729",172.57568,90.177155,269.83365
"10730",172.58887,88.46082,268.43536
"10731",172.60205,86.837265,267.0762
"10732",172.61523,85.25521,265.70782
"10733",172.62842,83.66094,264.27777
"10734",172.6416,82.037384,262.76862
"10735",172.65479,80.42603,261.22095
"10736",172.66797,78.9099,259.71814
"10737",172.68115,77.593956,258.36813
"10738",172.69434,76.56855,257.26755
"10739",172.70752,75.880066,256.47183
"10740",172.7207,75.508965,255.97198
"10741",172.73389,75.39666,255.71933
"10742",172.74707,75.45525,255.63406
"10743",172.76025,75.5993,255.63608
"10744",172.77344,75.7409,255.64015
"10745",172.78662,75.81415,255.5803
"10746",172.7998,75.77753,255.41287
"10747",172.81299,75.613945,255.11734
"10748",172.82617,75.32586,254.69218
"10749",172.83936,74.92546,254.14572
"10750",172.85254,74.44694,253.50862
"10751",172.86572,73.919586,252.80774
"10752",172.8789,73.38003,252.07817
"10753",172.89209,72.85756,251.34883
"10754",172.90527,72.36927,250.63734
"10755",172.91846,71.92737,249.95699
"10756",172.93164,71.52697,249.30432
"10757",172.94482,71.16075,248.67332
"10758",172.95801,70.80919,248.04553
"10759",172.97119,70.469826,247.41896
"10760",172.98438,70.14267,246.79399
"10761",172.99756,69.8497,246.19298
"10762",173.01074,69.64706,245.67314
"10763",173.02393,69.66415,245.3667
"10764",173.03711,70.14755,245.52711
"10765",173.0503,71.42931,246.50099
"10766",173.06348,73.75601,248.55986
"10767",173.07666,77.17891,251.78763
"10768",173.08984,81.45388,255.97444
"10769",173.10303,86.09506,260.66107
"10770",173.11621,90.46769,265.22418
"10771",173.1294,94.00534,269.08896
"10772",173.14258,96.36378,271.88507
"10773",173.15576,97.47707,273.50974
"10774",173.16895,97.46731,274.04614
"10775",173.18213,96.57618,273.70087
"10776",173.19531,95.082016,272.7247
"10777",173.2085,93.25338,271.36737
"10778",173.22168,91.30755,269.8357
"10779",173.23486,89.3959,268.2774
"10780",173.24805,87.59655,266.77167
"10781",173.26123,85.90219,265.3147
"10782",173.27441,84.26887,263.8658
"10783",173.2876,82.64774,262.37808
"10784",173.30078,81.024185,260.83728
"10785",173.31396,79.44457,259.28967
"10786",173.32715,78.00656,257.8343
"10787",173.34033,76.824905,256.59033
"10788",173.35352,75.982605,255.6488
"10789",173.3667,75.508965,255.04962
"10790",173.37988,75.372246,254.77255
"10791",173.39307,75.494316,254.75
"10792",173.40625,75.76044,254.87532
"10793",173.41943,76.07782,255.06021
"10794",173.43262,76.351265,255.21109
"10795",173.4458,76.52216,255.26796
"10796",173.45898,76.54902,255.18613
"10797",173.47217,76.42695,254.9562
"10798",173.48535,76.16571,254.58331
"10799",173.49854,75.78729,254.08507
"10800",173.51172,75.3283,253.49443
"10801",173.5249,74.82536,252.8455
"10802",173.53809,74.31022,252.16866
"10803",173.55127,73.80484,251.48547
"10804",173.56445,73.321434,250.80847
"10805",173.57764,72.867325,250.14566
"10806",173.59082,72.44007,249.49551
"10807",173.604,72.03967,248.85887
"10808",173.61719,71.658806,248.22925
"10809",173.63037,71.29015,247.59993
"10810",173.64355,70.941025,246.97862
"10811",173.65674,70.640724,246.39523
"10812",173.66992,70.49424,245.95627
"10813",173.6831,70.74082,245.90579
"10814",173.69629,71.724724,246.60034
"10815",173.70947,73.75357,248.37059
"10816",173.72266,76.93477,251.35658
"10817",173.73584,81.08278,255.4088
"10818",173.74902,85.7264,260.08627
"10819",173.7622,90.230865,264.76968
"10820",173.77539,93.98581,268.84433
"10821",173.78857,96.585945,271.88153
"10822",173.80176,97.90921,273.7231
"10823",173.81494,98.06302,274.43658
"10824",173.82812,97.269554,274.20758
"10825",173.84131,95.799805,273.2775
"10826",173.85449,93.93454,271.90598
"10827",173.86768,91.913025,270.31992
"10828",173.88086,89.9086,268.68777
"10829",173.89404,88.0116,267.1004
"10830",173.90723,86.236664,265.57584
"10831",173.92041,84.53986,264.07394
"10832",173.9336,82.86748,262.54343
"10833",173.94678,81.20485,260.9704
"10834",173.95996,79.586174,259.38937
"10835",173.97314,78.101776,257.89203
"10836",173.98633,76.85664,256.5876
"10837",173.99951,75.945984,255.57869
"10838",174.0127,75.406425,254.91245
"10839",174.02588,75.21843,254.5809
"10840",174.03906,75.31121,254.52426
"10841",174.05225,75.58221,254.64873
"10842",174.06543,75.91913,254.8476
"10843",174.07861,76.21698,255.01791
"10844",174.0918,76.39765,255.08037
"10845",174.10498,76.4123,254.98244
"10846",174.11816,76.25361,254.71162
"10847",174.13135,75.93622,254.27716
"10848",174.14453,75.491875,253.70583
"10849",174.15771,74.95476,253.02783
"10850",174.1709,74.373695,252.28911
"10851",174.18408,73.78531,251.5249
"10852",174.19727,73.22133,250.76671
"10853",174.21045,72.69886,250.03241
"10854",174.22363,72.232544,249.33794
"10855",174.23682,71.82239,248.68504
"10856",174.25,71.448845,248.05595
"10857",174.26318,71.1046,247.44449
"10858",174.27637,70.78233,246.84424
"10859",174.28955,70.469826,246.24368
"10860",174.30273,70.17929,245.65533
"10861",174.31592,69.97177,245.14091
"10862",174.3291,70.02792,244.88368
"10863",174.34229,70.6627,245.20683
"10864",174.35547,72.26429,246.51663
"10865",174.36865,75.08659,249.0972
"10866",174.38184,79.097885,252.95494
"10867",174.39502,83.93683,257.7657
"10868",174.4082,88.988174,262.94006
"10869",174.42139,93.55123,267.784
"10870",174.43457,97.057144,271.71338
"10871",174.44775,99.23735,274.42664
"10872",174.46094,100.10162,275.8921
"10873",174.47412,99.84039,276.25903
"10874",174.4873,98.72465,275.7633
"10875",174.50049,97.04738,274.67117
"10876",174.51367,95.08446,273.24097
"10877",174.52686,93.04341,271.67133
"10878",174.54004,91.070724,270.10623
"10879",174.55322,89.22499,268.60645
"10880",174.5664,87.49889,267.16864
"10881",174.57959,85.82895,265.73303
"10882",174.59277,84.16144,264.24768
"10883",174.60596,82.476845,262.69315
"10884",174.61914,80.81178,261.1055
"10885",174.63232,79.259026,259.57812
"10886",174.64551,77.925995,258.22192
"10887",174.65869,76.90791,257.13904
"10888",174.67188,76.23895,256.37344
"10889",174.68506,75.90448,255.92143
"10890",174.69824,75.83856,255.72752
"10891",174.71143,75.95331,255.71222
"10892",174.72461,76.15106,255.78351
"10893",174.7378,76.33906,255.85123
"10894",174.75098,76.4416,255.83936
"10895",174.76416,76.4123,255.69885
"10896",174.77734,76.22919,255.40363
"10897",174.79053,75.894714,254.95131
"10898",174.80371,75.43816,254.36647
"10899",174.8169,74.89128,253.67703
"10900",174.83008,74.29557,252.92168
"10901",174.84326,73.687645,252.13548
"10902",174.85645,73.09682,251.3474
"10903",174.86963,72.54261,250.57747
"10904",174.88281,72.03723,249.83905
"10905",174.896,71.58312,249.13611
"10906",174.90918,71.17296,248.46292
"10907",174.92236,70.79454,247.80865
"10908",174.93555,70.435646,247.1621
"10909",174.94873,70.098724,246.52629
"10910",174.96191,69.81064,245.92879
"10911",174.9751,69.67147,245.4712
"10912",174.98828,69.9205,245.39748
"10913",175.00146,70.92149,246.08348
"10914",175.01465,73.01869,247.89697
"10915",175.02783,76.351265,251.01138
"10916",175.04102,80.7483,255.29439
"10917",175.0542,85.73617,260.30563
"10918",175.06738,90.63615,265.38486
"10919",175.08057,94.78905,269.87015
"10920",175.09375,97.75296,273.2962
"10921",175.10693,99.37896,275.477
"10922",175.12012,99.76715,276.47076
"10923",175.1333,99.1519,276.47324
"10924",175.14648,97.81888,275.7387
"10925",175.15967,96.043945,274.52063
"10926",175.17285,94.07126,273.04932
"10927",175.18604,92.08392,271.5017
"10928",175.19922,90.18204,269.97745
"10929",175.2124,88.394905,268.5085
"10930",175.22559,86.693214,267.06915
"10931",175.23877,85.015945,265.60104
"10932",175.25195,83.32647,264.06833
"10933",175.26514,81.62478,262.47058
"10934",175.27832,79.971924,260.8685
"10935",175.2915,78.47532,259.37103
"10936",175.30469,77.23506,258.08313
"10937",175.31787,76.33173,257.09338
"10938",175.33105,75.77997,256.42697
"10939",175.34424,75.543144,256.05826
"10940",175.35742,75.543144,255.91898
"10941",175.3706,75.684746,255.9213
"10942",175.38379,75.8703,255.972
"10943",175.39697,76.016785,255.98943
"10944",175.41016,76.06317,255.91133
"10945",175.42334,75.9704,255.69553
"10946",175.43652,75.736015,255.33522
"10947",175.4497,75.36736,254.83331
"10948",175.46289,74.898605,254.21979
"10949",175.47607,74.35905,253.52081
"10950",175.48926,73.79019,252.77568
"10951",175.50244,73.22133,252.01276
"10952",175.51562,72.672005,251.2516
"10953",175.52881,72.1593,250.5099
"10954",175.54199,71.68322,249.7888
"10955",175.55518,71.23399,249.07968
"10956",175.56836,70.81163,248.38338
"10957",175.58154,70.40635,247.69096
"10958",175.59473,70.02304,247.00786
"10959",175.60791,69.68124,246.35428
"10960",175.6211,69.451744,245.80232
"10961",175.63428,69.488365,245.50931
"10962",175.64746,70.08896,245.78142
"10963",175.66064,71.605095,246.98784
"10964",175.67383,74.285805,249.4062
"10965",175.68701,78.118866,253.0607
"10966",175.7002,82.78447,257.6675
"10967",175.71338,87.70641,262.67648
"10968",175.72656,92.20599,267.4169
"10969",175.73975,95.71923,271.31158
"10970",175.75293,97.94583,274.02942
"10971",175.76611,98.863815,275.5082
"10972",175.7793,98.65385,275.88773
"10973",175.79248,97.57229,275.3891
"10974",175.80566,95.91455,274.2805
"10975",175.81885,93.95651,272.81976
"10976",175.83203,91.92523,271.2246
"10977",175.84521,89.95987,269.6319
"10978",175.8584,88.12634,268.10962
"10979",175.87158,86.414894,266.65213
"10980",175.88477,84.76936,265.20706
"10981",175.89795,83.13359,263.72034
"10982",175.91113,81.49294,262.1776
"10983",175.92432,79.88403,260.61536
"10984",175.9375,78.397194,259.12488
"10985",175.95068,77.14473,257.82233
"10986",175.96387,76.2121,256.80048
"10987",175.97705,75.64324,256.11325
"10988",175.99023,75.41619,255.75005
"10989",176.00342,75.46258,255.65318
"10990",176.0166,75.68719,255.736
"10991",176.02979,75.98505,255.89908
"10992",176.04297,76.25361,256.04218
"10993",176.05615,76.42695,256.09845
"10994",176.06934,76.453804,256.01364
"10995",176.08252,76.31953,255.76854
"10996",176.0957,76.03876,255.37276
"10997",176.10889,75.63836,254.84857
"10998",176.12207,75.15251,254.22643
"10999",176.13525,74.62028,253.54271
"11000",176.14844,74.073395,252.82771
"11001",176.16162,73.531395,252.10051
"11002",176.1748,73.00893,251.3759
"11003",176.18799,72.515755,250.66426
"11004",176.20117,72.04944,249.96407
"11005",176.21436,71.60265,249.26883
"11006",176.22754,71.1754,248.57916
"11007",176.24072,70.77013,247.89812
"11008",176.2539,70.42344,247.263
"11009",176.26709,70.23544,246.77574
"11010",176.28027,70.42588,246.66104
"11011",176.29346,71.326775,247.26274
"11012",176.30664,73.255516,248.92044
"11013",176.31982,76.351265,251.80542
"11014",176.33301,80.46998,255.8101
"11015",176.34619,85.169754,260.52457
"11016",176.35938,89.82315,265.3395
"11017",176.37256,93.7905,269.61383
"11018",176.38574,96.62257,272.87686
"11019",176.39893,98.14847,274.9222
"11020",176.41211,98.443886,275.78476
"11021",176.4253,97.72854,275.64578
"11022",176.43848,96.28809,274.75934
"11023",176.45166,94.41306,273.3933
"11024",176.46484,92.36225,271.7929
"11025",176.47803,90.321205,270.13818
"11026",176.49121,88.39735,268.53687
"11027",176.5044,86.607765,267.0097
"11028",176.51758,84.90852,265.51697
"11029",176.53076,83.250786,264.01263
"11030",176.54395,81.60525,262.4687
"11031",176.55713,79.9939,260.9075
"11032",176.57031,78.504616,259.41803
"11033",176.5835,77.25216,258.11884
"11034",176.59668,76.334175,257.115
"11035",176.60986,75.789734,256.456
"11036",176.62305,75.596855,256.13153
"11037",176.63623,75.684746,256.08182
"11038",176.64941,75.93622,256.19843
"11039",176.6626,76.23651,256.37173
"11040",176.67578,76.48798,256.50558
"11041",176.68896,76.61982,256.52768
"11042",176.70215,76.58564,256.38788
"11043",176.71533,76.383,256.07855
"11044",176.72852,76.02655,255.60907
"11045",176.7417,75.55535,255.0137
"11046",176.75488,75.01335,254.33281
"11047",176.76807,74.44938,253.613
"11048",176.78125,73.88785,252.87802
"11049",176.79443,73.35073,252.1499
"11050",176.80762,72.850235,251.44162
"11051",176.8208,72.3888,250.75676
"11052",176.83398,71.956665,250.08678
"11053",176.84717,71.553825,249.43259
"11054",176.86035,71.17052,248.78534
"11055",176.87354,70.79942,248.13832
"11056",176.88672,70.45518,247.50656
"11057",176.8999,70.21591,246.96902
"11058",176.91309,70.28184,246.7292
"11059",176.92627,70.98253,247.1262
"11060",176.93945,72.66712,248.529
"11061",176.95264,75.5407,251.17343
"11062",176.96582,79.51293,255.0063
"11063",176.979,84.18829,259.66644
"11064",176.99219,88.953995,264.56302
"11065",177.00537,93.14595,269.0348
"11066",177.01855,96.27833,272.57797
"11067",177.03174,98.14114,274.9495
"11068",177.04492,98.775925,276.15118
"11069",177.0581,98.38529,276.3473
"11070",177.07129,97.230484,275.76703
"11071",177.08447,95.58251,274.6575
"11072",177.09766,93.69283,273.25476
"11073",177.11084,91.74944,271.73926
"11074",177.12402,89.881744,270.23874
"11075",177.1372,88.131226,268.79703
"11076",177.15039,86.46372,267.38364
"11077",177.16357,84.82796,265.94986
"11078",177.17676,83.16777,264.44055
"11079",177.18994,81.48318,262.85495
"11080",177.20312,79.83276,261.2509
"11081",177.21631,78.328835,259.74173
"11082",177.22949,77.08858,258.44925
"11083",177.24268,76.190125,257.4598
"11084",177.25586,75.66033,256.81094
"11085",177.26904,75.46502,256.48
"11086",177.28223,75.526054,256.39932
"11087",177.29541,75.736015,256.46948
"11088",177.3086,75.98016,256.58038
"11089",177.32178,76.17059,256.6452
"11090",177.33496,76.23163,256.58658
"11091",177.34814,76.12421,256.3614
"11092",177.36133,75.85321,255.96927
"11093",177.37451,75.43816,255.42464
"11094",177.3877,74.91814,254.76205
"11095",177.40088,74.339516,254.02463
"11096",177.41406,73.7438,253.25201
"11097",177.42725,73.15541,252.46812
"11098",177.44043,72.59632,251.69514
"11099",177.45361,72.076294,250.94376
"11100",177.4668,71.59289,250.21274
"11101",177.47998,71.150986,249.50812
"11102",177.49316,70.74082,248.82143
"11103",177.50635,70.362404,248.15366
"11104",177.51953,70.00839,247.49847
"11105",177.53271,69.71053,246.88838
"11106",177.5459,69.556725,246.41302
"11107",177.55908,69.76425,246.2942
"11108",177.57227,70.67979,246.88988
"11109",177.58545,72.65003,248.56886
"11110",177.59863,75.83124,251.52039
"11111",177.61182,80.08423,255.6431
"11112",177.625,84.95979,260.5213
"11113",177.63818,89.81094,265.52744
"11114",177.65137,93.978485,270.00156
"11115",177.66455,97.008316,273.4682
"11116",177.67773,98.73197,275.72336
"11117",177.69092,99.24223,276.819
"11118",177.7041,98.75395,276.93204
"11119",177.71729,97.55276,276.3169
"11120",177.73047,95.91455,275.2272
"11121",177.74365,94.07614,273.8861
"11122",177.75684,92.21576,272.4656
"11123",177.7832,88.74647,269.70395
"11124",177.79639,87.12535,268.35617
"11125",177.80957,85.50179,266.9553
"11126",177.82275,83.81964,265.44507
"11127",177.83594,82.08865,263.83344
"11128",177.84912,80.37476,262.1848
"11129",177.8623,78.78783,260.6096
"11130",177.87549,77.44747,259.23135
"11131",177.88867,76.44404,258.14816
"11132",177.90186,75.809265,257.40225
"11133",177.91504,75.508965,256.97098
"11134",177.92822,75.46502,256.78668
"11135",177.9414,75.577324,256.75726
"11136",177.95459,75.74822,256.78995
"11137",177.96777,75.88739,256.79623
"11138",177.98096,75.914246,256.69458
"11139",177.99414,75.80194,256.4546
"11140",178.00732,75.53582,256.05728
"11141",178.02051,75.13786,255.51982
"11142",178.03369,74.632484,254.8625
"11143",178.04688,74.06607,254.12836
"11144",178.06006,73.47036,253.34721
"11145",178.07324,72.87709,252.5499
"11146",178.08643,72.30091,251.75113
"11147",178.09961,71.75403,250.96365
"11148",178.1128,71.23888,250.19081
"11149",178.12598,70.76036,249.4385
"11150",178.13916,70.31602,248.70543
"11151",178.15234,69.89853,247.98532
"11152",178.16553,69.5201,247.29123
"11153",178.17871,69.2198,246.66344
"11154",178.1919,69.11238,246.21913
"11155",178.20508,69.437096,246.20361
"11156",178.21826,70.5333,246.96973
"11157",178.23145,72.69398,248.83456
"11158",178.24463,76.019226,251.9315
"11159",178.25781,80.31129,256.09915
"11160",178.271,85.09407,260.89166
"11161",178.28418,89.73281,265.6896
"11162",178.29736,93.61715,269.87808
"11163",178.31055,96.35401,273.04047
"11164",178.32373,97.831085,275.0286
"11165",178.33691,98.15091,275.90564
"11166",178.3501,97.53811,275.86005
"11167",178.36328,96.26856,275.13855
"11168",178.37646,94.61082,273.9892
"11169",178.38965,92.78462,272.6196
"11170",178.40283,90.95598,271.19046
"11171",178.41602,89.21034,269.7872
"11172",178.4292,87.55993,268.42462
"11173",178.44238,85.95102,267.05197
"11174",178.45557,84.32502,265.61194
"11175",178.46875,82.64286,264.06494
"11176",178.48193,80.936295,262.44098
"11177",178.49512,79.27856,260.8125
"11178",178.5083,77.79172,259.3031
"11179",178.52148,76.58808,258.03046
"11180",178.53467,75.736015,257.07178
"11181",178.54785,75.2404,256.4429
"11182",178.56104,75.05974,256.1135
"11183",178.57422,75.10857,256.00793
"11184",178.5874,75.28191,256.0284
"11185",178.60059,75.48943,256.0885
"11186",178.61377,75.6408,256.0989
"11187",178.62695,75.682304,256.00418
"11188",178.64014,75.58465,255.77159
"11189",178.65332,75.34783,255.39679
"11190",178.6665,74.986496,254.89008
"11191",178.67969,74.53971,254.28662
"11192",178.69287,74.03433,253.61061
"11193",178.70605,73.5021,252.89195
"11194",178.71924,72.96254,252.14934
"11195",178.73242,72.43275,251.39963
"11196",178.7456,71.9176,250.64801
"11197",178.75879,71.41955,249.89738
"11198",178.77197,70.95079,249.16049
"11199",178.78516,70.51133,248.43825
"11200",178.79834,70.10605,247.73645
"11201",178.81152,69.76425,247.08546
"11202",178.8247,69.559166,246.56052
"11203",178.83789,69.66659,246.34166
"11204",178.85107,70.36729,246.71944
"11205",178.86426,71.98352,248.03465
"11206",178.87744,74.71061,250.51123
"11207",178.89062,78.485085,254.1204
"11208",178.90381,82.95781,258.54578
"11209",178.91699,87.56725,263.24765
"11210",178.93018,91.683525,267.6004
"11211",178.94336,94.80614,271.08813
"11212",178.95654,96.68604,273.43073
"11213",178.96973,97.33791,274.60403
"11214",178.98291,96.94484,274.75278
"11215",178.9961,95.77783,274.1153
"11216",179.00928,94.12741,272.95795
"11217",179.02246,92.25239,271.5244
"11218",179.03564,90.35294,270.00784
"11219",179.04883,88.54627,268.5247
"11220",179.06201,86.8568,267.1023
"11221",179.0752,85.25521,265.715
"11222",179.08838,83.67559,264.2996
"11223",179.10156,82.07889,262.81775
"11224",179.11475,80.479744,261.28357
"11225",179.12793,78.9514,259.77023
"11226",179.14111,77.61593,258.40198
"11227",179.1543,76.575874,257.2874
"11228",179.16748,75.90204,256.50656
"11229",179.18066,75.58953,256.06598
"11230",179.19385,75.56756,255.90617
"11231",179.20703,75.74334,255.94344
"11232",179.22021,75.99725,256.06433
"11233",179.2334,76.23163,256.1736
"11234",179.24658,76.36347,256.18768
"11235",179.25977,76.351265,256.06183
"11236",179.27295,76.17792,255.77446
"11237",179.28613,75.85565,255.33275
"11238",179.29932,75.41863,254.76622
"11239",179.3125,74.90593,254.11035
"11240",179.32568,74.34684,253.39207
"11241",179.33887,73.77554,252.64412
"11242",179.35205,73.21889,251.89294
"11243",179.36523,72.68665,251.1488
"11244",179.37842,72.181274,250.41489
"11245",179.3916,71.71252,249.7018
"11246",179.40479,71.27795,249.00824
"11247",179.41797,70.87511,248.33284
"11248",179.43115,70.49912,247.6717
"11249",179.44434,70.169525,247.04521
"11250",179.45752,69.96445,246.53293
"11251",179.4707,70.07187,246.32674
"11252",179.48389,70.78966,246.73427
"11253",179.49707,72.45716,248.11395
"11254",179.51025,75.2575,250.67857
"11255",179.52344,79.114975,254.38785
"11256",179.53662,83.64629,258.8915
"11257",179.5498,88.26795,263.6271
"11258",179.56299,92.34028,267.9578
"11259",179.57617,95.379875,271.38303
"11260",179.58936,97.17189,273.65567
"11261",179.60254,97.75784,274.77826
"11262",179.61572,97.33791,274.91327
"11263",179.6289,96.17578,274.29294
"11264",179.64209,94.55222,273.17487
"11265",179.65527,92.71381,271.7912
"11266",179.66846,90.84367,270.31836
"11267",179.68164,89.04921,268.86276
"11268",179.69482,87.34997,267.44632
"11269",179.70801,85.711754,266.03778
"11270",179.72119,84.071106,264.57562
"11271",179.73438,82.388954,263.0207
"11272",179.74756,80.67994,261.38632
"11273",179.76074,79.03441,259.76205
"11274",179.77393,77.57198,258.26944
"11275",179.78711,76.4123,257.03387
"11276",179.8003,75.62615,256.13562
"11277",179.81348,75.22331,255.5961
"11278",179.82666,75.14763,255.37114
"11279",179.83984,75.299,255.37088
"11280",179.85303,75.562675,255.48764
"11281",179.86621,75.83368,255.61998
"11282",179.8794,76.02167,255.67776
"11283",179.89258,76.06073,255.5925
"11284",179.90576,75.93622,255.34488
"11285",179.91895,75.64568,254.92735
"11286",179.93213,75.21599,254.36159
"11287",179.94531,74.686195,253.6823
"11288",179.9585,74.10513,252.93518
"11289",179.97168,73.50942,252.15526
"11290",179.98486,72.935684,251.3787
"11291",179.99805,72.40345,250.6257
"11292",180.01123,71.91516,249.90002
"11293",180.02441,71.465935,249.19815
"11294",180.0376,71.04845,248.51398
"11295",180.05078,70.660255,247.84605
"11296",180.06396,70.29893,247.19286
"11297",180.07715,69.96445,246.55522
"11298",180.09033,69.70809,245.98526
"11299",180.10352,69.65438,245.60992
"11300",180.1167,70.066986,245.69923
"11301",180.12988,71.292595,246.61444
"11302",180.14307,73.62905,248.67879
"11303",180.15625,77.14473,251.99538
"11304",180.16943,81.59548,256.3569
"11305",180.18262,86.47593,261.2872
"11306",180.1958,91.121994,266.13565
"11307",180.20898,94.93553,270.29675
"11308",180.22217,97.55276,273.3807
"11309",180.23535,98.89067,275.26715
"11310",180.24854,99.07866,276.04547
"11311",180.26172,98.36576,275.92877
"11312",180.2749,97.03517,275.17212
"11313",180.28809,95.34814,274.01743
"11314",180.30127,93.521935,272.67084
"11315",180.31445,91.71038,271.28183
"11316",180.32764,89.9794,269.9168
"11317",180.34082,88.326546,268.5758
"11318",180.354,86.695656,267.2051
"11319",180.36719,85.030594,265.7493
"11320",180.38037,83.299614,264.17554
"11321",180.39355,81.529564,262.5086
"11322",180.40674,79.80835,260.8352
"11323",180.41992,78.2678,259.28867
"11324",180.4331,77.02022,257.98694
"11325",180.44629,76.1413,257.0149
"11326",180.45947,75.63836,256.39136
"11327",180.47266,75.457695,256.0744
"11328",180.48584,75.50652,255.98128
"11329",180.49902,75.67498,256.0093
"11330",180.5122,75.85321,256.05237
"11331",180.52539,75.95819,256.02777
"11332",180.53857,75.93622,255.87949
"11333",180.55176,75.757996,255.57426
"11334",180.56494,75.4284,255.1121
"11335",180.57812,74.969406,254.51025
"11336",180.59131,74.4152,253.79884
"11337",180.60449,73.81705,253.02617
"11338",180.61768,73.20912,252.22502
"11339",180.63086,72.620735,251.42442
"11340",180.64404,72.06897,250.64206
"11341",180.65723,71.56359,249.88884
"11342",180.67041,71.09483,249.15645
"11343",180.6836,70.657814,248.44115
"11344",180.69678,70.24277,247.73416
"11345",180.70996,69.857025,247.0435
"11346",180.72314,69.51766,246.38718
"11347",180.73633,69.28817,245.83011
"11348",180.74951,69.32967,245.53687
"11349",180.7627,69.93027,245.80402
"11350",180.77588,71.42931,246.98839
"11351",180.78906,74.06363,249.35487
"11352",180.80225,77.8259,252.93163
"11353",180.81543,82.40116,257.43893
"11354",180.82861,87.22789,262.3407
"11355",180.8418,91.649345,266.98804
"11356",180.85498,95.116196,270.81894
"11357",180.86816,97.34524,273.52036
"11358",180.88135,98.33158,275.04874
"11359",180.89453,98.24124,275.53125
"11360",180.90771,97.33059,275.19064
"11361",180.9209,95.88037,274.282
"11362",180.93408,94.13962,273.03754
"11363",180.94727,92.298775,271.63855
"11364",180.96045,90.494545,270.21866
"11365",180.97363,88.780655,268.83273
"11366",180.98682,87.14244,267.4689
"11367",181,85.51644,266.0661
"11368",181.01318,83.85138,264.57343
"11369",181.02637,82.127716,262.97012
"11370",181.03955,80.38453,261.29343
"11371",181.05273,78.73655,259.65747
"11372",181.06592,77.31075,258.1922
"11373",181.0791,76.207214,257.0046
"11374",181.09229,75.47967,256.15854
"11375",181.10547,75.11345,255.65106
"11376",181.11865,75.037766,255.42267
"11377",181.13184,75.14763,255.37746
"11378",181.14502,75.34051,255.4187
"11379",181.1582,75.51385,255.44643
"11380",181.17139,75.60174,255.39412
"11381",181.18457,75.560234,255.21516
"11382",181.19775,75.37957,254.89575
"11383",181.21094,75.06462,254.43642
"11384",181.22412,74.63981,253.85738
"11385",181.2373,74.13687,253.18694
"11386",181.25049,73.58999,252.45683
"11387",181.26367,73.02602,251.69255
"11388",181.27686,72.46937,250.91797
"11389",181.29004,71.93713,250.1504
"11390",181.30322,71.44152,249.40283
"11391",181.3164,70.97276,248.66663
"11392",181.32959,70.53574,247.94751
"11393",181.34277,70.12558,247.2416
"11394",181.35596,69.747154,246.5546
"11395",181.36914,69.42245,245.90948
"11396",181.38232,69.224686,245.38118
"11397",181.39551,69.31747,245.13724
"11398",181.40869,69.98398,245.46992
"11399",181.42188,71.5465,246.71945
"11400",181.43506,74.2272,249.13599
"11401",181.44824,77.996796,252.72517
"11402",181.46143,82.530556,257.19632
"11403",181.47461,87.274284,262.01913
"11404",181.4878,91.58343,266.5556
"11405",181.50098,94.92821,270.26236
"11406",181.51416,97.03029,272.83093
"11407",181.52734,97.87747,274.21033
"11408",181.54053,97.63821,274.52972
"11409",181.55371,96.57862,274.02133
"11410",181.5669,94.9868,272.9476
"11411",181.58008,93.12154,271.55066
"11412",181.59326,91.19035,270.0295
"11413",181.60645,89.32998,268.51883
"11414",181.61963,87.57946,267.05988
"11415",181.63281,85.909515,265.6268
"11416",181.646,84.263985,264.16595
"11417",181.65918,82.59159,262.6268
"11418",181.67236,80.907,261.0232
"11419",181.68555,79.27856,259.4231
"11420",181.69873,77.82834,257.95032
"11421",181.71191,76.66865,256.72275
"11422",181.7251,75.88495,255.83495
"11423",181.73828,75.48211,255.30351
"11424",181.75146,75.403984,255.0842
"11425",181.76465,75.55291,255.0895
"11426",181.77783,75.82391,255.22153
"11427",181.79102,76.104675,255.37178
"11428",181.8042,76.297554,255.44293
"11429",181.81738,76.34394,255.37361
"11430",181.83057,76.21942,255.13484
"11431",181.84375,75.92645,254.72372
"11432",181.85693,75.491875,254.16185
"11433",181.87012,74.96452,253.49362
"11434",181.8833,74.38834,252.76009
"11435",181.89648,73.80484,252.00122
"11436",181.90967,73.23598,251.23875
"11437",181.92285,72.69398,250.48538
"11438",181.93604,72.19104,249.75414
"11439",181.94922,71.724724,249.0438
"11440",181.9624,71.292595,248.35306
"11441",181.97559,70.88487,247.67323
"11442",181.98877,70.504005,247.00752
"11443",182.00195,70.14755,246.35432
"11444",182.01514,69.85458,245.75346
"11445",182.02832,69.752045,245.33388
"11446",182.0415,70.09628,245.35786
"11447",182.05469,71.23399,246.18608
"11448",182.06787,73.460594,248.13875
"11449",182.08105,76.85664,251.33044
"11450",182.09424,81.19264,255.5682
"11451",182.10742,85.96811,260.38095
"11452",182.1206,90.528725,265.12808
"11453",182.13379,94.26658,269.19495
"11454",182.14697,96.80812,272.1823
"11455",182.16016,98.06302,273.96246
"11456",182.17334,98.15823,274.62213
"11457",182.18652,97.33791,274.36926
"11458",182.1997,95.887695,273.46085
"11459",182.21289,94.081024,272.15067
"11460",182.22607,92.14252,270.6522
"11461",182.23926,90.22598,269.1151
"11462",182.25244,88.411995,267.6207
"11463",182.26562,86.695656,266.16724
"11464",182.27881,85.02571,264.70654
"11465",182.29199,83.34356,263.18146
"11466",182.30518,81.62966,261.57205
"11467",182.31836,79.93286,259.92618
"11468",182.33154,78.345924,258.33716
"11469",182.34473,76.995804,256.93533
"11470",182.35791,75.99481,255.84045
"11471",182.3711,75.38201,255.1025
"11472",182.38428,75.13298,254.70915
"11473",182.39746,75.176926,254.601
"11474",182.41064,75.406425,254.67978
"11475",182.42383,75.70428,254.83408
"11476",182.43701,75.96307,254.95863
"11477",182.4502,76.104675,254.97408
"11478",182.46338,76.08026,254.82793
"11479",182.47656,75.88495,254.51012
"11480",182.48975,75.526054,254.02263
"11481",182.50293,75.04265,253.39941
"11482",182.51611,74.478676,252.68053
"11483",182.5293,73.87564,251.90495
"11484",182.54248,73.272606,251.11053
"11485",182.55566,72.69886,250.32655
"11486",182.56885,72.17151,249.57104
"11487",182.58203,71.6881,248.843
"11488",182.59521,71.2462,248.14136
"11489",182.6084,70.84337,247.46497
"11490",182.62158,70.46494,246.8004
"11491",182.63477,70.10605,246.14354
"11492",182.64795,69.77402,245.50232
"11493",182.66113,69.49325,244.902
"11494",182.67432,69.35165,244.43205
"11495",182.6875,69.57137,244.31902
"11496",182.70068,70.486916,244.90866
"11497",182.71387,72.46204,246.5865
"11498",182.72705,75.67742,249.56631
"11499",182.74023,80.01831,253.77213
"11500",182.75342,85.04036,258.79474
"11501",182.7666,90.08682,263.99872
"11502",182.77979,94.4741,268.7012
"11503",182.79297,97.706566,272.386
"11504",182.80615,99.57671,274.80945
"11505",182.81934,100.16022,276.00473
"11506",182.83252,99.68658,276.1611
"11507",182.8457,98.44633,275.53607
"11508",182.85889,96.72755,274.39374
"11509",182.87207,94.786606,272.97552
"11510",182.88525,92.81148,271.46246
"11511",182.89844,90.916916,269.96826
"11512",182.91162,89.13222,268.52472
"11513",182.9248,87.42321,267.1011
"11514",182.93799,85.72884,265.6387
"11515",182.95117,83.99298,264.08188
"11516",182.96436,82.213165,262.42685
"11517",182.97754,80.45045,260.7333
"11518",182.99072,78.82689,259.12384
"11519",183.0039,77.45724,257.71753
"11520",183.01709,76.439156,256.62
"11521",183.03027,75.80438,255.87395
"11522",183.04346,75.51873,255.45718
"11523",183.05664,75.4992,255.2976
"11524",183.06982,75.64568,255.30344
"11525",183.08301,75.843445,255.36513
"11526",183.09619,76.00214,255.39392
"11527",183.10938,76.05585,255.3227
"11528",183.12256,75.95819,255.10178
"11529",183.13574,75.70428,254.72156
"11530",183.14893,75.30877,254.1918
"11531",183.16211,74.80095,253.53738
"11532",183.1753,74.215,252.78896
"11533",183.18848,73.59487,251.98805
"11534",183.20166,72.97719,251.17021
"11535",183.21484,72.38636,250.35992
"11536",183.22803,71.83948,249.57512
"11537",183.24121,71.33654,248.81717
"11538",183.2544,70.872665,248.08257
"11539",183.26758,70.43809,247.36276
"11540",183.28076,70.02304,246.64891
"11541",183.29395,69.63241,245.9465
"11542",183.30713,69.27352,245.26363
"11543",183.32031,69.00252,244.65742
"11544",183.3335,68.96834,244.27957
"11545",183.34668,69.454185,244.42068
"11546",183.35986,70.82872,245.46567
"11547",183.37305,73.38491,247.73526
"11548",183.38623,77.171585,251.31522
"11549",183.39941,81.90311,255.95834
"11550",183.4126,87.02037,261.13507
"11551",183.42578,91.81537,266.14944
"11552",183.43896,95.672844,270.37616
"11553",183.45215,98.229034,273.42212
"11554",183.46533,99.43267,275.1954
"11555",183.47852,99.43755,275.80756
"11556",183.4917,98.51713,275.49457
"11557",183.50488,96.96925,274.52536
"11558",183.51807,95.07225,273.15863
"11559",183.53125,93.05318,271.61057
"11560",183.54443,91.06828,270.03357
"11561",183.55762,89.18837,268.49954
"11562",183.5708,87.415886,267.0142
"11563",183.58398,85.697105,265.52716
"11564",183.59717,83.96857,263.97665
"11565",183.61035,82.20096,262.33307
"11566",183.62354,80.428474,260.62936
"11567",183.63672,78.74143,258.95572
"11568",183.6499,77.26681,257.44177
"11569",183.66309,76.112,256.20154
"11570",183.67627,75.34051,255.30855
"11571",183.68945,74.949875,254.77231
"11572",183.70264,74.87419,254.5388
"11573",183.71582,75.01579,254.52022
"11574",183.729,75.267265,254.61594
"11575",183.74219,75.51873,254.7195
"11576",183.75537,75.69451,254.75523
"11577",183.76855,75.74822,254.6744
"11578",183.78174,75.64568,254.43898
"11579",183.79492,75.386894,254.04411
"11580",183.8081,74.99626,253.50932
"11581",183.82129,74.50797,252.86467
"11582",183.83447,73.95621,252.14128
"11583",183.84766,73.375145,251.37135
"11584",183.86084,72.798965,250.58815
"11585",183.87402,72.24475,249.8089
"11586",183.8872,71.72228,249.04408
"11587",183.90039,71.236435,248.29956
"11588",183.91357,70.78722,247.57648
"11589",183.92676,70.36729,246.86865
"11590",183.93994,69.96689,246.16724
"11591",183.95312,69.59579,245.4826
"11592",183.96631,69.29305,244.85474
"11593",183.97949,69.18318,244.41028
"11594",183.99268,69.522545,244.41162
"11595",184.00586,70.66514,245.22679
"11596",184.01904,72.92836,247.1983
"11597",184.03223,76.41718,250.46614
"11598",184.04541,80.90944,254.84644
"11599",184.0586,85.892426,259.85785
"11600",184.07178,90.68253,264.8321
"11601",184.08496,94.63767,269.12106
"11602",184.09814,97.340355,272.28116
"11603",184.11133,98.68314,274.16583
"11604",184.12451,98.78813,274.85468
"11605",184.1377,97.91409,274.56778
"11606",184.15088,96.35401,273.5675
"11607",184.16406,94.398415,272.123
"11608",184.17725,92.29633,270.47086
"11609",184.19043,90.230865,268.78964
"11610",184.20361,88.29481,267.1733
"11611",184.2168,86.49058,265.6283
"11612",184.22998,84.76448,264.10504
"11613",184.24316,83.06035,262.5498
"11614",184.25635,81.356224,260.9413
"11615",184.26953,79.68871,259.3162
"11616",184.28271,78.153046,257.77078
"11617",184.2959,76.87373,256.43375
"11618",184.30908,75.95087,255.41318
"11619",184.32227,75.421074,254.75685
"11620",184.33545,75.264824,254.4575
"11621",184.34863,75.3991,254.4438
"11622",184.36182,75.71404,254.61496
"11623",184.375,76.09003,254.85701
"11624",184.38818,76.422066,255.06686
"11625",184.40137,76.629585,255.16257
"11626",184.41455,76.66621,255.09386
"11627",184.42773,76.524605,254.84807
"11628",184.44092,76.21454,254.4294
"11629",184.4541,75.772644,253.8692
"11630",184.46729,75.23308,253.19753
"11631",184.48047,74.64225,252.45773
"11632",184.49365,74.03189,251.67995
"11633",184.50684,73.43862,250.90018
"11634",184.52002,72.87465,250.13116
"11635",184.5332,72.34974,249.38359
"11636",184.54639,71.86633,248.66112
"11637",184.55957,71.41955,247.96016
"11638",184.57275,70.99718,247.26965
"11639",184.58594,70.591896,246.58304
"11640",184.59912,70.21591,245.91306
"11641",184.6123,69.93515,245.32654
"11642",184.62549,69.925385,245.00224
"11643",184.63867,70.504005,245.26604
"11644",184.65186,72.061646,246.52693
"11645",184.66504,74.85466,249.07187
"11646",184.67822,78.8513,252.90771
"11647",184.6914,83.6878,257.7083
"11648",184.70459,88.7367,262.87247
"11649",184.71777,93.28512,267.6939
"11650",184.73096,96.764175,271.58813
"11651",184.74414,98.897995,274.24585
"11652",184.75732,99.698784,275.6372
"11653",184.77051,99.36675,275.92078
"11654",184.78369,98.18753,275.34677
"11655",184.79688,96.45167,274.17926
"11656",184.81006,94.43015,272.67188
"11657",184.82324,92.34516,271.0378
"11658",184.83643,90.33097,269.4094
"11659",184.84961,88.44129,267.84256
"11660",184.8628,86.65171,266.31677
"11661",184.87598,84.9012,264.77414
"11662",184.88916,83.12627,263.15237
"11663",184.90234,81.32693,261.45074
"11664",184.91553,79.571526,259.73682
"11665",184.92871,77.99191,258.1438
"11666",184.9419,76.71992,256.80905
"11667",184.95508,75.84833,255.83496
"11668",184.96826,75.406425,255.26332
"11669",184.98145,75.338066,255.0514
"11670",184.99463,75.545586,255.11324
"11671",185.00781,75.894714,255.32317
"11672",185.021,76.2707,255.57086
"11673",185.03418,76.56611,255.74973
"11674",185.04736,76.71259,255.7889
"11675",185.06055,76.66865,255.64221
"11676",185.07373,76.436714,255.30617
"11677",185.08691,76.036316,254.79442
"11678",185.1001,75.50652,254.14076
"11679",185.11328,74.90105,253.39487
"11680",185.12646,74.26383,252.59831
"11681",185.13965,73.636375,251.7916
"11682",185.15283,73.040665,250.99702
"11683",185.16602,72.49622,250.2351
"11684",185.1792,72.00305,249.50745
"11685",185.19238,71.553825,248.80832
"11686",185.20557,71.14366,248.13422
"11687",185.21875,70.75304,247.46683
"11688",185.23193,70.37949,246.80432
"11689",185.24512,70.03769,246.16188
"11690",185.2583,69.79599,245.60886
"11691",185.27148,69.837494,245.33148
"11692",185.28467,70.4918,245.66821
"11693",185.29785,72.13977,247.01906
"11694",185.31104,75.037766,249.67142
"11695",185.32422,79.14183,253.6204
"11696",185.3374,84.08087,258.53262
"11697",185.35059,89.22987,263.80914
"11698",185.36377,93.88327,268.75098
"11699",185.37695,97.47219,272.77374
"11700",185.39014,99.73052,275.57806
"11701",185.40332,100.66804,277.13217
"11702",185.4165,100.48005,277.59006
"11703",185.42969,99.42535,277.17535
"11704",185.44287,97.80179,276.15884
"11705",185.45605,95.870605,274.78397
"11706",185.46924,93.84665,273.25598
"11707",185.48242,91.87152,271.71356
"11708",185.4956,90.01358,270.2266
"11709",185.50879,88.26063,268.78656
"11710",185.52197,86.554054,267.33813
"11711",185.53516,84.823074,265.81198
"11712",185.54834,83.05058,264.19022
"11713",185.56152,81.2781,262.51306
"11714",185.5747,79.603264,260.87817
"11715",185.58789,78.150604,259.41312
"11716",185.60107,77.02998,258.2347
"11717",185.61426,76.29023,257.40213
"11718",185.62744,75.91669,256.91266
"11719",185.64062,75.83856,256.70694
"11720",185.65381,75.95575,256.6941
"11721",185.66699,76.15839,256.77036
"11722",185.68018,76.34394,256.83585
"11723",185.69336,76.43427,256.81192
"11724",185.70654,76.38056,256.6468
"11725",185.71973,76.15839,256.3115
"11726",185.73291,75.77753,255.81058
"11727",185.7461,75.26971,255.1708
"11728",185.75928,74.67887,254.43214
"11729",185.77246,74.04898,253.63597
"11730",185.78564,73.42153,252.82256
"11731",185.79883,72.82338,252.01883
"11732",185.81201,72.26429,251.23547
"11733",185.8252,71.744255,250.4737
"11734",185.83838,71.26086,249.7323
"11735",185.85156,70.80675,249.0051
"11736",185.86475,70.37461,248.28568
"11737",185.87793,69.97421,247.58449
"11738",185.89111,69.61288,246.90985
"11739",185.9043,69.349205,246.32158
"11740",185.91748,69.332115,245.97165
"11741",185.93066,69.84726,246.15343
"11742",185.94385,71.24376,247.23265
"11743",185.95703,73.79996,249.51521
"11744",185.97021,77.54269,253.0642
"11745",185.9834,82.19119,257.6359
"11746",185.99658,87.183945,262.6971
"11747",186.00977,91.84955,267.58722
"11748",186.02295,95.59228,271.70026
"11749",186.03613,98.07767,274.6729
"11750",186.04932,99.25689,276.41705
"11751",186.0625,99.28863,277.05057
"11752",186.07568,98.43656,276.80127
"11753",186.08887,96.9839,275.92474
"11754",186.10205,95.19188,274.66345
"11755",186.11523,93.28268,273.229
"11756",186.12842,91.39544,271.75684
"11757",186.1416,89.600975,270.31848
"11758",186.15479,87.89685,268.9144
"11759",186.16797,86.22934,267.49365
"11760",186.18115,84.5301,265.98907
"11761",186.19434,82.76982,264.37036
"11762",186.20752,80.9778,262.6649
"11763",186.2207,79.23949,260.95712
"11764",186.23389,77.696495,259.39035
"11765",186.24707,76.46601,258.0879
"11766",186.26025,75.61883,257.13028
"11767",186.27344,75.15495,256.52948
"11768",186.28662,75.020676,256.2438
"11769",186.2998,75.11589,256.1834
"11770",186.31299,75.32586,256.24075
"11771",186.32617,75.545586,256.31442
"11772",186.33936,75.68719,256.31683
"11773",186.35254,75.69451,256.1894
"11774",186.36572,75.545586,255.90591
"11775",186.3789,75.24284,255.46397
"11776",186.39209,74.813156,254.88562
"11777",186.40527,74.288246,254.19862
"11778",186.41846,73.70962,253.4415
"11779",186.43164,73.109024,252.64433
"11780",186.44482,72.518196,251.83817
"11781",186.45801,71.95911,251.04527
"11782",186.47119,71.44396,250.27885
"11783",186.48438,70.97276,249.54028
"11784",186.49756,70.54063,248.82605
"11785",186.51074,70.14023,248.13005
"11786",186.52393,69.76181,247.44351
"11787",186.53711,69.41268,246.77444
"11788",186.5503,69.13435,246.16527
"11789",186.56348,69.02693,245.71829
"11790",186.57666,69.30282,245.65128
"11791",186.58984,70.294044,246.30821
"11792",186.60303,72.31068,248.02153
"11793",186.61621,75.491875,250.96243
"11794",186.6294,79.691154,255.02083
"11795",186.64258,84.48127,259.8013
"11796",186.65576,89.24208,264.70215
"11797",186.66895,93.33883,269.0877
"11798",186.68213,96.31495,272.48065
"11799",186.69531,98.00198,274.67752
"11800",186.7085,98.475624,275.7137
"11801",186.72168,97.94339,275.75885
"11802",186.73486,96.690926,275.0671
"11803",186.74805,94.994125,273.8919
"11804",186.76123,93.09712,272.46347
"11805",186.77441,91.17326,270.94888
"11806",186.7876,89.32021,269.445
"11807",186.80078,87.55993,267.97598
"11808",186.81396,85.86069,266.513
"11809",186.82715,84.16144,264.9969
"11810",186.84033,82.4329,263.3984
"11811",186.85352,80.69459,261.7361
"11812",186.8667,79.029526,260.09277
"11813",186.87988,77.56222,258.59512
"11814",186.89307,76.402534,257.35925
"11815",186.90625,75.61883,256.46313
"11816",186.91943,75.21599,255.92339
"11817",186.93262,75.13786,255.69576
"11818",186.9458,75.284355,255.6903
"11819",186.95898,75.543144,255.80173
"11820",186.97217,75.80194,255.92125
"11821",186.98535,75.97772,255.96584
"11822",186.99854,76.02411,255.88652
"11823",187.01172,75.914246,255.6524
"11824",187.0249,75.65789,255.26837
"11825",187.03809,75.284355,254.75914
"11826",187.05127,74.82048,254.1479
"11827",187.06445,74.30045,253.46602
"11828",187.07764,73.760895,252.74835
"11829",187.09082,73.22377,252.01625
"11830",187.104,72.7013,251.28203
"11831",187.11719,72.198364,250.55101
"11832",187.13037,71.724724,249.83357
"11833",187.14355,71.27795,249.12819
"11834",187.15674,70.85802,248.4357
"11835",187.16992,70.46494,247.75694
"11836",187.1831,70.11093,247.10497
"11837",187.19629,69.83261,246.51761
"11838",187.20947,69.74471,246.11198
"11839",187.22266,70.081635,246.12843
"11840",187.23584,71.17784,246.91469
"11841",187.24902,73.33608,248.79724
"11842",187.2622,76.65644,251.90935
"11843",187.27539,80.938736,256.08716
"11844",187.28857,85.70687,260.88464
"11845",187.30176,90.31144,265.66754
"11846",187.31494,94.134735,269.81308
"11847",187.32812,96.76906,272.8891
"11848",187.34131,98.10208,274.74615
"11849",187.35449,98.246124,275.45587
"11850",187.36768,97.445335,275.22528
"11851",187.38086,95.98779,274.3129
"11852",187.39404,94.15427,272.979
"11853",187.40723,92.17914,271.4462
"11854",187.42041,90.22354,269.8712
"11855",187.4336,88.37049,268.33762
"11856",187.44678,86.61753,266.84622
"11857",187.45996,84.91341,265.3489
"11858",187.47314,83.209274,263.7983
"11859",187.48633,81.4905,262.17984
"11860",187.49951,79.798584,260.53452
"11861",187.5127,78.238495,258.96814
"11862",187.52588,76.93233,257.60693
"11863",187.53906,75.98505,256.56378
"11864",187.55225,75.421074,255.87434
"11865",187.56543,75.21599,255.52617
"11866",187.57861,75.284355,255.44504
"11867",187.5918,75.51385,255.52716
"11868",187.60498,75.792175,255.6653
"11869",187.61816,76.016785,255.7584
"11870",187.63135,76.12665,255.74379
"11871",187.64453,76.07782,255.57391
"11872",187.65771,75.85809,255.23161
"11873",187.6709,75.48455,254.72864
"11874",187.68408,74.99626,254.09924
"11875",187.69727,74.43229,253.3789
"11876",187.71045,73.831696,252.60432
"11877",187.72363,73.233536,251.8134
"11878",187.73682,72.66468,251.0331
"11879",187.75,72.13977,250.27896
"11880",187.76318,71.66125,249.55481
"11881",187.77637,71.22911,248.86209
"11882",187.78955,70.82872,248.1876
"11883",187.80273,70.452736,247.52502
"11884",187.81592,70.08652,246.86046
"11885",187.8291,69.73739,246.20154
"11886",187.84229,69.4493,245.59274
"11887",187.85547,69.35409,245.16782
"11888",187.86865,69.715416,245.19646
"11889",187.88184,70.90196,246.06161
"11890",187.89502,73.22865,248.10399
"11891",187.9082,76.7834,251.44713
"11892",187.92139,81.33425,255.89746
"11893",187.93457,86.35142,260.95633
"11894",187.94775,91.15129,265.95468
"11895",187.96094,95.10155,270.25342
"11896",187.97412,97.813995,273.4378
"11897",187.9873,99.20317,275.38367
"11898",188.00049,99.405815,276.1864
"11899",188.01367,98.67582,276.06284
"11900",188.02686,97.29397,275.26462
"11901",188.04004,95.53124,274.04233
"11902",188.05322,93.61715,272.6136
"11903",188.0664,91.7055,271.12747
"11904",188.07959,89.88663,269.6744
"11905",188.09277,88.165405,268.26215
"11906",188.10596,86.485695,266.83762
"11907",188.11914,84.78401,265.33862
"11908",188.13232,83.021286,263.7254
"11909",188.14551,81.214615,262.01315
"11910",188.15869,79.46166,260.29816
"11911",188.17188,77.891815,258.7115
"11912",188.18506,76.63447,257.38824
"11913",188.19824,75.7702,256.4188
"11914",188.21143,75.30633,255.82274
"11915",188.22461,75.18425,255.55399
"11916",188.2378,75.30633,255.52557
"11917",188.25098,75.55047,255.62303
"11918",188.26416,75.80438,255.7379
"11919",188.27734,75.9704,255.7728
"11920",188.29053,75.99481,255.67128
"11921",188.30371,75.843445,255.39474
"11922",188.3169,75.51873,254.94014
"11923",188.33008,75.04753,254.3289
"11924",188.34326,74.47135,253.59796
"11925",188.35645,73.84146,252.7953
"11926",188.36963,73.19447,251.95586
"11927",188.38281,72.569466,251.11818
"11928",188.396,71.993286,250.3098
"11929",188.40918,71.47082,249.53712
"11930",188.42236,71.00206,248.80183
"11931",188.43555,70.57725,248.09584
"11932",188.44873,70.18417,247.40831
"11933",188.46191,69.81308,246.73047
"11934",188.4751,69.46151,246.06056
"11935",188.48828,69.15633,245.42606
"11936",188.50146,68.96101,244.89188
"11937",188.51465,69.048904,244.6348
"11938",188.52783,69.74471,244.98839
"11939",188.54102,71.41711,246.3403
"11940",188.5542,74.31266,248.96764
"11941",188.56738,78.39475,252.872
"11942",188.58057,83.30938,257.73645
"11943",188.59375,88.42664,262.95712
"11944",188.60693,93.04341,267.83722
"11945",188.62012,96.603035,271.80444
"11946",188.6333,98.8394,274.55966
"11947",188.64648,99.77692,276.0859
"11948",188.65967,99.61822,276.54523
"11949",188.67285,98.634315,276.1744
"11950",188.68604,97.110855,275.23328
"11951",188.69922,95.29931,273.95645
"11952",188.7124,93.402306,272.53754
"11953",188.72559,91.54192,271.09598
"11954",188.73877,89.779205,269.69394
"11955",188.75195,88.08972,268.31006
"11956",188.76514,86.41245,266.8856
"11957",188.77832,84.66926,265.34277
"11958",188.7915,82.85039,263.66983
"11959",188.80469,80.99489,261.9034
"11960",188.81787,79.21019,260.1498
"11961",188.83105,77.63302,258.54794
"11962",188.84424,76.383,257.22397
"11963",188.85742,75.528496,256.25644
"11964",188.8706,75.06462,255.65283
"11965",188.88379,74.932785,255.36676
"11966",188.89697,75.028,255.30362
"11967",188.91016,75.2404,255.36064
"11968",188.92334,75.45281,255.42432
"11969",188.93652,75.579765,255.40916
"11970",188.9497,75.57,255.26126
"11971",188.96289,75.39666,254.94948
"11972",188.97607,75.071945,254.48091
"11973",188.98926,74.617836,253.8728
"11974",189.00244,74.06851,253.15529
"11975",189.01562,73.46548,252.3669
"11976",189.02881,72.84779,251.54501
"11977",189.04199,72.24475,250.71846
"11978",189.05518,71.68322,249.91458
"11979",189.06836,71.17052,249.14198
"11980",189.08154,70.7042,248.39975
"11981",189.09473,70.276955,247.682
"11982",189.10791,69.87656,246.97777
"11983",189.1211,69.49081,246.27567
"11984",189.13428,69.12459,245.58104
"11985",189.14746,68.79988,244.91647
"11986",189.16064,68.58259,244.34918
"11987",189.17383,68.64362,244.05342
"11988",189.18701,69.29061,244.34552
"11989",189.2002,70.89708,245.61732
"11990",189.21338,73.72915,248.16493
"11991",189.22656,77.77951,252.01933
"11992",189.23975,82.69657,256.867
"11993",189.25293,87.87244,262.12714
"11994",189.26611,92.60151,267.10223
"11995",189.2793,96.290535,271.18506
"11996",189.29248,98.651405,274.055
"11997",189.30566,99.684135,275.6706
"11998",189.31885,99.58892,276.19052
"11999",189.33203,98.631874,275.84564
"12000",189.34521,97.10353,274.89954
"12001",189.3584,95.26025,273.59073
"12002",189.37158,93.30953,272.11688
"12003",189.38477,91.38567,270.60895
"12004",189.39795,89.55703,269.1361
"12005",189.41113,87.80652,267.68427
"12006",189.42432,86.07553,266.19724
"12007",189.4375,84.30549,264.61707
"12008",189.45068,82.46952,262.91565
"12009",189.46387,80.62867,261.15198
"12010",189.47705,78.87816,259.4211
"12011",189.49023,77.35226,257.86014
"12012",189.50342,76.16327,256.5884
"12013",189.5166,75.372246,255.67749
"12014",189.52979,74.966965,255.1276
"12015",189.54297,74.88884,254.89218
"12016",189.55615,75.03044,254.87405
"12017",189.56934,75.27947,254.96779
"12018",189.58252,75.52361,255.0644
"12019",189.5957,75.684746,255.08565
"12020",189.60889,75.70428,254.97032
"12021",189.62207,75.562675,254.69447
"12022",189.63525,75.267265,254.26039
"12023",189.64844,74.83513,253.68036
"12024",189.66162,74.305336,252.98917
"12025",189.6748,73.71938,252.22525
"12026",189.68799,73.12123,251.43083
"12027",189.70117,72.54017,250.63481
"12028",189.71436,71.99817,249.8597
"12029",189.72754,71.502556,249.11403
"12030",189.74072,71.046005,248.39194
"12031",189.7539,70.61631,247.68243
"12032",189.76709,70.20615,246.97903
"12033",189.78027,69.81552,246.28235
"12034",189.79346,69.43954,245.5881
"12035",189.80664,69.09041,244.90897
"12036",189.81982,68.83162,244.30925
"12037",189.83301,68.824295,243.95291
"12038",189.84619,69.35897,244.13835
"12039",189.85938,70.818954,245.26581
"12040",189.87256,73.48745,247.6474
"12041",189.88574,77.38888,251.3453
"12042",189.89893,82.2034,256.07822
"12043",189.91211,87.345085,261.28876
"12044",189.9253,92.10101,266.27423
"12045",189.93848,95.85596,270.40732
"12046",189.95166,98.28031,273.32718
"12047",189.96484,99.34234,274.96048
"12048",189.97803,99.2227,275.44528
"12049",189.99121,98.19241,275.01572
"12050",190.0044,96.54688,273.9387
"12051",190.01758,94.56931,272.4782
"12052",190.03076,92.48432,270.8485
"12053",190.04395,90.44572,269.20004
"12054",190.05713,88.531624,267.61237
"12055",190.07031,86.73228,266.07962
"12056",190.0835,84.99397,264.5517
"12057",190.09668,83.25323,262.967
"12058",190.10986,81.495384,261.31082
"12059",190.12305,79.76929,259.63147
"12060",190.13623,78.184784,258.03976
"12061",190.14941,76.87862,256.67688
"12062",190.1626,75.94354,255.64426
"12063",190.17578,75.423515,254.99747
"12064",190.18896,75.27947,254.7104
"12065",190.20215,75.423515,254.70692
"12066",190.21533,75.73113,254.87152
"12067",190.22852,76.09003,255.09702
"12068",190.2417,76.39033,255.27513
"12069",190.25488,76.558784,255.33078
"12070",190.26807,76.55634,255.2208
"12071",190.28125,76.37324,254.93007
"12072",190.29443,76.02167,254.46516
"12073",190.30762,75.53338,253.85255
"12074",190.3208,74.9572,253.1368
"12075",190.33398,74.33463,252.35664
"12076",190.34717,73.704735,251.5497
"12077",190.36035,73.08949,250.73773
"12078",190.37354,72.51331,249.9456
"12079",190.38672,71.973755,249.17209
"12080",190.3999,71.468376,248.4159
"12081",190.41309,70.99718,247.67809
"12082",190.42627,70.55772,246.95729
"12083",190.43945,70.14267,246.24718
"12084",190.45264,69.752045,245.54851
"12085",190.46582,69.4078,244.88402
"12086",190.479,69.207596,244.35281
"12087",190.49219,69.37118,244.17914
"12088",190.50537,70.26719,244.743
"12089",190.51855,72.26185,246.4335
"12090",190.53174,75.5407,249.47054
"12091",190.54492,79.957275,253.74776
"12092",190.5581,85.0428,258.83194
"12093",190.57129,90.10635,264.05307
"12094",190.58447,94.45457,268.7171
"12095",190.59766,97.59426,272.3085
"12096",190.61084,99.354546,274.6186
"12097",190.62402,99.82086,275.68973
"12098",190.6372,99.227585,275.71585
"12099",190.65039,97.86771,274.95685
"12100",190.66357,96.026855,273.67438
"12101",190.67676,93.95163,272.09998
"12102",190.68994,91.83978,270.4241
"12103",190.70312,89.79874,268.75305
"12104",190.71631,87.869995,267.13052
"12105",190.72949,86.01938,265.52585
"12106",190.74268,84.190735,263.8853
"12107",190.75586,82.337685,262.16324
"12108",190.76904,80.48707,260.38568
"12109",190.78223,78.712135,258.62598
"12110",190.79541,77.152054,257.02563
"12111",190.8086,75.928894,255.71347
"12112",190.82178,75.13298,254.79033
"12113",190.83496,74.77409,254.27934
"12114",190.84814,74.78386,254.1258
"12115",190.86133,75.04509,254.22401
"12116",190.87451,75.43328,254.45737
"12117",190.8877,75.82147,254.70285
"12118",190.90088,76.112,254.8628
"12119",190.91406,76.23407,254.86336
"12120",190.92725,76.16571,254.6773
"12121",190.94043,75.90448,254.29625
"12122",190.95361,75.47967,253.74345
"12123",190.9668,74.932785,253.05531
"12124",190.97998,74.305336,252.26952
"12125",190.99316,73.64614,251.43236
"12126",191.00635,72.99672,250.58438
"12127",191.01953,72.38636,249.75517
"12128",191.03271,71.82971,248.9606
"12129",191.0459,71.33654,248.21211
"12130",191.05908,70.89708,247.50192
"12131",191.07227,70.4918,246.81218
"12132",191.08545,70.115814,246.13907
"12133",191.09863,69.754486,245.46886
"12134",191.11182,69.41024,244.80444
"12135",191.125,69.100174,244.16345
"12136",191.13818,68.9073,243.62996
"12137",191.15137,69.04646,243.42247
"12138",191.16455,69.89365,243.92735
"12139",191.17773,71.86633,245.58421
"12140",191.19092,75.208664,248.67236
"12141",191.2041,79.818115,253.13208
"12142",191.21729,85.22102,258.5293
"12143",191.23047,90.6923,264.16373
"12144",191.24365,95.47265,269.2782
"12145",191.25684,99.002975,273.29205
"12146",191.27002,101.07576,275.95868
"12147",191.2832,101.769135,277.31067
"12148",191.29639,101.33456,277.55637
"12149",191.30957,100.069885,276.9584
"12150",191.32275,98.27299,275.7887
"12151",191.33594,96.20508,274.2918
"12152",191.34912,94.06882,272.66196
"12153",191.3623,92.0058,271.03857
"12154",191.37549,90.06485,269.4728
"12155",191.38867,88.22888,267.95135
"12156",191.40186,86.42954,266.40918
"12157",191.41504,84.60578,264.78635
"12158",191.42822,82.735634,263.06012
"12159",191.4414,80.86549,261.27548
"12160",191.45459,79.10277,259.5398
"12161",191.46777,77.574425,257.9834
"12162",191.48096,76.40009,256.73328
"12163",191.49414,75.631035,255.85172
"12164",191.50732,75.25994,255.34409
"12165",191.52051,75.22087,255.15689
"12166",191.53369,75.403984,255.19066
"12167",191.54688,75.69207,255.33511
"12168",191.56006,75.96796,255.47638
"12169",191.57324,76.14374,255.52615
"12170",191.58643,76.1535,255.4154
"12171",191.59961,75.98016,255.12186
"12172",191.6128,75.63348,254.64955
"12173",191.62598,75.14763,254.02725
"12174",191.63916,74.564125,253.29211
"12175",191.65234,73.92691,252.48503
"12176",191.66553,73.27993,251.64827
"12177",191.67871,72.64515,250.80348
"12178",191.6919,72.042114,249.97061
"12179",191.70508,71.48058,249.1604
"12180",191.71826,70.960556,248.37415
"12181",191.73145,70.47227,247.60338
"12182",191.74463,70.013275,246.84665
"12183",191.75781,69.5787,246.09999
"12184",191.771,69.16609,245.36172
"12185",191.78418,68.80476,244.66183
"12186",191.79736,68.59724,244.10446
"12187",191.81055,68.795,243.94589
"12188",191.82373,69.786224,244.58696
"12189",191.83691,71.96887,246.45042
"12190",191.8501,75.511406,249.74199
"12191",191.86328,80.23804,254.32835
"12192",191.87646,85.62142,259.71918
"12193",191.88965,90.916916,265.19034
"12194",191.90283,95.39941,270.01398
"12195",191.91602,98.58549,273.68127
"12196",191.9292,100.34333,276.01993
"12197",191.94238,100.79744,277.10977
"12198",191.95557,100.21393,277.17618
"12199",191.96875,98.88335,276.4773
"12200",191.98193,97.091324,275.2754
"12201",191.99512,95.06981,273.78796
"12202",192.0083,93.00191,272.19098
"12203",192.02148,90.99992,270.5953
"12204",192.03467,89.10536,269.0445
"12205",192.04785,87.28161,267.50528
"12206",192.06104,85.47494,265.92615
"12207",192.07422,83.631645,264.25394
"12208",192.0874,81.75174,262.48752
"12209",192.10059,79.89868,260.6892
"12210",192.11377,78.18234,258.9697
"12211",192.12695,76.72968,257.46024
"12212",192.14014,75.64324,256.2716
"12213",192.15332,74.95964,255.45186
"12214",192.1665,74.65934,254.99405
"12215",192.17969,74.66178,254.82959
"12216",192.19287,74.86687,254.86786
"12217",192.20605,75.16228,255.00285
"12218",192.21924,75.44305,255.13245
"12219",192.23242,75.62859,255.17558
"12220",192.2456,75.67254,255.08292
"12221",192.25879,75.55047,254.8256
"12222",192.27197,75.26238,254.39847
"12223",192.28516,74.83513,253.82317
"12224",192.29834,74.302895,253.12953
"12225",192.31152,73.704735,252.35333
"12226",192.3247,73.08217,251.53404
"12227",192.33789,72.464485,250.70018
"12228",192.35107,71.87854,249.87875
"12229",192.36426,71.326775,249.0732
"12230",192.37744,70.81407,248.28946
"12231",192.39062,70.328224,247.51656
"12232",192.40381,69.87167,246.75777
"12233",192.41699,69.434654,246.00424
"12234",192.43018,69.0367,245.27612
"12235",192.44336,68.72419,244.62102
"12236",192.45654,68.6363,244.18076
"12237",192.46973,69.03914,244.22849
"12238",192.48291,70.32334,245.17017
"12239",192.4961,72.813614,247.35805
"12240",192.50928,76.59052,250.91039
"12241",192.52246,81.39773,255.61104
"12242",192.53564,86.66392,260.9209
"12243",192.54883,91.66155,266.12677
"12244",192.56201,95.72411,270.55374
"12245",192.5752,98.458534,273.77954
"12246",192.58838,99.78912,275.68695
"12247",192.60156,99.87457,276.3908
"12248",192.61475,98.97856,276.11588
"12249",192.62793,97.39895,275.12933
"12250",192.64111,95.41894,273.69305
"12251",192.6543,93.27047,272.02643
"12252",192.66748,91.13664,270.3073
"12253",192.68066,89.11757,268.63626
"12254",192.69385,87.22301,267.0266
"12255",192.70703,85.40902,265.43835
"12256",192.72021,83.60967,263.80804
"12257",192.7334,81.80301,262.1142
"12258",192.74658,80.01831,260.38583
"12259",192.75977,78.35081,258.7189
"12260",192.77295,76.93233,257.24887
"12261",192.78613,75.877625,256.0983
"12262",192.79932,75.2404,255.33224
"12263",192.8125,75.01091,254.95401
"12264",192.82568,75.11345,254.90063
"12265",192.83887,75.4284,255.06288
"12266",192.85205,75.83612,255.32774
"12267",192.86523,76.21942,255.58092
"12268",192.87842,76.48798,255.73134
"12269",192.8916,76.59052,255.72412
"12270",192.90479,76.5124,255.53944
"12271",192.91797,76.263374,255.18143
"12272",192.93115,75.877625,254.67891
"12273",192.94434,75.39666,254.06912
"12274",192.95752,74.87175,253.40036
"12275",192.9707,74.34196,252.71031
"12276",192.98389,73.82681,252.01836
"12277",192.99707,73.33608,251.33472
"12278",193.01025,72.86244,250.65283
"12279",193.02344,72.393684,249.96103
"12280",193.03662,71.920044,249.2497
"12281",193.0498,71.44152,248.51868
"12282",193.06299,70.95567,247.76538
"12283",193.07617,70.49668,247.02376
"12284",193.08936,70.13779,246.36789
"12285",193.10254,70.064545,245.98645
"12286",193.11572,70.61143,246.22285
"12287",193.1289,72.166626,247.48466
"12288",193.14209,74.97917,250.05241
"12289",193.15527,79.00267,253.919
"12290",193.16846,83.84161,258.72678
"12291",193.18164,88.84657,263.85178
"12292",193.19482,93.30709,268.58875
"12293",193.20801,96.66407,272.36157
"12294",193.22119,98.66117,274.87943
"12295",193.23438,99.34478,276.1462
"12296",193.24756,98.92485,276.3308
"12297",193.26074,97.68459,275.68195
"12298",193.27393,95.90967,274.45966
"12299",193.28711,93.86618,272.91333
"12300",193.3003,91.75922,271.2397
"12301",193.31348,89.720604,269.56854
"12302",193.32666,87.79675,267.94846
"12303",193.33984,85.97299,266.36835
"12304",193.35303,84.18341,264.7654
"12305",193.36621,82.38407,263.0968
"12306",193.3794,80.5774,261.36462
"12307",193.39258,78.84398,259.64926
"12308",193.40576,77.30343,258.07257
"12309",193.41895,76.09003,256.7749
"12310",193.43213,75.28924,255.85193
"12311",193.44531,74.91814,255.33362
"12312",193.4585,74.915695,255.17236
"12313",193.47168,75.1696,255.26738
"12314",193.48486,75.55047,255.4973
"12315",193.49805,75.93378,255.74156
"12316",193.51123,76.22186,255.90257
"12317",193.52441,76.35615,255.9188
"12318",193.5376,76.30244,255.7512
"12319",193.55078,76.068054,255.40128
"12320",193.56396,75.667656,254.878
"12321",193.57715,75.14519,254.22015
"12322",193.59033,74.54948,253.47273
"12323",193.60352,73.92203,252.67496
"12324",193.6167,73.304344,251.86734
"12325",193.62988,72.71839,251.07214
"12326",193.64307,72.17395,250.30016
"12327",193.65625,71.673454,249.5551
"12328",193.66943,71.2169,248.83835
"12329",193.68262,70.79454,248.14151
"12330",193.6958,70.40391,247.46321
"12331",193.70898,70.03769,246.79712
"12332",193.72217,69.712975,246.16109
"12333",193.73535,69.51766,245.6443
"12334",193.74854,69.66903,245.4681
"12335",193.76172,70.538185,246.0144
"12336",193.7749,72.51331,247.69385
"12337",193.78809,75.789734,250.73631
"12338",193.80127,80.233154,255.04816
"12339",193.81445,85.36996,260.19226
"12340",193.82764,90.50431,265.49442
"12341",193.84082,94.93553,270.2539
"12342",193.854,98.16556,273.95068
"12343",193.86719,100.02106,276.37384
"12344",193.88037,100.60456,277.583
"12345",193.89355,100.155334,277.77768
"12346",193.90674,98.951706,277.20392
"12347",193.91992,97.26711,276.11157
"12348",193.9331,95.33837,274.7224
"12349",193.94629,93.34615,273.20953
"12350",193.95947,91.407646,271.68808
"12351",193.97266,89.566795,270.2037
"12352",193.98584,87.80408,268.73996
"12353",193.99902,86.056,267.23575
"12354",194.0122,84.27131,265.64032
"12355",194.02539,82.44022,263.94272
"12356",194.03857,80.621346,262.2001
"12357",194.05176,78.92699,260.52518
"12358",194.06494,77.488976,259.05362
"12359",194.07812,76.422066,257.90823
"12360",194.09131,75.76044,257.1348
"12361",194.10449,75.48699,256.72885
"12362",194.11768,75.50652,256.60736
"12363",194.13086,75.70916,256.6696
"12364",194.14404,75.9704,256.79672
"12365",194.15723,76.1828,256.8832
"12366",194.17041,76.27314,256.85425
"12367",194.1836,76.20233,256.66696
"12368",194.19678,75.96307,256.30902
"12369",194.20996,75.56756,255.78735
"12370",194.22314,75.054855,255.13614
"12371",194.23633,74.461586,254.38834
"12372",194.24951,73.831696,253.58537
"12373",194.2627,73.196915,252.75783
"12374",194.27588,72.57923,251.92755
"12375",194.28906,71.993286,251.10971
"12376",194.30225,71.44396,250.31018
"12377",194.31543,70.92149,249.52034
"12378",194.32861,70.42832,248.74347
"12379",194.3418,69.96689,247.98293
"12380",194.35498,69.53231,247.23482
"12381",194.36816,69.16121,246.5366
"12382",194.38135,68.94148,245.97816
"12383",194.39453,69.085526,245.77663
"12384",194.40771,69.93027,246.28029
"12385",194.4209,71.84924,247.88458
"12386",194.43408,75.028,250.80862
"12387",194.44727,79.35668,254.98193
"12388",194.46045,84.38361,259.98877
"12389",194.47363,89.44717,265.1893
"12390",194.48682,93.86374,269.9011
"12391",194.5,97.145035,273.61563
"12392",194.51318,99.10307,276.10944
"12393",194.52637,99.825745,277.42908
"12394",194.53955,99.53033,277.7532
"12395",194.55273,98.49027,277.3235
"12396",194.56592,96.96681,276.37784
"12397",194.5791,95.18944,275.13068
"12398",194.59229,93.33395,273.74985
"12399",194.60547,91.507744,272.34033
"12400",194.61865,89.74258,270.93478
"12401",194.63184,88.009155,269.50583
"12402",194.64502,86.2562,268.00317
"12403",194.6582,84.43488,266.37735
"12404",194.67139,82.55009,264.63113
"12405",194.68457,80.66529,262.82602
"12406",194.69775,78.890366,261.0719
"12407",194.71094,77.35226,259.4991
"12408",194.72412,76.155945,258.22006
"12409",194.7373,75.34783,257.2918
"12410",194.75049,74.91081,256.7094
"12411",194.76367,74.78386,256.42343
"12412",194.77686,74.8571,256.33368
"12413",194.79004,75.028,256.34387
"12414",194.80322,75.194016,256.35452
"12415",194.8164,75.27947,256.2898
"12416",194.82959,75.2404,256.1032
"12417",194.84277,75.052414,255.76648
"12418",194.85596,74.72526,255.28471
"12419",194.86914,74.285805,254.68042
"12420",194.88232,73.76578,253.98183
"12421",194.89551,73.196915,253.21814
"12422",194.90869,72.61829,252.42693
"12423",194.92188,72.044556,251.62251
"12424",194.93506,71.500114,250.82947
"12425",194.94824,70.98497,250.0487
"12426",194.96143,70.501564,249.28358
"12427",194.97461,70.047455,248.53265
"12428",194.9878,69.61288,247.78706
"12429",195.00098,69.20271,247.0523
"12430",195.01416,68.84383,246.356
"12431",195.02734,68.61677,245.78032
"12432",195.04053,68.699776,245.5076
"12433",195.05371,69.400475,245.85516
"12434",195.0669,71.0753,247.19876
"12435",195.08008,73.94644,249.791
"12436",195.09326,77.96994,253.62532
"12437",195.10645,82.777145,258.36908
"12438",195.11963,87.75769,263.4364
"12439",195.13281,92.24017,268.16132
"12440",195.146,95.68505,271.9887
"12441",195.15918,97.83597,274.6298
"12442",195.17236,98.71488,276.06607
"12443",195.18555,98.51713,276.45316
"12444",195.19873,97.50637,276.02106
"12445",195.21191,95.958496,275.02026
"12446",195.2251,94.13229,273.69275
"12447",195.23828,92.22308,272.22516
"12448",195.25146,90.36027,270.74432
"12449",195.26465,88.58289,269.2907
"12450",195.27783,86.86656,267.8426
"12451",195.29102,85.14778,266.33838
"12452",195.3042,83.3753,264.72678
"12453",195.31738,81.54177,262.99872
"12454",195.33057,79.72289,261.22803
"12455",195.34375,78.02609,259.52255
"12456",195.35693,76.58564,258.02042
"12457",195.37012,75.511406,256.83948
"12458",195.3833,74.844894,256.03268
"12459",195.39648,74.55924,255.58594
"12460",195.40967,74.581215,255.43788
"12461",195.42285,74.80339,255.49072
"12462",195.43604,75.10124,255.62617
"12463",195.44922,75.37713,255.74898
"12464",195.4624,75.55047,255.77785
"12465",195.47559,75.577324,255.66565
"12466",195.48877,75.44549,255.3956
"12467",195.50195,75.16228,254.97006
"12468",195.51514,74.757,254.4136
"12469",195.52832,74.26383,253.75659
"12470",195.5415,73.721825,253.03532
"12471",195.55469,73.16762,252.28493
"12472",195.56787,72.61585,251.51965
"12473",195.58105,72.08362,250.75667
"12474",195.59424,71.5758,250.00146
"12475",195.60742,71.09239,249.2548
"12476",195.6206,70.63096,248.51501
"12477",195.63379,70.19394,247.78522
"12478",195.64697,69.79599,247.08083
"12479",195.66016,69.4786,246.44456
"12480",195.67334,69.36141,245.99858
"12481",195.68652,69.68856,245.99327
"12482",195.6997,70.80675,246.78923
"12483",195.71289,73.01869,248.71388
"12484",195.72607,76.422066,251.8991
"12485",195.73926,80.79469,256.1599
"12486",195.75244,85.63851,261.02856
"12487",195.76562,90.301674,265.86792
"12488",195.77881,94.15915,270.04733
"12489",195.79199,96.81789,273.14853
"12490",195.80518,98.177765,275.03397
"12491",195.81836,98.36088,275.78513
"12492",195.83154,97.61135,275.60938
"12493",195.84473,96.20508,274.75345
"12494",195.85791,94.41306,273.46783
"12495",195.8711,92.46479,271.96997
"12496",195.88428,90.511635,270.40634
"12497",195.89746,88.636604,268.8598
"12498",195.91064,86.837265,267.33035
"12499",195.92383,85.06233,265.76907
"12500",195.93701,83.25567,264.1206
"12501",195.9502,81.40749,262.37418
"12502",195.96338,79.571526,260.58218
"12503",195.97656,77.8674,258.86465
"12504",195.98975,76.436714,257.3673
"12505",196.00293,75.3991,256.21835
"12506",196.01611,74.793625,255.4691
"12507",196.0293,74.598305,255.11108
"12508",196.04248,74.71549,255.05946
"12509",196.05566,75.02556,255.20439
"12510",196.06885,75.39422,255.4176
"12511",196.08203,75.70916,255.58861
"12512",196.09521,75.897156,255.64252
"12513",196.1084,75.914246,255.53139
"12514",196.12158,75.75067,255.24013
"12515",196.13477,75.42596,254.78262
"12516",196.14795,74.966965,254.1807
"12517",196.16113,74.42252,253.47897
"12518",196.17432,73.831696,252.71385
"12519",196.1875,73.22865,251.91805
"12520",196.20068,72.64515,251.12294
"12521",196.21387,72.09827,250.34622
"12522",196.22705,71.59289,249.59392
"12523",196.24023,71.11925,248.85756
"12524",196.25342,70.67246,248.13326
"12525",196.2666,70.240326,247.40964
"12526",196.27979,69.820404,246.68472
"12527",196.29297,69.451744,245.99796
"12528",196.30615,69.22713,245.44371
"12529",196.31934,69.37606,245.256
"12530",196.33252,70.25254,245.80048
"12531",196.3457,72.21057,247.4539
"12532",196.35889,75.421074,250.42099
"12533",196.37207,79.744865,254.60168
"12534",196.38525,84.72053,259.56937
"12535",196.39844,89.686424,264.68277
"12536",196.41162,93.96628,269.26532
"12537",196.4248,97.093765,272.82925
"12538",196.43799,98.90044,275.1701
"12539",196.45117,99.474174,276.33447
"12540",196.46436,99.04204,276.5109
"12541",196.47754,97.87503,275.93896
"12542",196.49072,96.24658,274.8691
"12543",196.5039,94.39109,273.52133
"12544",196.51709,92.489204,272.06915
"12545",196.53027,90.64103,270.61127
"12546",196.54346,88.87343,269.1762
"12547",196.55664,87.14244,267.7225
"12548",196.56982,85.38705,266.1903
"12549",196.58301,83.560844,264.53244
"12550",196.59619,81.67849,262.76135
"12551",196.60938,79.82788,260.9632
"12552",196.62256,78.13107,259.26102
"12553",196.63574,76.72724,257.79877
"12554",196.64893,75.71404,256.6833
"12555",196.66211,75.12077,255.95609
"12556",196.6753,74.90349,255.58632
"12557",196.68848,74.97917,255.50273
"12558",196.70166,75.21843,255.58508
"12559",196.71484,75.4992,255.71643
"12560",196.72803,75.72381,255.80038
"12561",196.74121,75.81415,255.7571
"12562",196.7544,75.736015,255.54816
"12563",196.76758,75.48211,255.161
"12564",196.78076,75.0695,254.60721
"12565",196.79395,74.53971,253.92334
"12566",196.80713,73.93912,253.15211
"12567",196.82031,73.30923,252.33282
"12568",196.8335,72.689095,251.5036
"12569",196.84668,72.09827,250.68431
"12570",196.85986,71.54894,249.88806
"12571",196.87305,71.03624,249.11127
"12572",196.88623,70.56016,248.35507
"12573",196.89941,70.11337,247.6133
"12574",196.9126,69.695885,246.88686
"12575",196.92578,69.312584,246.18155
"12576",196.93896,69.00496,245.53995
"12577",196.95215,68.88777,245.07916
"12578",196.96533,69.21004,245.05417
"12579",196.97852,70.33555,245.8425
"12580",196.9917,72.59388,247.79881
"12581",197.00488,76.10712,251.08061
"12582",197.01807,80.67017,255.52202
"12583",197.03125,85.767914,260.6407
"12584",197.04443,90.71671,265.76974
"12585",197.05762,94.86717,270.2551
"12586",197.0708,97.80423,273.65674
"12587",197.08398,99.41314,275.82202
"12588",197.09717,99.825745,276.84128
"12589",197.11035,99.28863,276.9237
"12590",197.12354,98.075226,276.31308
"12591",197.13672,96.44434,275.24704
"12592",197.1499,94.62791,273.9445
"12593",197.16309,92.77974,272.55344
"12594",197.17627,90.99016,271.1632
"12595",197.18945,89.26406,269.78055
"12596",197.20264,87.56237,268.36835
"12597",197.21582,85.81186,266.85416
"12598",197.229,83.97345,265.19736
"12599",197.24219,82.0618,263.40988
"12600",197.25537,80.17212,261.58463
"12601",197.26855,78.4387,259.85657
"12602",197.28174,76.9836,258.35266
"12603",197.29492,75.894714,257.16953
"12604",197.3081,75.18913,256.33566
"12605",197.32129,74.83513,255.83131
"12606",197.33447,74.74967,255.58446
"12607",197.34766,74.83269,255.5034
"12608",197.36084,74.97917,255.4884
"12609",197.37402,75.0988,255.45113
"12610",197.3872,75.11833,255.31749
"12611",197.40039,75.003586,255.05019
"12612",197.41357,74.74967,254.64014
"12613",197.42676,74.37614,254.10252
"12614",197.43994,73.9147,253.46535
"12615",197.45312,73.39712,252.7576
"12616",197.46631,72.84779,252.00194
"12617",197.47949,72.29359,251.22423
"12618",197.49268,71.75159,250.4414
"12619",197.50586,71.23399,249.66605
"12620",197.51904,70.74326,248.90138
"12621",197.53223,70.279396,248.14824
"12622",197.54541,69.82773,247.3928
"12623",197.5586,69.39315,246.64035
"12624",197.57178,68.98543,245.90117
"12625",197.58496,68.65339,245.22493
"12626",197.59814,68.506905,244.72386
"12627",197.61133,68.77791,244.63571
"12628",197.62451,69.8082,245.3153
"12629",197.6377,71.92981,247.11842
"12630",197.65088,75.27703,250.21346
"12631",197.66406,79.68139,254.47021
"12632",197.67725,84.681465,259.46033
"12633",197.69043,89.62295,264.5481
"12634",197.70361,93.85153,269.0774
"12635",197.7168,96.91066,272.56937
"12636",197.72998,98.648964,274.83612
"12637",197.74316,99.16655,275.9365
"12638",197.75635,98.6807,276.0496
"12639",197.76953,97.46975,275.42242
"12640",197.78271,95.802246,274.30084
"12641",197.7959,93.91501,272.9074
"12642",197.80908,91.98871,271.41595
"12643",197.82227,90.121,269.92288
"12644",197.83545,88.326546,268.4447
"12645",197.84863,86.573586,266.95193
"12646",197.86182,84.79378,265.37756
"12647",197.875,82.95293,263.68652
"12648",197.88818,81.077896,261.90378
"12649",197.90137,79.26391,260.12347
"12650",197.91455,77.63302,258.46957
"12651",197.92773,76.31953,257.08212
"12652",197.94092,75.40154,256.04913
"12653",197.9541,74.896164,255.40005
"12654",197.96729,74.75212,255.09651
"12655",197.98047,74.87419,255.05458
"12656",197.99365,75.13542,255.15562
"12657",198.00684,75.4284,255.29659
"12658",198.02002,75.64568,255.371
"12659",198.0332,75.73113,255.32037
"12660",198.04639,75.65301,255.10884
"12661",198.05957,75.41375,254.73373
"12662",198.07275,75.04021,254.21687
"12663",198.08594,74.56901,253.59068
"12664",198.09912,74.04166,252.89362
"12665",198.1123,73.48989,252.15565
"12666",198.12549,72.94301,251.40533
"12667",198.13867,72.4181,250.6599
"12668",198.15186,71.91028,249.91515
"12669",198.16504,71.42199,249.17406
"12670",198.17822,70.95323,248.43724
"12671",198.1914,70.504005,247.7053
"12672",198.20459,70.07675,246.98131
"12673",198.21777,69.70077,246.29523
"12674",198.23096,69.451744,245.72435
"12675",198.24414,69.50057,245.44354
"12676",198.25732,70.152435,245.7673
"12677",198.27051,71.75891,247.06604
"12678",198.28369,74.55436,249.60396
"12679",198.29688,78.49729,253.37671
"12680",198.31006,83.23369,258.06613
"12681",198.32324,88.16785,263.10135
"12682",198.33643,92.60883,267.79758
"12683",198.34961,96.009766,271.59253
"12684",198.3628,98.09964,274.1827
"12685",198.37598,98.89555,275.54425
"12686",198.38916,98.59037,275.82956
"12687",198.40234,97.459984,275.28012
"12688",198.41553,95.79736,274.16312
"12689",198.42871,93.86374,272.72314
"12690",198.4419,91.85687,271.1495
"12691",198.45508,89.901276,269.56442
"12692",198.46826,88.043335,268.0159
"12693",198.48145,86.24399,266.4679
"12694",198.49463,84.44221,264.86124
"12695",198.50781,82.598915,263.15677
"12696",198.521,80.73609,261.37515
"12697",198.53418,78.93675,259.59882
"12698",198.54736,77.34005,257.96887
"12699",198.56055,76.07538,256.62106
"12700",198.57373,75.22331,255.64635
"12701",198.58691,74.79607,255.06982
"12702",198.6001,74.73502,254.84616
"12703",198.61328,74.9279,254.87451
"12704",198.62646,75.24773,255.03583
"12705",198.63965,75.57488,255.21448
"12706",198.65283,75.81171,255.31302
"12707",198.66602,75.88739,255.25781
"12708",198.6792,75.78485,255.02675
"12709",198.69238,75.508965,254.61914
"12710",198.70557,75.089035,254.05887
"12711",198.71875,74.56901,253.38538
"12712",198.73193,73.99283,252.63948
"12713",198.74512,73.39712,251.85605
"12714",198.7583,72.81117,251.06377
"12715",198.77148,72.25208,250.28003
"12716",198.78467,71.71984,249.50566
"12717",198.79785,71.219345,248.74641
"12718",198.81104,70.748146,248.00082
"12719",198.82422,70.294044,247.2576
"12720",198.8374,69.86435,246.5246
"12721",198.85059,69.4786,245.82211
"12722",198.86377,69.19539,245.21011
"12723",198.87695,69.173416,244.8505
"12724",198.89014,69.71786,245.05661
"12725",198.90332,71.20714,246.22458
"12726",198.9165,73.919586,248.66225
"12727",198.92969,77.85031,252.40295
"12728",198.94287,82.667274,257.15274
"12729",198.95605,87.77966,262.34848
"12730",198.96924,92.477,267.28894
"12731",198.98242,96.17578,271.37762
"12732",198.9956,98.57328,274.2806
"12733",199.00879,99.66216,275.94992
"12734",199.02197,99.6231,276.5253
"12735",199.03516,98.71488,276.23032
"12736",199.04834,97.2256,275.32587
"12737",199.06152,95.40429,274.04285
"12738",199.0747,93.4609,272.58084
"12739",199.08789,91.53216,271.07275
"12740",199.10107,89.67666,269.57764
"12741",199.11426,87.87976,268.08313
"12742",199.12744,86.082855,266.53247
"12743",199.14062,84.2298,264.8695
"12744",199.15381,82.31571,263.08762
"12745",199.16699,80.40162,261.24588
"12746",199.18018,78.60471,259.46152
"12747",199.19336,77.07637,257.88956
"12748",199.20654,75.928894,256.65073
"12749",199.21973,75.20622,255.80083
"12750",199.23291,74.881516,255.32631
"12751",199.2461,74.87419,255.15903
"12752",199.25928,75.06462,255.18927
"12753",199.27246,75.338066,255.30849
"12754",199.28564,75.58465,255.40938
"12755",199.29883,75.72869,255.41544
"12756",199.31201,75.71404,255.2673
"12757",199.3252,75.526054,254.94537
"12758",199.33838,75.17204,254.45155
"12759",199.35156,74.69352,253.82216
"12760",199.36475,74.12955,253.09236
"12761",199.37793,73.52407,252.30344
"12762",199.39111,72.91615,251.49315
"12763",199.4043,72.33509,250.69072
"12764",199.41748,71.78577,249.90187
"12765",199.43066,71.27306,249.13248
"12766",199.44385,70.7921,248.3788
"12767",199.45703,70.33555,247.6345
"12768",199.47021,69.89609,246.89304
"12769",199.4834,69.48348,246.16469
"12770",199.49658,69.11482,245.46739
"12771",199.50977,68.88289,244.8953
"12772",199.52295,68.980545,244.64554
"12773",199.53613,69.754486,245.07512
"12774",199.54932,71.58068,246.58115
"12775",199.5625,74.68131,249.41867
"12776",199.57568,78.96849,253.53964
"12777",199.58887,84.02716,258.56607
"12778",199.60205,89.20302,263.86777
"12779",199.61523,93.78317,268.7355
"12780",199.62842,97.24269,272.62573
"12781",199.6416,99.36431,275.2862
"12782",199.65479,100.20416,276.73117
"12783",199.66797,99.97223,277.1306
"12784",199.68115,98.949265,276.73178
"12785",199.69434,97.39895,275.77362
"12786",199.70752,95.56786,274.48627
"12787",199.7207,93.63912,273.044
"12788",199.73389,91.73235,271.56345
"12789",199.74707,89.89395,270.09167
"12790",199.76025,88.097046,268.60394
"12791",199.77344,86.275734,267.03568
"12792",199.78662,84.3885,265.34454
"12793",199.7998,82.42802,263.5212
"12794",199.81299,80.46021,261.62927
"12795",199.82617,78.60471,259.78815
"12796",199.83936,77.00313,258.14294
"12797",199.85254,75.7702,256.81638
"12798",199.86572,74.95476,255.86874
"12799",199.8789,74.54459,255.30092
"12800",199.89209,74.46647,255.0523
"12801",199.90527,74.60807,255.02098
"12802",199.91846,74.847336,255.09175
"12803",199.93164,75.071945,255.15533
"12804",199.94482,75.19646,255.12584
"12805",199.95801,75.176926,254.95619
"12806",199.97119,74.99138,254.61992
"12807",199.98438,74.649574,254.1216
"12808",199.99756,74.178375,253.4832
"12809",200.01074,73.6144,252.7373
"12810",200.02393,73.0016,251.92496
"12811",200.03711,72.376595,251.08125
"12812",200.0503,71.763794,250.23022
"12813",200.06348,71.18761,249.39665
"12814",200.07666,70.643166,248.57683
"12815",200.08984,70.14023,247.7815
"12816",200.10303,69.66659,246.99974
"12817",200.11621,69.2198,246.23004
"12818",200.1294,68.79988,245.47324
"12819",200.14258,68.438545,244.7619
"12820",200.15576,68.226135,244.1882
"12821",200.16895,68.3653,243.95944
"12822",200.18213,69.19295,244.42351
"12823",200.19531,71.08263,245.97546
"12824",200.2085,74.24185,248.85602
"12825",200.22168,78.56809,253.00232
"12826",200.23486,83.63653,258.026
"12827",200.24805,88.797745,263.30087
"12828",200.26123,93.34127,268.11932
"12829",200.27441,96.74464,271.9396
"12830",200.2876,98.79057,274.50882
"12831",200.30078,99.53521,275.84067
"12832",200.31396,99.19829,276.11423
"12833",200.32715,98.06302,275.57892
"12834",200.34033,96.40772,274.4881
"12835",200.35352,94.49119,273.0843
"12836",200.3667,92.49897,271.54492
"12837",200.37988,90.5507,269.98724
"12838",200.39307,88.68299,268.44925
"12839",200.40625,86.86412,266.90173
"12840",200.41943,85.02571,265.27783
"12841",200.43262,83.12871,263.53787
"12842",200.4458,81.180435,261.68738
"12843",200.45898,79.26635,259.81018
"12844",200.47217,77.51339,258.0343
"12845",200.48535,76.05829,256.5015
"12846",200.49854,75.00603,255.32605
"12847",200.51172,74.38834,254.5523
"12848",200.5249,74.17105,254.15965
"12849",200.53809,74.26139,254.06784
"12850",200.55127,74.547035,254.17415
"12851",200.56445,74.898605,254.35532
"12852",200.57764,75.21599,254.51328
"12853",200.59082,75.41863,254.56642
"12854",200.604,75.46746,254.47208
"12855",200.61719,75.34295,254.20592
"12856",200.63037,75.06218,253.77962
"12857",200.64355,74.65446,253.21759
"12858",200.65674,74.15152,252.5476
"12859",200.66992,73.59243,251.80576
"12860",200.6831,73.01137,251.02446
"12861",200.69629,72.430305,250.225
"12862",200.70947,71.868774,249.42693
"12863",200.72266,71.33166,248.63571
"12864",200.73584,70.82384,247.85701
"12865",200.74902,70.347755,247.09418
"12866",200.7622,69.89853,246.34332
"12867",200.77539,69.49325,245.62238
"12868",200.78857,69.16121,244.962
"12869",200.80176,69.014725,244.4768
"12870",200.81494,69.28329,244.40208
"12871",200.82812,70.330666,245.11456
"12872",200.84131,72.481575,246.9633
"12873",200.85449,75.880066,250.12685
"12874",200.86768,80.34791,254.46594
"12875",200.88086,85.40658,259.5355
"12876",200.89404,90.36271,264.66058
"12877",200.90723,94.54246,269.16415
"12878",200.92041,97.48684,272.563
"12879",200.9336,99.04204,274.66464
"12880",200.94678,99.31548,275.53314
"12881",200.95996,98.55619,275.37747
"12882",200.97314,97.06447,274.46564
"12883",200.98633,95.13573,273.07016
"12884",200.99951,93.02876,271.4362
"12885",201.0127,90.92424,269.7388
"12886",201.02588,88.91493,268.07086
"12887",201.03906,87.00816,266.4427
"12888",201.05225,85.15999,264.8135
"12889",201.06543,83.31182,263.1266
"12890",201.07861,81.446556,261.3648
"12891",201.0918,79.603264,259.5667
"12892",201.10498,77.90158,257.85263
"12893",201.11816,76.47822,256.36368
"12894",201.13135,75.45037,255.22577
"12895",201.14453,74.864426,254.49765
"12896",201.15771,74.69596,254.1687
"12897",201.1709,74.847336,254.15433
"12898",201.18408,75.18913,254.3351
"12899",201.19727,75.58221,254.57784
"12900",201.21045,75.91913,254.7767
"12901",201.22363,76.11688,254.84692
"12902",201.23682,76.13641,254.7451
"12903",201.25,75.96796,254.4559
"12904",201.26318,75.63592,253.99786
"12905",201.27637,75.174484,253.40005
"12906",201.28955,74.617836,252.69261
"12907",201.30273,74.00992,251.9165
"12908",201.31592,73.39468,251.11407
"12909",201.3291,72.798965,250.31195
"12910",201.34229,72.234985,249.52293
"12911",201.35547,71.71252,248.75781
"12912",201.36865,71.22423,248.01054
"12913",201.38184,70.7628,247.27487
"12914",201.39502,70.313576,246.53699
"12915",201.4082,69.879,245.79971
"12916",201.42139,69.48104,245.08548
"12917",201.43457,69.21736,244.49309
"12918",201.44775,69.30526,244.24403
"12919",201.46094,70.115814,244.72038
"12920",201.47412,72.03479,246.33047
"12921",201.4873,75.27215,249.31892
"12922",201.50049,79.70092,253.59995
"12923",201.51367,84.85481,258.7445
"12924",201.52686,90.03067,264.07208
"12925",201.54004,94.50584,268.86072
"12926",201.55322,97.76517,272.57336
"12927",201.5664,99.60845,274.9718
"12928",201.57959,100.12604,276.10214
"12929",201.59277,99.55962,276.16467
"12930",201.60596,98.194855,275.41113
"12931",201.61914,96.33204,274.1169
"12932",201.63232,94.23239,272.52765
"12933",201.64551,92.09369,270.8337
"12934",201.65869,90.02823,269.14618
"12935",201.67188,88.06531,267.49664
"12936",201.68506,86.17563,265.859
"12937",201.69824,84.29328,264.16965
"12938",201.71143,82.37675,262.38727
"12939",201.72461,80.44312,260.52792
"12940",201.7378,78.59251,258.69116
"12941",201.75098,76.94942,257.0041
"12942",201.76416,75.648125,255.60747
"12943",201.77734,74.77165,254.595
"12944",201.79053,74.34684,254.0068
"12945",201.80371,74.3151,253.7984
"12946",201.8169,74.56168,253.86732
"12947",201.83008,74.96208,254.09778
"12948",201.84326,75.38445,254.36272
"12949",201.85645,75.72137,254.55539
"12950",201.86963,75.894714,254.59503
"12951",201.88281,75.87274,254.44476
"12952",201.896,75.65301,254.09605
"12953",201.90918,75.25994,253.56714
"12954",201.92236,74.74235,252.90141
"12955",201.93555,74.13931,252.13408
"12956",201.94873,73.50454,251.31616
"12957",201.96191,72.87709,250.48573
"12958",201.9751,72.28626,249.67232
"12959",201.98828,71.73937,248.88437
"12960",202.00146,71.2462,248.13306
"12961",202.01465,70.78966,247.40295
"12962",202.02783,70.35508,246.68056
"12963",202.04102,69.93027,245.95435
"12964",202.0542,69.51766,245.22707
"12965",202.06738,69.14656,244.5284
"12966",202.08057,68.92439,243.96706
"12967",202.09375,69.09041,243.78696
"12968",202.10693,70.03769,244.39331
"12969",202.12012,72.1593,246.2036
"12970",202.1333,75.65301,249.45229
"12971",202.14648,80.35767,254.0211
"12972",202.15967,85.77768,259.45227
"12973",202.17285,91.17082,265.02597
"12974",202.18604,95.799805,270.00403
"12975",202.19922,99.14702,273.84497
"12976",202.2124,101.0367,276.333
"12977",202.22559,101.58358,277.5373
"12978",202.23877,101.03914,277.66733
"12979",202.25195,99.70367,276.98932
"12980",202.26514,97.86038,275.76178
"12981",202.27832,95.77051,274.23004
"12982",202.2915,93.62203,272.5744
"12983",202.30469,91.53704,270.9151
"12984",202.31787,89.549706,269.2883
"12985",202.33105,87.64294,267.67996
"12986",202.34424,85.750824,266.0267
"12987",202.35742,83.82208,264.27768
"12988",202.3706,81.85428,262.42932
"12989",202.38379,79.91821,260.5512
"12990",202.39697,78.12863,258.75906
"12991",202.41016,76.62226,257.1942
"12992",202.42334,75.50652,255.97292
"12993",202.43652,74.830246,255.15622
"12994",202.4497,74.56657,254.73099
"12995",202.46289,74.62028,254.6149
"12996",202.47607,74.87663,254.70314
"12997",202.48926,75.20622,254.87262
"12998",202.50244,75.48699,255.00359
"12999",202.51562,75.63836,255.01392
"13000",202.52881,75.61883,254.85808
"13001",202.54199,75.421074,254.5234
"13002",202.55518,75.052414,254.01166
"13003",202.56836,74.5568,253.36143
"13004",202.58154,73.97818,252.61272
"13005",202.59473,73.35317,251.79953
"13006",202.60791,72.72083,250.95947
"13007",202.6211,72.10803,250.1192
"13008",202.63428,71.52697,249.29152
"13009",202.64746,70.98497,248.48474
"13010",202.66064,70.47227,247.69032
"13011",202.67383,69.9913,246.91162
"13012",202.68701,69.53475,246.1423
"13013",202.7002,69.09773,245.37825
"13014",202.71338,68.69245,244.63228
"13015",202.72656,68.387276,243.97374
"13016",202.73975,68.36286,243.58643
"13017",202.75293,68.95857,243.81848
"13018",202.76611,70.60166,245.11653
"13019",202.7793,73.59731,247.81848
"13020",202.79248,77.92844,251.94952
"13021",202.80566,83.20195,257.1583
"13022",202.81885,88.74647,262.8029
"13023",202.83203,93.785614,268.11536
"13024",202.84521,97.69192,272.45245
"13025",202.8584,100.14801,275.46143
"13026",202.87158,101.18318,277.12622
"13027",202.88477,101.02205,277.62708
"13028",202.89795,99.95514,277.2171
"13029",202.91113,98.28275,276.1683
"13030",202.92432,96.27589,274.7328
"13031",202.9375,94.151825,273.11734
"13032",202.95068,92.05707,271.4648
"13033",202.96387,90.057526,269.84204
"13034",202.97705,88.13855,268.23737
"13035",202.99023,86.24887,266.60202
"13036",203.00342,84.32746,264.8759
"13037",203.0166,82.3621,263.04575
"13038",203.02979,80.38941,261.14688
"13039",203.04297,78.52415,259.2938
"13040",203.05615,76.895706,257.61923
"13041",203.06934,75.62371,256.2502
"13042",203.08252,74.76433,255.25407
"13043",203.0957,74.319984,254.64612
"13044",203.10889,74.2272,254.37584
"13045",203.12207,74.38346,254.3517
"13046",203.13525,74.666664,254.45938
"13047",203.14844,74.95964,254.5857
"13048",203.16162,75.16716,254.6357
"13049",203.1748,75.228195,254.5457
"13050",203.18799,75.11589,254.28427
"13051",203.20117,74.83269,253.84843
"13052",203.21436,74.39811,253.25238
"13053",203.22754,73.85123,252.53044
"13054",203.24072,73.231094,251.71815
"13055",203.2539,72.589,250.86453
"13056",203.26709,71.95911,250.00305
"13057",203.28027,71.37316,249.16583
"13058",203.29346,70.84093,248.36401
"13059",203.30664,70.362404,247.59927
"13060",203.31982,69.91806,246.85376
"13061",203.33301,69.49081,246.11145
"13062",203.34619,69.065994,245.35823
"13063",203.35938,68.648506,244.59906
"13064",203.37256,68.26032,243.85614
"13065",203.38574,67.97467,243.20363
"13066",203.39893,67.97711,242.83028
"13067",203.41211,68.60944,243.0869
"13068",203.4253,70.294044,244.41554
"13069",203.43848,73.338524,247.15671
"13070",203.45166,77.72579,251.3358
"13071",203.46484,83.06767,256.6066
"13072",203.47803,88.68543,262.32022
"13073",203.49121,93.788055,267.69427
"13074",203.5044,97.738304,272.0754
"13075",203.51758,100.226135,275.11755
"13076",203.53076,101.26864,276.7921
"13077",203.54395,101.08064,277.26877
"13078",203.55713,99.95514,276.80203
"13079",203.57031,98.197296,275.6678
"13080",203.5835,96.08057,274.11972
"13081",203.59668,93.83688,272.37854
"13082",203.60986,91.632256,270.60632
"13083",203.62305,89.5375,268.87506
"13084",203.63623,87.54528,267.18088
"13085",203.64941,85.60433,265.4757
"13086",203.6626,83.66094,263.70746
"13087",203.67578,81.69802,261.85895
"13088",203.68896,79.764404,259.9784
"13089",203.70215,77.96506,258.1717
"13090",203.71533,76.42695,256.56998
"13091",203.72852,75.26971,255.30107
"13092",203.7417,74.53727,254.4208
"13093",203.75488,74.22232,253.93515
"13094",203.76807,74.25895,253.79123
"13095",203.78125,74.54215,253.89502
"13096",203.79443,74.94255,254.12486
"13097",203.80762,75.34539,254.36966
"13098",203.8208,75.66277,254.54158
"13099",203.83398,75.81659,254.55986
"13100",203.84717,75.775085,254.38762
"13101",203.86035,75.53582,254.01633
"13102",203.87354,75.1281,253.4691
"13103",203.88672,74.59098,252.77974
"13104",203.8999,73.968414,251.98814
"13105",203.91309,73.29946,251.1307
"13106",203.92627,72.620735,250.24258
"13107",203.93945,71.96155,249.3528
"13108",203.95264,71.346306,248.48636
"13109",203.96582,70.7921,247.66173
"13110",203.979,70.29893,246.88081
"13111",203.99219,69.85214,246.13087
"13112",204.00537,69.437096,245.39871
"13113",204.01855,69.048904,244.68044
"13114",204.03174,68.731514,244.02083
"13115",204.04492,68.611885,243.54906
"13116",204.0581,68.9781,243.5594
"13117",204.07129,70.233,244.46986
"13118",204.08447,72.742805,246.67445
"13119",204.09766,76.610054,250.31491
"13120",204.11084,81.583275,255.18219
"13121",204.12402,87.078964,260.72736
"13122",204.1372,92.32807,266.1977
"13123",204.15039,96.6128,270.86768
"13124",204.16357,99.49859,274.2726
"13125",204.17676,100.895096,276.27844
"13126",204.18994,100.95857,276.9949
"13127",204.20312,99.97711,276.6684
"13128",204.21631,98.26322,275.5788
"13129",204.22949,96.11719,274.00348
"13130",204.24268,93.80026,272.19022
"13131",204.25586,91.49798,270.31918
"13132",204.26904,89.31289,268.4934
"13133",204.28223,87.25475,266.7263
"13134",204.29541,85.279625,264.97787
"13135",204.3086,83.33135,263.19458
"13136",204.32178,81.39773,261.36505
"13137",204.33496,79.534904,259.5459
"13138",204.34814,77.86252,257.85898
"13139",204.36133,76.51484,256.4445
"13140",204.37451,75.60418,255.42491
"13141",204.3877,75.15495,254.83832
"13142",204.40088,75.123215,254.65517
"13143",204.41406,75.3991,254.77866
"13144",204.42725,75.843445,255.07922
"13145",204.44043,76.30732,255.41321
"13146",204.45361,76.67353,255.66402
"13147",204.4668,76.86397,255.7505
"13148",204.47998,76.839554,255.62808
"13149",204.49316,76.592964,255.28273
"13150",204.50635,76.155945,254.73924
"13151",204.51953,75.57,254.03317
"13152",204.53271,74.88396,253.2087
"13153",204.5459,74.144196,252.30905
"13154",204.55908,73.40444,251.3863
"13155",204.57227,72.706184,250.48193
"13156",204.58545,72.06409,249.61191
"13157",204.59863,71.49523,248.79506
"13158",204.61182,70.98985,248.02391
"13159",204.625,70.53574,247.28824
"13160",204.63818,70.10361,246.56035
"13161",204.65137,69.68612,245.8336
"13162",204.66455,69.28329,245.10846
"13163",204.67773,68.95857,244.44885
"13164",204.69092,68.91463,244.05986
"13165",204.7041,69.522545,244.32137
"13166",204.71729,71.21202,245.68343
"13167",204.73047,74.27604,248.47282
"13168",204.74365,78.67063,252.68854
"13169",204.75684,83.97833,257.95468
"13170",204.77002,89.48623,263.5869
"13171",204.7832,94.41062,268.80774
"13172",204.79639,98.14847,272.9959
"13173",204.80957,100.42634,275.8409
"13174",204.82275,101.29305,277.34595
"13175",204.83594,100.99031,277.70862
"13176",204.84912,99.808655,277.18292
"13177",204.8623,98.05081,276.0441
"13178",204.87549,95.96826,274.52563
"13179",204.88867,93.76608,272.82245
