"","Time..s.","PPG.trace","Preprocessed.PPG"
"1790",35.64904,81.51003,81.995224
"1791",35.66237,81.30984,81.84222
"1792",35.675705,81.126724,81.700035
"1793",35.68904,80.98268,81.5912
"1794",35.702377,80.885025,81.524254
"1795",35.715714,80.80934,81.47623
"1796",35.729042,80.74586,81.438034
"1797",35.74238,80.66773,81.38322
"1798",35.755714,80.55787,81.29422
"1799",35.769043,80.411385,81.16517
"1800",35.78238,80.233154,80.999794
"1801",35.795715,80.025635,80.79956
"1802",35.80905,79.7937,80.56843
"1803",35.822388,79.54955,80.31783
"1804",35.835716,79.30053,80.05473
"1805",35.849052,79.05394,79.786285
"1806",35.86239,78.819565,79.52235
"1807",35.875717,78.61204,79.27793
"1808",35.889053,78.4387,79.06122
"1809",35.90239,78.294655,78.868385
"1810",35.915726,78.17258,78.693016
"1811",35.92906,78.07248,78.53581
"1812",35.94239,77.98703,78.39013
"1813",35.955727,77.90402,78.24422
"1814",35.969063,77.83078,78.10548
"1815",35.98239,77.76486,77.97177
"1816",35.995728,77.70138,77.83844
"1817",36.009064,77.645226,77.71046
"1818",36.0224,77.58907,77.58072
"1819",36.035736,77.5378,77.45411
"1820",36.049065,77.488976,77.32834
"1821",36.0624,77.452354,77.21325
"1822",36.075737,77.41085,77.09213
"1823",36.089066,77.37423,76.9746
"1824",36.1024,77.34005,76.85837
"1825",36.115738,77.30831,76.74351
"1826",36.129074,77.27413,76.62521
"1827",36.14241,77.24483,76.51073
"1828",36.15574,77.21797,76.39777
"1829",36.169075,77.18135,76.274216
"1830",36.18241,77.137405,76.14219
"1831",36.19574,77.08125,75.99658
"1832",36.209076,77.01289,75.83701
"1833",36.222412,76.94209,75.67287
"1834",36.23575,76.8835,75.518715
"1835",36.249084,76.84932,75.387146
"1836",36.262413,76.90059,75.33996
"1837",36.27575,77.11299,75.455505
"1838",36.289085,77.576866,75.82916
"1839",36.302414,78.35081,76.52738
"1840",36.31575,79.42504,77.55008
"1841",36.329086,80.709236,78.81631
"1842",36.342422,82.02518,80.15441
"1843",36.35576,83.194626,81.387146
"1844",36.369087,84.06622,82.358574
"1845",36.382423,84.56428,82.983696
"1846",36.39576,84.68879,83.25084
"1847",36.40909,84.51301,83.22158
"1848",36.422424,84.1297,82.9793
"1849",36.43576,83.63897,82.61762
"1850",36.449097,83.13359,82.22596
"1851",36.462433,82.68192,81.872215
"1852",36.47576,82.320595,81.594696
"1853",36.489098,82.04227,81.388885
"1854",36.502434,81.82498,81.23542
"1855",36.515762,81.634544,81.10201
"1856",36.5291,81.449,80.967545
"1857",36.542435,81.26589,80.82972
"1858",36.55577,81.10231,80.705696
"1859",36.569107,80.97536,80.61319
"1860",36.582436,80.89479,80.5631
"1861",36.59577,80.85573,80.552
"1862",36.609108,80.831314,80.55433
"1863",36.622437,80.80202,80.55101
"1864",36.635773,80.75563,80.529686
"1865",36.64911,80.68238,80.48005
"1866",36.662445,80.5774,80.39639
"1867",36.67578,80.430916,80.26795
"1868",36.68911,80.255135,80.10564
"1869",36.702446,80.042725,79.9012
"1870",36.715782,79.80591,79.66572
"1871",36.72911,79.55688,79.41062
"1872",36.742447,79.31762,79.15752
"1873",36.755783,79.08812,78.90669
"1874",36.76912,78.87816,78.668236
"1875",36.782455,78.69993,78.45495
"1876",36.795784,78.54856,78.262955
"1877",36.80912,78.42893,78.09797
"1878",36.822456,78.3386,77.95854
"1879",36.835785,78.27268,77.840706
"1880",36.84912,78.22629,77.74033
"1881",36.862457,78.19211,77.65073
"1882",36.875793,78.15793,77.56005
"1883",36.88913,78.12375,77.46831
"1884",36.90246,78.082245,77.36817
"1885",36.915794,78.030975,77.25697
"1886",36.92913,77.977264,77.14173
"1887",36.94246,77.91623,77.01749
"1888",36.955795,77.857635,76.893776
"1889",36.96913,77.806366,76.77556
"1890",36.982468,77.769745,76.67039
"1891",36.995804,77.75021,76.58116
"1892",37.009132,77.75021,76.51086
"1893",37.02247,77.75754,76.447876
"1894",37.035805,77.76486,76.385124
"1895",37.049133,77.76486,76.31528
"1896",37.06247,77.75021,76.23078
"1897",37.075806,77.72091,76.13117
"1898",37.08914,77.68673,76.02577
"1899",37.102478,77.64767,75.91442
"1900",37.115807,77.61349,75.80673
"1901",37.129143,77.5964,75.715065
"1902",37.14248,77.611046,75.6546
"1903",37.155807,77.70382,75.67272
"1904",37.169144,77.945526,75.842674
"1905",37.18248,78.41917,76.25211
"1906",37.195816,79.18089,76.96444
"1907",37.209152,80.22095,77.9789
"1908",37.22248,81.43923,79.20409
"1909",37.235817,82.67948,80.48931
"1910",37.249153,83.76105,81.65461
"1911",37.26248,84.53498,82.546074
"1912",37.275818,84.93538,83.08819
"1913",37.289154,84.97688,83.28392
"1914",37.30249,84.72297,83.18553
"1915",37.315826,84.27131,82.88146
"1916",37.329155,83.71465,82.45828
"1917",37.34249,83.13603,81.99574
"1918",37.355827,82.6038,81.56151
"1919",37.369156,82.15457,81.19365
"1920",37.382492,81.79324,80.89965
"1921",37.39583,81.50759,80.67004
"1922",37.409164,81.2781,80.487656
"1923",37.4225,81.08278,80.332275
"1924",37.43583,80.91432,80.197655
"1925",37.449165,80.78493,80.09683
"1926",37.4625,80.71168,80.04811
"1927",37.47583,80.69947,80.05814
"1928",37.489166,80.73609,80.11662
"1929",37.502502,80.799576,80.20311
"1930",37.51584,80.85573,80.28425
"1931",37.529175,80.87526,80.33052
"1932",37.542503,80.831314,80.31393
"1933",37.55584,80.71656,80.22515
"1934",37.569176,80.53101,80.062
"1935",37.582504,80.28687,79.83445
"1936",37.59584,79.99878,79.55532
"1937",37.609177,79.68871,79.24522
"1938",37.622513,79.378654,78.92543
"1939",37.63585,79.08812,78.61548
"1940",37.649178,78.83421,78.33308
"1941",37.662514,78.61936,78.081795
"1942",37.67585,78.46067,77.87996
"1943",37.68918,78.35813,77.72932
"1944",37.702515,78.3093,77.62918
"1945",37.71585,78.31907,77.58611
"1946",37.729187,78.38743,77.601944
"1947",37.742523,78.49729,77.661415
"1948",37.75585,78.63157,77.74873
"1949",37.769188,78.7805,77.854904
"1950",37.782524,78.92699,77.96328
"1951",37.795853,79.04906,78.05182
"1952",37.80919,79.12718,78.10023
"1953",37.822525,79.14671,78.09248
"1954",37.83586,79.08812,78.007225
"1955",37.849197,78.941635,77.832245
"1956",37.862526,78.71702,77.574554
"1957",37.875862,78.44846,77.26591
"1958",37.8892,78.16037,76.92933
"1959",37.902527,77.88937,76.600845
"1960",37.915863,77.65255,76.298065
"1961",37.9292,77.45724,76.029396
"1962",37.942535,77.30343,75.79613
"1963",37.95587,77.18623,75.594666
"1964",37.9692,77.117874,75.43838
"1965",37.982536,77.13985,75.370285
"1966",37.995872,77.33517,75.47623
"1967",38.0092,77.786835,75.84462
"1968",38.022537,78.54612,76.534744
"1969",38.035873,79.59594,77.53913
"1970",38.04921,80.833755,78.76432
"1971",38.062546,82.091095,80.047714
"1972",38.075874,83.1873,81.20927
"1973",38.08921,83.97833,82.0999
"1974",38.102547,84.39582,82.64171
"1975",38.115875,84.44953,82.83279
"1976",38.12921,84.20538,82.727684
"1977",38.142548,83.75128,82.405
"1978",38.155884,83.17998,81.95092
"1979",38.16922,82.57206,81.442375
"1980",38.18255,81.99588,80.94657
"1981",38.195885,81.4905,80.50356
"1982",38.20922,81.075455,80.13509
"1983",38.22255,80.74586,79.8391
"1984",38.235886,80.48463,79.60118
"1985",38.24922,80.28199,79.41369
"1986",38.262558,80.13794,79.27845
"1987",38.275894,80.062256,79.20708
"1988",38.289223,80.0647,79.211464
"1989",38.30256,80.14038,79.28917
"1990",38.315895,80.27711,79.43028
"1991",38.329224,80.44312,79.60496
"1992",38.34256,80.6067,79.78238
"1993",38.355896,80.73121,79.92585
"1994",38.369232,80.80202,80.01951
"1995",38.38257,80.80202,80.04457
"1996",38.395897,80.73121,79.998825
"1997",38.409233,80.59449,79.88496
"1998",38.42257,80.40406,79.713104
"1999",38.435898,80.177,79.49867
"2000",38.449234,79.92554,79.25274
"2001",38.46257,79.66674,78.991615
"2002",38.475906,79.412834,78.727295
"2003",38.489243,79.17357,78.46968
"2004",38.50257,78.95628,78.22657
"2005",38.515907,78.765854,78.003525
"2006",38.529243,78.607155,77.80626
"2007",38.542572,78.47776,77.63334
"2008",38.55591,78.37522,77.48323
"2009",38.569244,78.30686,77.3641
"2010",38.58258,78.26536,77.269684
"2011",38.595917,78.24338,77.1935
"2012",38.609245,78.238495,77.13372
"2013",38.62258,78.24582,77.086
"2014",38.635918,78.25803,77.043396
"2015",38.649246,78.26536,76.996284
"2016",38.662582,78.26292,76.93964
"2017",38.67592,78.24826,76.8707
"2018",38.689255,78.21652,76.78422
"2019",38.70259,78.170135,76.6821
"2020",38.71592,78.11398,76.56876
"2021",38.729256,78.06271,76.45856
"2022",38.74259,78.02609,76.3614
"2023",38.75592,78.01877,76.29239
"2024",38.769257,78.08713,76.298836
"2025",38.782593,78.2971,76.44903
"2026",38.79593,78.73167,76.83038
"2027",38.809265,79.429924,77.489006
"2028",38.822594,80.36988,78.41115
"2029",38.83593,81.463646,79.51647
"2030",38.849266,82.55497,80.653534
"2031",38.862595,83.48272,81.661125
"2032",38.87593,84.12482,82.412056
"2033",38.889267,84.43488,82.85102
"2034",38.902603,84.42756,82.982285
"2035",38.91594,84.16388,82.856964
"2036",38.929268,83.72686,82.550064
"2037",38.942604,83.20195,82.14162
"2038",38.95594,82.65751,81.697235
"2039",38.96927,82.144806,81.26758
"2040",38.982605,81.69558,80.885376
"2041",38.99594,81.31716,80.559944
"2042",39.009277,80.99977,80.283714
"2043",39.022614,80.73365,80.048836
"2044",39.035942,80.51148,79.849594
"2045",39.04928,80.34791,79.702
"2046",39.062614,80.2478,79.61277
"2047",39.075943,80.22583,79.59854
"2048",39.08928,80.27711,79.656876
"2049",39.102615,80.38453,79.77296
"2050",39.11595,80.50904,79.909485
"2051",39.129288,80.61402,80.03037
"2052",39.142616,80.67017,80.10571
"2053",39.155952,80.66041,80.11689
"2054",39.16929,80.5774,80.05452
"2055",39.182617,80.430916,79.92608
"2056",39.195953,80.23071,79.73934
"2057",39.20929,79.99634,79.51218
"2058",39.222626,79.744865,79.26059
"2059",39.235962,79.48608,78.99383
"2060",39.24929,79.22972,78.72141
"2061",39.262627,78.98802,78.45564
"2062",39.275963,78.768295,78.20429
"2063",39.28929,78.57786,77.975365
"2064",39.302628,78.416725,77.76979
"2065",39.315964,78.28977,77.59336
"2066",39.3293,78.19699,77.447136
"2067",39.342636,78.133514,77.32732
"2068",39.355965,78.09689,77.23237
"2069",39.3693,78.08469,77.16069
"2070",39.382637,78.09201,77.10816
"2071",39.395966,78.10422,77.060745
"2072",39.4093,78.118866,77.01615
"2073",39.422638,78.12619,76.96469
"2074",39.435974,78.12131,76.90125
"2075",39.44931,78.099335,76.82057
"2076",39.46264,78.06271,76.724556
"2077",39.475975,78.01877,76.62007
"2078",39.48931,77.96506,76.50445
"2079",39.50264,77.91135,76.387146
"2080",39.515976,77.8674,76.27793
"2081",39.529312,77.855194,76.19908
"2082",39.54265,77.9382,76.215065
"2083",39.555984,78.19455,76.40698
"2084",39.569313,78.70237,76.85838
"2085",39.58265,79.4934,77.608864
"2086",39.595985,80.52613,78.62576
"2087",39.609314,81.685814,79.80189
"2088",39.62265,82.804,80.972755
"2089",39.635986,83.72686,81.98324
"2090",39.649323,84.34455,82.71739
"2091",39.66266,84.62043,83.129036
"2092",39.675987,84.576485,83.22948
"2093",39.689323,84.283516,83.07952
"2094",39.70266,83.824524,82.75439
"2095",39.71599,83.27764,82.32702
"2096",39.729324,82.71122,81.86302
"2097",39.74266,82.18143,81.41795
"2098",39.755997,81.705345,81.01004
"2099",39.769333,81.29275,80.650734
"2100",39.78266,80.94118,80.33956
"2101",39.795998,80.6482,80.076
"2102",39.809334,80.413826,79.86188
"2103",39.822662,80.25025,79.711235
"2104",39.836,80.16968,79.63848
"2105",39.849335,80.18921,79.663315
"2106",39.86267,80.30396,79.78398
"2107",39.876007,80.48463,79.974144
"2108",39.889336,80.69703,80.20169
"2109",39.90267,80.89723,80.423676
"2110",39.916008,81.04616,80.60064
"2111",39.929337,81.1194,80.70657
"2112",39.942673,81.10231,80.724464
"2113",39.95601,80.99245,80.64905
"2114",39.969345,80.80202,80.48963
"2115",39.98268,80.550545,80.26322
"2116",39.99601,80.26246,79.99234
"2117",40.009346,79.95972,79.6978
"2118",40.022682,79.6643,79.40112
"2119",40.03601,79.38598,79.11231
"2120",40.049347,79.13695,78.84409
"2121",40.062683,78.922104,78.60228
"2122",40.07602,78.746315,78.39281
"2123",40.089355,78.6096,78.21691
"2124",40.102684,78.504616,78.06848
"2125",40.11602,78.42893,77.94607
"2126",40.129356,78.37766,77.8457
"2127",40.142685,78.345924,77.76327
"2128",40.15602,78.32395,77.689606
"2129",40.169357,78.3093,77.62258
"2130",40.182693,78.29954,77.55998
"2131",40.19603,78.28245,77.48975
"2132",40.20936,78.25803,77.41167
"2133",40.222694,78.22873,77.32793
"2134",40.23603,78.19943,77.24328
"2135",40.24936,78.17258,77.16016
"2136",40.262695,78.170135,77.10061
"2137",40.27603,78.238495,77.111786
"2138",40.289368,78.45579,77.27403
"2139",40.302704,78.905014,77.675
"2140",40.316032,79.63744,78.373215
"2141",40.32937,80.62867,79.35311
"2142",40.342705,81.78104,80.52512
"2143",40.356033,82.94072,81.74046
"2144",40.36937,83.929504,82.821144
"2145",40.382706,84.62287,83.63731
"2146",40.39604,84.95979,84.11869
"2147",40.409378,84.962234,84.27612
"2148",40.422707,84.68391,84.15286
"2149",40.436043,84.21271,83.82803
"2150",40.44938,83.63409,83.38106
"2151",40.462708,83.018845,82.87938
"2152",40.476044,82.425575,82.38045
"2153",40.48938,81.8909,81.92157
"2154",40.502716,81.43191,81.52167
"2155",40.516052,81.03883,81.17334
"2156",40.52938,80.706795,80.873764
"2157",40.542717,80.43336,80.62241
"2158",40.556053,80.233154,80.43575
"2159",40.56938,80.111084,80.32097
"2160",40.582718,80.08423,80.297585
"2161",40.596054,80.15259,80.368576
"2162",40.60939,80.2942,80.51495
"2163",40.622726,80.47486,80.70481
"2164",40.636055,80.64332,80.88811
"2165",40.64939,80.76051,81.025406
"2166",40.662727,80.80446,81.09312
"2167",40.676056,80.75563,81.06943
"2168",40.689392,80.618904,80.956314
"2169",40.70273,80.40894,80.76569
"2170",40.716064,80.14526,80.51479
"2171",40.7294,79.84985,80.22392
"2172",40.74273,79.54467,79.91405
"2173",40.756065,79.24437,79.59952
"2174",40.7694,78.96849,79.300026
"2175",40.78273,78.71946,79.01876
"2176",40.796066,78.502174,78.76146
"2177",40.809402,78.314186,78.526665
"2178",40.82274,78.15793,78.317726
"2179",40.836075,78.030975,78.13321
"2180",40.849403,77.93088,77.97158
"2181",40.86274,77.86252,77.83856
"2182",40.876076,77.81857,77.72782
"2183",40.889404,77.79416,77.63524
"2184",40.90274,77.78195,77.5541
"2185",40.916077,77.77951,77.482346
"2186",40.929413,77.77951,77.41296
"2187",40.94275,77.77463,77.338684
"2188",40.956078,77.75998,77.25449
"2189",40.969414,77.733116,77.15763
"2190",40.98275,77.69405,77.04773
"2191",40.99608,77.645226,76.92684
"2192",41.009415,77.59884,76.80687
"2193",41.02275,77.58907,76.72207
"2194",41.036087,77.66964,76.727295
"2195",41.049423,77.93332,76.91815
"2196",41.06275,78.45823,77.37848
"2197",41.076088,79.293205,78.165276
"2198",41.089424,80.4065,79.256485
"2199",41.102753,81.688255,80.55094
"2200",41.11609,82.96025,81.875694
"2201",41.129425,84.04669,83.05464
"2202",41.14276,84.81331,83.947716
"2203",41.156097,85.206375,84.491196
"2204",41.169426,85.243,84.69051
"2205",41.182762,84.99397,84.60533
"2206",41.1961,84.54719,84.314606
"2207",41.209427,83.99298,83.9025
"2208",41.222763,83.407036,83.44133
"2209",41.2361,82.845505,82.98627
"2210",41.249435,82.34989,82.579575
"2211",41.26277,81.93729,82.2404
"2212",41.2761,81.600365,81.96402
"2213",41.289436,81.32693,81.74059
"2214",41.302773,81.09987,81.555
"2215",41.3161,80.91188,81.40138
"2216",41.329437,80.765396,81.283394
"2217",41.342773,80.672615,81.21453
"2218",41.35611,80.638435,81.20137
"2219",41.369446,80.66285,81.245735
"2220",41.382774,80.72144,81.32504
"2221",41.39611,80.782486,81.40863
"2222",41.409447,80.81911,81.4697
"2223",41.422775,80.81178,81.487976
"2224",41.43611,80.73853,81.440094
"2225",41.449448,80.604256,81.328896
"2226",41.462784,80.40894,81.152466
"2227",41.47612,80.16968,80.92598
"2228",41.48945,79.89624,80.657845
"2229",41.502785,79.60815,80.36651
"2230",41.51612,79.31518,80.061295
"2231",41.52945,79.027084,79.7518
"2232",41.542786,78.75609,79.4504
"2233",41.55612,78.51438,79.16982
"2234",41.569458,78.30198,78.910995
"2235",41.582794,78.12619,78.682144
"2236",41.596123,77.98703,78.48443
"2237",41.60946,77.88205,78.31654
"2238",41.622795,77.803925,78.17223
"2239",41.636124,77.752655,78.05234
"2240",41.64946,77.72335,77.952805
"2241",41.662796,77.7087,77.86701
"2242",41.676132,77.70138,77.788086
"2243",41.68947,77.696495,77.71137
"2244",41.702797,77.68185,77.62474
"2245",41.716133,77.662315,77.53277
"2246",41.72947,77.63302,77.43042
"2247",41.742798,77.591515,77.31495
"2248",41.756134,77.540245,77.188416
"2249",41.76947,77.48165,77.052956
"2250",41.782806,77.4255,76.918106
"2251",41.796143,77.38644,76.79859
"2252",41.80947,77.40597,76.73645
"2253",41.822807,77.5671,76.81652
"2254",41.836143,77.960175,77.13357
"2255",41.849472,78.65354,77.76319
"2256",41.86281,79.65209,78.719666
"2257",41.876144,80.88258,79.939285
"2258",41.88948,82.2034,81.28768
"2259",41.902817,83.42901,82.582146
"2260",41.916145,84.39338,83.65367
"2261",41.92948,85.0013,84.39888
"2262",41.942818,85.23079,84.78466
"2263",41.956146,85.120926,84.83826
"2264",41.969482,84.754715,84.63207
"2265",41.98282,84.2298,84.25574
"2266",41.996155,83.63409,83.792206
"2267",42.00949,83.04082,83.3125
"2268",42.02282,82.50126,82.867966
"2269",42.036156,82.039825,82.484695
"2270",42.04949,81.651634,82.16025
"2271",42.06282,81.322044,81.88227
"2272",42.076157,81.03883,81.64037
"2273",42.089493,80.799576,81.43358
"2274",42.10283,80.601814,81.2608
"2275",42.116165,80.45289,81.130684
"2276",42.129494,80.37232,81.06427
"2277",42.14283,80.35523,81.058815
"2278",42.156166,80.38209,81.09677
"2279",42.169495,80.42603,81.15266
"2280",42.18283,80.462654,81.20259
"2281",42.196167,80.462654,81.21705
"2282",42.209503,80.40894,81.177795
"2283",42.22284,80.29664,81.07827
"2284",42.236168,80.130615,80.92152
"2285",42.249504,79.91333,80.70831
"2286",42.26284,79.656975,80.44925
"2287",42.27617,79.378654,80.16021
"2288",42.289505,79.097885,79.86002
"2289",42.30284,78.82689,79.56084
"2290",42.316177,78.572975,79.27026
"2291",42.329514,78.345924,78.99862
"2292",42.342842,78.150604,78.75161
"2293",42.35618,77.98215,78.52536
"2294",42.369514,77.838104,78.31826
"2295",42.382843,77.71847,78.131065
"2296",42.39618,77.61593,77.95723
"2297",42.409515,77.52804,77.79484
"2298",42.42285,77.454796,77.64435
"2299",42.436188,77.39864,77.50866
"2300",42.449516,77.3547,77.38342
"2301",42.462852,77.3254,77.27146
"2302",42.47619,77.30099,77.16347
"2303",42.489517,77.2839,77.062035
"2304",42.502853,77.26681,76.96007
"2305",42.51619,77.239944,76.84779
"2306",42.529526,77.205765,76.72736
"2307",42.542862,77.16182,76.5961
"2308",42.55619,77.117874,76.46346
"2309",42.569527,77.07637,76.331894
"2310",42.582863,77.04707,76.211235
"2311",42.59619,77.04707,76.11896
"2312",42.609528,77.10567,76.08527
"2313",42.622864,77.28878,76.17794
"2314",42.6362,77.68429,76.48872
"2315",42.649536,78.37766,77.10973
"2316",42.662865,79.381096,78.06247
"2317",42.6762,80.635994,79.29803
"2318",42.689537,81.99832,80.68023
"2319",42.702866,83.28008,82.02444
"2320",42.7162,84.31281,83.15967
"2321",42.729538,84.98665,83.96828
"2322",42.742874,85.27718,84.41464
"2323",42.75621,85.223465,84.52583
"2324",42.76954,84.90608,84.37168
"2325",42.782875,84.41047,84.02938
"2326",42.79621,83.82941,83.58614
"2327",42.80954,83.23125,83.10765
"2328",42.822876,82.667274,82.64465
"2329",42.836212,82.16434,82.22507
"2330",42.84955,81.72488,81.85324
"2331",42.862885,81.341576,81.52384
"2332",42.876213,81.00221,81.2264
"2333",42.88955,80.709236,80.964745
"2334",42.902885,80.4773,80.754974
"2335",42.916214,80.32838,80.620964
"2336",42.92955,80.274666,80.577515
"2337",42.942886,80.308846,80.62028
"2338",42.956223,80.40406,80.72514
"2339",42.96956,80.52369,80.8574
"2340",42.982887,80.621346,80.97142
"2341",42.996223,80.67017,81.039665
"2342",43.00956,80.65308,81.04352
"2343",43.02289,80.56519,80.976036
"2344",43.036224,80.41627,80.84477
"2345",43.04956,80.21362,80.655136
"2346",43.062897,79.96704,80.41523
"2347",43.076233,79.70336,80.15052
"2348",43.08956,79.43969,79.87758
"2349",43.102898,79.185776,79.606155
"2350",43.116234,78.9514,79.34634
"2351",43.129562,78.74143,79.1036
"2352",43.1429,78.56321,78.88605
"2353",43.156235,78.41917,78.697105
"2354",43.16957,78.30686,78.5354
"2355",43.182907,78.23361,78.40924
"2356",43.196236,78.18967,78.3101
"2357",43.20957,78.170135,78.23399
"2358",43.222908,78.167694,78.17437
"2359",43.236237,78.170135,78.11955
"2360",43.249573,78.17502,78.06725
"2361",43.26291,78.17502,78.01022
"2362",43.276245,78.16281,77.94099
"2363",43.28958,78.14084,77.8616
"2364",43.30291,78.10666,77.769325
"2365",43.316246,78.065155,77.668655
"2366",43.329582,78.01877,77.561806
"2367",43.34291,77.98215,77.46327
"2368",43.356247,77.98459,77.40266
"2369",43.369583,78.08713,77.442215
"2370",43.38292,78.37522,77.67053
"2371",43.396255,78.93187,78.17641
"2372",43.409584,79.781494,78.99265
"2373",43.42292,80.87282,80.07715
"2374",43.436256,82.09354,81.32514
"2375",43.449585,83.265434,82.56246
"2376",43.46292,84.23468,83.63375
"2377",43.476257,84.88655,84.41795
"2378",43.489594,85.19417,84.87827
"2379",43.50293,85.17708,85.0235
"2380",43.51626,84.910965,84.91917
"2381",43.529594,84.471504,84.63317
"2382",43.54293,83.93683,84.23823
"2383",43.55626,83.38018,83.8046
"2384",43.569595,82.847946,83.378
"2385",43.58293,82.371864,82.99091
"2386",43.596268,81.951935,82.6451
"2387",43.609604,81.58083,82.335
"2388",43.622932,81.248795,82.05236
"2389",43.63627,80.96315,81.80574
"2390",43.649605,80.73853,81.61122
"2391",43.662933,80.59937,81.49514
"2392",43.67627,80.56275,81.47725
"2393",43.689606,80.62379,81.55587
"2394",43.70294,80.74586,81.69743
"2395",43.716278,80.885025,81.85991
"2396",43.729607,80.99733,81.99987
"2397",43.742943,81.0486,82.082306
"2398",43.75628,81.02174,82.08822
"2399",43.769608,80.907,82.0054
"2400",43.782944,80.706795,81.83354
"2401",43.79628,80.43824,81.587074
"2402",43.809616,80.113525,81.276054
"2403",43.822945,79.76196,80.92804
"2404",43.836273,79.41039,80.56903
"2405",43.84961,79.080795,80.22101
"2406",43.862946,78.78783,79.899315
"2407",43.876274,78.538795,79.612404
"2408",43.889603,78.331276,79.35922
"2409",43.90294,78.170135,79.145935
"2410",43.916275,78.04074,78.95936
"2411",43.929604,77.94064,78.798035
"2412",43.942932,77.86496,78.658
"2413",43.95627,77.80148,78.5278
"2414",43.969604,77.747765,78.40538
"2415",43.982933,77.70138,78.28861
"2416",43.99626,77.6672,78.1826
"2417",44.009598,77.642784,78.08529
"2418",44.022934,77.62325,77.992096
"2419",44.036263,77.60372,77.89829
"2420",44.04959,77.58175,77.80144
"2421",44.062927,77.557335,77.701454
"2422",44.076263,77.5378,77.60559
"2423",44.089592,77.55001,77.540855
"2424",44.10292,77.6672,77.58148
"2425",44.116257,77.977264,77.81865
"2426",44.129593,78.57542,78.35359
"2427",44.14292,79.500725,79.23438
"2428",44.15625,80.71412,80.432175
"2429",44.169586,82.08621,81.826584
"2430",44.182922,83.43145,83.237015
"2431",44.19625,84.56184,84.47463
"2432",44.20958,85.350426,85.40578
"2433",44.222916,85.74593,85.96848
"2434",44.23625,85.77524,86.177345
"2435",44.24958,85.51156,86.09414
"2436",44.26291,85.05257,85.80738
"2437",44.276245,84.49592,85.40862
"2438",44.28958,83.9173,84.9705
"2439",44.30291,83.38018,84.55579
"2440",44.31624,82.916306,84.19755
"2441",44.329575,82.52567,83.89805
"2442",44.34291,82.193634,83.644936
"2443",44.35624,81.898224,83.418076
"2444",44.369568,81.6321,83.21127
"2445",44.382904,81.3904,83.02058
"2446",44.39624,81.18776,82.86138
"2447",44.40957,81.03883,82.74957
"2448",44.422897,80.94606,82.68926
"2449",44.436234,80.90456,82.67732
"2450",44.44957,80.88747,82.6885
"2451",44.4629,80.86549,82.69426
"2452",44.476227,80.82155,82.67736
"2453",44.489563,80.73365,82.615135
"2454",44.5029,80.587166,82.49158
"2455",44.516228,80.39185,82.31461
"2456",44.529556,80.147705,82.08271
"2457",44.542892,79.8645,81.80412
"2458",44.55623,79.55932,81.494705
"2459",44.569557,79.24437,81.165985
"2460",44.582886,78.93431,80.83231
"2461",44.596222,78.63889,80.50359
"2462",44.60956,78.37278,80.19495
"2463",44.622887,78.14328,79.9146
"2464",44.636215,77.94797,79.66126
"2465",44.64955,77.786835,79.436005
"2466",44.662888,77.65499,79.235
"2467",44.676216,77.54757,79.0543
"2468",44.689545,77.46456,78.89465
"2469",44.70288,77.40353,78.75439
"2470",44.716217,77.36202,78.631744
"2471",44.729546,77.33517,78.52245
"2472",44.742874,77.313194,78.417206
"2473",44.75621,77.29366,78.31371
"2474",44.769547,77.264366,78.199844
"2475",44.782875,77.222855,78.072845
"2476",44.796204,77.171585,77.93479
"2477",44.80954,77.10811,77.78293
"2478",44.822876,77.03487,77.619316
"2479",44.836205,76.95918,77.45097
"2480",44.849533,76.90059,77.297356
"2481",44.86287,76.89815,77.19806
"2482",44.876205,77.02754,77.23052
"2483",44.889534,77.3962,77.506294
"2484",44.902863,78.09201,78.120735
"2485",44.9162,79.13939,79.10849
"2486",44.929535,80.48951,80.43172
"2487",44.942863,81.99588,81.953384
"2488",44.956192,83.458305,83.47818
"2489",44.96953,84.681465,84.80941
"2490",44.982864,85.53353,85.80777
"2491",44.996193,85.96323,86.410385
"2492",45.00952,86.00229,86.635796
"2493",45.022858,85.72884,86.54992
"2494",45.036194,85.25277,86.25287
"2495",45.049522,84.67902,85.84327
"2496",45.06285,84.10773,85.41819
"2497",45.076187,83.595024,85.03385
"2498",45.089523,83.17265,84.72382
"2499",45.10285,82.8333,84.48361
"2500",45.11618,82.545204,84.28406
"2501",45.129517,82.27177,84.09016
"2502",45.142853,81.98123,83.87061
"2503",45.15618,81.67361,83.6249
"2504",45.16951,81.36111,83.3647
"2505",45.182846,81.07057,83.1167
"2506",45.196182,80.831314,82.9109
"2507",45.20951,80.64332,82.74888
"2508",45.22284,80.499275,82.62494
"2509",45.236176,80.37476,82.51603
"2510",45.24951,80.25025,82.40323
"2511",45.26284,80.10376,82.26456
"2512",45.27617,79.923096,82.087135
"2513",45.289505,79.708244,81.86988
"2514",45.30284,79.46166,81.61418
"2515",45.31617,79.18822,81.32391
"2516",45.3295,78.89281,81.003136
"2517",45.342834,78.58762,80.66335
"2518",45.35617,78.27512,80.30672
"2519",45.3695,77.96994,79.94763
"2520",45.382828,77.679405,79.59366
"2521",45.396164,77.41329,79.25503
"2522",45.4095,77.17647,78.93737
"2523",45.42283,76.97627,78.64894
"2524",45.436157,76.807816,78.385994
"2525",45.449493,76.66621,78.14463
"2526",45.46283,76.54902,77.92326
"2527",45.47616,76.45869,77.72509
"2528",45.489487,76.383,77.53874
"2529",45.502823,76.32441,77.36712
"2530",45.51616,76.282906,77.210754
"2531",45.529488,76.25361,77.0653
"2532",45.542816,76.22919,76.923805
"2533",45.556152,76.209656,76.78644
"2534",45.56949,76.19501,76.65334
"2535",45.582817,76.18036,76.51979
"2536",45.596146,76.16815,76.38822
"2537",45.60948,76.155945,76.25627
"2538",45.622818,76.14862,76.12882
"2539",45.636147,76.15106,76.01091
"2540",45.649475,76.155945,75.895515
"2541",45.66281,76.16571,75.78516
"2542",45.676147,76.18524,75.68487
"2543",45.689476,76.209656,75.59007
"2544",45.702805,76.23407,75.49604
"2545",45.71614,76.25361,75.397896
"2546",45.729477,76.2707,75.29791
"2547",45.742805,76.27802,75.1887
"2548",45.756134,76.280464,75.07483
"2549",45.76947,76.27558,74.95371
"2550",45.782806,76.263374,74.82512
"2551",45.796135,76.25605,74.70103
"2552",45.809464,76.26093,74.58891
"2553",45.8228,76.30976,74.5209
"2554",45.836136,76.48066,74.57648
"2555",45.849464,76.88594,74.87178
"2556",45.862793,77.62325,75.51178
"2557",45.87613,78.729225,76.54348
"2558",45.889465,80.16235,77.9369
"2559",45.902794,81.77127,79.55089
"2560",45.916122,83.346,81.18097
"2561",45.92946,84.681465,82.620995
"2562",45.942795,85.63851,83.724335
"2563",45.956123,86.16342,84.425446
"2564",45.96945,86.278175,84.7328
"2565",45.982788,86.065765,84.71658
"2566",45.996124,85.63119,84.47156
"2567",46.009453,85.08919,84.10553
"2568",46.02278,84.53254,83.70792
"2569",46.036118,84.03693,83.35394
"2570",46.049454,83.64385,83.08702
"2571",46.062782,83.36065,82.91769
"2572",46.07611,83.14824,82.810295
"2573",46.089447,82.96513,82.72557
"2574",46.102783,82.774704,82.6278
"2575",46.11611,82.55741,82.497215
"2576",46.12944,82.31327,82.33299
"2577",46.142776,82.07156,82.163574
"2578",46.156113,81.85672,82.013466
"2579",46.16944,81.67605,81.890816
"2580",46.18277,81.52468,81.791824
"2581",46.196106,81.38308,81.69787
"2582",46.209442,81.24147,81.59948
"2583",46.22277,81.0901,81.48691
"2584",46.2361,80.91432,81.34519
"2585",46.249435,80.71412,81.17356
"2586",46.26277,80.48707,80.96883
"2587",46.2761,80.23071,80.72769
"2588",46.28943,79.94995,80.45414
"2589",46.302765,79.656975,80.1596
"2590",46.3161,79.364006,79.85591
"2591",46.32943,79.078354,79.550385
"2592",46.34276,78.8098,79.25303
"2593",46.356094,78.56077,78.966805
"2594",46.36943,78.33372,78.69478
"2595",46.38276,78.133514,78.442505
"2596",46.396088,77.960175,78.21084
"2597",46.409424,77.80881,77.99573
"2598",46.42276,77.68185,77.80029
"2599",46.43609,77.574425,77.62043
"2600",46.449417,77.488976,77.45918
"2601",46.462753,77.420616,77.312355
"2602",46.47609,77.36446,77.1756
"2603",46.489418,77.315636,77.04441
"2604",46.502747,77.27413,76.91902
"2605",46.516083,77.23506,76.79477
"2606",46.52942,77.196,76.669304
"2607",46.542747,77.15938,76.54506
"2608",46.556076,77.120316,76.41723
"2609",46.569412,77.083694,76.29062
"2610",46.58275,77.04707,76.162865
"2611",46.596077,77.01289,76.03641
"2612",46.609406,76.978714,75.90888
"2613",46.62274,76.9543,75.790054
"2614",46.636078,76.93477,75.67535
"2615",46.649406,76.91768,75.56247
"2616",46.662735,76.90547,75.45394
"2617",46.67607,76.89815,75.349915
"2618",46.689407,76.89815,75.25298
"2619",46.702736,76.90547,75.163376
"2620",46.716064,76.92012,75.08132
"2621",46.7294,76.946976,75.01193
"2622",46.742737,76.978714,74.948265
"2623",46.756065,77.01045,74.88559
"2624",46.769394,77.04463,74.82635
"2625",46.78273,77.07149,74.76085
"2626",46.796066,77.09102,74.688866
"2627",46.809395,77.09834,74.605286
"2628",46.822723,77.09834,74.51461
"2629",46.83606,77.103226,74.42882
"2630",46.849396,77.11299,74.34806
"2631",46.862724,77.152054,74.296906
"2632",46.876053,77.279015,74.33487
"2633",46.88939,77.591515,74.56234
"2634",46.902725,78.17746,75.07302
"2635",46.916054,79.09544,75.93405
"2636",46.929382,80.323494,77.133835
"2637",46.94272,81.74685,78.5673
"2638",46.956055,83.17265,80.04769
"2639",46.969383,84.403145,81.37733
"2640",46.98271,85.27718,82.38896
"2641",46.996048,85.74105,83.01774
"2642",47.009384,85.80698,83.26307
"2643",47.022713,85.557945,83.1955
"2644",47.03604,85.09895,82.910194
"2645",47.049377,84.53742,82.508
"2646",47.062714,83.963684,82.07606
"2647",47.076042,83.441216,81.67745
"2648",47.08937,83.00664,81.35041
"2649",47.102707,82.67216,81.109886
"2650",47.116043,82.42802,80.94925
"2651",47.12937,82.247345,80.84445
"2652",47.1427,82.10574,80.77308
"2653",47.156036,81.98123,80.71437
"2654",47.169373,81.87381,80.66886
"2655",47.1827,81.78836,80.64197
"2656",47.19603,81.7322,80.64169
"2657",47.209366,81.705345,80.66897
"2658",47.222702,81.70046,80.71738
"2659",47.23603,81.69558,80.76563
"2660",47.24936,81.671165,80.794205
"2661",47.262695,81.61501,80.790276
"2662",47.27603,81.512474,80.738205
"2663",47.28936,81.36355,80.63654
"2664",47.30269,81.17067,80.486275
"2665",47.316025,80.94362,80.29581
"2666",47.32936,80.689705,80.07138
"2667",47.34269,80.42603,79.82926
"2668",47.356018,80.15747,79.57401
"2669",47.369354,79.89624,79.3177
"2670",47.38269,79.64721,79.06543
"2671",47.39602,79.42016,78.827354
"2672",47.409348,79.21019,78.599266
"2673",47.422684,79.02464,78.38904
"2674",47.43602,78.86839,78.20231
"2675",47.44935,78.73411,78.03266
"2676",47.462677,78.624245,77.88324
"2677",47.476013,78.53147,77.747475
"2678",47.48935,78.45579,77.6259
"2679",47.502678,78.39231,77.51417
"2680",47.516006,78.33616,77.407776
"2681",47.529343,78.29221,77.31184
"2682",47.54268,78.25315,77.219406
"2683",47.556007,78.22385,77.13551
"2684",47.569336,78.19699,77.053154
"2685",47.582672,78.17502,76.97484
"2686",47.59601,78.15549,76.89828
"2687",47.609337,78.133514,76.818665
"2688",47.622665,78.1091,76.73592
"2689",47.636,78.0798,76.64754
"2690",47.649338,78.05051,76.558235
"2691",47.662666,78.02365,76.47046
"2692",47.675995,78.00412,76.38917
"2693",47.68933,77.98459,76.30727
"2694",47.702667,77.96994,76.22964
"2695",47.715996,77.95285,76.14911
"2696",47.729324,77.92844,76.06072
"2697",47.74266,77.89914,75.96669
"2698",47.755997,77.86496,75.86686
"2699",47.769325,77.8259,75.76108
"2700",47.782654,77.78439,75.651634
"2701",47.79599,77.74288,75.540886
"2702",47.809326,77.71114,75.438614
"2703",47.822655,77.696495,75.35244
"2704",47.835983,77.74044,75.3244
"2705",47.84932,77.91135,75.4247
"2706",47.862656,78.29954,75.74762
"2707",47.875984,78.98314,76.37808
"2708",47.889313,79.98169,77.34486
"2709",47.90265,81.231705,78.5943
"2710",47.915985,82.59159,79.992676
"2711",47.929314,83.86847,81.35054
"2712",47.942642,84.89632,82.499275
"2713",47.95598,85.56039,83.31635
"2714",47.969315,85.841156,83.77088
"2715",47.982643,85.77524,83.8875
"2716",47.99597,85.4432,83.73593
"2717",48.009308,84.93782,83.40065
"2718",48.022644,84.34211,82.95924
"2719",48.035973,83.73174,82.484566
"2720",48.0493,83.15556,82.025
"2721",48.062637,82.64774,81.61579
"2722",48.075974,82.21805,81.26884
"2723",48.089302,81.85916,80.97926
"2724",48.10263,81.5613,80.7395
"2725",48.115967,81.31472,80.54171
"2726",48.129303,81.13161,80.39968
"2727",48.14263,81.024185,80.32762
"2728",48.15596,81.00221,80.337654
"2729",48.169296,81.06081,80.42757
"2730",48.182632,81.180435,80.580345
"2731",48.19596,81.324486,80.761284
"2732",48.20929,81.45388,80.93207
"2733",48.222626,81.54177,81.06539
"2734",48.235962,81.566185,81.137985
"2735",48.24929,81.512474,81.13322
"2736",48.26262,81.3782,81.0462
"2737",48.275955,81.16823,80.8793
"2738",48.28929,80.89967,80.647255
"2739",48.30262,80.59205,80.367744
"2740",48.31595,80.26246,80.056656
"2741",48.329285,79.93286,79.73526
"2742",48.34262,79.61547,79.41577
"2743",48.35595,79.32006,79.108345
"2744",48.369278,79.0515,78.818535
"2745",48.382614,78.82201,78.5594
"2746",48.39595,78.624245,78.32483
"2747",48.40928,78.46067,78.11826
"2748",48.422607,78.331276,77.940765
"2749",48.435944,78.23117,77.78851
"2750",48.44928,78.16525,77.66732
"2751",48.46261,78.12375,77.56848
"2752",48.475937,78.10666,77.49276
"2753",48.489273,78.11154,77.43848
"2754",48.50261,78.12863,77.39655
"2755",48.515938,78.153046,77.36249
"2756",48.529266,78.17746,77.329185
"2757",48.542603,78.204315,77.29909
"2758",48.55594,78.22385,77.262505
"2759",48.569267,78.23117,77.214325
"2760",48.582596,78.22873,77.15661
"2761",48.595932,78.21408,77.08661
"2762",48.60927,78.184784,77.0015
"2763",48.622597,78.1384,76.89839
"2764",48.635925,78.08469,76.78651
"2765",48.64926,78.02365,76.66562
"2766",48.662598,77.96506,76.545265
"2767",48.675926,77.91623,76.432846
"2768",48.689255,77.8967,76.3482
"2769",48.70259,77.96506,76.35083
"2770",48.715927,78.20676,76.52894
"2771",48.729256,78.712135,76.97828
"2772",48.742584,79.53246,77.75836
"2773",48.75592,80.64332,78.85461
"2774",48.769257,81.93729,80.16868
"2775",48.782585,83.250786,81.54272
"2776",48.795914,84.39338,82.786896
"2777",48.80925,85.23811,83.76892
"2778",48.822586,85.71664,84.41113
"2779",48.835915,85.841156,84.714294
"2780",48.849243,85.67025,84.72592
"2781",48.86258,85.29427,84.52714
"2782",48.875916,84.791336,84.189644
"2783",48.889244,84.23956,83.7876
"2784",48.902573,83.69024,83.37076
"2785",48.91591,83.175095,82.97093
"2786",48.929245,82.70878,82.603836
"2787",48.942574,82.29374,82.273445
"2788",48.955902,81.92752,81.978905
"2789",48.96924,81.60525,81.716866
"2790",48.982574,81.34402,81.5058
"2791",48.995903,81.15114,81.35492
"2792",49.00923,81.05348,81.293236
"2793",49.022568,81.0486,81.32127
"2794",49.035904,81.13161,81.43705
"2795",49.049232,81.26589,81.6067
"2796",49.06256,81.41238,81.79274
"2797",49.075897,81.529564,81.95406
"2798",49.089233,81.583275,82.05557
"2799",49.102562,81.55886,82.080635
"2800",49.11589,81.449,82.019485
"2801",49.129227,81.26101,81.87678
"2802",49.142563,81.007095,81.66227
"2803",49.15589,80.71168,81.39832
"2804",49.16922,80.39185,81.10074
"2805",49.182556,80.0647,80.78583
"2806",49.195892,79.74731,80.47046
"2807",49.20922,79.449455,80.16471
"2808",49.22255,79.17845,79.8765
"2809",49.235886,78.941635,79.61401
"2810",49.24922,78.73411,79.37341
"2811",49.26255,78.55833,79.15807
"2812",49.27588,78.41428,78.96898
"2813",49.289215,78.294655,78.7998
"2814",49.30255,78.204315,78.656166
"2815",49.31588,78.14328,78.53902
"2816",49.32921,78.101776,78.43949
"2817",49.342545,78.07736,78.35576
"2818",49.35588,78.065155,78.28347
"2819",49.36921,78.048065,78.20592
"2820",49.382538,78.02365,78.12051
"2821",49.395874,77.98703,78.022125
"2822",49.40921,77.92844,77.90063
"2823",49.42254,77.86008,77.76753
"2824",49.435867,77.786835,77.62742
"2825",49.449203,77.72091,77.49233
"2826",49.46254,77.66964,77.36984
"2827",49.47587,77.66964,77.29702
"2828",49.489197,77.78195,77.33651
"2829",49.502533,78.1091,77.594345
"2830",49.51587,78.729225,78.15538
"2831",49.529198,79.68139,79.06783
"2832",49.542526,80.91188,80.28837
"2833",49.555862,82.28886,81.69384
"2834",49.5692,83.62188,83.09839
"2835",49.582527,84.73762,84.32731
"2836",49.595856,85.514,85.25174
"2837",49.60919,85.909515,85.819565
"2838",49.622528,85.94614,86.040855
"2839",49.635857,85.69222,85.972755
"2840",49.649185,85.23567,85.694084
"2841",49.66252,84.66682,85.28884
"2842",49.675858,84.06622,84.83408
"2843",49.689186,83.49493,84.389854
"2844",49.702515,82.98955,83.99369
"2845",49.71585,82.55741,83.654976
"2846",49.729187,82.20096,83.37844
"2847",49.742516,81.898224,83.144485
"2848",49.755844,81.63943,82.94501
"2849",49.76918,81.41238,82.76919
"2850",49.782516,81.22194,82.62289
"2851",49.795845,81.077896,82.51703
"2852",49.809174,80.990005,82.46282
"2853",49.82251,80.94606,82.449814
"2854",49.835846,80.938736,82.47205
"2855",49.849174,80.94362,82.50627
"2856",49.862503,80.93141,82.52355
"2857",49.87584,80.88258,82.50383
"2858",49.889175,80.78981,82.43864
"2859",49.902504,80.638435,82.31194
"2860",49.915833,80.43336,82.126816
"2861",49.92917,80.17944,81.886444
"2862",49.942505,79.87915,81.59176
"2863",49.955833,79.54955,81.258385
"2864",49.969162,79.20531,80.90006
"2865",49.9825,78.86595,80.53587
"2866",49.995834,78.54612,80.1806
"2867",50.009163,78.260475,79.849525
"2868",50.02249,78.009,79.54369
"2869",50.035828,77.79904,79.271515
"2870",50.049164,77.62325,79.02695
"2871",50.062492,77.47677,78.80619
"2872",50.07582,77.36446,78.615036
"2873",50.089157,77.27657,78.444786
"2874",50.102493,77.21065,78.293755
"2875",50.11582,77.15938,78.15532
"2876",50.12915,77.120316,78.02749
"2877",50.142487,77.0959,77.913086
"2878",50.155823,77.086136,77.81257
"2879",50.16915,77.09346,77.728836
"2880",50.18248,77.10811,77.65266
"2881",50.195816,77.1252,77.57938
"2882",50.209152,77.13008,77.49442
"2883",50.22248,77.11543,77.39009
"2884",50.23581,77.083694,77.26821
"2885",50.249146,77.03731,77.13069
"2886",50.26248,76.97383,76.97463
"2887",50.27581,76.90791,76.81415
"2888",50.28914,76.859085,76.66869
"2889",50.302475,76.876175,76.58763
"2890",50.31581,77.049515,76.66335
"2891",50.32914,77.488976,77.01061
"2892",50.34247,78.28001,77.723175
"2893",50.355804,79.43969,78.82911
"2894",50.36914,80.88991,80.26182
"2895",50.38247,82.47196,81.87168
"2896",50.395798,83.96857,83.44553
"2897",50.409134,85.19417,84.79515
"2898",50.42247,86.031586,85.79488
"2899",50.4358,86.44419,86.39597
"2900",50.449127,86.46372,86.61688
"2901",50.462463,86.18051,86.53566
"2902",50.4758,85.694664,86.24295
"2903",50.48913,85.10628,85.83252
"2904",50.502457,84.49592,85.38173
"2905",50.515793,83.92706,84.95337
"2906",50.52913,83.441216,84.59024
"2907",50.542458,83.04814,84.3047
"2908",50.555786,82.72587,84.07768
"2909",50.569122,82.45243,83.88943
"2910",50.58246,82.20096,83.71459
"2911",50.595787,81.95682,83.53923
"2912",50.609116,81.722435,83.366
"2913",50.62245,81.51736,83.214745
"2914",50.635788,81.356224,83.10103
"2915",50.649117,81.24391,83.0311
"2916",50.662445,81.160904,82.98696
"2917",50.67578,81.0901,82.95244
"2918",50.689117,81.004654,82.901054
"2919",50.702446,80.88747,82.81526
"2920",50.715775,80.73121,82.68674
"2921",50.72911,80.53834,82.516716
"2922",50.742447,80.31129,82.30649
"2923",50.755775,80.04761,82.052536
"2924",50.769104,79.7522,81.75861
"2925",50.78244,79.43725,81.43592
"2926",50.795776,79.10765,81.08874
"2927",50.809105,78.78294,80.736145
"2928",50.822433,78.470436,80.385605
"2929",50.83577,78.184784,80.052155
"2930",50.849106,77.925995,79.73664
"2931",50.862434,77.70138,79.44721
"2932",50.875763,77.506065,79.18007
"2933",50.8891,77.34493,78.941
"2934",50.902435,77.21553,78.72863
"2935",50.915764,77.11543,78.54152
"2936",50.929092,77.03731,78.37325
"2937",50.94243,76.97139,78.21475
"2938",50.955765,76.91768,78.0664
"2939",50.969093,76.87373,77.92613
"2940",50.98242,76.83467,77.789375
"2941",50.995758,76.805374,77.66116
"2942",51.009094,76.78584,77.5418
"2943",51.022423,76.77608,77.431595
"2944",51.03575,76.76875,77.323524
"2945",51.049088,76.75899,77.21278
"2946",51.062424,76.74677,77.09929
"2947",51.075752,76.732124,76.98298
"2948",51.08908,76.70527,76.854004
"2949",51.102417,76.66132,76.7071
"2950",51.115753,76.60273,76.544174
"2951",51.12908,76.52949,76.36477
"2952",51.14241,76.45136,76.17819
"2953",51.155746,76.37568,75.991615
"2954",51.169083,76.33906,75.841736
"2955",51.18241,76.40742,75.79569
"2956",51.19574,76.680855,75.95686
"2957",51.209076,77.27413,76.44642
"2958",51.222412,78.24582,77.332924
"2959",51.23574,79.57885,78.61114
"2960",51.24907,81.15602,80.17515
"2961",51.262405,82.78447,81.83972
"2962",51.27574,84.242004,83.38427
"2963",51.28907,85.365074,84.6399
"2964",51.3024,86.05844,85.50092
"2965",51.315735,86.32212,85.953926
"2966",51.32907,86.20981,86.03918
"2967",51.3424,85.81918,85.842606
"2968",51.35573,85.26009,85.46536
"2969",51.369064,84.627754,84.9974
"2970",51.3824,84.00763,84.52189
"2971",51.39573,83.45098,84.09048
"2972",51.409058,82.97734,83.72468
"2973",51.422394,82.58427,83.424644
"2974",51.43573,82.24979,83.17092
"2975",51.44906,81.95926,82.9507
"2976",51.462387,81.69314,82.745804
"2977",51.475723,81.45876,82.56434
"2978",51.48906,81.26589,82.41705
"2979",51.502388,81.129166,82.319885
"2980",51.515717,81.04372,82.26972
"2981",51.529053,80.99245,82.25107
"2982",51.54239,80.953384,82.24302
"2983",51.555717,80.89723,82.21666
"2984",51.569046,80.8069,82.154366
"2985",51.582382,80.66773,82.04041
"2986",51.59572,80.46998,81.863525
"2987",51.609047,80.22095,81.62918
"2988",51.622375,79.923096,81.338234
"2989",51.63571,79.588615,81.00135
"2990",51.649048,79.23216,80.63204
"2991",51.662376,78.87572,80.2516
"2992",51.675705,78.52903,79.86978
"2993",51.68904,78.204315,79.4991
"2994",51.702377,77.91623,79.1549
"2995",51.715706,77.6672,78.84075
"2996",51.729034,77.454796,78.55545
"2997",51.74237,77.279015,78.30013
"2998",51.755707,77.137405,78.073494
"2999",51.769035,77.02754,77.874176
"3000",51.782364,76.93965,77.6934
"3001",51.7957,76.86885,77.52696
"3002",51.809036,76.81026,77.37052
"3003",51.822365,76.76143,77.222015
"3004",51.835693,76.717476,77.07686
"3005",51.84903,76.680855,76.93766
"3006",51.862366,76.65156,76.80464
"3007",51.875694,76.62226,76.67071
"3008",51.889023,76.592964,76.53586
"3009",51.90236,76.56611,76.402534
"3010",51.915695,76.54658,76.275696
"3011",51.929024,76.53681,76.15801
"3012",51.942352,76.53925,76.05223
"3013",51.95569,76.54902,75.95385
"3014",51.969025,76.561226,75.858215
"3015",51.982353,76.56367,75.7532
"3016",51.99568,76.55146,75.633606
"3017",52.009018,76.524605,75.498985
"3018",52.022354,76.48798,75.35376
"3019",52.035683,76.44892,75.20495
"3020",52.04901,76.4123,75.05736
"3021",52.062347,76.39033,74.92327
"3022",52.075684,76.422066,74.84221
"3023",52.089012,76.58808,74.896416
"3024",52.10234,76.995804,75.19752
"3025",52.115677,77.738,75.84583
"3026",52.129013,78.836655,76.8738
"3027",52.14234,80.22827,78.229065
"3028",52.15567,81.75662,79.76455
"3029",52.169006,83.20683,81.26965
"3030",52.182343,84.39094,82.55397
"3031",52.19567,85.189285,83.48953
"3032",52.209,85.57015,84.03256
"3033",52.222336,85.575035,84.21151
"3034",52.235672,85.28695,84.09764
"3035",52.249,84.8011,83.77701
"3036",52.26233,84.21271,83.338646
"3037",52.275665,83.59014,82.847725
"3038",52.289,82.98955,82.35932
"3039",52.30233,82.45243,81.91563
"3040",52.31566,81.991,81.53083
"3041",52.328995,81.59792,81.199974
"3042",52.34233,81.25613,80.90811
"3043",52.35566,80.970474,80.66171
"3044",52.368988,80.740974,80.46254
"3045",52.382324,80.5774,80.32212
"3046",52.39566,80.5066,80.26936
"3047",52.40899,80.52857,80.30717
"3048",52.422318,80.62379,80.4189
"3049",52.435654,80.7483,80.562904
"3050",52.44899,80.86549,80.70348
"3051",52.46232,80.94606,80.8111
"3052",52.475647,80.96071,80.85531
"3053",52.488983,80.89967,80.824295
"3054",52.50232,80.762955,80.71569
"3055",52.515648,80.56031,80.53689
"3056",52.528976,80.29908,80.29317
"3057",52.542313,79.99878,80.00221
"3058",52.55565,79.676506,79.6799
"3059",52.568977,79.34936,79.34264
"3060",52.582306,79.03441,79.00736
"3061",52.595642,78.74143,78.68421
"3062",52.60898,78.4802,78.38365
"3063",52.622307,78.26536,78.121315
"3064",52.635635,78.09689,77.89864
"3065",52.64897,77.97482,77.7171
"3066",52.662308,77.90402,77.583015
"3067",52.675636,77.87717,77.49066
"3068",52.688965,77.87717,77.424324
"3069",52.7023,77.88937,77.37019
"3070",52.715637,77.90158,77.316444
"3071",52.728966,77.90402,77.25331
"3072",52.742294,77.89914,77.18293
"3073",52.75563,77.88693,77.10507
"3074",52.768967,77.86984,77.02195
"3075",52.782295,77.84787,76.93341
"3076",52.795624,77.821014,76.8393
"3077",52.80896,77.77951,76.729706
"3078",52.822296,77.72823,76.60904
"3079",52.835625,77.67696,76.48678
"3080",52.848953,77.65255,76.38977
"3081",52.86229,77.713585,76.37745
"3082",52.875626,77.94797,76.54038
"3083",52.888954,78.44358,76.97187
"3084",52.902283,79.24437,77.72402
"3085",52.91562,80.325935,78.781975
"3086",52.928955,81.57351,80.039734
"3087",52.942284,82.81621,81.331604
"3088",52.955612,83.87335,82.47675
"3089",52.96895,84.61555,83.33999
"3090",52.982285,84.98909,83.857765
"3091",52.995613,85.00618,84.03076
"3092",53.00894,84.732735,83.91376
"3093",53.022278,84.25666,83.58558
"3094",53.035614,83.67803,83.13997
"3095",53.048943,83.06279,82.63966
"3096",53.06227,82.46952,82.142105
"3097",53.075607,81.934845,81.6846
"3098",53.088943,81.46853,81.27875
"3099",53.102272,81.06569,80.9218
"3100",53.1156,80.73609,80.6255
"3101",53.128937,80.482185,80.3946
"3102",53.142273,80.31861,80.24609
"3103",53.1556,80.255135,80.19257
"3104",53.16893,80.30152,80.24693
"3105",53.182266,80.44312,80.39796
"3106",53.195602,80.65064,80.61932
"3107",53.20893,80.88014,80.869156
"3108",53.22226,81.0901,81.10662
"3109",53.235596,81.231705,81.28229
"3110",53.24893,81.27322,81.36229
"3111",53.26226,81.20241,81.33127
"3112",53.27559,81.0193,81.18574
"3113",53.288925,80.743416,80.9417
"3114",53.30226,80.39918,80.6207
"3115",53.31559,80.01343,80.24742
"3116",53.32892,79.60815,79.84256
"3117",53.342255,79.21263,79.4348
"3118",53.35559,78.839096,79.03666
"3119",53.36892,78.49729,78.65858
"3120",53.382248,78.20187,78.3162
"3121",53.395584,77.95041,78.008545
"3122",53.40892,77.74044,77.73453
"3123",53.42225,77.56954,77.49302
"3124",53.435577,77.435265,77.28279
"3125",53.448914,77.34005,77.10743
"3126",53.46225,77.281456,76.96571
"3127",53.47558,77.25704,76.856346
"3128",53.488907,77.264366,76.777954
"3129",53.502243,77.28878,76.71688
"3130",53.51558,77.32052,76.663895
"3131",53.528908,77.349815,76.60946
"3132",53.542236,77.366905,76.54373
"3133",53.555573,77.36446,76.45901
"3134",53.56891,77.347374,76.35956
"3135",53.582237,77.31075,76.24004
"3136",53.595566,77.26681,76.11206
"3137",53.608902,77.225296,75.98514
"3138",53.62224,77.205765,75.8789
"3139",53.635567,77.24971,75.835526
"3140",53.648895,77.437706,75.93758
"3141",53.66223,77.874725,76.294525
"3142",53.675568,78.643776,76.99716
"3143",53.688896,79.76196,78.07297
"3144",53.702225,81.15602,79.45959
"3145",53.71556,82.6746,81.01429
"3146",53.728897,84.10773,82.531
"3147",53.742226,85.2723,83.82394
"3148",53.755554,86.04135,84.757744
"3149",53.76889,86.397804,85.302986
"3150",53.782227,86.37583,85.48094
"3151",53.795555,86.056,85.36035
"3152",53.808884,85.540855,85.034454
"3153",53.82222,84.93294,84.599686
"3154",53.835556,84.315254,84.136154
"3155",53.848885,83.74639,83.70214
"3156",53.862213,83.26055,83.333374
"3157",53.87555,82.86992,83.04463
"3158",53.888885,82.55497,82.81937
"3159",53.902214,82.2913,82.63554
"3160",53.915543,82.05936,82.4752
"3161",53.92888,81.85184,82.33203
"3162",53.942215,81.671165,82.20923
"3163",53.955544,81.53445,82.12473
"3164",53.968872,81.446556,82.08479
"3165",53.98221,81.40749,82.090935
"3166",53.995544,81.392845,82.12027
"3167",54.008873,81.373314,82.144264
"3168",54.0222,81.324486,82.13835
"3169",54.035538,81.231705,82.08696
"3170",54.048874,81.08278,81.976524
"3171",54.062202,80.88258,81.810165
"3172",54.07553,80.62867,81.58383
"3173",54.088867,80.34058,81.31539
"3174",54.102203,80.025635,81.011086
"3175",54.115532,79.693596,80.67985
"3176",54.12886,79.361565,80.33824
"3177",54.142197,79.044174,80.0009
"3178",54.155533,78.746315,79.67317
"3179",54.16886,78.4802,79.36788
"3180",54.18219,78.24582,79.086006
"3181",54.195526,78.04562,78.83099
"3182",54.208862,77.88205,78.606346
"3183",54.22219,77.747765,78.405876
"3184",54.23552,77.645226,78.232956
"3185",54.248856,77.57198,78.08613
"3186",54.26219,77.53292,77.97119
"3187",54.27552,77.51339,77.874565
"3188",54.28885,77.503624,77.787094
"3189",54.302185,77.4963,77.70176
"3190",54.31552,77.486534,77.613754
"3191",54.32885,77.45968,77.508354
"3192",54.34218,77.41573,77.385025
"3193",54.355515,77.35226,77.24079
"3194",54.36885,77.279015,77.08481
"3195",54.38218,77.196,76.91676
"3196",54.395508,77.11543,76.74857
"3197",54.408844,77.049515,76.592514
"3198",54.42218,77.02266,76.47346
"3199",54.43551,77.08858,76.446335
"3200",54.448837,77.34005,76.60683
"3201",54.462173,77.872284,77.05594
"3202",54.47551,78.74876,77.86592
"3203",54.48884,79.957275,79.03534
"3204",54.502167,81.39529,80.472015
"3205",54.515503,82.879684,82.000015
"3206",54.52884,84.20294,83.41326
"3207",54.542168,85.20149,84.54315
"3208",54.555496,85.787445,85.29165
"3209",54.568832,85.960785,85.64584
"3210",54.58217,85.78256,85.65389
"3211",54.595497,85.347984,85.40002
"3212",54.608826,84.7596,84.97875
"3213",54.62216,84.11017,84.47806
"3214",54.635498,83.475395,83.971725
"3215",54.648827,82.90898,83.513916
"3216",54.662155,82.425575,83.121414
"3217",54.67549,82.02762,82.799255
"3218",54.688828,81.69314,82.52814
"3219",54.702156,81.40017,82.28808
"3220",54.715485,81.13649,82.06815
"3221",54.72882,80.90944,81.87662
"3222",54.742157,80.73853,81.73413
"3223",54.755486,80.63111,81.64979
"3224",54.768814,80.59205,81.63045
"3225",54.78215,80.59937,81.65627
"3226",54.795486,80.62623,81.70186
"3227",54.808815,80.64088,81.73608
"3228",54.822144,80.621346,81.73657
"3229",54.83548,80.55543,81.69007
"3230",54.848816,80.44068,81.59268
"3231",54.862144,80.27955,81.44532
"3232",54.875473,80.06958,81.24409
"3233",54.88881,79.818115,80.9948
"3234",54.902145,79.53002,80.70102
"3235",54.915474,79.20775,80.36406
"3236",54.928802,78.86839,79.99995
"3237",54.94214,78.53147,79.62766
"3238",54.955475,78.21652,79.26682
"3239",54.968803,77.93332,78.92789
"3240",54.982132,77.69161,78.6216
"3241",54.99547,77.49142,78.349266
"3242",55.008804,77.332726,78.11218
"3243",55.022133,77.208206,77.90431
"3244",55.03546,77.11299,77.721855
"3245",55.048798,77.03487,77.55351
"3246",55.062134,76.97139,77.39738
"3247",55.075462,76.91768,77.24902
"3248",55.08879,76.86885,77.103874
"3249",55.102127,76.82979,76.966965
"3250",55.115463,76.80049,76.8386
"3251",55.12879,76.773636,76.71176
"3252",55.14212,76.749214,76.58652
"3253",55.155457,76.734566,76.47028
"3254",55.168793,76.71992,76.35359
"3255",55.18212,76.70527,76.23644
"3256",55.19545,76.68574,76.11395
"3257",55.208786,76.65156,75.976204
"3258",55.222122,76.60761,75.82762
"3259",55.23545,76.561226,75.675224
"3260",55.24878,76.52705,75.533585
"3261",55.262115,76.52216,75.42017
"3262",55.27545,76.55146,75.34079
"3263",55.28878,76.654,75.33556
"3264",55.30211,76.90059,75.47759
"3265",55.315445,77.383995,75.86414
"3266",55.32878,78.17746,76.57586
"3267",55.34211,79.29809,77.639534
"3268",55.35544,80.66773,78.98724
"3269",55.368774,82.127716,80.468094
"3270",55.38211,83.48272,81.88959
"3271",55.39544,84.54963,83.06533
"3272",55.408768,85.22102,83.8789
"3273",55.422104,85.46761,84.28864
"3274",55.43544,85.33578,84.32767
"3275",55.44877,84.91585,84.07448
"3276",55.462097,84.31037,83.62262
"3277",55.475433,83.62188,83.068825
"3278",55.48877,82.930954,82.49108
"3279",55.502098,82.29618,81.9479
"3280",55.515427,81.74441,81.46788
"3281",55.528763,81.270775,81.04876
"3282",55.5421,80.8777,80.6954
"3283",55.555428,80.552986,80.39811
"3284",55.568756,80.2942,80.1566
"3285",55.582092,80.10376,79.97536
"3286",55.59543,79.99878,79.87362
"3287",55.608757,79.97925,79.85405
"3288",55.622086,80.0354,79.90955
"3289",55.63542,80.14526,80.02052
"3290",55.648758,80.26734,80.14714
"3291",55.662086,80.35279,80.240944
"3292",55.675415,80.377205,80.27638
"3293",55.68875,80.32105,80.23202
"3294",55.702087,80.17944,80.10044
"3295",55.715416,79.9646,79.891205
"3296",55.728745,79.693596,79.619095
"3297",55.74208,79.381096,79.29702
"3298",55.755417,79.046616,78.9432
"3299",55.768745,78.70481,78.5716
"3300",55.782074,78.37034,78.196655
"3301",55.79541,78.06271,77.838104
"3302",55.808746,77.7966,77.51145
"3303",55.822075,77.57931,77.2253
"3304",55.835403,77.420616,76.99097
"3305",55.84874,77.31808,76.80782
"3306",55.862076,77.261925,76.66786
"3307",55.875404,77.23262,76.55299
"3308",55.888733,77.22041,76.45431
"3309",55.90207,77.222855,76.36989
"3310",55.915405,77.22774,76.28799
"3311",55.928734,77.242386,76.216
"3312",55.942062,77.261925,76.14937
"3313",55.9554,77.2839,76.08578
"3314",55.968735,77.30587,76.02287
"3315",55.982063,77.32784,75.960655
"3316",55.99539,77.35226,75.901566
"3317",56.008728,77.37911,75.84568
"3318",56.022064,77.40841,75.793076
"3319",56.035393,77.43038,75.73406
"3320",56.04872,77.44015,75.66353
"3321",56.062057,77.435265,75.57865
"3322",56.075394,77.41329,75.47653
"3323",56.088722,77.37667,75.35908
"3324",56.10205,77.330284,75.23071
"3325",56.115387,77.28634,75.10334
"3326",56.128723,77.2546,74.9868
"3327",56.14205,77.24727,74.89368
"3328",56.15538,77.30099,74.861374
"3329",56.168716,77.49386,74.9699
"3330",56.182053,77.92111,75.31884
"3331",56.19538,78.65598,75.98875
"3332",56.20871,79.69848,76.98924
"3333",56.222046,80.9778,78.25914
"3334",56.235382,82.33524,79.64714
"3335",56.24871,83.57549,80.960365
"3336",56.26204,84.5301,82.0267
"3337",56.275375,85.103836,82.742004
"3338",56.28871,85.28207,83.07973
"3339",56.30204,85.120926,83.08365
"3340",56.31537,84.701,82.823746
"3341",56.328705,84.12482,82.39447
"3342",56.34204,83.48028,81.87883
"3343",56.35537,82.83818,81.34549
"3344",56.3687,82.23758,80.83358
"3345",56.382034,81.70779,80.37371
"3346",56.39537,81.24391,79.9632
"3347",56.4087,80.848404,79.60657
"3348",56.422028,80.52125,79.30592
"3349",56.435364,80.272224,79.07319
"3350",56.4487,80.11597,78.92544
"3351",56.46203,80.0647,78.87779
"3352",56.475357,80.12329,78.93841
"3353",56.488693,80.2649,79.08387
"3354",56.50203,80.45533,79.28258
"3355",56.515358,80.6482,79.48968
"3356",56.528687,80.79469,79.656425
"3357",56.542023,80.87038,79.75694
"3358",56.55536,80.85817,79.771935
"3359",56.568687,80.76051,79.701096
"3360",56.582016,80.584724,79.54907
"3361",56.595352,80.35279,79.33541
"3362",56.60869,80.076904,79.07055
"3363",56.622017,79.783936,78.77998
"3364",56.635345,79.48852,78.47781
"3365",56.64868,79.20531,78.17862
"3366",56.662018,78.94652,77.895
"3367",56.675346,78.71702,77.632576
"3368",56.688675,78.52659,77.402054
"3369",56.70201,78.37278,77.2022
"3370",56.715347,78.25071,77.02928
"3371",56.728676,78.16037,76.88428
"3372",56.742004,78.09201,76.75843
"3373",56.75534,78.04562,76.65242
"3374",56.768677,78.013885,76.55961
"3375",56.782005,77.994354,76.47801
"3376",56.795334,77.98703,76.40801
"3377",56.80867,77.99191,76.34999
"3378",56.822006,78.00412,76.299446
"3379",56.835335,78.02609,76.25905
"3380",56.848663,78.05051,76.22178
"3381",56.862,78.07736,76.18771
"3382",56.875336,78.09689,76.14716
"3383",56.888664,78.101776,76.092575
"3384",56.901993,78.09201,76.02349
"3385",56.91533,78.07248,75.944336
"3386",56.928665,78.0383,75.84992
"3387",56.941994,77.996796,75.747116
"3388",56.955322,77.945526,75.63325
"3389",56.96866,77.89426,75.51778
"3390",56.981995,77.85031,75.40803
"3391",56.995323,77.83566,75.3262
"3392",57.00865,77.91135,75.33425
"3393",57.021988,78.16525,75.52289
"3394",57.035324,78.692604,75.992905
"3395",57.048653,79.53246,76.79191
"3396",57.06198,80.66041,77.90524
"3397",57.075317,81.95682,79.22229
"3398",57.088654,83.24101,80.567635
"3399",57.101982,84.3299,81.757805
"3400",57.11531,85.08675,82.649956
"3401",57.128647,85.46273,83.1849
"3402",57.141983,85.47738,83.370255
"3403",57.15531,85.20393,83.267975
"3404",57.16864,84.732735,82.9594
"3405",57.181976,84.15411,82.52867
"3406",57.195312,83.53399,82.03836
"3407",57.20864,82.92363,81.53844
"3408",57.22197,82.35966,81.06583
"3409",57.235306,81.846954,80.62686
"3410",57.248642,81.38552,80.223145
"3411",57.26197,80.98512,79.86604
"3412",57.2753,80.65797,79.56967
"3413",57.288635,80.41871,79.350975
"3414",57.30197,80.29664,79.24199
"3415",57.3153,80.30396,79.25858
"3416",57.32863,80.43336,79.39748
"3417",57.341965,80.65797,79.63563
"3418",57.3553,80.921646,79.91987
"3419",57.36863,81.17555,80.202576
"3420",57.381958,81.37087,80.43463
"3421",57.395294,81.480736,80.58733
"3422",57.40863,81.48562,80.63849
"3423",57.42196,81.3904,80.5897
"3424",57.435287,81.21217,80.45492
"3425",57.448624,80.970474,80.2511
"3426",57.46196,80.69215,80.0031
"3427",57.47529,80.40894,79.74152
"3428",57.488617,80.147705,79.493065
"3429",57.501953,79.91333,79.263306
"3430",57.51529,79.710686,79.05795
"3431",57.528618,79.537346,78.87557
"3432",57.541946,79.381096,78.704865
"3433",57.555283,79.237045,78.54147
"3434",57.56862,79.10033,78.38091
"3435",57.581947,78.975815,78.22829
"3436",57.595276,78.86839,78.08886
"3437",57.608612,78.78783,77.97293
"3438",57.62195,78.7219,77.869125
"3439",57.635277,78.675514,77.7828
"3440",57.648605,78.63401,77.699905
"3441",57.66194,78.59495,77.61816
"3442",57.675278,78.54856,77.52786
"3443",57.688606,78.49241,77.42635
"3444",57.701935,78.42405,77.31088
"3445",57.71527,78.345924,77.18351
"3446",57.728607,78.25559,77.04149
"3447",57.741936,78.167694,76.89908
"3448",57.755264,78.101776,76.7759
"3449",57.7686,78.12131,76.736115
"3450",57.781937,78.32151,76.87761
"3451",57.795265,78.80492,77.30856
"3452",57.808594,79.622795,78.089096
"3453",57.82193,80.765396,79.21991
"3454",57.835266,82.11795,80.59638
"3455",57.848595,83.51446,82.059074
"3456",57.861923,84.771805,83.42625
"3457",57.87526,85.74593,84.54949
"3458",57.888596,86.35142,85.33453
"3459",57.901924,86.58579,85.76739
"3460",57.915253,86.48325,85.87065
"3461",57.92859,86.10483,85.694824
"3462",57.941925,85.53109,85.31186
"3463",57.955254,84.84749,84.8011
"3464",57.968582,84.12726,84.23235
"3465",57.98192,83.41924,83.65331
"3466",57.995255,82.75517,83.09609
"3467",58.008583,82.14725,82.574265
"3468",58.02191,81.59792,82.09204
"3469",58.035248,81.11452,81.65857
"3470",58.048584,80.723885,81.302765
"3471",58.061913,80.44312,81.044624
"3472",58.07524,80.28443,80.89978
"3473",58.088577,80.2478,80.87204
"3474",58.101913,80.31617,80.94815
"3475",58.115242,80.448006,81.08987
"3476",58.12857,80.59205,81.24791
"3477",58.141907,80.709236,81.3836
"3478",58.155243,80.765396,81.46192
"3479",58.16857,80.743416,81.46386
"3480",58.1819,80.635994,81.37967
"3481",58.195236,80.45045,81.214
"3482",58.208572,80.198975,80.9766
"3483",58.2219,79.906006,80.68985
"3484",58.23523,79.58373,80.36464
"3485",58.248566,79.25414,80.02204
"3486",58.2619,78.941635,79.686226
"3487",58.27523,78.65354,79.36506
"3488",58.28856,78.40208,79.07152
"3489",58.301895,78.184784,78.80429
"3490",58.31523,78.011444,78.57423
"3491",58.32856,77.87717,78.37781
"3492",58.34189,77.77707,78.21137
"3493",58.355225,77.7087,78.07354
"3494",58.36856,77.67208,77.96532
"3495",58.38189,77.65255,77.87304
"3496",58.395218,77.64767,77.7948
"3497",58.408554,77.65011,77.72373
"3498",58.42189,77.65011,77.6503
"3499",58.43522,77.64767,77.574425
"3500",58.448547,77.6379,77.49115
"3501",58.461884,77.62325,77.40269
"3502",58.47522,77.611046,77.31621
"3503",58.48855,77.608604,77.23911
"3504",58.501877,77.65499,77.21077
"3505",58.515213,77.821014,77.30351
"3506",58.52855,78.204315,77.61872
"3507",58.541878,78.8806,78.23889
"3508",58.555206,79.87915,79.20246
"3509",58.568542,81.1487,80.46823
"3510",58.58188,82.547646,81.903076
"3511",58.595207,83.88556,83.3206
"3512",58.608536,84.99153,84.548
"3513",58.621872,85.74593,85.45838
"3514",58.63521,86.10971,86.00172
"3515",58.648537,86.11459,86.197525
"3516",58.661865,85.83627,86.11028
"3517",58.6752,85.36263,85.81902
"3518",58.688538,84.77913,85.4031
"3519",58.701866,84.159,84.93231
"3520",58.715195,83.5584,84.461685
"3521",58.72853,83.00664,84.02112
"3522",58.741867,82.52567,83.63411
"3523",58.755196,82.10574,83.293106
"3524",58.768524,81.73708,82.99025
"3525",58.78186,81.41238,82.719826
"3526",58.795197,81.1487,82.50028
"3527",58.808525,80.95827,82.34575
"3528",58.821854,80.85573,82.273155
"3529",58.83519,80.848404,82.29257
"3530",58.848526,80.919205,82.389885
"3531",58.861855,81.02907,82.52847
"3532",58.875183,81.13649,82.66805
"3533",58.88852,81.20729,82.77437
"3534",58.901855,81.22438,82.829185
"3535",58.915184,81.160904,82.80397
"3536",58.928513,81.01686,82.696205
"3537",58.94185,80.799576,82.5107
"3538",58.955185,80.52125,82.257355
"3539",58.968513,80.19165,81.944046
"3540",58.981842,79.84253,81.600914
"3541",58.99518,79.49096,81.24442
"3542",59.008514,79.14427,80.88183
"3543",59.021843,78.81712,80.52794
"3544",59.03517,78.51682,80.190674
"3545",59.048508,78.25315,79.88065
"3546",59.061844,78.03342,79.60633
"3547",59.075172,77.86252,79.37398
"3548",59.0885,77.738,79.18266
"3549",59.101837,77.65743,79.03141
"3550",59.115173,77.60616,78.90694
"3551",59.1285,77.57198,78.79795
"3552",59.14183,77.540245,78.69034
"3553",59.155167,77.506065,78.57929
"3554",59.168503,77.467,78.462296
"3555",59.18183,77.420616,78.336754
"3556",59.19516,77.36446,78.2
"3557",59.208496,77.30343,78.0566
"3558",59.221832,77.24971,77.91862
"3559",59.23516,77.22041,77.803375
"3560",59.24849,77.281456,77.77756
"3561",59.261826,77.523155,77.9343
"3562",59.27516,78.05539,78.38914
"3563",59.28849,78.93431,79.20729
"3564",59.30182,80.15259,80.392265
"3565",59.315155,81.600365,81.84481
"3566",59.32849,83.10185,83.39631
"3567",59.34182,84.45197,84.84336
"3568",59.35515,85.4847,86.01521
"3569",59.368484,86.10727,86.80917
"3570",59.38182,86.31724,87.20999
"3571",59.39515,86.168304,87.25847
"3572",59.408478,85.75815,87.04107
"3573",59.421814,85.186844,86.649704
"3574",59.43515,84.542305,86.16725
"3575",59.44848,83.912415,85.679306
"3576",59.461807,83.34356,85.23271
"3577",59.475143,82.85039,84.844025
"3578",59.48848,82.42802,84.51073
"3579",59.50181,82.05936,84.21794
"3580",59.515137,81.71267,83.93561
"3581",59.528473,81.38064,83.6571
"3582",59.54181,81.077896,83.3975
"3583",59.555138,80.82643,83.17972
"3584",59.568466,80.64332,83.02243
"3585",59.581802,80.54078,82.939995
"3586",59.59514,80.50416,82.92027
"3587",59.608467,80.50416,82.93603
"3588",59.621796,80.49683,82.94446
"3589",59.63513,80.45533,82.91848
"3590",59.648468,80.35767,82.83505
"3591",59.661797,80.19409,82.68265
"3592",59.675125,79.96948,82.4641
"3593",59.68846,79.68627,82.17994
"3594",59.701797,79.364006,81.84787
"3595",59.715126,79.01488,81.47887
"3596",59.728455,78.658424,81.09163
"3597",59.74179,78.30198,80.69326
"3598",59.755127,77.962616,80.300835
"3599",59.768456,77.65255,79.9271
"3600",59.781784,77.38155,79.58275
"3601",59.79512,77.152054,79.27142
"3602",59.808456,76.95918,78.989555
"3603",59.821785,76.807816,78.743164
"3604",59.835114,76.68818,78.52377
"3605",59.84845,76.60029,78.33239
"3606",59.861786,76.541695,78.16756
"3607",59.875114,76.507515,78.02531
"3608",59.888443,76.490425,77.89908
"3609",59.90178,76.48066,77.77964
"3610",59.915115,76.46357,77.65257
"3611",59.928444,76.43427,77.512764
"3612",59.941772,76.387886,77.35495
"3613",59.95511,76.32929,77.18348
"3614",59.968445,76.265816,77.005295
"3615",59.981773,76.209656,76.83244
"3616",59.995102,76.17792,76.68226
"3617",60.00844,76.22919,76.61409
"3618",60.021774,76.44404,76.711105
"3619",60.035103,76.93477,77.09071
"3620",60.04843,77.7673,77.82746
"3621",60.061768,78.94652,78.936905
"3622",60.075104,80.377205,80.33467
"3623",60.088432,81.8909,81.86015
"3624",60.10176,83.27764,83.305984
"3625",60.115097,84.36164,84.49241
"3626",60.128433,85.03792,85.304985
"3627",60.14176,85.29427,85.71877
"3628",60.15509,85.17952,85.76946
"3629",60.168427,84.79378,85.54558
"3630",60.181763,84.23224,85.13384
"3631",60.19509,83.60479,84.63865
"3632",60.20842,82.98955,84.136055
"3633",60.221756,82.44022,83.68015
"3634",60.235092,81.97391,83.29009
"3635",60.24842,81.58816,82.96603
"3636",60.26175,81.26101,82.68851
"3637",60.275085,80.95827,82.42517
"3638",60.28842,80.67017,82.16702
"3639",60.30175,80.40162,81.91941
"3640",60.31508,80.17212,81.70246
"3641",60.328415,80.00122,81.53694
"3642",60.34175,79.89868,81.43444
"3643",60.35508,79.852295,81.38489
"3644",60.36841,79.83276,81.36074
"3645",60.381744,79.80591,81.32866
"3646",60.39508,79.74975,81.26643
"3647",60.40841,79.65453,81.1634
"3648",60.421738,79.50317,81.001236
"3649",60.435074,79.30297,80.785515
"3650",60.44841,79.061264,80.522026
"3651",60.46174,78.78783,80.21925
"3652",60.475067,78.49241,79.885956
"3653",60.488403,78.187225,79.53366
"3654",60.50174,77.88449,79.17428
"3655",60.515068,77.59884,78.82252
"3656",60.528397,77.33517,78.48381
"3657",60.541733,77.09834,78.16371
"3658",60.55507,76.895706,77.8704
"3659",60.568398,76.72968,77.60737
"3660",60.581726,76.59785,77.37334
"3661",60.595062,76.50263,77.17181
"3662",60.6084,76.43427,76.994156
"3663",60.621727,76.39033,76.83878
"3664",60.635056,76.36347,76.69913
"3665",60.64839,76.35371,76.57572
"3666",60.661728,76.35371,76.46178
"3667",60.675056,76.3708,76.36492
"3668",60.688385,76.39765,76.278366
"3669",60.70172,76.436714,76.20486
"3670",60.715057,76.48066,76.13745
"3671",60.728386,76.53193,76.07874
"3672",60.741714,76.592964,76.0314
"3673",60.75505,76.65644,75.98841
"3674",60.768387,76.72236,75.949844
"3675",60.781715,76.773636,75.8987
"3676",60.795044,76.80293,75.82717
"3677",60.80838,76.805374,75.729706
"3678",60.821716,76.78096,75.60546
"3679",60.835045,76.734566,75.45847
"3680",60.848373,76.67841,75.30028
"3681",60.86171,76.61494,75.133
"3682",60.875046,76.544136,74.95642
"3683",60.888374,76.473335,74.777626
"3684",60.901703,76.4123,74.606384
"3685",60.91504,76.37324,74.45521
"3686",60.928375,76.39033,74.35896
"3687",60.941704,76.52949,74.38532
"3688",60.955032,76.90303,74.65041
"3689",60.96837,77.62081,75.271416
"3690",60.981705,78.729225,76.30548
"3691",60.995033,80.19409,77.73064
"3692",61.00836,81.866486,79.409096
"3693",61.021698,83.53643,81.13737
"3694",61.035034,84.97688,82.68833
"3695",61.048363,86.0267,83.89368
"3696",61.06169,86.61997,84.67528
"3697",61.075027,86.77867,85.04085
"3698",61.088364,86.590675,85.06468
"3699",61.101692,86.153656,84.83362
"3700",61.11502,85.58236,84.45462
"3701",61.128357,84.97444,84.02115
"3702",61.141693,84.40559,83.60774
"3703",61.15502,83.92462,83.26445
"3704",61.16835,83.55108,83.01355
"3705",61.181686,83.267876,82.84132
"3706",61.195023,83.04326,82.71882
"3707",61.20835,82.83574,82.6064
"3708",61.22168,82.62333,82.482605
"3709",61.235016,82.40116,82.342415
"3710",61.248352,82.178986,82.195274
"3711",61.26168,81.98367,82.068054
"3712",61.27501,81.829865,81.976234
"3713",61.288345,81.70779,81.91134
"3714",61.30168,81.600365,81.857285
"3715",61.31501,81.49294,81.79987
"3716",61.32834,81.36355,81.71713
"3717",61.341675,81.20485,81.60104
"3718",61.35501,81.01442,81.448265
"3719",61.36834,80.78737,81.252914
"3720",61.381668,80.52613,81.01628
"3721",61.395004,80.235596,80.74219
"3722",61.40834,79.923096,80.43705
"3723",61.42167,79.60082,80.11237
"3724",61.434998,79.281,79.780075
"3725",61.448334,78.97093,79.44754
"3726",61.46167,78.68284,79.12729
"3727",61.475,78.42649,78.82978
"3728",61.488327,78.204315,78.55843
"3729",61.501663,78.02365,78.321655
"3730",61.515,77.88693,78.12318
"3731",61.528328,77.78439,77.954605
"3732",61.541656,77.70382,77.804794
"3733",61.554993,77.6379,77.66712
"3734",61.56833,77.58419,77.5396
"3735",61.581657,77.5378,77.41772
"3736",61.594986,77.49386,77.29683
"3737",61.608322,77.45724,77.18189
"3738",61.62166,77.42794,77.073135
"3739",61.634987,77.40353,76.968346
"3740",61.648315,77.37911,76.86279
"3741",61.66165,77.35714,76.75892
"3742",61.674988,77.33517,76.65436
"3743",61.688316,77.30587,76.54179
"3744",61.701645,77.27413,76.42586
"3745",61.71498,77.24483,76.31137
"3746",61.728317,77.22041,76.20086
"3747",61.741646,77.205765,76.09935
"3748",61.754974,77.20088,76.00715
"3749",61.76831,77.205765,75.92456
"3750",61.781647,77.208206,75.83968
"3751",61.794975,77.20332,75.74756
"3752",61.808304,77.188675,75.645515
"3753",61.82164,77.16182,75.53081
"3754",61.834976,77.12276,75.40305
"3755",61.848305,77.069046,75.25943
"3756",61.861633,77.00801,75.106804
"3757",61.87497,76.94942,74.95471
"3758",61.888306,76.929886,74.83985
"3759",61.901634,77.02022,74.83424
"3760",61.914963,77.32784,75.04875
"3761",61.9283,77.95529,75.5927
"3762",61.941635,78.96117,76.534676
"3763",61.954964,80.308846,77.84989
"3764",61.968292,81.8616,79.4123
"3765",61.98163,83.4168,81.02567
"3766",61.994965,84.76448,82.480125
"3767",62.008293,85.748375,83.61291
"3768",62.02162,86.30747,84.35164
"3769",62.034958,86.45884,84.70011
"3770",62.048294,86.26841,84.71152
"3771",62.061623,85.8436,84.48259
"3772",62.07495,85.28939,84.11099
"3773",62.088287,84.698555,83.68545
"3774",62.101624,84.14679,83.28051
"3775",62.114952,83.682915,82.94622
"3776",62.12828,83.3167,82.6951
"3777",62.141617,83.03105,82.51309
"3778",62.154953,82.79912,82.37588
"3779",62.16828,82.59159,82.25582
"3780",62.18161,82.39628,82.141495
"3781",62.194946,82.213165,82.033264
"3782",62.208282,82.05936,81.948616
"3783",62.22161,81.94949,81.90311
"3784",62.23494,81.881134,81.89567
"3785",62.248276,81.83475,81.908066
"3786",62.261612,81.7908,81.921455
"3787",62.27494,81.72732,81.91393
"3788",62.28827,81.62722,81.86781
"3789",62.301605,81.48318,81.77462
"3790",62.31494,81.29763,81.63542
"3791",62.32827,81.06813,81.44647
"3792",62.3416,80.80446,81.21618
"3793",62.354935,80.50904,80.9459
"3794",62.36827,80.201416,80.65418
"3795",62.3816,79.88403,80.343094
"3796",62.394928,79.57641,80.031845
"3797",62.408264,79.28344,79.72564
"3798",62.4216,79.01732,79.437126
"3799",62.43493,78.77806,79.16716
"3800",62.448257,78.57053,78.92145
"3801",62.461594,78.39475,78.701
"3802",62.47493,78.25071,78.50679
"3803",62.48826,78.133514,78.33493
"3804",62.501587,78.03342,78.176506
"3805",62.514923,77.95041,78.03204
"3806",62.52826,77.87961,77.897194
"3807",62.541588,77.81613,77.767456
"3808",62.554916,77.75754,77.64062
"3809",62.568253,77.70626,77.519264
"3810",62.58159,77.65499,77.39632
"3811",62.594917,77.608604,77.27665
"3812",62.608246,77.56466,77.157974
"3813",62.621582,77.5256,77.04281
"3814",62.63492,77.49142,76.931305
"3815",62.648247,77.45968,76.821175
"3816",62.661575,77.4255,76.70761
"3817",62.67491,77.39376,76.59542
"3818",62.688248,77.366905,76.48712
"3819",62.701576,77.34249,76.380424
"3820",62.714905,77.32784,76.28273
"3821",62.72824,77.32052,76.1919
"3822",62.741577,77.313194,76.100845
"3823",62.754906,77.30587,76.00956
"3824",62.768234,77.30099,75.92049
"3825",62.78157,77.28634,75.821495
"3826",62.794907,77.26925,75.719604
"3827",62.808235,77.24483,75.60985
"3828",62.821564,77.21309,75.49201
"3829",62.8349,77.18379,75.375626
"3830",62.848236,77.16426,75.26809
"3831",62.861565,77.17403,75.18924
"3832",62.874893,77.261925,75.18883
"3833",62.88823,77.52071,75.36205
"3834",62.901566,78.05539,75.81925
"3835",62.914894,78.93919,76.64229
"3836",62.928223,80.17212,77.842064
"3837",62.94156,81.65896,79.33428
"3838",62.954895,83.22148,80.94865
"3839",62.968224,84.644844,82.47268
"3840",62.981552,85.74593,83.71892
"3841",62.99489,86.42954,84.582085
"3842",63.008224,86.678566,85.03203
"3843",63.021553,86.54673,85.108894
"3844",63.03488,86.12924,84.89599
"3845",63.048218,85.53353,84.49181
"3846",63.061554,84.86214,83.99334
"3847",63.074883,84.2005,83.48364
"3848",63.08821,83.60479,83.019196
"3849",63.101547,83.104294,82.63135
"3850",63.114883,82.69657,82.32063
"3851",63.128212,82.36454,82.07287
"3852",63.14154,82.08377,81.86599
"3853",63.154877,81.849396,81.69673
"3854",63.168213,81.65896,81.56409
"3855",63.18154,81.52712,81.48409
"3856",63.19487,81.463646,81.46834
"3857",63.208206,81.46853,81.51896
"3858",63.221542,81.51736,81.61368
"3859",63.23487,81.57107,81.714806
"3860",63.2482,81.602806,81.79564
"3861",63.261536,81.58572,81.828636
"3862",63.27487,81.50027,81.79274
"3863",63.2882,81.3489,81.688255
"3864",63.30153,81.13649,81.518
"3865",63.314865,80.867935,81.28496
"3866",63.3282,80.55787,81.002014
"3867",63.34153,80.22339,80.68497
"3868",63.35486,79.88403,80.35259
"3869",63.368195,79.554436,80.01937
"3870",63.38153,79.237045,79.68806
"3871",63.39486,78.941635,79.368805
"3872",63.408188,78.67063,79.06473
"3873",63.421524,78.43137,78.78393
"3874",63.43486,78.22385,78.52738
"3875",63.44819,78.05539,78.30342
"3876",63.461517,77.92111,78.108376
"3877",63.474854,77.821014,77.94331
"3878",63.48819,77.74044,77.79465
"3879",63.50152,77.67696,77.66056
"3880",63.514847,77.62325,77.534256
"3881",63.528183,77.576866,77.4136
"3882",63.54152,77.540245,77.301254
"3883",63.554848,77.506065,77.19021
"3884",63.568176,77.47433,77.080536
"3885",63.581512,77.44991,76.977196
"3886",63.59485,77.4255,76.87309
"3887",63.608177,77.40597,76.77311
"3888",63.621506,77.3962,76.68228
"3889",63.634842,77.3962,76.600914
"3890",63.64818,77.39864,76.52199
"3891",63.661507,77.40353,76.44558
"3892",63.674835,77.41085,76.371765
"3893",63.68817,77.40841,76.288414
"3894",63.701508,77.401085,76.2001
"3895",63.714836,77.38155,76.09936
"3896",63.728165,77.3547,75.99068
"3897",63.7415,77.315636,75.86895
"3898",63.754837,77.27413,75.74356
"3899",63.768166,77.23506,75.61931
"3900",63.781494,77.20332,75.50117
"3901",63.79483,77.18379,75.39424
"3902",63.808167,77.208206,75.33065
"3903",63.821495,77.347374,75.382576
"3904",63.834824,77.70382,75.65613
"3905",63.84816,78.380104,76.26066
"3906",63.861496,79.42748,77.257416
"3907",63.874825,80.79469,78.606735
"3908",63.888153,82.34257,80.17944
"3909",63.90149,83.86603,81.77611
"3910",63.914825,85.15755,83.18844
"3911",63.928154,86.07065,84.26271
"3912",63.941483,86.55161,84.93338
"3913",63.95482,86.61997,85.206474
"3914",63.968155,86.35142,85.14479
"3915",63.981483,85.84604,84.83789
"3916",63.994812,85.20149,84.37603
"3917",64.00815,84.508125,83.84521
"3918",64.021484,83.82941,83.307365
"3919",64.03481,83.211716,82.80934
"3920",64.04814,82.67216,82.37015
"3921",64.06148,82.210724,81.99222
"3922",64.074814,81.815216,81.665794
"3923",64.08814,81.48806,81.39536
"3924",64.10147,81.231705,81.18551
"3925",64.11481,81.07057,81.06287
"3926",64.12814,81.01686,81.04261
"3927",64.14147,81.07301,81.13054
"3928",64.1548,81.21217,81.30323
"3929",64.16814,81.39529,81.52422
"3930",64.18147,81.57107,81.74361
"3931",64.1948,81.69802,81.919655
"3932",64.20813,81.74685,82.021545
"3933",64.221466,81.71023,82.03951
"3934",64.2348,81.583275,81.966
"3935",64.24813,81.373314,81.80552
"3936",64.26146,81.092545,81.567665
"3937",64.274796,80.762955,81.27222
"3938",64.28813,80.40894,80.94205
"3939",64.30146,80.0354,80.58128
"3940",64.31479,79.674065,80.221054
"3941",64.328125,79.33715,79.873955
"3942",64.34146,79.03685,79.55294
"3943",64.35479,78.77318,79.25917
"3944",64.36812,78.553444,79.0011
"3945",64.381454,78.365456,78.76791
"3946",64.39479,78.2092,78.56057
"3947",64.40812,78.082245,78.377655
"3948",64.42145,77.979706,78.21519
"3949",64.434784,77.90402,78.07637
"3950",64.44812,77.855194,77.96204
"3951",64.46145,77.82834,77.868164
"3952",64.47478,77.81369,77.78565
"3953",64.48811,77.81613,77.71977
"3954",64.50145,77.83078,77.666176
"3955",64.51478,77.85031,77.61792
"3956",64.52811,77.872284,77.572716
"3957",64.54144,77.88937,77.523315
"3958",64.55478,77.89914,77.467125
"3959",64.56811,77.89426,77.39659
"3960",64.581436,77.86984,77.30637
"3961",64.59477,77.8259,77.19586
"3962",64.60811,77.76242,77.064445
"3963",64.62144,77.679405,76.91151
"3964",64.634766,77.59884,76.75842
"3965",64.6481,77.56954,76.65409
"3966",64.66144,77.679405,76.688
"3967",64.67477,78.0383,76.97438
"3968",64.688095,78.72678,77.60156
"3969",64.70143,79.766846,78.60184
"3970",64.71477,81.08766,79.91537
"3971",64.728096,82.533,81.39469
"3972",64.741425,83.90753,82.84838
"3973",64.75476,85.02571,84.08867
"3974",64.7681,85.770355,84.990364
"3975",64.781425,86.11459,85.51492
"3976",64.794754,86.07797,85.66938
"3977",64.80809,85.74105,85.52239
"3978",64.82143,85.19905,85.1598
"3979",64.834755,84.53498,84.658195
"3980",64.84808,83.82941,84.09434
"3981",64.86142,83.140915,83.52551
"3982",64.874756,82.49882,82.98157
"3983",64.888084,81.91287,82.47371
"3984",64.90141,81.38796,82.008575
"3985",64.91475,80.92897,81.59296
"3986",64.928085,80.5481,81.24112
"3987",64.941414,80.26978,80.97993
"3988",64.95474,80.11841,80.83698
"3989",64.96808,80.10376,80.826035
"3990",64.981415,80.216064,80.94158
"3991",64.99474,80.41627,81.14854
"3992",65.00807,80.65797,81.403244
"3993",65.02141,80.885025,81.65086
"3994",65.034744,81.05592,81.84942
"3995",65.04807,81.13649,81.96298
"3996",65.0614,81.1194,81.98141
"3997",65.07474,80.99733,81.89432
"3998",65.08807,80.79225,81.720406
"3999",65.1014,80.52125,81.47416
"4000",65.11473,80.21118,81.18038
"4001",65.12807,79.886475,80.862274
"4002",65.1414,79.571526,80.54378
"4003",65.15473,79.26879,80.22765
"4004",65.16806,78.99046,79.926476
"4005",65.1814,78.73899,79.643456
"4006",65.19473,78.51682,79.38188
"4007",65.20806,78.314186,79.1329
"4008",65.22139,78.14816,78.91419
"4009",65.234726,78.013885,78.722046
"4010",65.24806,77.908905,78.555
"4011",65.26139,77.83566,78.41641
"4012",65.27472,77.7966,78.309715
"4013",65.288055,77.77463,78.21889
"4014",65.30139,77.76242,78.13714
"4015",65.31472,77.7551,78.05989
"4016",65.32805,77.74044,77.97508
"4017",65.341385,77.7087,77.872734
"4018",65.35472,77.662315,77.754745
"4019",65.36805,77.608604,77.62798
"4020",65.38138,77.55001,77.49466
"4021",65.394714,77.503624,77.37171
"4022",65.40805,77.51339,77.30347
"4023",65.42138,77.66476,77.37713
"4024",65.43471,78.06271,77.70211
"4025",65.448044,78.80003,78.37889
"4026",65.46138,79.91333,79.45469
"4027",65.47471,81.34646,80.88511
"4028",65.48804,82.950485,82.53121
"4029",65.50137,84.51301,84.185936
"4030",65.51471,85.83139,85.64535
"4031",65.52804,86.766464,86.76265
"4032",65.54137,87.26208,87.46971
"4033",65.5547,87.33532,87.7699
"4034",65.56804,87.061874,87.72568
"4035",65.58137,86.539406,87.42389
"4036",65.594696,85.86069,86.949524
"4037",65.60803,85.118484,86.390465
"4038",65.62137,84.38117,85.8131
"4039",65.6347,83.69268,85.26152
"4040",65.648026,83.06767,84.75191
"4041",65.66136,82.50126,84.28136
"4042",65.6747,81.971466,83.82973
"4043",65.68803,81.47585,83.39572
"4044",65.701355,81.041275,83.00726
"4045",65.71469,80.70191,82.70044
"4046",65.72803,80.49683,82.517296
"4047",65.741356,80.44312,82.47911
"4048",65.754684,80.516365,82.5662
"4049",65.76802,80.68238,82.74835
"4050",65.78136,80.87282,82.96011
"4051",65.794685,81.03883,83.153404
"4052",65.808014,81.13161,83.27864
"4053",65.82135,81.13161,83.314
"4054",65.83469,81.0193,83.23706
"4055",65.848015,80.80202,83.05163
"4056",65.86134,80.48951,82.76418
"4057",65.87468,80.10864,82.39861
"4058",65.888016,79.68871,81.98208
"4059",65.901344,79.259026,81.54266
"4060",65.91467,78.84154,81.10202
"4061",65.92801,78.450905,80.675186
"4062",65.941345,78.10422,80.28009
"4063",65.95467,77.80148,79.91811
"4064",65.968,77.54269,79.590614
"4065",65.98134,77.330284,79.30142
"4066",65.994675,77.16914,79.056854
"4067",66.008,77.051956,78.851204
"4068",66.02133,76.97627,78.683395
"4069",66.03467,76.93477,78.5474
"4070",66.048004,76.92012,78.436966
"4071",66.06133,76.91524,78.33584
"4072",66.07466,76.90791,78.23212
"4073",66.088,76.895706,78.12328
"4074",66.10133,76.87129,78.00186
"4075",66.11466,76.841995,77.874794
"4076",66.12799,76.81026,77.74437
"4077",66.14133,76.788284,77.62272
"4078",66.15466,76.80293,77.537
"4079",66.16799,76.927444,77.56161
"4080",66.18132,77.26925,77.807396
"4081",66.19466,77.94797,78.40078
"4082",66.20799,79.03197,79.420654
"4083",66.22132,80.499275,80.85771
"4084",66.23465,82.22537,82.59941
"4085",66.247986,83.99542,84.439
"4086",66.26132,85.58236,86.150795
"4087",66.27465,86.800644,87.543526
"4088",66.28798,87.54284,88.49824
"4089",66.301315,87.8114,89.00252
"4090",66.31465,87.66247,89.09769
"4091",66.32798,87.19371,88.86838
"4092",66.34131,86.51743,88.4169
"4093",66.354645,85.74105,87.844185
"4094",66.36798,84.95491,87.23745
"4095",66.38131,84.21271,86.650085
"4096",66.39464,83.54864,86.11766
"4097",66.407974,82.95781,85.637726
"4098",66.42131,82.41825,85.1906
"4099",66.43464,81.92264,84.77055
"4100",66.44797,81.47341,84.38141
"4101",66.4613,81.08278,84.03682
"4102",66.47464,80.78493,83.772804
"4103",66.48797,80.601814,83.61422
"4104",66.5013,80.53101,83.562225
"4105",66.51463,80.54078,83.588585
"4106",66.52797,80.58961,83.65431
"4107",66.5413,80.63355,83.71668
"4108",66.55463,80.635994,83.73892
"4109",66.56796,80.56519,83.687996
"4110",66.5813,80.411385,83.55185
"4111",66.59463,80.177,83.33032
"4112",66.607956,79.8645,83.02335
"4113",66.62129,79.48852,82.643135
"4114",66.63463,79.07347,82.212105
"4115",66.64796,78.643776,81.753456
"4116",66.661285,78.21896,81.28626
"4117",66.67462,77.81857,80.830215
"4118",66.68796,77.452354,80.39583
"4119",66.70129,77.12764,79.9915
"4120",66.714615,76.84444,79.61854
"4121",66.72795,76.61494,79.29043
"4122",66.74129,76.43427,79.00398
"4123",66.754616,76.30488,78.76316
"4124",66.767944,76.22186,78.564674
"4125",66.78128,76.175476,78.40022
"4126",66.79462,76.1535,78.258736
"4127",66.807945,76.14374,78.12877
"4128",66.82127,76.13153,77.996056
"4129",66.83461,76.10712,77.85075
"4130",66.847946,76.07294,77.69492
"4131",66.861275,76.02655,77.52582
"4132",66.8746,75.9704,77.3455
"4133",66.88794,75.91913,77.168304
"4134",66.901276,75.88251,77.00416
"4135",66.914604,75.90204,76.89502
"4136",66.92793,76.05585,76.92077
"4137",66.94127,76.46357,77.20524
"4138",66.954605,77.22774,77.858894
"4139",66.96793,78.40696,78.951485
"4140",66.98126,79.94995,80.444695
"4141",66.9946,81.705345,82.198524
"4142",67.007935,83.44366,83.99013
"4143",67.02126,84.93782,85.5919
"4144",67.03459,86.01694,86.825325
"4145",67.04793,86.60288,87.5993
"4146",67.061264,86.71519,87.91794
"4147",67.07459,86.43931,87.851906
"4148",67.08792,85.88022,87.49404
"4149",67.10126,85.14534,86.94292
"4150",67.11459,84.351875,86.31024
"4151",67.12792,83.577934,85.672295
"4152",67.14125,82.8748,85.08097
"4153",67.15459,82.26444,84.56045
"4154",67.16792,81.73464,84.10141
"4155",67.18125,81.26101,83.681984
"4156",67.19458,80.82399,83.28437
"4157",67.20792,80.42115,82.90728
"4158",67.22125,80.07202,82.57131
"4159",67.23458,79.801025,82.30257
"4160",67.24791,79.62524,82.12056
"4161",67.261246,79.534904,82.01852
"4162",67.27458,79.51049,81.97957
"4163",67.28791,79.517815,81.971596
"4164",67.30124,79.51537,81.95409
"4165",67.314575,79.47387,81.89744
"4166",67.32791,79.37377,81.7809
"4167",67.34124,79.202866,81.59042
"4168",67.35457,78.96361,81.326256
"4169",67.367905,78.66331,80.99357
"4170",67.38124,78.32395,80.61244
"4171",67.39457,77.962616,80.19873
"4172",67.4079,77.593956,79.7664
"4173",67.421234,77.23506,79.33232
"4174",67.43457,76.90059,78.911446
"4175",67.4479,76.60273,78.51673
"4176",67.46123,76.34638,78.15422
"4177",67.47456,76.13397,77.82764
"4178",67.4879,75.96307,77.53593
"4179",67.50123,75.83124,77.27794
"4180",67.51456,75.72625,77.04268
"4181",67.52789,75.648125,76.831
"4182",67.54123,75.596855,76.64374
"4183",67.55456,75.56512,76.4744
"4184",67.56789,75.55535,76.32605
"4185",67.58122,75.56756,76.19936
"4186",67.59456,75.596855,76.09015
"4187",67.60789,75.63348,75.989174
"4188",67.621216,75.6701,75.88934
"4189",67.63455,75.699394,75.78333
"4190",67.64789,75.71404,75.66359
"4191",67.66122,75.7116,75.527214
"4192",67.674545,75.68963,75.37123
"4193",67.68788,75.65301,75.19991
"4194",67.70122,75.6115,75.02257
"4195",67.71455,75.57244,74.84637
"4196",67.727875,75.55535,74.69092
"4197",67.74121,75.60662,74.603294
"4198",67.75455,75.82147,74.680855
"4199",67.767876,76.317085,75.04589
"4200",67.781204,77.19844,75.81216
"4201",67.79454,78.504616,77.030785
"4202",67.80788,80.164795,78.64423
"4203",67.821205,82.00809,80.492676
"4204",67.83453,83.79767,82.34501
"4205",67.84787,85.296715,83.96273
"4206",67.861206,86.348976,85.18051
"4207",67.874535,86.90318,85.93312
"4208",67.88786,86.98375,86.22941
"4209",67.9012,86.68101,86.144905
"4210",67.914536,86.12436,85.797035
"4211",67.927864,85.42367,85.28773
"4212",67.94119,84.68635,84.719894
"4213",67.95453,83.9881,84.16809
"4214",67.967865,83.370415,83.67503
"4215",67.98119,82.84306,83.253006
"4216",67.99452,82.388954,82.88774
"4217",68.00786,81.986115,82.559555
"4218",68.021194,81.60769,82.243195
"4219",68.03452,81.26101,81.946754
"4220",68.04785,80.95827,81.68342
"4221",68.06119,80.72144,81.47654
"4222",68.074524,80.570076,81.34772
"4223",68.08785,80.49683,81.29229
"4224",68.10118,80.47242,81.2834
"4225",68.11452,80.465096,81.29084
"4226",68.12785,80.43824,81.27852
"4227",68.14118,80.36988,81.223854
"4228",68.15451,80.24048,81.10601
"4229",68.16785,80.05493,80.92798
"4230",68.18118,79.81079,80.685555
"4231",68.19451,79.5227,80.39155
"4232",68.20784,79.200424,80.05436
"4233",68.221176,78.86107,79.69002
"4234",68.23451,78.51682,79.31018
"4235",68.24784,78.18234,78.92935
"4236",68.26117,77.86984,78.56005
"4237",68.274506,77.58663,78.21027
"4238",68.28784,77.34249,77.89072
"4239",68.30117,77.13985,77.60503
"4240",68.3145,76.978714,77.354515
"4241",68.327835,76.84932,77.13071
"4242",68.34117,76.754105,76.937035
"4243",68.3545,76.67841,76.75991
"4244",68.36783,76.62226,76.59996
"4245",68.381165,76.578316,76.45046
"4246",68.3945,76.55146,76.31668
"4247",68.40783,76.53437,76.191826
"4248",68.42116,76.524605,76.07376
"4249",68.434494,76.51972,75.96027
"4250",68.44783,76.51484,75.846634
"4251",68.46116,76.50996,75.73284
"4252",68.47449,76.50507,75.6189
"4253",68.48782,76.49775,75.50236
"4254",68.50116,76.49287,75.38803
"4255",68.51449,76.490425,75.27599
"4256",68.52782,76.49287,75.16876
"4257",68.54115,76.50263,75.06893
"4258",68.55449,76.51484,74.97185
"4259",68.56782,76.53193,74.88003
"4260",68.58115,76.55146,74.79118
"4261",68.59448,76.56611,74.69807
"4262",68.60782,76.56855,74.5932
"4263",68.62115,76.56367,74.48109
"4264",68.634476,76.54902,74.359055
"4265",68.64781,76.52949,74.23168
"4266",68.66115,76.5124,74.10614
"4267",68.67448,76.52216,74.00692
"4268",68.687805,76.612495,73.98857
"4269",68.70114,76.90303,74.17325
"4270",68.71448,77.52804,74.70148
"4271",68.727806,78.59495,75.69114
"4272",68.741135,80.111084,77.16337
"4273",68.75447,81.971466,79.02722
"4274",68.76781,83.95636,81.07372
"4275",68.781136,85.79965,83.04065
"4276",68.794464,87.259636,84.68187
"4277",68.8078,88.20935,85.858444
"4278",68.82114,88.61463,86.52026
"4279",68.834465,88.54383,86.71867
"4280",68.84779,88.10681,86.548645
"4281",68.86113,87.43786,86.133026
"4282",68.874466,86.67124,85.59885
"4283",68.887794,85.909515,85.04559
"4284",68.90112,85.22835,84.549095
"4285",68.91446,84.664375,84.148506
"4286",68.927795,84.22003,83.84992
"4287",68.941124,83.86603,83.62779
"4288",68.95445,83.56573,83.4483
"4289",68.96779,83.284966,83.27897
"4290",68.981125,83.0164,83.11306
"4291",68.99445,82.76738,82.9583
"4292",69.00778,82.55741,82.83481
"4293",69.02112,82.39384,82.75115
"4294",69.034454,82.27665,82.70877
"4295",69.04778,82.178986,82.68225
"4296",69.06111,82.08377,82.65513
"4297",69.07445,81.9617,82.598175
"4298",69.08778,81.79813,82.4959
"4299",69.10111,81.58572,82.33968
"4300",69.11444,81.322044,82.125565
"4301",69.12778,81.01198,81.85681
"4302",69.14111,80.65797,81.534424
"4303",69.15444,80.27955,81.17657
"4304",69.16777,79.8938,80.79955
"4305",69.18111,79.50805,80.410484
"4306",69.19444,79.14183,80.02889
"4307",69.20777,78.802475,79.66272
"4308",69.2211,78.49241,79.31523
"4309",69.234436,78.21164,78.98735
"4310",69.24777,77.9675,78.687325
"4311",69.2611,77.75754,78.41385
"4312",69.27443,77.57931,78.16554
"4313",69.287766,77.435265,77.945854
"4314",69.3011,77.32296,77.7534
"4315",69.31443,77.2375,77.58429
"4316",69.32776,77.16914,77.4296
"4317",69.341095,77.117874,77.28987
"4318",69.35443,77.07637,77.1583
"4319",69.36776,77.04219,77.03276
"4320",69.38109,77.01045,76.90859
"4321",69.394424,76.97627,76.78099
"4322",69.40776,76.93233,76.642555
"4323",69.42109,76.895706,76.51007
"4324",69.43442,76.86397,76.381325
"4325",69.447754,76.84444,76.263794
"4326",69.46109,76.841995,76.16274
"4327",69.47442,76.85176,76.07382
"4328",69.48775,76.86641,75.99009
"4329",69.50108,76.88594,75.9117
"4330",69.51442,76.895706,75.82415
"4331",69.52775,76.90059,75.732025
"4332",69.54108,76.893265,75.627846
"4333",69.55441,76.87373,75.51123
"4334",69.56775,76.841995,75.3818
"4335",69.594406,76.754105,75.09524
"4336",69.60774,76.717476,74.95718
"4337",69.62108,76.70527,74.84239
"4338",69.63441,76.76143,74.79559
"4339",69.647736,76.981155,74.914116
"4340",69.66107,77.50118,75.339806
"4341",69.67441,78.42893,76.18947
"4342",69.68774,79.79614,77.50758
"4343",69.701065,81.53445,79.23952
"4344",69.7144,83.46075,81.21377
"4345",69.72774,85.32845,83.18962
"4346",69.741066,86.88609,84.91377
"4347",69.754395,87.974976,86.21784
"4348",69.76773,88.534065,87.02615
"4349",69.78107,88.5951,87.35388
"4350",69.794395,88.24353,87.270905
"4351",69.807724,87.60143,86.88641
"4352",69.82106,86.803085,86.32561
"4353",69.8344,85.96323,85.69834
"4354",69.847725,85.16731,85.088776
"4355",69.86105,84.46906,84.552
"4356",69.87439,83.89044,84.11304
"4357",69.887726,83.421684,83.765854
"4358",69.901054,83.02861,83.479706
"4359",69.91438,82.684364,83.2301
"4360",69.92772,82.38407,83.013695
"4361",69.941055,82.1326,82.83672
"4362",69.954384,81.951935,82.7227
"4363",69.96771,81.84207,82.673836
"4364",69.98105,81.79813,82.687454
"4365",69.994385,81.795685,82.7412
"4366",70.00771,81.7908,82.792435
"4367",70.02104,81.74685,82.80444
"4368",70.03438,81.64431,82.75649
"4369",70.047714,81.47097,82.63454
"4370",70.06104,81.22682,82.436356
"4371",70.07437,80.91676,82.164635
"4372",70.08771,80.56275,81.83927
"4373",70.10104,80.177,81.47111
"4374",70.11437,79.783936,81.08357
"4375",70.1277,79.395744,80.68863
"4376",70.14104,79.029526,80.30353
"4377",70.15437,78.68772,79.9314
"4378",70.1677,78.37522,79.57789
"4379",70.18103,78.09689,79.24879
"4380",70.19437,77.85275,78.945175
"4381",70.2077,77.65011,78.67543
"4382",70.22103,77.48409,78.43598
"4383",70.23436,77.35226,78.225525
"4384",70.247696,77.24971,78.04024
"4385",70.26103,77.1667,77.871284
"4386",70.27436,77.09834,77.714386
"4387",70.28769,77.04219,77.56756
"4388",70.301025,76.998245,77.43118
"4389",70.31436,76.95918,77.29832
"4390",70.32769,76.92256,77.16667
"4391",70.34102,76.88838,77.03632
"4392",70.354355,76.86397,76.91467
"4393",70.36769,76.84444,76.79714
"4394",70.38102,76.83467,76.68877
"4395",70.39435,76.83223,76.58741
"4396",70.407684,76.82979,76.48598
"4397",70.42102,76.82735,76.38447
"4398",70.43435,76.822464,76.28044
"4399",70.44768,76.80293,76.16161
"4400",70.46101,76.77608,76.03485
"4401",70.47435,76.74433,75.90236
"4402",70.48768,76.70283,75.75912
"4403",70.50101,76.64912,75.60237
"4404",70.51434,76.592964,75.441505
"4405",70.52768,76.54658,75.28865
"4406",70.54101,76.51484,75.148994
"4407",70.55434,76.54658,75.07182
"4408",70.56767,76.72236,75.13969
"4409",70.58101,77.17403,75.48893
"4410",70.59434,78.013885,76.24048
"4411",70.607666,79.290764,77.45529
"4412",70.621,80.953384,79.09575
"4413",70.63434,82.84062,81.01278
"4414",70.64767,84.70588,82.966805
"4415",70.660995,86.29282,84.700806
"4416",70.67433,87.42321,86.02784
"4417",70.68767,88.026245,86.862854
"4418",70.701,88.11902,87.20645
"4419",70.714325,87.78943,87.130585
"4420",70.72766,87.16197,86.74655
"4421",70.741,86.3563,86.16469
"4422",70.754326,85.487144,85.49416
"4423",70.767654,84.63752,84.81601
"4424",70.78099,83.86847,84.19188
"4425",70.79433,83.19707,83.641365
"4426",70.807655,82.62577,83.169975
"4427",70.820984,82.13504,82.7613
"4428",70.83432,81.71999,82.41297
"4429",70.84766,81.38552,82.13225
"4430",70.860985,81.1487,81.93872
"4431",70.87431,81.02663,81.85255
"4432",70.88765,81.01686,81.87486
"4433",70.900986,81.09743,81.987206
"4434",70.914314,81.21706,82.14113
"4435",70.92764,81.30984,82.27194
"4436",70.94098,81.33669,82.33973
"4437",70.954315,81.28054,82.32535
"4438",70.96764,81.14137,82.2262
"4439",70.98097,80.92409,82.04458
"4440",70.99431,80.63111,81.78048
"4441",71.007645,80.28199,81.45108
"4442",71.02097,79.886475,81.06438
"4443",71.0343,79.4641,80.63846
"4444",71.04764,79.0515,80.20911
"4445",71.060974,78.68772,79.81569
"4446",71.0743,78.39231,79.47927
"4447",71.08763,78.17258,79.2093
"4448",71.10097,78.01877,78.99838
"4449",71.1143,77.925995,78.8437
"4450",71.12763,77.87717,78.73006
"4451",71.14096,77.86496,78.65151
"4452",71.1543,77.86984,78.589676
"4453",71.16763,77.86984,78.52311
"4454",71.18096,77.86008,78.44678
"4455",71.19429,77.84543,78.36526
"4456",71.20763,77.81857,78.27107
"4457",71.22096,77.79172,78.17605
"4458",71.23429,77.7673,78.08263
"4459",71.24762,77.747765,77.99332
"4460",71.260956,77.72823,77.903404
"4461",71.27429,77.70626,77.81044
"4462",71.28762,77.679405,77.71191
"4463",71.30095,77.645226,77.60521
"4464",71.314285,77.59884,77.48524
"4465",71.32762,77.5378,77.34917
"4466",71.34095,77.45724,77.19166
"4467",71.35428,77.35958,77.01454
"4468",71.367615,77.24483,76.817276
"4469",71.38095,77.11543,76.60178
"4470",71.39428,76.981155,76.377365
"4471",71.40761,76.8542,76.156075
"4472",71.420944,76.77608,75.979645
"4473",71.43428,76.81514,75.91796
"4474",71.44761,77.09346,76.096756
"4475",71.46094,77.72579,76.63826
"4476",71.47427,78.78294,77.624344
"4477",71.48761,80.235596,79.03896
"4478",71.50094,81.951935,80.762665
"4479",71.51427,83.70977,82.5815
"4480",71.5276,85.262535,84.25019
"4481",71.54094,86.41978,85.571884
"4482",71.55427,87.08629,86.43901
"4483",71.5676,87.26208,86.83624
"4484",71.58093,87.01793,86.81903
"4485",71.59427,86.45884,86.47925
"4486",71.6076,85.70199,85.92423
"4487",71.620926,84.857254,85.25768
"4488",71.63426,84.00763,84.559845
"4489",71.6476,83.20195,83.8794
"4490",71.66093,82.46464,83.24215
"4491",71.674255,81.80301,82.65754
"4492",71.68759,81.21706,82.12793
"4493",71.70093,80.71656,81.66547
"4494",71.71426,80.32838,81.299675
"4495",71.727585,80.08423,81.06579
"4496",71.74092,80.008545,80.99274
"4497",71.75426,80.096436,81.080894
"4498",71.767586,80.31129,81.29876
"4499",71.780914,80.58961,81.58681
"4500",71.79425,80.86549,81.88112
"4501",71.80759,81.08522,82.12789
"4502",71.820915,81.20241,82.27899
"4503",71.83424,81.197525,82.31168
"4504",71.84758,81.06813,82.21971
"4505",71.860916,80.82399,82.00895
"4506",71.874245,80.48707,81.69778
"4507",71.88757,80.09155,81.31748
"4508",71.90091,79.65942,80.88821
"4509",71.914246,79.21263,80.43078
"4510",71.927574,78.77318,79.96672
"4511",71.9409,78.363014,79.51822
"4512",71.95424,77.99191,79.09596
"4513",71.967575,77.67452,78.71582
"4514",71.9809,77.41329,78.38192
"4515",71.99423,77.21065,78.09844
"4516",72.00757,77.05928,77.85991
"4517",72.020905,76.95918,77.667915
"4518",72.03423,76.89815,77.511856
"4519",72.04756,76.876175,77.39295
"4520",72.0609,76.87373,77.29289
"4521",72.074234,76.87862,77.20008
"4522",72.08756,76.88106,77.10498
"4523",72.10089,76.876175,77.00263
"4524",72.11423,76.859085,76.887924
"4525",72.12756,76.83467,76.76536
"4526",72.14089,76.805374,76.637146
"4527",72.15422,76.771194,76.503136
"4528",72.16756,76.732124,76.36317
"4529",72.18089,76.717476,76.2464
"4530",72.19422,76.79561,76.221954
"4531",72.20755,77.07881,76.40502
"4532",72.22089,77.68917,76.924095
"4533",72.23422,78.69749,77.8602
"4534",72.24755,80.096436,79.218445
"4535",72.26088,81.761505,80.88653
"4536",72.274216,83.48272,82.66279
"4537",72.28755,85.02815,84.317055
"4538",72.30088,86.202484,85.64851
"4539",72.31421,86.91295,86.5528
"4540",72.327545,87.14488,87.00076
"4541",72.34088,86.956894,87.03605
"4542",72.35421,86.44419,86.740746
"4543",72.36754,85.714195,86.21213
"4544",72.380875,84.8719,85.5484
"4545",72.39421,83.99786,84.82661
"4546",72.40754,83.15556,84.10924
"4547",72.42087,82.374306,83.42659
"4548",72.434204,81.671165,82.797646
"4549",72.44754,81.03639,82.215096
"4550",72.46087,80.48707,81.69816
"4551",72.4742,80.04028,81.266594
"4552",72.48753,79.73022,80.95779
"4553",72.50087,79.588615,80.807755
"4554",72.5142,79.61547,80.821754
"4555",72.52753,79.78638,80.980644
"4556",72.54086,80.05005,81.23764
"4557",72.5542,80.3357,81.52486
"4558",72.56753,80.584724,81.78437
"4559",72.58086,80.74586,81.963776
"4560",72.59419,80.797134,82.03836
"4561",72.60753,80.723885,81.99002
"4562",72.62086,80.533455,81.82221
"4563",72.634186,80.25025,81.55568
"4564",72.64752,79.8938,81.20705
"4565",72.66086,79.49828,80.80821
"4566",72.67419,79.08568,80.37993
"4567",72.687515,78.68284,79.94852
"4568",72.70085,78.30442,79.52894
"4569",72.71419,77.962616,79.13415
"4570",72.727516,77.66476,78.77262
"4571",72.740845,77.41573,78.45062
"4572",72.75418,77.21553,78.16966
"4573",72.76752,77.06416,77.93128
"4574",72.780846,76.95918,77.73456
"4575",72.794174,76.89815,77.5785
"4576",72.80751,76.86641,77.44983
"4577",72.82085,76.859085,77.34458
"4578",72.834175,76.86641,77.25375
"4579",72.8475,76.87129,77.16071
"4580",72.86084,76.86641,77.05806
"4581",72.874176,76.85176,76.94549
"4582",72.887505,76.82979,76.825134
"4583",72.90083,76.8127,76.70898
"4584",72.91417,76.82002,76.6167
"4585",72.927505,76.929886,76.62719
"4586",72.940834,77.24971,76.851074
"4587",72.95416,77.90402,77.41944
"4588",72.9675,78.96605,78.41597
"4589",72.980835,80.4358,79.85341
"4590",72.99416,82.178986,81.610214
"4591",73.00749,83.9881,83.48742
"4592",73.02083,85.61898,85.24293
"4593",73.034164,86.869,86.66854
"4594",73.04749,87.63073,87.64492
"4595",73.06082,87.89685,88.149506
"4596",73.07416,87.72106,88.22049
"4597",73.087494,87.20836,87.949066
"4598",73.10082,86.46616,87.43213
"4599",73.11415,85.61166,86.779686
"4600",73.12749,84.735176,86.07857
"4601",73.14082,83.90509,85.396454
"4602",73.15415,83.15312,84.76652
"4603",73.16748,82.48905,84.20098
"4604",73.18082,81.898224,83.687935
"4605",73.19415,81.375755,83.224785
"4606",73.20748,80.92653,82.81855
"4607",73.22081,80.57252,82.49349
"4608",73.234146,80.34058,82.27945
"4609",73.24748,80.24292,82.19243
"4610",73.26081,80.26246,82.21956
"4611",73.27414,80.37232,82.33762
"4612",73.287476,80.52369,82.500626
"4613",73.30081,80.66529,82.65859
"4614",73.31414,80.75075,82.76484
"4615",73.32747,80.75563,82.79318
"4616",73.340805,80.655525,82.71669
"4617",73.35414,80.45045,82.5321
"4618",73.36747,80.15991,82.25564
"4619",73.3808,79.798584,81.89931
"4620",73.394135,79.39086,81.48529
"4621",73.40747,78.96849,81.043884
"4622",73.4208,78.54856,80.59172
"4623",73.43413,78.15549,80.15329
"4624",73.447464,77.7966,79.73676
"4625",73.4608,77.49142,79.362724
"4626",73.47413,77.2375,79.03042
"4627",73.48746,77.03731,78.7439
"4628",73.50079,76.88838,78.50239
"4629",73.51413,76.78584,78.30261
"4630",73.52746,76.717476,78.133804
"4631",73.54079,76.67841,77.992165
"4632",73.55412,76.65888,77.868835
"4633",73.56746,76.65156,77.7571
"4634",73.58079,76.64423,77.64514
"4635",73.59412,76.629585,77.52563
"4636",73.60745,76.60273,77.39345
"4637",73.62079,76.57343,77.25799
"4638",73.63412,76.541695,77.11917
"4639",73.647446,76.52705,76.99645
"4640",73.66078,76.58076,76.941635
"4641",73.67412,76.805374,77.0594
"4642",73.68745,77.32052,77.47472
"4643",73.700775,78.23605,78.30652
"4644",73.71411,79.588615,79.60396
"4645",73.72745,81.30007,81.30256
"4646",73.740776,83.1873,83.230415
"4647",73.754105,85.00618,85.148895
"4648",73.76744,86.519875,86.81903
"4649",73.78078,87.569695,88.07259
"4650",73.794106,88.10193,88.841385
"4651",73.807434,88.14343,89.13608
"4652",73.82077,87.782104,89.029236
"4653",73.83411,87.132675,88.623
"4654",73.847435,86.312355,88.02557
"4655",73.86076,85.435875,87.34635
"4656",73.8741,84.576485,86.65683
"4657",73.887436,83.79523,86.018585
"4658",73.900764,83.106735,85.44869
"4659",73.91409,82.49882,84.93786
"4660",73.92743,81.95438,84.471504
"4661",73.940765,81.46609,84.04429
"4662",73.954094,81.03883,83.66285
"4663",73.96742,80.69703,83.35351
"4664",73.98076,80.45533,83.13359
"4665",73.994095,80.31617,83.00866
"4666",74.00742,80.25269,82.95506
"4667",74.02075,80.22827,82.93854
"4668",74.03409,80.20386,82.92126
"4669",74.047424,80.147705,82.871475
"4670",74.06075,80.045166,82.77355
"4671",74.07408,79.90112,82.63092
"4672",74.08742,79.708244,82.43495
"4673",74.10075,79.466545,82.184135
"4674",74.11408,79.17845,81.87937
"4675",74.12741,78.84886,81.52411
"4676",74.14075,78.48997,81.12924
"4677",74.15408,78.11398,80.70607
"4678",74.16741,77.74288,80.27603
"4679",74.18074,77.39376,79.85638
"4680",74.19408,77.083694,79.46487
"4681",74.20741,76.81758,79.10762
"4682",74.22074,76.59785,78.78844
"4683",74.23407,76.42695,78.51122
"4684",74.247406,76.30732,78.27994
"4685",74.26074,76.22919,78.08641
"4686",74.27407,76.18768,77.92707
"4687",74.2874,76.1828,77.803055
"4688",74.300735,76.19745,77.69842
"4689",74.31407,76.21698,77.59912
"4690",74.3274,76.22919,77.49311
"4691",74.34073,76.226746,77.37283
"4692",74.354065,76.209656,77.23783
"4693",74.3674,76.17059,77.08032
"4694",74.38073,76.12421,76.91427
"4695",74.39406,76.07782,76.746765
"4696",74.407394,76.0412,76.58758
"4697",74.42073,76.05585,76.478516
"4698",74.43406,76.21454,76.513954
"4699",74.44739,76.65156,76.83268
"4700",74.460724,77.48409,77.56058
"4701",74.47406,78.77562,78.77348
"4702",74.48739,80.47486,80.43446
"4703",74.50072,82.425575,82.40002
"4704",74.51405,84.37141,84.421646
"4705",74.52739,86.05844,86.245285
"4706",74.54072,87.291374,87.66754
"4707",74.55405,87.9823,88.58632
"4708",74.56738,88.14099,88.99446
"4709",74.58072,87.852905,88.960785
"4710",74.59405,87.2401,88.59338
"4711",74.607376,86.434425,88.01396
"4712",74.62071,85.555504,87.33611
"4713",74.63405,84.69123,86.64545
"4714",74.64738,83.90509,86.005905
"4715",74.660706,83.211716,85.43456
"4716",74.67404,82.598915,84.92213
"4717",74.68738,82.04471,84.449135
"4718",74.70071,81.53445,84.00277
"4719",74.714035,81.07057,83.586845
"4720",74.72737,80.6775,83.22723
"4721",74.74071,80.38697,82.95787
"4722",74.754036,80.20874,82.79173
"4723",74.767365,80.128174,82.71769
"4724",74.7807,80.11841,82.71193
"4725",74.79404,80.13794,82.73516
"4726",74.807365,80.13794,82.73947
"4727",74.820694,80.08911,82.694954
"4728",74.83403,79.974365,82.58299
"4729",74.84737,79.77905,82.38688
"4730",74.860695,79.500725,82.10165
"4731",74.87402,79.1638,81.74912
"4732",74.88736,78.77806,81.33725
"4733",74.900696,78.3679,80.8889
"4734",74.914024,77.95041,80.42041
"4735",74.92735,77.54269,79.94864
"4736",74.94069,77.16182,79.49098
"4737",74.954025,76.8127,79.05317
"4738",74.967354,76.507515,78.648384
"4739",74.98068,76.25117,78.2829
"4740",74.99402,76.04364,77.95822
"4741",75.007355,75.880066,77.67101
"4742",75.02068,75.76044,77.42264
"4743",75.03401,75.67742,77.20714
"4744",75.04735,75.62859,77.02323
"4745",75.060684,75.60662,76.864655
"4746",75.07401,75.60418,76.72492
"4747",75.08734,75.6115,76.59488
"4748",75.10068,75.631035,76.47727
"4749",75.11401,75.66033,76.37004
"4750",75.12734,75.69695,76.27105
"4751",75.14067,75.736015,76.175644
"4752",75.15401,75.775085,76.08147
"4753",75.16734,75.809265,75.98362
"4754",75.18067,75.82391,75.86731
"4755",75.194,75.81415,75.72704
"4756",75.20734,75.78241,75.5645
"4757",75.22067,75.73113,75.381424
"4758",75.234,75.665215,75.182106
"4759",75.24733,75.59441,74.975845
"4760",75.260666,75.53338,74.77714
"4761",75.274,75.51629,74.62047
"4762",75.28733,75.613945,74.57801
"4763",75.30066,75.96307,74.79008
"4764",75.313995,76.71259,75.413445
"4765",75.32733,77.95773,76.555855
"4766",75.34066,79.69848,78.23278
"4767",75.35399,81.79813,80.323006
"4768",75.367325,84.01007,82.59114
"4769",75.38066,86.046234,84.75262
"4770",75.39399,87.66003,86.55535
"4771",75.40732,88.71473,87.84943
"4772",75.420654,89.181046,88.58807
"4773",75.43399,89.11757,88.81151
"4774",75.44732,88.64149,88.620346
"4775",75.46065,87.89685,88.14575
"4776",75.47398,87.01305,87.50873
"4777",75.48732,86.10239,86.81722
"4778",75.50065,85.24544,86.15097
"4779",75.51398,84.488594,85.558044
"4780",75.52731,83.82941,85.03912
"4781",75.54065,83.250786,84.58017
"4782",75.55398,82.73319,84.16416
"4783",75.56731,82.26444,83.78082
"4784",75.58064,81.846954,83.4341
"4785",75.59398,81.50271,83.14757
"4786",75.60731,81.253685,82.9455
"4787",75.620636,81.10231,82.833305
"4788",75.63397,81.02907,82.79451
"4789",75.64731,80.99489,82.79249
"4790",75.66064,80.96803,82.79672
"4791",75.673965,80.90944,82.76838
"4792",75.6873,80.799576,82.686935
"4793",75.70064,80.61402,82.52637
"4794",75.71397,80.35523,82.286766
"4795",75.727295,80.01831,81.960945
"4796",75.74063,79.61547,81.55868
"4797",75.75397,79.1638,81.09499
"4798",75.767296,78.68772,80.59278
"4799",75.780624,78.21896,80.083015
"4800",75.79396,77.77219,79.58058
"4801",75.8073,77.366905,79.10568
"4802",75.82063,77.00557,78.66206
"4803",75.83397,76.697945,78.260864
"4804",75.847305,76.43427,77.894005
"4805",75.86064,76.21942,77.567726
"4806",75.87398,76.04852,77.27869
"4807",75.887314,75.91669,77.02337
"4808",75.90065,75.82391,76.80299
"4809",75.91399,75.76044,76.60902
"4810",75.92732,75.72381,76.4399
"4811",75.94066,75.7116,76.29407
"4812",75.953995,75.7116,76.16006
"4813",75.96733,75.716484,76.03093
"4814",75.98067,75.72381,75.904396
"4815",75.994,75.73113,75.77809
"4816",76.00734,75.74578,75.65934
"4817",76.020676,75.76532,75.54594
"4818",76.03401,75.79462,75.4429
"4819",76.04735,75.843445,75.36031
"4820",76.060684,75.90448,75.29146
"4821",76.07402,75.97284,75.231834
"4822",76.08736,76.04852,75.18167
"4823",76.10069,76.11688,75.12655
"4824",76.11403,76.173035,75.061356
"4825",76.127365,76.207214,74.975945
"4826",76.1407,76.224304,74.87451
"4827",76.15404,76.22186,74.75408
"4828",76.16737,76.207214,74.62137
"4829",76.18071,76.1828,74.47843
"4830",76.194046,76.15106,74.32741
"4831",76.20738,76.112,74.16807
"4832",76.22072,76.08026,74.01483
"4833",76.234055,76.087585,73.899666
"4834",76.24739,76.226746,73.916565
"4835",76.26073,76.65156,74.223465
"4836",76.27406,77.53048,74.99775
"4837",76.2874,78.96605,76.35615
"4838",76.300735,80.936295,78.29408
"4839",76.31407,83.28008,80.66713
"4840",76.32741,85.71664,83.206184
"4841",76.340744,87.92615,85.59434
"4842",76.35408,89.64736,87.56325
"4843",76.36742,90.74601,88.96338
"4844",76.38075,91.20256,89.755745
"4845",76.39409,91.09758,90.00085
"4846",76.407425,90.565346,89.815414
"4847",76.42076,89.759674,89.33991
"4848",76.4341,88.814835,88.700066
"4849",76.44743,87.84558,88.00627
"4850",76.46077,86.93248,87.33835
"4851",76.474106,86.12192,86.74442
"4852",76.48744,85.41634,86.230156
"4853",76.50078,84.808426,85.7915
"4854",76.514114,84.27375,85.40708
"4855",76.52745,83.79767,85.06455
"4856",76.54079,83.36553,84.75109
"4857",76.55412,82.984665,84.475395
"4858",76.56746,82.67216,84.25616
"4859",76.580795,82.43046,84.09796
"4860",76.59413,82.24979,83.99324
"4861",76.60747,82.1033,83.91706
"4862",76.620804,81.96414,83.84363
"4863",76.63414,81.80301,83.74387
"4864",76.64748,81.600365,83.59757
"4865",76.66081,81.339134,83.38635
"4866",76.67415,81.02174,83.11081
"4867",76.687485,80.64332,82.76431
"4868",76.70082,80.216064,82.35716
"4869",76.71416,79.7522,81.90005
"4870",76.72749,79.27123,81.41134
"4871",76.74083,78.79027,80.9076
"4872",76.754166,78.331276,80.410805
"4873",76.7675,77.90158,79.92896
"4874",76.78084,77.51095,79.472755
"4875",76.794174,77.16426,79.04829
"4876",76.80751,76.86641,78.66182
"4877",76.82085,76.61982,78.31731
"4878",76.83418,76.42451,78.016365
"4879",76.84752,76.265816,77.74594
"4880",76.860855,76.14618,77.50961
"4881",76.87419,76.053406,77.29641
"4882",76.88753,75.98016,77.09984
"4883",76.90086,75.928894,76.92295
"4884",76.9142,75.8996,76.76643
"4885",76.927536,75.880066,76.61877
"4886",76.94087,75.8703,76.480255
"4887",76.95421,75.86542,76.34632
"4888",76.967545,75.85809,76.20979
"4889",76.98088,75.85077,76.07304
"4890",76.99422,75.841,75.93361
"4891",77.00755,75.83856,75.8012
"4892",77.02089,75.841,75.6736
"4893",77.034225,75.84833,75.55096
"4894",77.04756,75.86542,75.43831
"4895",77.0609,75.89227,75.33596
"4896",77.074234,75.91913,75.23445
"4897",77.08757,75.94354,75.13134
"4898",77.10091,75.96307,75.02411
"4899",77.11424,75.9704,74.90528
"4900",77.12758,75.96063,74.76959
"4901",77.140915,75.931335,74.61407
"4902",77.15425,75.88983,74.44542
"4903",77.16759,75.84589,74.27303
"4904",77.18092,75.826355,74.12369
"4905",77.19426,75.894714,74.06162
"4906",77.207596,76.1828,74.22142
"4907",77.22093,76.84932,74.768654
"4908",77.23427,78.02365,75.84453
"4909",77.247604,79.73998,77.4991
"4910",77.26094,81.90555,79.65654
"4911",77.27428,84.281075,82.09161
"4912",77.28761,86.5687,84.51302
"4913",77.30095,88.47059,86.62018
"4914",77.314285,89.79385,88.208145
"4915",77.32762,90.46769,89.18804
"4916",77.34096,90.52628,89.57375
"4917",77.354294,90.0795,89.45592
"4918",77.36763,89.27627,88.967674
"4919",77.38097,88.26551,88.2468
"4920",77.3943,87.186386,87.42598
"4921",77.40764,86.14145,86.60561
"4922",77.420975,85.19661,85.85269
"4923",77.43431,84.37385,85.19232
"4924",77.44765,83.67071,84.62586
"4925",77.46098,83.072556,84.14242
"4926",77.47432,82.562294,83.72817
"4927",77.487656,82.13504,83.38099
"4928",77.50099,81.80301,83.11568
"4929",77.51433,81.57351,82.94252
"4930",77.527664,81.44167,82.859856
"4931",77.541,81.3904,82.85364
"4932",77.55434,81.38796,82.894646
"4933",77.56767,81.392845,82.9429
"4934",77.58101,81.36355,82.95713
"4935",77.594345,81.27566,82.91185
"4936",77.60768,81.11452,82.79057
"4937",77.62102,80.867935,82.57882
"4938",77.63435,80.54078,82.278786
"4939",77.64769,80.14282,81.89773
"4940",77.661026,79.691154,81.45052
"4941",77.67436,79.20775,80.957466
"4942",77.6877,78.71458,80.43954
"4943",77.701035,78.22629,79.91108
"4944",77.71437,77.76486,79.394226
"4945",77.72771,77.34005,78.89957
"4946",77.74104,76.95918,78.43558
"4947",77.75438,76.629585,78.010956
"4948",77.767715,76.35615,77.632195
"4949",77.78105,76.138855,77.30103
"4950",77.79439,75.9704,77.01192
"4951",77.807724,75.84833,76.76392
"4952",77.82106,75.76044,76.546295
"4953",77.8344,75.69695,76.35033
"4954",77.84773,75.650566,76.16947
"4955",77.86107,75.613945,75.99693
"4956",77.874405,75.58221,75.82813
"4957",77.88774,75.55779,75.665665
"4958",77.90108,75.545586,75.51464
"4959",77.91441,75.5407,75.37056
"4960",77.92775,75.5407,75.23121
"4961",77.941086,75.545586,75.09674
"4962",77.95442,75.55047,74.962425
"4963",77.96776,75.55291,74.82582
"4964",77.981094,75.560234,74.694176
"4965",77.99443,75.577324,74.572525
"4966",78.00777,75.5993,74.45629
"4967",78.0211,75.62127,74.340744
"4968",78.03444,75.64324,74.22588
"4969",78.047775,75.65789,74.104385
"4970",78.06111,75.65545,73.966255
"4971",78.07445,75.6408,73.81584
"4972",78.08778,75.61639,73.655205
"4973",78.10112,75.58465,73.48648
"4974",78.114456,75.55291,73.316765
"4975",78.12779,75.5407,73.16559
"4976",78.14113,75.58953,73.075066
"4977",78.154465,75.7995,73.14721
"4978",78.1678,76.31953,73.53597
"4979",78.18114,77.296104,74.39754
"4980",78.19447,78.8098,75.82674
"4981",78.20781,80.82399,77.803734
"4982",78.221146,83.15068,80.15617
"4983",78.23448,85.50912,82.61307
"4984",78.24782,87.586784,84.86289
"4985",78.261154,89.144424,86.65762
"4986",78.27449,90.06241,87.861374
"4987",78.28783,90.338295,88.45171
"4988",78.30116,90.05997,88.49646
"4989",78.3145,89.36416,88.11503
"4990",78.327835,88.40223,87.44573
"4991",78.34117,87.31335,86.619415
"4992",78.35451,86.1976,85.73221
"4993",78.36784,85.135574,84.86385
"4994",78.38118,84.16388,84.05264
"4995",78.394516,83.299614,83.3185
"4996",78.40785,82.53544,82.65743
"4997",78.42119,81.88602,82.08724
"4998",78.434525,81.36355,81.62371
"4999",78.44786,80.98512,81.287895
"5000",78.4612,80.780045,81.1136
"5001",78.47453,80.743416,81.10135
"5002",78.48787,80.85329,81.23445
"5003",78.501205,81.05592,81.46375
"5004",78.51454,81.290306,81.73113
"5005",78.52788,81.4905,81.97165
"5006",78.541214,81.61257,82.1403
"5007",78.55455,81.617455,82.19557
"5008",78.56789,81.49294,82.121605
"5009",78.58122,81.248795,81.92411
"5010",78.59456,80.89723,81.61157
"5011",78.607895,80.465096,81.20747
"5012",78.62123,79.98901,80.745926
"5013",78.63457,79.4934,80.24997
"5014",78.6479,79.00023,79.74097
"5015",78.66124,78.52415,79.23364
"5016",78.674576,78.0798,78.74318
"5017",78.68791,77.67696,78.280334
"5018",78.70125,77.32296,77.85374
"5019",78.714584,77.0251,77.47222
"5020",78.72792,76.790726,77.14488
"5021",78.74126,76.61494,76.868805
"5022",78.75459,76.49287,76.64095
"5023",78.76793,76.41718,76.45567
"5024",78.781265,76.37324,76.29977
"5025",78.7946,76.35615,76.16934
"5026",78.80794,76.35859,76.057915
"5027",78.82127,76.37568,75.96121
"5028",78.83461,76.4123,75.884575
"5029",78.847946,76.45869,75.81885
"5030",78.86128,76.51972,75.76922
"5031",78.87462,76.5832,75.72394
"5032",78.887955,76.64912,75.68308
"5033",78.90129,76.70283,75.63208
"5034",78.91463,76.73701,75.563225
"5035",78.92796,76.75166,75.475914
"5036",78.9413,76.74677,75.369514
"5037",78.954636,76.71992,75.241
"5038",78.96797,76.67109,75.08967
"5039",78.98131,76.60761,74.922165
"5040",78.994644,76.53193,74.74047
"5041",79.00798,76.470894,74.57106
"5042",79.02132,76.49287,74.48275
"5043",79.03465,76.71015,74.59044
"5044",79.04799,77.279015,75.056496
"5045",79.061325,78.32639,76.018845
"5046",79.07466,79.88403,77.524185
"5047",79.088,81.85916,79.49569
"5048",79.10133,84.04425,81.73888
"5049",79.11467,86.14389,83.9649
"5050",79.128006,87.887085,85.900085
"5051",79.14134,89.08827,87.34775
"5052",79.15468,89.68154,88.22502
"5053",79.168015,89.69375,88.53978
"5054",79.18135,89.22499,88.373955
"5055",79.19469,88.40955,87.8468
"5056",79.20802,87.38171,87.08176
"5057",79.22136,86.261086,86.19182
"5058",79.234695,85.13069,85.25708
"5059",79.24803,84.04425,84.33097
"5060",79.26137,83.02617,83.43927
"5061",79.274704,82.09354,82.601204
"5062",79.28804,81.26833,81.84142
"5063",79.30138,80.57496,81.18768
"5064",79.31471,80.05737,80.688065
"5065",79.32805,79.75464,80.38712
"5066",79.341385,79.68139,80.306206
"5067",79.35472,79.818115,80.432976
"5068",79.36806,80.113525,80.7227
"5069",79.38139,80.49195,81.104675
"5070",79.39473,80.87282,81.500916
"5071",79.408066,81.18288,81.83825
"5072",79.4214,81.37087,82.06321
"5073",79.43474,81.409935,82.14511
"5074",79.448074,81.29519,82.074425
"5075",79.46141,81.041275,81.860985
"5076",79.47475,80.672615,81.524864
"5077",79.48808,80.22827,81.10154
"5078",79.50142,79.7351,80.6155
"5079",79.514755,79.22972,80.101845
"5080",79.52809,78.74143,79.589485
"5081",79.54143,78.28245,79.09117
"5082",79.55476,77.8674,78.62245
"5083",79.5681,77.506065,78.19447
"5084",79.581436,77.19844,77.808914
"5085",79.59477,76.946976,77.4699
"5086",79.60811,76.749214,77.176735
"5087",79.621445,76.60761,76.93355
"5088",79.63478,76.51484,76.734764
"5089",79.64812,76.47578,76.58679
"5090",79.66145,76.473335,76.47422
"5091",79.67479,76.50019,76.39087
"5092",79.688126,76.54658,76.32789
"5093",79.70146,76.60273,76.27612
"5094",79.7148,76.65644,76.22367
"5095",79.728134,76.697945,76.16069
"5096",79.74147,76.732124,76.09168
"5097",79.75481,76.749214,76.00665
"5098",79.76814,76.75166,75.90752
"5099",79.78148,76.74189,75.796234
"5100",79.794815,76.74189,75.69442
"5101",79.80815,76.83223,75.682945
"5102",79.82149,77.14229,75.89401
"5103",79.83482,77.8259,76.48832
"5104",79.84816,79.00023,77.59471
"5105",79.861496,80.68238,79.24562
"5106",79.87483,82.75029,81.334854
"5107",79.88817,84.962234,83.632744
"5108",79.901505,87.02037,85.84595
"5109",79.91484,88.673225,87.718185
"5110",79.92818,89.7499,89.0659
"5111",79.94151,90.20401,89.8247
"5112",79.95485,90.08682,90.02639
"5113",79.968185,89.51064,89.76543
"5114",79.98152,88.59998,89.15198
"5115",79.99486,87.49157,88.31232
"5116",80.008194,86.30747,87.362335
"5117",80.02153,85.12825,86.38022
"5118",80.03487,84.01251,85.424736
"5119",80.0482,82.97978,84.517395
"5120",80.06154,82.04959,83.68032
"5121",80.074875,81.22682,82.9216
"5122",80.08821,80.5359,82.26901
"5123",80.10155,80.01099,81.76085
"5124",80.11488,79.691154,81.44136
"5125",80.12822,79.59594,81.336494
"5126",80.141556,79.70336,81.43129
"5127",80.15489,79.96216,81.68082
"5128",80.16823,80.29908,82.016556
"5129",80.181564,80.638435,82.36526
"5130",80.1949,80.90944,82.65621
"5131",80.20824,81.06569,82.84088
"5132",80.22157,81.08278,82.89127
"5133",80.23491,80.955826,82.79816
"5134",80.248245,80.69459,82.56679
"5135",80.26158,80.31861,82.21252
"5136",80.27492,79.85718,81.76104
"5137",80.28825,79.34692,81.246315
"5138",80.30159,78.819565,80.698555
"5139",80.314926,78.30686,80.148964
"5140",80.32826,77.823456,79.61265
"5141",80.3416,77.38888,79.110054
"5142",80.354935,77.00801,78.64759
"5143",80.36827,76.69062,78.2367
"5144",80.38161,76.42695,77.86961
"5145",80.39494,76.224304,77.55531
"5146",80.40828,76.085144,77.298164
