"","Time..s.","PPG.trace","Preprocessed.PPG"
"40927",567.8549,94.483864,104.37177
"40928",567.8682,95.33593,105.67646
"40929",567.88153,95.277336,106.097115
"40930",567.89484,94.51316,105.810356
"40931",567.90814,93.30221,105.05294
"40932",567.92145,91.89105,104.05748
"40933",567.93475,90.477455,103.01548
"40934",567.94806,89.17616,102.04161
"40935",567.96136,88.0116,101.1638
"40936",567.9747,86.939804,100.34238
"40937",567.988,85.89731,99.51675
"40938",568.0013,84.85237,98.6561
"40939",568.0146,83.81964,97.775
"40940",568.0279,82.87724,96.951965
"40941",568.0412,82.11795,96.282585
"40942",568.0545,81.60769,95.83851
"40943",568.0678,81.356224,95.63728
"40944",568.0811,81.31716,95.6406
"40945",568.0944,81.39773,95.76233
"40946",568.1077,81.49294,95.90122
"40947",568.12103,81.52468,95.979614
"40948",568.13434,81.43679,95.93937
"40949",568.14764,81.19997,95.747444
"40950",568.16095,80.82155,95.406525
"40951",568.17426,80.32105,94.9317
"40952",568.18756,79.73266,94.35334
"40953",568.20087,79.09544,93.70777
"40954",568.2142,78.4387,93.02276
"40955",568.2275,77.78439,92.319664
"40956",568.2408,77.152054,91.61809
"40957",568.2541,76.558784,90.93582
"40958",568.2674,76.0119,90.2814
"40959",568.2807,75.51629,89.66116
"40960",568.294,75.07439,89.07915
"40961",568.3073,74.68864,88.539474
"40962",568.3206,74.35905,88.04391
"40963",568.3339,74.09781,87.60639
"40964",568.3472,73.900055,87.2242
"40965",568.36053,73.76578,86.8993
"40966",568.37384,73.6852,86.62391
"40967",568.38715,73.64126,86.38263
"40968",568.40045,73.60952,86.15218
"40969",568.41376,73.582664,85.92563
"40970",568.42706,73.55093,85.69335
"40971",568.44037,73.51919,85.46008
"40972",568.4537,73.48257,85.22094
"40973",568.467,73.445946,84.98065
"40974",568.4803,73.40444,84.73434
"40975",568.4936,73.3605,84.48428
"40976",568.5069,73.32876,84.24506
"40977",568.5202,73.3312,84.03903
"40978",568.5335,73.426414,83.92585
"40979",568.5468,73.76822,84.06223
"40980",568.5601,74.58854,84.68781
"40981",568.5734,76.09003,86.020195
"40982",568.58673,78.35325,88.16123
"40983",568.60004,81.25857,91.01509
"40984",568.61334,84.48371,94.279564
"40985",568.62665,87.57458,97.510544
"40986",568.63995,90.08682,100.25949
"40987",568.65326,91.737236,102.22512
"40988",568.66656,92.4477,103.302376
"40989",568.6799,92.298775,103.54244
"40990",568.6932,91.48577,103.11378
"40991",568.7065,90.252846,102.239784
"40992",568.7198,88.84413,101.151474
"40993",568.7331,87.44274,100.02646
"40994",568.7464,86.17319,98.98949
"40995",568.7597,85.06477,98.07398
"40996",568.773,84.071106,97.23859
"40997",568.7863,83.1165,96.4112
"40998",568.7996,82.15701,95.5491
"40999",568.8129,81.22438,94.683876
"41000",568.82623,80.377205,93.87496
"41001",568.83954,79.7058,93.21535
"41002",568.85284,79.27856,92.77891
"41003",568.86615,79.11253,92.59034
"41004",568.87946,79.15648,92.60655
"41005",568.89276,79.32494,92.74866
"41006",568.90607,79.51293,92.91555
"41007",568.9194,79.62768,93.015076
"41008",568.9327,79.61059,92.98635
"41009",568.946,79.432365,92.79596
"41010",568.9593,79.097885,92.44374
"41011",568.9726,78.63645,91.95412
"41012",568.9859,78.08957,91.364624
"41013",568.9992,77.49874,90.714096
"41014",569.0125,76.89815,90.03534
"41015",569.0258,76.3122,89.35246
"41016",569.0391,75.7702,88.69522
"41017",569.0524,75.27215,88.06499
"41018",569.06573,74.82536,87.47046
"41019",569.07904,74.43961,86.923004
"41020",569.09235,74.12222,86.431854
"41021",569.10565,73.86099,85.986946
"41022",569.11896,73.651024,85.58514
"41023",569.13226,73.497215,85.232925
"41024",569.14557,73.38979,84.922295
"41025",569.1589,73.32876,84.65469
"41026",569.1722,73.29946,84.41692
"41027",569.1855,73.30923,84.2173
"41028",569.1988,73.34585,84.04484
"41029",569.2121,73.38979,83.880844
"41030",569.2254,73.428856,83.71334
"41031",569.2387,73.45815,83.53729
"41032",569.252,73.477684,83.352394
"41033",569.2653,73.48501,83.1559
"41034",569.2786,73.48745,82.95475
"41035",569.29193,73.48989,82.75368
"41036",569.30524,73.50698,82.56733
"41037",569.31854,73.57046,82.4279
"41038",569.33185,73.7731,82.42963
"41039",569.34515,74.32487,82.786804
"41040",569.35846,75.47234,83.756935
"41041",569.37177,77.401085,85.54419
"41042",569.3851,80.1062,88.16809
"41043",569.3984,83.36309,91.4283
"41044",569.4117,86.75914,94.92944
"41045",569.425,89.79874,98.18026
"41046",569.4383,92.08148,100.76922
"41047",569.4516,93.40475,102.47003
"41048",569.4649,93.79538,103.279564
"41049",569.4782,93.41207,103.32736
"41050",569.4915,92.49409,102.82851
"41051",569.5048,91.29046,102.01532
"41052",569.5181,90.023346,101.101036
"41053",569.53143,88.84657,100.237495
"41054",569.54474,87.82605,99.49342
"41055",569.55804,86.96178,98.87372
"41056",569.57135,86.19272,98.32221
"41057",569.58466,85.418785,97.7418
"41058",569.59796,84.57404,97.06639
"41059",569.61127,83.66094,96.29623
"41060",569.6246,82.74296,95.492645
"41061",569.6379,81.917755,94.75316
"41062",569.6512,81.28298,94.178314
"41063",569.6645,80.885025,93.82045
"41064",569.6778,80.71168,93.67476
"41065",569.6911,80.689705,93.675026
"41066",569.7044,80.72877,93.73564
"41067",569.7177,80.75075,93.780396
"41068",569.731,80.689705,93.74281
"41069",569.7443,80.51148,93.58614
"41070",569.7576,80.2063,93.29694
"41071",569.77094,79.781494,92.878586
"41072",569.78424,79.26635,92.35661
"41073",569.79755,78.68772,91.75506
"41074",569.81085,78.082245,91.108574
"41075",569.82416,77.48409,90.45049
"41076",569.83746,76.91524,89.80302
"41077",569.85077,76.39521,89.18659
"41078",569.8641,75.93622,88.61495
"41079",569.8774,75.53826,88.090004
"41080",569.8907,75.194016,87.60633
"41081",569.904,74.90349,87.16562
"41082",569.9173,74.65446,86.757324
"41083",569.9306,74.45182,86.38764
"41084",569.9439,74.29557,86.058014
"41085",569.9572,74.1857,85.76988
"41086",569.9705,74.11734,85.51983
"41087",569.9838,74.092926,85.311584
"41088",569.99713,74.10513,85.1392
"41089",570.01044,74.13687,84.986725
"41090",570.02374,74.18082,84.84745
"41091",570.03705,74.229645,84.71443
"41092",570.05035,74.268715,84.57318
"41093",570.06366,74.288246,84.41361
"41094",570.07697,74.28336,84.23024
"41095",570.0903,74.25651,84.02474
"41096",570.1036,74.215,83.80375
"41097",570.1169,74.16617,83.57414
"41098",570.1302,74.13199,83.35766
"41099",570.1435,74.141754,83.18405
"41100",570.1568,74.27604,83.13527
"41101",570.1701,74.71305,83.39341
"41102",570.1834,75.70428,84.21942
"41103",570.1967,77.44747,85.82838
"41104",570.21,79.971924,88.27306
"41105",570.2233,83.089645,91.38991
"41106",570.23663,86.40269,94.7995
"41107",570.24994,89.42519,98.02209
"41108",570.26324,91.72991,100.621346
"41109",570.27655,93.08736,102.34535
"41110",570.28986,93.51217,103.179146
"41111",570.30316,93.16304,103.25227
"41112",570.31647,92.27436,102.77494
"41113",570.3298,91.10002,101.98418
"41114",570.3431,89.85245,101.08348
"41115",570.3564,88.69276,100.23168
"41116",570.3697,87.691765,99.502335
"41117",570.383,86.84215,98.89308
"41118",570.3963,86.07797,98.34272
"41119",570.4096,85.31136,97.766045
"41120",570.4229,84.47883,97.09949
"41121",570.4362,83.577934,96.338554
"41122",570.4495,82.66483,95.53726
"41123",570.4628,81.83963,94.795334
"41124",570.47614,81.197525,94.21072
"41125",570.48944,80.79225,93.842865
"41126",570.50275,80.61402,93.68939
"41127",570.51605,80.59937,93.69393
"41128",570.52936,80.66041,93.7737
"41129",570.54266,80.706795,93.84072
"41130",570.55597,80.66773,93.823746
"41131",570.5693,80.50172,93.6786
"41132",570.5826,80.20874,93.4013
"41133",570.5959,79.801025,93.00011
"41134",570.6092,79.31274,92.5056
"41135",570.6225,78.77074,91.94212
"41136",570.6358,78.2092,91.34217
"41137",570.6491,77.64767,90.72468
"41138",570.6624,77.10567,90.10917
"41139",570.6757,76.60273,89.515785
"41140",570.689,76.14862,88.95551
"41141",570.70233,75.75067,88.43721
"41142",570.71564,75.41131,87.96506
"41143",570.72894,75.13298,87.543335
"41144",570.74225,74.90349,87.16175
"41145",570.75555,74.72526,86.82426
"41146",570.76886,74.58366,86.51782
"41147",570.78217,74.478676,86.24358
"41148",570.7955,74.407875,86.000244
"41149",570.8088,74.36881,85.78643
"41150",570.8221,74.36149,85.603134
"41151",570.8354,74.38102,85.446465
"41152",570.8487,74.424965,85.31482
"41153",570.862,74.478676,85.19431
"41154",570.8753,74.53727,85.08037
"41155",570.8886,74.581215,84.953606
"41156",570.9019,74.60563,84.808685
"41157",570.9152,74.60319,84.63767
"41158",570.9285,74.57877,84.44461
"41159",570.94183,74.53971,84.23614
"41160",570.95514,74.495766,84.02156
"41161",570.96844,74.44938,83.80317
"41162",570.98175,74.4152,83.595535
"41163",570.99506,74.41032,83.41613
"41164",571.00836,74.48356,83.3147
"41165",571.02167,74.776535,83.43529
"41166",571.035,75.52361,84.019135
"41167",571.0483,76.95674,85.31238
"41168",571.0616,79.168686,87.42922
"41169",571.0749,82.0325,90.26706
"41170",571.0882,85.21126,93.50933
"41171",571.1015,88.24353,96.70445
"41172",571.1148,90.663,99.38153
"41173",571.1281,92.19379,101.24554
"41174",571.1414,92.78462,102.21743
"41175",571.1547,92.56489,102.39722
"41176",571.168,91.75433,101.97932
"41177",571.18134,90.599525,101.19183
"41178",571.19464,89.31777,100.24132
"41179",571.20795,88.0824,99.29713
"41180",571.22125,86.993515,98.460815
"41181",571.23456,86.082855,97.7687
"41182",571.24786,85.30404,97.17997
"41183",571.26117,84.58381,96.62549
"41184",571.2745,83.85626,96.04118
"41185",571.2878,83.09697,95.4024
"41186",571.3011,82.34257,94.744774
"41187",571.3144,81.67361,94.14902
"41188",571.3277,81.17067,93.69838
"41189",571.341,80.88258,93.44688
"41190",571.3543,80.80202,93.39389
"41191",571.3676,80.86305,93.47999
"41192",571.3809,80.98268,93.62659
"41193",571.3942,81.077896,93.75251
"41194",571.40753,81.08034,93.788635
"41195",571.42084,80.96315,93.70521
"41196",571.43414,80.723885,93.49604
"41197",571.44745,80.37232,93.1671
"41198",571.46075,79.92554,92.73195
"41199",571.47406,79.412834,92.21692
"41200",571.48737,78.86351,91.64925
"41201",571.5007,78.314186,91.06441
"41202",571.514,77.789276,90.48682
"41203",571.5273,77.315636,89.94409
"41204",571.5406,76.89815,89.44272
"41205",571.5539,76.53925,88.98689
"41206",571.5672,76.23163,88.57112
"41207",571.5805,75.97284,88.19457
"41208",571.5938,75.757996,87.85388
"41209",571.6071,75.579765,87.54309
"41210",571.6204,75.44549,87.27068
"41211",571.6337,75.34783,87.0307
"41212",571.64703,75.284355,86.821846
"41213",571.66034,75.25506,86.64519
"41214",571.67365,75.2575,86.49935
"41215",571.68695,75.27215,86.3658
"41216",571.70026,75.29412,86.24003
"41217",571.71356,75.31121,86.11006
"41218",571.72687,75.31609,85.96842
"41219",571.7402,75.30389,85.809845
"41220",571.7535,75.27215,85.631355
"41221",571.7668,75.22087,85.432335
"41222",571.7801,75.157394,85.21951
"41223",571.7934,75.0988,85.00959
"41224",571.8067,75.0573,84.814926
"41225",571.82,75.04997,84.653145
"41226",571.8333,75.12077,84.56926
"41227",571.8466,75.37713,84.67314
"41228",571.8599,76.00214,85.15369
"41229",571.8732,77.21309,86.23971
"41230",571.88654,79.11742,88.056946
"41231",571.89984,81.634544,90.54649
"41232",571.91315,84.49592,93.45895
"41233",571.92645,87.293816,96.39734
"41234",571.93976,89.58877,98.92023
"41235",571.95306,91.087814,100.718925
"41236",571.9664,91.7055,101.683105
"41237",571.9797,91.53704,101.88045
"41238",571.993,90.76799,101.47193
"41239",572.0063,89.62539,100.66583
"41240",572.0196,88.33143,99.67267
"41241",572.0329,87.064316,98.66591
"41242",572.0462,85.93637,97.75872
"41243",572.0595,84.979324,96.98718
"41244",572.0728,84.16144,96.3249
"41245",572.0861,83.41192,95.70542
"41246",572.0994,82.66483,95.06496
"41247",572.11273,81.91043,94.39383
"41248",572.12604,81.18776,93.73086
"41249",572.13934,80.57496,93.155174
"41250",572.15265,80.164795,92.76298
"41251",572.16595,79.99634,92.59967
"41252",572.17926,80.05249,92.65571
"41253",572.19257,80.255135,92.85999
"41254",572.2059,80.51148,93.12431
"41255",572.2192,80.726326,93.35514
"41256",572.2325,80.831314,93.48283
"41257",572.2458,80.782486,93.45998
"41258",572.2591,80.5774,93.27934
"41259",572.2724,80.235596,92.95558
"41260",572.2857,79.79126,92.51861
"41261",572.299,79.28344,92.004265
"41262",572.3123,78.751205,91.44964
"41263",572.3256,78.22873,90.88814
"41264",572.3389,77.74044,90.3445
"41265",572.35223,77.296104,89.82955
"41266",572.36554,76.90059,89.34954
"41267",572.37885,76.55634,88.90844
"41268",572.39215,76.25849,88.502975
"41269",572.40546,76.019226,88.14679
"41270",572.41876,75.843445,87.84661
"41271",572.43207,75.72137,87.59464
"41272",572.4454,75.64324,87.38281
"41273",572.4587,75.60418,87.2076
"41274",572.472,75.58953,87.05559
"41275",572.4853,75.59197,86.920204
"41276",572.4986,75.60662,86.797104
"41277",572.5119,75.62615,86.679344
"41278",572.5252,75.648125,86.56464
"41279",572.5385,75.6701,86.450615
"41280",572.5518,75.684746,86.329956
"41281",572.5651,75.69695,86.20731
"41282",572.5784,75.699394,86.07529
"41283",572.59174,75.68963,85.93113
"41284",572.60504,75.667656,85.77446
"41285",572.61835,75.6408,85.61222
"41286",572.63165,75.63348,85.46867
"41287",572.64496,75.718925,85.41767
"41288",572.65826,76.04852,85.61349
"41289",572.6716,76.85176,86.29324
"41290",572.6849,78.29954,87.64264
"41291",572.6982,80.430916,89.72088
"41292",572.7115,83.07988,92.38331
"41293",572.7248,85.89487,95.29454
"41294",572.7381,88.44129,98.02518
"41295",572.7514,90.33097,100.17865
"41296",572.7647,91.35882,101.52934
"41297",572.778,91.53704,102.06253
"41298",572.7913,91.00969,101.89571
"41299",572.8046,89.98917,101.219246
"41300",572.81793,88.69764,100.23988
"41301",572.83124,87.33288,99.14693
"41302",572.84454,86.048676,98.09187
"41303",572.85785,84.9305,97.16271
"41304",572.87115,83.983215,96.36951
"41305",572.88446,83.16777,95.678535
"41306",572.89777,82.43046,95.040215
"41307",572.9111,81.75174,94.43745
"41308",572.9244,81.1487,93.889145
"41309",572.9377,80.672615,93.44896
"41310",572.951,80.39185,93.18922
"41311",572.9643,80.34058,93.15019
"41312",572.9776,80.49195,93.3122
"41313",572.9909,80.77272,93.608345
"41314",573.0042,81.08766,93.94743
"41315",573.0175,81.34402,94.23778
"41316",573.0308,81.46853,94.40429
"41317",573.0441,81.42458,94.406235
"41318",573.05743,81.21217,94.23834
"41319",573.07074,80.85329,93.917336
"41320",573.08405,80.38697,93.477684
"41321",573.09735,79.85718,92.959984
"41322",573.11066,79.30541,92.403755
"41323",573.12396,78.76341,91.84005
"41324",573.13727,78.25315,91.291145
"41325",573.1506,77.79172,90.77512
"41326",573.1639,77.38644,90.300835
"41327",573.1772,77.03731,89.87003
"41328",573.1905,76.73701,89.47715
"41329",573.2038,76.48798,89.12616
"41330",573.2171,76.28535,88.813774
"41331",573.2304,76.12665,88.538994
"41332",573.2437,76.00458,88.29588
"41333",573.257,75.911804,88.078255
"41334",573.2703,75.83856,87.87726
"41335",573.2836,75.77997,87.68862
"41336",573.29694,75.72869,87.50547
"41337",573.31024,75.68719,87.33049
"41338",573.32355,75.650566,87.159096
"41339",573.33685,75.62127,86.99388
"41340",573.35016,75.59441,86.83019
"41341",573.36346,75.56756,86.665665
"41342",573.3768,75.543144,86.50274
"41343",573.3901,75.53582,86.35614
"41344",573.4034,75.58953,86.27035
"41345",573.4167,75.81659,86.35958
"41346",573.43,76.41718,86.829445
"41347",573.4433,77.62325,87.92355
"41348",573.4566,79.54223,89.76826
"41349",573.4699,82.09598,92.3077
"41350",573.4832,85.02327,95.30049
"41351",573.4965,87.904175,98.33837
"41352",573.5098,90.304115,100.98532
"41353",573.52313,91.92035,102.92356
"41354",573.53644,92.6601,104.03583
"41355",573.54974,92.60151,104.37286
"41356",573.56305,91.92279,104.087944
"41357",573.57635,90.85344,103.39118
"41358",573.58966,89.600975,102.47789
"41359",573.60297,88.343636,101.520584
"41360",573.6163,87.201035,100.63872
"41361",573.6296,86.2269,99.88961
"41362",573.6429,85.399254,99.25655
"41363",573.6562,84.65461,98.68063
"41364",573.6695,83.92706,98.09854
"41365",573.6828,83.19707,97.491264
"41366",573.6961,82.49149,96.8856
"41367",573.7094,81.87625,96.34821
"41368",573.7227,81.43191,95.9625
"41369",573.736,81.20729,95.78263
"41370",573.7493,81.19508,95.80815
"41371",573.76263,81.33425,95.984665
"41372",573.77594,81.54177,96.23388
"41373",573.78925,81.71999,96.46028
"41374",573.80255,81.795685,96.58972
"41375",573.81586,81.72732,96.57747
"41376",573.82916,81.50271,96.40684
"41377",573.84247,81.13893,96.09002
"41378",573.8558,80.66285,95.64953
"41379",573.8691,80.11841,95.1258
"41380",573.8824,79.534904,94.546
"41381",573.8957,78.94652,93.94308
"41382",573.909,78.382545,93.34618
"41383",573.9223,77.855194,92.76829
"41384",573.9356,77.37179,92.21786
"41385",573.9489,76.93721,91.70115
"41386",573.9622,76.5539,91.22213
"41387",573.9755,76.21698,90.77752
"41388",573.98883,75.92645,90.368774
"41389",574.00214,75.684746,89.99977
"41390",574.01544,75.48943,89.66961
"41391",574.02875,75.338066,89.37729
"41392",574.04205,75.22575,89.11929
"41393",574.05536,75.15251,88.89686
"41394",574.06866,75.11101,88.70387
"41395",574.082,75.09636,88.536446
"41396",574.0953,75.09636,88.38321
"41397",574.1086,75.09392,88.22753
"41398",574.1219,75.089035,88.069336
"41399",574.1352,75.071945,87.89878
"41400",574.1485,75.04021,87.71304
"41401",574.1618,74.99626,87.51411
"41402",574.1751,74.94499,87.30647
"41403",574.1884,74.89128,87.094795
"41404",574.2017,74.85222,86.89609
"41405",574.215,74.85954,86.742546
"41406",574.22833,75.02312,86.74548
"41407",574.24164,75.56512,87.13196
"41408",574.25494,76.74433,88.172585
"41409",574.26825,78.73411,90.06062
"41410",574.28156,81.495384,92.78234
"41411",574.29486,84.77425,96.10793
"41412",574.30817,88.128784,99.611664
"41413",574.3215,91.06096,102.79787
"41414",574.3348,93.187454,105.27002
"41415",574.3481,94.36179,106.85647
"41416",574.3614,94.63523,107.57871
"41417",574.3747,94.19577,107.5966
"41418",574.388,93.27535,107.119804
"41419",574.4013,92.11322,106.37253
"41420",574.4146,90.90227,105.540115
"41421",574.4279,89.78165,104.76019
"41422",574.4412,88.80751,104.091736
"41423",574.4545,87.96765,103.527115
"41424",574.46783,87.19127,102.999725
"41425",574.48114,86.39536,102.42854
"41426",574.49445,85.538414,101.77145
"41427",574.50775,84.627754,101.03386
"41428",574.52106,83.7293,100.28002
"41429",574.53436,82.93584,99.603096
"41430",574.54767,82.337685,99.09669
"41431",574.561,81.96414,98.796196
"41432",574.5743,81.78592,98.67935
"41433",574.5876,81.74441,98.69365
"41434",574.6009,81.74441,98.74816
"41435",574.6142,81.7029,98.76117
"41436",574.6275,81.55642,98.6679
"41437",574.6408,81.27566,98.435776
"41438",574.6541,80.86305,98.063034
"41439",574.6674,80.3357,97.56265
"41440",574.6807,79.727776,96.96522
"41441",574.69403,79.06615,96.29508
"41442",574.70734,78.38743,95.58718
"41443",574.72064,77.71847,94.86783
"41444",574.73395,77.083694,94.16176
"41445",574.74725,76.49775,93.48468
"41446",574.76056,75.9704,92.847885
"41447",574.77386,75.49676,92.24832
"41448",574.7872,75.071945,91.682785
"41449",574.8005,74.69596,91.1528
"41450",574.8138,74.36637,90.65746
"41451",574.8271,74.08072,90.19576
"41452",574.8404,73.85123,89.781296
"41453",574.8537,73.67544,89.41336
"41454",574.867,73.54116,89.08144
"41455",574.8803,73.44106,88.77951
"41456",574.8936,73.37759,88.51107
"41457",574.9069,73.34829,88.274826
"41458",574.9202,73.340965,88.05964
"41459",574.93353,73.35317,87.863754
"41460",574.94684,73.38003,87.6829
"41461",574.96014,73.41421,87.51021
"41462",574.97345,73.4313,87.321495
"41463",574.98676,73.43374,87.11867
"41464",575.00006,73.41421,86.89394
"41465",575.01337,73.375145,86.64908
"41466",575.0267,73.31899,86.3859
"41467",575.04,73.248184,86.106316
"41468",575.0533,73.17494,85.82208
"41469",575.0666,73.1017,85.53556
"41470",575.0799,73.05287,85.271164
"41471",575.0932,73.08949,85.09069
"41472",575.1065,73.3727,85.15795
"41473",575.1198,74.141754,85.7199
"41474",575.1331,75.648125,87.043205
"41475",575.1464,77.98459,89.243675
"41476",575.1597,81.03151,92.227615
"41477",575.17303,84.44709,95.67543
"41478",575.18634,87.743034,99.110344
"41479",575.19965,90.443275,102.05255
"41480",575.21295,92.242615,104.178246
"41481",575.22626,93.07271,105.39092
"41482",575.23956,93.04585,105.77259
"41483",575.25287,92.3769,105.51132
"41484",575.2662,91.31487,104.836075
"41485",575.2795,90.089264,103.96406
"41486",575.2928,88.883194,103.07328
"41487",575.3061,87.80896,102.27664
"41488",575.3194,86.90074,101.61246
"41489",575.3327,86.11948,101.04684
"41490",575.346,85.37728,100.49587
"41491",575.3593,84.596016,99.882645
"41492",575.3726,83.74883,99.179085
"41493",575.3859,82.87236,98.41976
"41494",575.39923,82.04715,97.68431
"41495",575.41254,81.37087,97.07201
"41496",575.42584,80.90456,96.64853
"41497",575.43915,80.655525,96.427765
"41498",575.45245,80.567635,96.36036
"41499",575.46576,80.57496,96.38542
"41500",575.47906,80.59693,96.42536
"41501",575.4924,80.56031,96.407394
"41502",575.5057,80.413826,96.27842
"41503",575.519,80.12573,96.00326
"41504",575.5323,79.708244,95.5897
"41505",575.5456,79.17357,95.045906
"41506",575.5589,78.56565,94.41216
"41507",575.5722,77.93332,93.73501
"41508",575.5855,77.30587,93.04298
"41509",575.5988,76.70283,92.35574
"41510",575.6121,76.14374,91.69362
"41511",575.6254,75.62859,91.05797
"41512",575.63873,75.16716,90.45993
"41513",575.65204,74.759445,89.90119
"41514",575.66534,74.40543,89.383415
"41515",575.67865,74.10513,88.90829
"41516",575.69196,73.85123,88.47017
"41517",575.70526,73.64126,88.068054
"41518",575.71857,73.4728,87.70089
"41519",575.7319,73.34585,87.369965
"41520",575.7452,73.255516,87.07169
"41521",575.7585,73.20668,86.812096
"41522",575.7718,73.199356,86.59248
"41523",575.7851,73.21889,86.3995
"41524",575.7984,73.255516,86.22422
"41525",575.8383,73.38735,85.728195
"41526",575.8516,73.411766,85.54597
"41527",575.8649,73.41909,85.34741
"41528",575.87823,73.40688,85.129555
"41529",575.89154,73.3727,84.88934
"41530",575.90485,73.321434,84.630974
"41531",575.91815,73.2604,84.36124
"41532",575.93146,73.20424,84.09447
"41533",575.94476,73.179825,83.85769
"41534",575.95807,73.253075,83.71781
"41535",575.9714,73.56313,83.81703
"41536",575.9847,74.337074,84.389824
"41537",575.998,75.80438,85.68017
"41538",576.0113,78.06027,87.80495
"41539",576.0246,80.99977,90.68383
"41540",576.0379,84.298164,94.013466
"41541",576.0512,87.49645,97.34607
"41542",576.0645,90.13077,100.214645
"41543",576.0778,91.89105,102.29152
"41544",576.0911,92.68452,103.45658
"41545",576.10443,92.613716,103.78217
"41546",576.11774,91.89838,103.46101
"41547",576.13104,90.7802,102.71466
"41548",576.14435,89.49111,101.76246
"41549",576.15765,88.216675,100.78462
"41550",576.17096,87.07164,99.89636
"41551",576.18427,86.08774,99.133446
"41552",576.1976,85.23079,98.466736
"41553",576.2109,84.43,97.82941
"41554",576.2242,83.63409,97.17193
"41555",576.2375,82.82353,96.47494
"41556",576.2508,82.04227,95.781906
"41557",576.2641,81.36599,95.16945
"41558",576.2774,80.88014,94.72629
"41559",576.2907,80.63111,94.50476
"41560",576.304,80.59693,94.4903
"41561",576.3173,80.71168,94.6237
"41562",576.3306,80.88991,94.82417
"41563",576.34393,81.03883,95.00091
"41564",576.35724,81.075455,95.06999
"41565",576.37054,80.96559,94.99374
"41566",576.38385,80.69947,94.75779
"41567",576.39716,80.2942,94.374374
"41568",576.41046,79.781494,93.870865
"41569",576.42377,79.200424,93.28297
"41570",576.4371,78.58518,92.64274
"41571",576.4504,77.97482,91.98817
"41572",576.4637,77.39132,91.34138
"41573",576.477,76.84932,90.71786
"41574",576.4903,76.368355,90.138435
"41575",576.5036,75.945984,89.60258
"41576",576.5169,75.58221,89.112114
"41577",576.5302,75.27459,88.66644
"41578",576.5435,75.02556,88.269745
"41579",576.5568,74.82536,87.9141
"41580",576.5701,74.67155,87.59858
"41581",576.58344,74.564125,87.324646
"41582",576.59674,74.50553,87.09618
"41583",576.61005,74.48112,86.90007
"41584",576.62335,74.478676,86.72517
"41585",576.63666,74.478676,86.55263
"41586",576.64996,74.478676,86.38009
"41587",576.66327,74.46647,86.19534
"41588",576.6766,74.43961,85.99557
"41589",576.6899,74.4152,85.79739
"41590",576.7032,74.39323,85.6009
"41591",576.7165,74.38102,85.41348
"41592",576.7298,74.37614,85.23301
"41593",576.7431,74.390785,85.071915
"41594",576.7564,74.45182,84.957664
"41595",576.7697,74.64469,84.97716
"41596",576.783,75.14763,85.312744
"41597",576.7963,76.19501,86.20849
"41598",576.80963,77.945526,87.8401
"41599",576.82294,80.38209,90.21246
"41600",576.83624,83.28985,93.132164
"41601",576.84955,86.2855,96.23062
"41602",576.86285,88.919815,99.061356
"41603",576.87616,90.83635,101.25664
"41604",576.88947,91.86908,102.628006
"41605",576.9028,92.03998,103.169815
"41606",576.9161,91.49798,103.00407
"41607",576.9294,90.46281,102.32821
"41608",576.9427,89.15419,101.34656
"41609",576.956,87.77722,100.25566
"41610",576.9693,86.48081,99.202286
"41611",576.9826,85.33822,98.262215
"41612",576.9959,84.334785,97.4256
"41613",577.0092,83.421684,96.64796
"41614",577.0225,82.562294,95.89549
"41615",577.0358,81.75418,95.16745
"41616",577.04913,81.04616,94.514244
"41617",577.06244,80.52125,94.022026
"41618",577.07574,80.24048,93.757545
"41619",577.08905,80.22339,93.74797
"41620",577.10236,80.41627,93.94783
"41621",577.11566,80.73365,94.27822
"41622",577.12897,81.07301,94.64051
"41623",577.1423,81.33425,94.93528
"41624",577.1556,81.449,95.09172
"41625",577.1689,81.38308,95.07108
"41626",577.1822,81.13161,94.86283
"41627",577.1955,80.719,94.48559
"41628",577.2088,80.181885,93.97094
"41629",577.2221,79.571526,93.366264
"41630",577.2354,78.94408,92.725426
"41631",577.2487,78.3386,92.08695
"41632",577.262,77.78439,91.48083
"41633",577.2753,77.29122,90.91842
"41634",577.28864,76.86397,90.40652
"41635",577.30194,76.490425,89.934975
"41636",577.31525,76.15839,89.49326
"41637",577.32855,75.862976,89.077805
"41638",577.34186,75.60418,88.68973
"41639",577.35516,75.37713,88.32531
"41640",577.36847,75.17937,87.983086
"41641",577.3818,75.00847,87.661545
"41642",577.3951,74.85222,87.34931
"41643",577.4084,74.71061,87.04684
"41644",577.4217,74.58366,86.75459
"41645",577.435,74.476234,86.47791
"41646",577.4483,74.40055,86.229614
"41647",577.4616,74.36149,86.01557
"41648",577.4749,74.371254,85.84914
"41649",577.4882,74.4567,85.75869
"41650",577.5015,74.70573,85.83449
"41651",577.51483,75.301445,86.26476
"41652",577.52814,76.46113,87.27762
"41653",577.54144,78.328835,89.03474
"41654",577.55475,80.87282,91.5265
"41655",577.56805,83.87091,94.551865
"41656",577.58136,86.922714,97.72463
"41657",577.59467,89.58633,100.604576
"41658",577.608,91.49798,102.8158
"41659",577.6213,92.506294,104.18343
"41660",577.6346,92.65278,104.72074
"41661",577.6479,92.105896,104.56926
"41662",577.6612,91.0927,103.93437
"41663",577.6745,89.84512,103.03345
"41664",577.6878,88.56092,102.05691
"41665",577.7011,87.38171,101.14522
"41666",577.7144,86.37095,100.36514
"41667",577.7277,85.49935,99.692635
"41668",577.741,84.698555,99.06369
"41669",577.75433,83.90265,98.41461
"41670",577.76764,83.072556,97.706474
"41671",577.78094,82.230255,96.96019
"41672",577.79425,81.45876,96.25839
"41673",577.80756,80.850845,95.69606
"41674",577.82086,80.46998,95.34178
"41675",577.83417,80.31617,95.20266
"41676",577.8475,80.3357,95.23207
"41677",577.8608,80.44312,95.34998
"41678",577.8741,80.54566,95.46637
"41679",577.8874,80.55787,95.49563
"41680",577.9007,80.43336,95.38855
"41681",577.914,80.15991,95.12865
"41682",577.9273,79.742424,94.716156
"41683",577.9406,79.219955,94.18564
"41684",577.9539,78.62913,93.570435
"41685",577.9672,78.00412,92.90259
"41686",577.9805,77.36935,92.205444
"41687",577.99384,76.75166,91.505554
"41688",578.00714,76.16571,90.81809
"41689",578.02045,75.63592,90.16848
"41690",578.03375,75.1696,89.56579
"41691",578.04706,74.77165,89.01689
"41692",578.06036,74.442055,88.52391
"41693",578.07367,74.1857,88.09387
"41694",578.087,74.00015,87.72663
"41695",578.1003,73.88052,87.41951
"41696",578.1136,73.812164,87.15992
"41697",578.1269,73.78287,86.937256
"41698",578.1402,73.76822,86.728325
"41699",578.1535,73.75601,86.52138
"41700",578.1668,73.73403,86.304276
"41701",578.1801,73.70229,86.07673
"41702",578.1934,73.66567,85.84331
"41703",578.2067,73.62173,85.60142
"41704",578.22003,73.5729,85.35327
"41705",578.23334,73.53628,85.11581
"41706",578.24664,73.531395,84.908936
"41707",578.25995,73.58755,84.76295
"41708",578.27325,73.7731,84.748116
"41709",578.28656,74.25895,85.039375
"41710",578.29987,75.2868,85.88782
"41711",578.3132,77.0544,87.50813
"41712",578.3265,79.60815,89.96983
"41713",578.3398,82.78447,93.13391
"41714",578.3531,86.204926,96.64138
"41715",578.3664,89.373924,100.00428
"41716",578.3797,91.861755,102.78505
"41717",578.393,93.42184,104.71581
"41718",578.4063,94.02731,105.74072
"41719",578.4196,93.822235,105.974
"41720",578.4329,93.04097,105.62468
"41721",578.4462,91.93988,104.93112
"41722",578.45953,90.74113,104.10549
"41723",578.47284,89.600975,103.301
"41724",578.48615,88.59998,102.600044
"41725",578.49945,87.73327,102.002075
"41726",578.51276,86.925156,101.43562
"41727",578.52606,86.08774,100.81461
"41728",578.53937,85.16731,100.08443
"41729",578.5527,84.16632,99.24491
"41730",578.566,83.158005,98.36679
"41731",578.5793,82.24246,97.549934
"41732",578.5926,81.51736,96.894905
"41733",578.6059,81.03883,96.4638
"41734",578.6192,80.799576,96.257
"41735",578.6325,80.73121,96.21362
"41736",578.6458,80.740974,96.24624
"41737",578.6591,80.73609,96.26451
"41738",578.6724,80.6482,96.19962
"41739",578.6857,80.430916,96.002594
"41740",578.69904,80.08423,95.66937
"41741",578.71234,79.61791,95.20569
"41742",578.72565,79.05394,94.629776
"41743",578.73895,78.43137,93.977646
"41744",578.75226,77.78439,93.28165
"41745",578.76556,77.13985,92.56786
"41746",578.7789,76.52705,91.865685
"41747",578.7922,75.96063,91.19074
"41748",578.8055,75.44793,90.55181
"41749",578.8188,74.98894,89.95057
"41750",578.8321,74.58854,89.39358
"41751",578.8454,74.249176,88.88511
"41752",578.8587,73.96597,88.422195
"41753",578.872,73.75113,88.01879
"41754",578.8853,73.602196,87.67458
"41755",578.8986,73.51186,87.38432
"41756",578.9119,73.46548,87.135185
"41757",578.92523,73.45571,86.92122
"41758",578.93854,73.47036,86.73136
"41759",578.95184,73.494774,86.55173
"41760",578.96515,73.52407,86.37774
"41761",578.97845,73.5436,86.1949
"41762",578.99176,73.55581,86.00535
"41763",579.00507,73.5436,85.79176
"41764",579.0184,73.51186,85.558266
"41765",579.0317,73.46792,85.31157
"41766",579.045,73.42153,85.06106
"41767",579.0583,73.38247,84.81642
"41768",579.0716,73.37759,84.604744
"41769",579.0849,73.44106,84.46127
"41770",579.0982,73.6852,84.50045
"41771",579.1115,74.31754,84.935455
"41772",579.1248,75.58221,86.022545
"41773",579.1381,77.625694,87.92798
"41774",579.1514,80.413826,90.641914
"41775",579.16473,83.700005,93.941025
"41776",579.17804,87.04967,97.40631
"41777",579.19135,89.98428,100.561226
"41778",579.20465,92.122986,103.01194
"41779",579.21796,93.30465,104.57245
"41780",579.23126,93.573204,105.256775
"41781",579.24457,93.11421,105.22195
"41782",579.2579,92.171814,104.68937
"41783",579.2712,90.99748,103.89541
"41784",579.2845,89.79385,103.03545
"41785",579.2978,88.68543,102.23309
"41786",579.3111,87.71862,101.537704
"41787",579.3244,86.85191,100.9122
"41788",579.3377,86.00229,100.276695
"41789",579.351,85.09895,99.56093
"41790",579.3643,84.12726,98.74857
"41791",579.3776,83.123825,97.874115
"41792",579.3909,82.178986,97.02689
"41793",579.40424,81.39773,96.31373
"41794",579.41754,80.850845,95.810524
"41795",579.43085,80.5481,95.53437
"41796",579.44415,80.445564,95.44896
"41797",579.45746,80.46021,95.47753
"41798",579.47076,80.49683,95.528534
"41799",579.4841,80.46754,95.51476
"41800",579.4974,80.31373,95.375565
"41801",579.5107,80.01587,95.08751
"41802",579.524,79.58373,94.65587
"41803",579.5373,79.04906,94.108185
"41804",579.5506,78.450905,93.480316
"41805",579.5639,77.823456,92.80446
"41806",579.5772,77.188675,92.10166
"41807",579.5905,76.56855,91.393684
"41808",579.6038,75.98016,90.69807
"41809",579.6171,75.44305,90.03533
"41810",579.63043,74.96452,89.414406
"41811",579.64374,74.53971,88.83224
"41812",579.65704,74.178375,88.30027
"41813",579.67035,73.87808,87.818054
"41814",579.68365,73.62905,87.377716
"41815",579.69696,73.43374,86.983315
"41816",579.71027,73.29458,86.63896
"41817",579.7236,73.20668,86.34152
"41818",579.7369,73.1725,86.095055
"41819",579.7502,73.18227,85.891464
"41820",579.7635,73.22377,85.71992
"41821",579.7768,73.28481,85.56921
"41822",579.7901,73.35561,85.43016
"41823",579.8034,73.41909,85.286
"41824",579.8167,73.4728,85.13406
"41825",579.83,73.50942,84.96671
"41826",579.8433,73.53872,84.79318
"41827",579.8566,73.55093,84.60348
"41828",579.86993,73.55581,84.40683
"41829",579.88324,73.54604,84.19569
"41830",579.89655,73.531395,83.979355
"41831",579.90985,73.51919,83.76501
"41832",579.92316,73.52651,83.56981
"41833",579.93646,73.585106,83.42611
"41834",579.94977,73.814606,83.45515
"41835",579.9631,74.4152,83.86245
"41836",579.9764,75.63348,84.906204
"41837",579.9897,77.63058,86.76685
"41838",580.003,80.38209,89.44432
"41839",580.0163,83.648735,92.72291
"41840",580.0296,87.00328,96.191475
"41841",580.0429,89.95987,99.36691
"41842",580.0562,92.13275,101.85104
"41843",580.0695,93.34371,103.441154
"41844",580.0828,93.6318,104.14623
"41845",580.0961,93.153275,104.093704
"41846",580.10944,92.1474,103.49887
"41847",580.12274,90.86076,102.59184
"41848",580.13605,89.513084,101.583565
"41849",580.14935,88.24353,100.6113
"41850",580.16266,87.11803,99.74341
"41851",580.17596,86.12192,98.969734
"41852",580.1893,85.19417,98.23329
"41853",580.2026,84.26887,97.47031
"41854",580.2159,83.34356,96.6784
"41855",580.2292,82.46708,95.9064
"41856",580.2425,81.71755,95.23397
"41857",580.2558,81.180435,94.75053
"41858",580.2691,80.89967,94.50665
"41859",580.2824,80.85329,94.48838
"41860",580.2957,80.96803,94.62979
"41861",580.309,81.13893,94.83094
"41862",580.3223,81.270775,94.998375
"41863",580.33563,81.29763,95.06494
"41864",580.34894,81.17799,94.985855
"41865",580.36224,80.90456,94.74923
"41866",580.37555,80.50172,94.37466
"41867",580.38885,79.9939,93.882515
"41868",580.40216,79.41772,93.306145
"41869",580.41547,78.802475,92.67271
"41870",580.4288,78.1799,92.01271
"41871",580.4421,77.58175,91.35768
"41872",580.4554,77.02022,90.72058
"41873",580.4687,76.5124,90.119644
"41874",580.482,76.06317,89.56143
"41875",580.4953,75.684746,89.05998
"41876",580.5086,75.372246,88.61263
"41877",580.5219,75.12077,88.216545
"41878",580.5352,74.9279,87.8712
"41879",580.5485,74.78874,87.57354
"41880",580.5618,74.69108,87.31303
"41881",580.57513,74.63004,87.08609
"41882",580.58844,74.59098,86.87922
"41883",580.60175,74.564125,86.683334
"41884",580.61505,74.54215,86.49149
"41885",580.62836,74.52018,86.298965
"41886",580.64166,74.49821,86.10575
"41887",580.65497,74.48844,85.92406
"41888",580.6683,74.49821,85.76159
"41889",580.6816,74.52506,85.616516
"41890",580.6949,74.58854,85.5089
"41891",580.7082,74.76189,85.513145
"41892",580.7215,75.208664,85.796234
"41893",580.7348,76.15106,86.588905
"41894",580.7481,77.75998,88.077545
"41895",580.7614,80.062256,90.30982
"41896",580.7747,82.88457,93.13408
"41897",580.788,85.87778,96.21743
"41898",580.80133,88.59998,99.123314
"41899",580.81464,90.67277,101.46484
"41900",580.82794,91.88617,103.01177
"41901",580.84125,92.23041,103.727455
"41902",580.85455,91.83002,103.70927
"41903",580.86786,90.88762,103.13656
"41904",580.88116,89.63271,102.22189
"41905",580.8945,88.26307,101.153275
"41906",580.9078,86.93492,100.08334
"41907",580.9211,85.711754,99.07689
"41908",580.9344,84.593575,98.1372
"41909",580.9477,83.546196,97.23337
"41910",580.961,82.54276,96.34075
"41911",580.9743,81.5906,95.46805
"41912",580.9876,80.7483,94.67545
"41913",581.0009,80.10132,94.05186
"41914",581.0142,79.72289,93.6766
"41915",581.0275,79.63256,93.57761
"41916",581.04083,79.77661,93.710175
"41917",581.05414,80.05249,93.97907
"41918",581.06744,80.33814,94.266365
"41919",581.08075,80.5359,94.474686
"41920",581.09406,80.5774,94.532936
"41921",581.10736,80.44312,94.4167
"41922",581.12067,80.13306,94.12048
"41923",581.134,79.68383,93.675415
"41924",581.1473,79.13695,93.11865
"41925",581.1606,78.54124,92.49597
"41926",581.1739,77.93332,91.84247
"41927",581.1872,77.34249,91.18706
"41928",581.2005,76.79561,90.55713
"41929",581.2138,76.30244,89.96382
"41930",581.2271,75.86542,89.411255
"41931",581.2404,75.48455,88.901184
"41932",581.2537,75.16228,88.437805
"41933",581.267,74.8864,88.01075
"41934",581.28033,74.65934,87.62389
"41935",581.29364,74.46891,87.26657
"41936",581.30695,74.3151,86.93992
"41937",581.32025,74.19302,86.64019
"41938",581.33356,74.09537,86.36107
"41939",581.34686,74.019684,86.10087
"41940",581.36017,73.95621,85.85051
"41941",581.3735,73.9025,85.60793
"41942",581.3868,73.86099,85.375885
"41943",581.4001,73.848785,85.17184
"41944",581.4134,73.882965,85.013794
"41945",581.4267,73.99771,84.937386
"41946",581.44,74.3151,85.06721
"41947",581.4533,75.04265,85.6171
"41948",581.4666,76.40986,86.8294
"41949",581.4799,78.54856,88.85591
"41950",581.4932,81.40017,91.66216
"41951",581.50653,84.69611,95.00186
"41952",581.51984,88.00427,98.45677
"41953",581.53314,90.84123,101.54387
"41954",581.54645,92.86763,103.90906
"41955",581.55975,93.93698,105.38052
"41956",581.57306,94.10788,105.98695
"41957",581.58636,93.56344,105.883385
"41958",581.5997,92.542915,105.28672
"41959",581.613,91.29046,104.42623
"41960",581.6263,90.01114,103.49974
"41961",581.6396,88.84169,102.64314
"41962",581.6529,87.83093,101.90869
"41963",581.6662,86.942245,101.264725
"41964",581.6795,86.0853,100.62472
"41965",581.6928,85.17464,99.90422
"41966",581.7061,84.18097,99.07226
"41967",581.7194,83.14824,98.17018
"41968",581.7327,82.176544,97.29687
"41969",581.74603,81.38064,96.56898
"41970",581.75934,80.84108,96.07256
"41971",581.77264,80.57984,95.83761
"41972",581.78595,80.52857,95.80446
"41973",581.79926,80.59205,95.88445
"41974",581.81256,80.66285,95.973755
"41975",581.82587,80.6482,95.97982
"41976",581.8392,80.49683,95.84871
"41977",581.8525,80.18677,95.55417
"41978",581.8658,79.73266,95.105896
"41979",581.8791,79.17113,94.53601
"41980",581.8924,78.536354,93.875336
"41981",581.9057,77.8674,93.160645
"41982",581.919,77.19112,92.41772
"41983",581.9323,76.53681,91.67564
"41984",581.9456,75.92401,90.95461
"41985",581.9589,75.36248,90.26571
"41986",581.9722,74.861984,89.62029
"41987",581.98553,74.43717,89.03492
"41988",581.99884,74.0856,88.509514
"41989",582.01215,73.812164,88.051254
"41990",582.02545,73.60708,87.6528
"41991",582.03876,73.463036,87.30898
"41992",582.05206,73.36294,87.00461
"41993",582.06537,73.29946,86.73373
"41994",582.0787,73.25796,86.482834
"41995",582.092,73.22865,86.24284
"41996",582.1053,73.199356,86.001945
"41997",582.1186,73.16029,85.75037
"41998",582.1319,73.111465,85.4878
"41999",582.1452,73.06508,85.22615
"42000",582.1585,73.0309,84.97526
"42001",582.1718,73.01869,84.74527
"42002",582.1851,73.04555,84.55396
"42003",582.1984,73.18715,84.47824
"42004",582.21173,73.602196,84.68039
"42005",582.22504,74.53971,85.41798
"42006",582.23834,76.23163,86.93926
"42007",582.25165,78.765854,89.35573
"42008",582.26495,82.01541,92.56672
"42009",582.27826,85.626305,96.24059
"42010",582.29156,89.10536,99.89547
"42011",582.3049,91.96918,103.04382
"42012",582.3182,93.910126,105.35881
"42013",582.3315,94.84764,106.73102
"42014",582.3448,94.89891,107.24628
"42015",582.3581,94.28855,107.10151
"42016",582.3714,93.28512,106.54459
"42017",582.3847,92.12543,105.800064
"42018",582.398,90.98772,105.041275
"42019",582.4113,89.95499,104.35191
"42020",582.4246,89.037,103.745026
"42021",582.4379,88.16052,103.150955
"42022",582.45123,87.23277,102.478226
"42023",582.46454,86.187836,101.65931
"42024",582.47784,85.02815,100.69299
"42025",582.49115,83.824524,99.64649
"42026",582.50446,82.69901,98.640495
"42027",582.51776,81.78104,97.80686
"42028",582.53107,81.13649,97.21797
"42029",582.5444,80.77028,96.887276
"42030",582.5577,80.6067,96.747765
"42031",582.571,80.56031,96.72034
"42032",582.5843,80.533455,96.71099
"42033",582.5976,80.4358,96.630005
"42034",582.6109,80.21362,96.42145
"42035",582.6242,79.852295,96.066795
"42036",582.6375,79.35424,95.564125
"42037",582.6508,78.74143,94.93114
"42038",582.6641,78.05295,94.20332
"42039",582.6774,77.32784,93.41737
"42040",582.69073,76.60273,92.60876
"42041",582.70404,75.90692,91.806786
"42042",582.71735,75.2575,91.02946
"42043",582.73065,74.669106,90.29286
"42044",582.74396,74.144196,89.601364
"42045",582.75726,73.69009,88.964264
"42046",582.77057,73.31167,88.388664
"42047",582.7839,73.006485,87.87447
"42048",582.7972,72.781876,87.43132
"42049",582.8105,72.6305,87.05438
"42050",582.8238,72.53773,86.73131
"42051",582.8371,72.4889,86.44928
"42052",582.8504,72.46204,86.1877
"42053",582.8637,72.44984,85.939926
"42054",582.877,72.43519,85.68933
"42055",582.8903,72.42298,85.44072
"42056",582.9036,72.40101,85.18196
"42057",582.91693,72.37171,84.91519
"42058",582.93024,72.342415,84.64751
"42059",582.94354,72.31556,84.38135
"42060",582.95685,72.30335,84.129
"42061",582.97015,72.33021,83.91533
"42062",582.98346,72.447395,83.79283
"42063",582.99677,72.78432,83.89374
"42064",583.0101,73.56069,84.444626
"42065",583.0234,75.018234,85.70094
"42066",583.0367,77.28878,87.81581
"42067",583.05,80.30396,90.74627
"42068",583.0633,83.775696,94.2275
"42069",583.0766,87.25231,97.822105
"42070",583.0899,90.23819,101.03462
"42071",583.1032,92.3769,103.49328
"42072",583.1165,93.52926,105.03242
"42073",583.1298,93.76364,105.68959
"42074",583.1431,93.280235,105.6363
"42075",583.15643,92.32807,105.099144
"42076",583.16974,91.158615,104.31494
"42077",583.18304,89.96475,103.46979
"42078",583.19635,88.86122,102.67766
"42079",583.20966,87.86023,101.95358
"42080",583.22296,86.91295,101.25194
"42081",583.23627,85.926605,100.48162
"42082",583.2496,84.85481,99.59503
"42083",583.2629,83.702446,98.594376
"42084",583.2762,82.53544,97.54307
"42085",583.2895,81.46609,96.55295
"42086",583.3028,80.61402,95.7467
"42087",583.3161,80.03784,95.189705
"42088",583.3294,79.7351,94.888145
"42089",583.3427,79.64965,94.79442
"42090",583.356,79.68627,94.82009
"42091",583.3693,79.74731,94.87132
"42092",583.3826,79.73266,94.84878
"42093",583.39594,79.58373,94.6915
"42094",583.40924,79.273674,94.36843
"42095",583.42255,78.80736,93.87942
"42096",583.43585,78.221405,93.256195
"42097",583.44916,77.55245,92.53166
"42098",583.46246,76.8542,91.75693
"42099",583.47577,76.15839,90.96281
"42100",583.4891,75.4992,90.18357
"42101",583.5024,74.89372,89.43745
"42102",583.5157,74.35172,88.73588
"42103",583.529,73.88052,88.08817
"42104",583.5423,73.48501,87.50143
"42105",583.5556,73.15541,86.96824
"42106",583.5689,72.89418,86.49312
"42107",583.5822,72.69398,86.07086
"42108",583.5955,72.54017,85.688736
"42109",583.6088,72.43519,85.35063
"42110",583.62213,72.38636,85.0654
"42111",583.63544,72.38392,84.82503
"42112",583.64874,72.42298,84.62608
"42113",583.66205,72.481575,84.44789
"42114",583.67535,72.54261,84.27397
"42115",583.68866,72.584114,84.08243
"42116",583.70197,72.601204,83.86777
"42117",583.7153,72.589,83.624344
"42118",583.7286,72.5597,83.36345
"42119",583.7419,72.52552,83.096756
"42120",583.7552,72.498665,82.83632
"42121",583.7685,72.48646,82.58969
"42122",583.7818,72.50599,82.37442
"42123",583.7951,72.589,82.223236
"42124",583.8084,72.82582,82.22847
"42125",583.8217,73.392235,82.570694
"42126",583.835,74.53239,83.50436
"42127",583.8483,76.422066,85.223175
"42128",583.86163,79.07103,87.76033
"42129",583.87494,82.262,90.92227
"42130",583.88824,85.59945,94.33041
"42131",583.90155,88.59754,97.50348
"42132",583.91486,90.84856,100.02316
"42133",583.92816,92.14984,101.66347
"42134",583.94147,92.525826,102.419136
"42135",583.9548,92.137634,102.42238
"42136",583.9681,91.226974,101.89102
"42137",583.9814,90.04532,101.06021
"42138",583.9947,88.817276,100.14609
"42139",584.008,87.67712,99.28146
"42140",584.0213,86.68101,98.52527
"42141",584.0346,85.79721,97.85025
"42142",584.0479,84.95491,97.18911
"42143",584.0612,84.07355,96.462585
"42144",584.0745,83.13847,95.65481
"42145",584.0878,82.19119,94.8056
"42146",584.10114,81.33181,94.014694
"42147",584.11444,80.65797,93.38247
"42148",584.12775,80.23804,92.9831
"42149",584.14105,80.0647,92.8172
"42150",584.15436,80.079346,92.83387
"42151",584.16766,80.19165,92.948654
"42152",584.18097,80.306404,93.0694
"42153",584.1943,80.34547,93.118034
"42154",584.2076,80.255135,93.0385
"42155",584.2209,80.01831,92.80965
"42156",584.2342,79.64477,92.436676
"42157",584.2475,79.17601,91.95682
"42158",584.2608,78.63889,91.39395
"42159",584.2741,78.0676,90.78012
"42160",584.2874,77.48409,90.13623
"42161",584.3007,76.912796,89.48631
"42162",584.314,76.3708,88.84784
"42163",584.32733,75.877625,88.24126
"42164",584.34064,75.44549,87.6803
"42165",584.35394,75.07927,87.17175
"42166",584.36725,74.7863,86.72501
"42167",584.38055,74.564125,86.33991
"42168",584.39386,74.40543,86.01135
"42169",584.40717,74.305336,85.73643
"42170",584.4205,74.25895,85.512085
"42171",584.4338,74.246735,85.320465
"42172",584.4471,74.25651,85.15045
"42173",584.4604,74.27116,84.98562
"42174",584.4737,74.29313,84.82857
"42175",584.487,74.305336,84.66244
"42176",584.5003,74.31266,84.491806
"42177",584.5136,74.31266,84.31408
"42178",584.5269,74.31022,84.13391
"42179",584.5402,74.30778,83.95367
"42180",584.5535,74.31754,83.78555
"42181",584.56683,74.34928,83.63972
"42182",584.58014,74.41276,83.52661
"42183",584.59344,74.55192,83.49117
"42184",584.60675,74.898605,83.66761
"42185",584.62006,75.66277,84.27236
"42186",584.63336,77.049515,85.52357
"42187",584.64667,79.12474,87.50659
"42188",584.66,81.778595,90.133095
"42189",584.6733,84.71076,93.12084
"42190",584.6866,87.49401,96.0513
"42191",584.6999,89.705956,98.49744
"42192",584.7132,91.0927,100.18749
"42193",584.7265,91.595634,101.03708
"42194",584.7398,91.3222,101.12601
"42195",584.7531,90.4799,100.63753
"42196",584.7664,89.30312,99.78825
"42197",584.7797,88.006714,98.78257
"42198",584.793,86.76158,97.78764
"42199",584.80634,85.645836,96.883194
"42200",584.81964,84.65949,96.07328
"42201",584.83295,83.74883,95.30823
"42202",584.84625,82.86992,94.54646
"42203",584.85956,82.01297,93.7792
"42204",584.87286,81.22926,93.058395
"42205",584.88617,80.59937,92.46692
"42206",584.8995,80.2063,92.092575
"42207",584.9128,80.08423,91.97695
"42208",584.9261,80.198975,92.09433
"42209",584.9394,80.46021,92.361786
"42210",584.9527,80.75807,92.67403
"42211",584.966,80.987564,92.92721
"42212",584.9793,81.08278,93.05328
"42213",584.9926,81.01198,93.01632
"42214",585.0059,80.78493,92.82089
"42215",585.0192,80.41871,92.4792
"42216",585.03253,79.94751,92.02109
"42217",585.04584,79.41772,91.489655
"42218",585.05914,78.873276,90.92702
"42219",585.07245,78.3386,90.35713
"42220",585.08575,77.83322,89.799835
"42221",585.09906,77.38155,89.28046
"42222",585.11237,76.9836,88.800674
"42223",585.1257,76.63203,88.35484
"42224",585.139,76.32441,87.94198
"42225",585.1523,76.06317,87.56588
"42226",585.1656,75.843445,87.22313
"42227",585.1789,75.65789,86.907684
"42228",585.1922,75.50652,86.62063
"42229",585.2055,75.37957,86.35326
"42230",585.2188,75.27459,86.10389
"42231",585.2321,75.191574,85.87321
"42232",585.2454,75.11833,85.649704
"42233",585.2587,75.06218,85.441
"42234",585.27203,75.01579,85.24031
"42235",585.28534,74.99626,85.065025
"42236",585.29865,75.00603,84.91843
"42237",585.31195,75.07927,84.83561
"42238",585.32526,75.29656,84.89913
"42239",585.33856,75.83368,85.28927
"42240",585.35187,76.90059,86.22598
"42241",585.3652,78.6511,87.87964
"42242",585.3785,81.06569,90.252075
"42243",585.3918,83.929504,93.14919
"42244",585.4051,86.85924,96.20172
"42245",585.4184,89.41787,98.9747
"42246",585.4317,91.25628,101.10742
"42247",585.445,92.21088,102.41378
"42248",585.4583,92.32319,102.907684
"42249",585.4716,91.76654,102.73614
"42250",585.4849,90.76311,102.10041
"42251",585.4982,89.547264,101.22092
"42252",585.51154,88.31434,100.28635
"42253",585.52484,87.18883,99.420654
"42254",585.53815,86.21469,98.671165
"42255",585.55145,85.36263,98.01331
"42256",585.56476,84.56184,97.3801
"42257",585.57806,83.73907,96.69988
"42258",585.5914,82.879684,95.957344
"42259",585.6047,82.03006,95.19771
"42260",585.618,81.28298,94.51407
"42261",585.6313,80.72877,93.99995
"42262",585.6446,80.41871,93.71266
"42263",585.6579,80.34547,93.652504
"42264",585.6712,80.445564,93.7634
"42265",585.6845,80.618904,93.95066
"42266",585.6978,80.76784,94.118935
"42267",585.7111,80.816666,94.19176
"42268",585.7244,80.71656,94.11717
"42269",585.73773,80.45777,93.880775
"42270",585.75104,80.05493,93.49224
"42271",585.76434,79.54467,92.983696
"42272",585.77765,78.975815,92.40061
"42273",585.79095,78.38987,91.78266
"42274",585.80426,77.81613,91.15861
"42275",585.81757,77.26925,90.54348
"42276",585.8309,76.771194,89.96009
"42277",585.8442,76.32685,89.41485
"42278",585.8575,75.9411,88.914314
"42279",585.8708,75.61883,88.4652
"42280",585.8841,75.3576,88.06706
"42281",585.8974,75.14763,87.71202
"42282",585.9107,74.98894,87.401695
"42283",585.924,74.86931,87.12547
"42284",585.9373,74.78142,86.87725
"42285",585.9506,74.720375,86.65313
"42286",585.9639,74.67643,86.4442
"42287",585.97723,74.63737,86.23878
"42288",585.99054,74.598305,86.032135
"42289",586.00385,74.55192,85.81695
"42290",586.01715,74.50309,85.59787
"42291",586.03046,74.46403,85.38703
"42292",586.04376,74.442055,85.19206
"42293",586.05707,74.444496,85.02082
"42294",586.0704,74.49821,84.900925
"42295",586.0837,74.6984,84.92919
"42296",586.097,75.23796,85.30308
"42297",586.1103,76.36103,86.277336
"42298",586.1236,78.24338,88.04597
"42299",586.1369,80.86305,90.61075
"42300",586.1502,83.9881,93.762764
"42301",586.1635,87.2108,97.11009
"42302",586.1768,90.0502,100.17483
"42303",586.1901,92.1181,102.5568
"42304",586.2034,93.25338,104.07077
"42305",586.21674,93.5024,104.73396
"42306",586.23004,93.048294,104.701805
"42307",586.24335,92.13031,104.19158
"42308",586.25665,90.99992,103.44027
"42309",586.26996,89.864655,102.64875
"42310",586.28326,88.849014,101.94138
"42311",586.2966,87.992065,101.36096
"42312",586.3099,87.24742,100.86607
"42313",586.3232,86.519875,100.365005
"42314",586.3365,85.71908,99.76795
"42315",586.3498,84.81331,99.0409
"42316",586.3631,83.82941,98.20741
"42317",586.3764,82.85283,97.3505
"42318",586.3897,82.00076,96.587585
"42319",586.403,81.36843,96.01778
"42320",586.4163,80.99245,95.684555
"42321",586.4296,80.83864,95.56176
"42322",586.44293,80.833755,95.583084
"42323",586.45624,80.88258,95.65797
"42324",586.46954,80.89235,95.69531
"42325",586.48285,80.8069,95.63775
"42326",586.49615,80.58961,95.44567
"42327",586.50946,80.23071,95.1052
"42328",586.52277,79.7522,94.633896
"42329",586.5361,79.18822,94.06217
"42330",586.5494,78.57542,93.424
"42331",586.5627,77.943085,92.747154
"42332",586.576,77.330284,92.070076
"42333",586.5893,76.756546,91.41291
"42334",586.6026,76.23407,90.78908
"42335",586.6159,75.76288,90.2002
"42336",586.6292,75.34539,89.65031
"42337",586.6425,74.984055,89.14352
"42338",586.6558,74.68131,88.68403
"42339",586.6691,74.444496,88.281006
"42340",586.68243,74.27116,87.93406
"42341",586.69574,74.158844,87.64272
"42342",586.70905,74.090485,87.39183
"42343",586.72235,74.06363,87.180305
"42344",586.73566,74.05875,86.989914
"42345",586.74896,74.06119,86.806694
"42346",586.76227,74.05875,86.61867
"42347",586.7756,74.04654,86.4208
"42348",586.7889,74.019684,86.2079
"42349",586.8022,73.97574,85.97707
"42350",586.8155,73.91226,85.72534
"42351",586.8288,73.846344,85.469185
"42352",586.8421,73.79019,85.22073
"42353",586.8554,73.763336,84.999825
"42354",586.8687,73.80484,84.846436
"42355",586.882,74.01236,84.86036
"42356",586.8953,74.58854,85.24943
"42357",586.9086,75.7702,86.261986
"42358",586.92194,77.72091,88.08051
"42359",586.93524,80.42115,90.70953
"42360",586.94855,83.64385,93.9454
"42361",586.96185,86.96178,97.37719
"42362",586.97516,89.88663,100.51959
"42363",586.98846,92.02045,102.96237
"42364",587.0018,93.19478,104.512344
"42365",587.0151,93.46334,105.193245
"42366",587.0284,93.016556,105.16719
"42367",587.0417,92.10101,104.65842
"42368",587.055,90.97307,103.90863
"42369",587.0683,89.83536,103.11383
"42370",587.0816,88.80263,102.38846
"42371",587.0949,87.9115,101.772415
"42372",587.1082,87.12535,101.233505
"42373",587.1215,86.35386,100.68468
"42374",587.1348,85.51156,100.04093
"42375",587.14813,84.57404,99.27565
"42376",587.16144,83.57549,98.42004
"42377",587.17474,82.616005,97.57228
"42378",587.18805,81.80057,96.83859
"42379",587.20135,81.20973,96.30402
"42380",587.21466,80.87526,96.007355
"42381",587.22797,80.77028,95.929726
"42382",587.2413,80.8069,95.99042
"42383",587.2546,80.89479,96.10352
"42384",587.2679,80.938736,96.17543
"42385",587.2812,80.86305,96.12908
"42386",587.2945,80.62379,95.91679
"42387",587.3078,80.22095,95.53344
"42388",587.3211,79.68627,95.00567
"42389",587.3344,79.06615,94.37574
"42390",587.3477,78.40208,93.68249
"42391",587.361,77.733116,92.96359
"42392",587.3743,77.08858,92.248215
"42393",587.38763,76.49287,91.56152
"42394",587.40094,75.95819,90.91725
"42395",587.41425,75.48699,90.31975
"42396",587.42755,75.08171,89.77344
"42397",587.44086,74.74723,89.28526
"42398",587.45416,74.47135,88.84524
"42399",587.46747,74.251625,88.45274
"42400",587.4808,74.08316,88.104645
"42401",587.4941,73.96109,87.797676
"42402",587.5074,73.87076,87.51863
"42403",587.5207,73.80972,87.26606
"42404",587.534,73.76822,87.03111
"42405",587.5473,73.75113,86.81928
"42406",587.5606,73.74624,86.61912
"42407",587.5739,73.75113,86.42858
"42408",587.5872,73.760895,86.24307
"42409",587.6005,73.77554,86.06275
"42410",587.61383,73.777985,85.87068
"42411",587.62714,73.76578,85.66404
"42412",587.64044,73.73647,85.43992
"42413",587.65375,73.69253,85.20024
"42414",587.66705,73.636375,84.94698
"42415",587.68036,73.57534,84.68709
"42416",587.69366,73.53872,84.4497
"42417",587.707,73.54604,84.25511
"42418",587.7203,73.66323,84.170616
"42419",587.7336,74.04898,84.358345
"42420",587.7469,74.95964,85.08304
"42421",587.7602,76.6247,86.59059
"42422",587.7735,79.132065,88.99248
"42423",587.7868,82.33036,92.16365
"42424",587.8001,85.86069,95.7668
"42425",587.8134,89.21767,99.30692
"42426",587.8267,91.92035,102.29765
"42427",587.84,93.6733,104.42312
"42428",587.85333,94.43015,105.60726
"42429",587.86664,94.32273,105.95078
"42430",587.87994,93.57809,105.653725
"42431",587.89325,92.46479,104.964745
"42432",587.90656,91.21721,104.10669
"42433",587.91986,90.01358,103.2536
"42434",587.93317,88.94179,102.494736
"42435",587.9465,88.006714,101.839096
"42436",587.9598,87.14488,101.22748
"42437",587.9731,86.2855,100.59137
"42438",587.9864,85.36996,99.872246
"42439",587.9997,84.4007,99.0708
"42440",588.013,83.43145,98.23907
"42441",588.0263,82.56718,97.482025
"42442",588.0396,81.898224,96.893295
"42443",588.0529,81.46609,96.52048
"42444",588.0662,81.26833,96.36854
"42445",588.0795,81.24391,96.38375
"42446",588.09283,81.29763,96.47634
"42447",588.10614,81.32937,96.54863
"42448",588.11945,81.270775,96.53158
"42449",588.13275,81.075455,96.37597
"42450",588.14606,80.73609,96.07021
"42451",588.15936,80.257576,95.6147
"42452",588.17267,79.676506,95.04168
"42453",588.186,79.01732,94.37238
"42454",588.1993,78.32395,93.64831
"42455",588.2126,77.628136,92.900116
"42456",588.2259,76.961624,92.159485
"42457",588.2392,76.34638,91.449295
"42458",588.2525,75.79462,90.783356
"42459",588.2658,75.31121,90.16853
"42460",588.2791,74.896164,89.606964
"42461",588.2924,74.547035,89.09834
"42462",588.3057,74.25895,88.639854
"42463",588.31903,74.02701,88.22851
"42464",588.33234,73.848785,87.86363
"42465",588.34564,73.721825,87.54445
"42466",588.35895,73.6437,87.270134
"42467",588.37225,73.60952,87.03732
"42468",588.38556,73.616844,86.84495
"42469",588.39886,73.64858,86.677216
"42470",588.4122,73.69009,86.52024
"42471",588.4255,73.72671,86.35968
"42472",588.4388,73.75601,86.19295
"42473",588.4521,73.777985,86.0198
"42474",588.4654,73.795074,85.84245
"42475",588.4787,73.79996,85.653435
"42476",588.492,73.79263,85.45236
"42477",588.5053,73.76822,85.23397
"42478",588.5186,73.73403,85.00504
"42479",588.5319,73.69497,84.77017
"42480",588.5452,73.66079,84.53896
"42481",588.55853,73.651024,84.3311
"42482",588.57184,73.70229,84.18397
"42483",588.58514,73.934235,84.21911
"42484",588.59845,74.57145,84.66677
"42485",588.61176,75.87518,85.800865
"42486",588.62506,77.99924,87.79602
"42487",588.63837,80.89723,90.63149
"42488",588.6517,84.29572,94.05802
"42489",588.665,87.73083,97.627365
"42490",588.6783,90.69474,100.83287
"42491",588.6916,92.80415,103.2765
"42492",588.7049,93.9028,104.775276
"42493",588.7182,94.046844,105.35378
"42494",588.7315,93.41207,105.157974
"42495",588.7448,92.24994,104.41497
"42496",588.7581,90.809494,103.35734
"42497",588.7714,89.31045,102.19609
"42498",588.7847,87.904175,101.08077
"42499",588.79803,86.65171,100.07532
"42500",588.81134,85.54574,99.17721
"42501",588.82465,84.52277,98.327545
"42502",588.83795,83.529106,97.47521
"42503",588.85126,82.55741,96.6138
"42504",588.86456,81.6614,95.79771
"42505",588.87787,80.92409,95.11231
"42506",588.8912,80.42115,94.63825
"42507",588.9045,80.18921,94.41947
"42508",588.9178,80.18677,94.42294
"42509",588.9311,80.33082,94.57283
"42510",588.9444,80.51881,94.77116
"42511",588.9577,80.66529,94.93385
"42512",588.971,80.70191,94.991264
"42513",588.9843,80.59205,94.903336
"42514",588.9976,80.33082,94.66061
"42515",589.0109,79.92798,94.268105
"42516",589.02423,79.41039,93.74827
"42517",589.03754,78.8098,93.12925
"42518",589.05084,78.170135,92.45239
"42519",589.06415,77.53536,91.76044
"42520",589.07745,76.94209,91.09015
"42521",589.09076,76.42451,90.477005
"42522",589.10406,75.99481,89.93558
"42523",589.1174,75.648125,89.46373
"42524",589.1307,75.37713,89.05674
"42525",589.144,75.16228,88.697426
"42526",589.1573,74.98894,88.37291
"42527",589.1706,74.847336,88.074715
"42528",589.1839,74.73502,87.801384
"42529",589.1972,74.64225,87.54408
"42530",589.2105,74.5568,87.29121
"42531",589.2238,74.47379,87.0381
"42532",589.2371,74.38834,86.77996
"42533",589.2504,74.305336,86.52159
"42534",589.26373,74.23697,86.27527
"42535",589.27704,74.18326,86.041466
"42536",589.29034,74.14908,85.825516
"42537",589.30365,74.13443,85.62803
"42538",589.31696,74.14664,85.45694
"42539",589.33026,74.18326,85.310646
"42540",589.34357,74.29069,85.236305
"42541",589.3569,74.57145,85.33865
"42542",589.3702,75.22575,85.82332
"42543",589.3835,76.48798,86.936356
"42544",589.3968,78.48997,88.82859
"42545",589.4101,81.1902,91.481636
"42546",589.4234,84.34211,94.67074
"42547",589.4367,87.52087,97.98518
"42548",589.45,90.26505,100.9644
"42549",589.4633,92.208435,103.22857
"42550",589.4766,93.19478,104.59643
"42551",589.4899,93.25582,105.06981
"42552",589.50323,92.56489,104.79312
"42553",589.51654,91.34417,103.96506
"42554",589.52985,89.85489,102.830284
"42555",589.54315,88.3119,101.59526
"42556",589.55646,86.873886,100.41699
"42557",589.56976,85.59701,99.35492
"42558",589.58307,84.46906,98.40188
"42559",589.5964,83.438774,97.511246
"42560",589.6097,82.47196,96.65189
"42561",589.623,81.58572,95.842896
"42562",589.6363,80.850845,95.15758
"42563",589.6496,80.35523,94.68855
"42564",589.6629,80.15503,94.49945
"42565",589.6762,80.24292,94.592186
"42566",589.6895,80.54322,94.90008
"42567",589.7028,80.936295,95.31013
"42568",589.7161,81.29275,95.69584
"42569",589.72943,81.51003,95.95352
"42570",589.74274,81.529564,96.02024
"42571",589.75604,81.33181,95.870285
"42572",589.76935,80.938736,95.51883
"42573",589.78265,80.39918,95.008606
"42574",589.79596,79.77905,94.400955
"42575",589.80927,79.12718,93.74218
"42576",589.8226,78.47532,93.06304
"42577",589.8359,77.85275,92.39283
"42578",589.8492,77.26681,91.739784
"42579",589.8625,76.71259,91.10016
"42580",589.8758,76.18768,90.47252
"42581",589.8891,75.68963,89.85533
"42582",589.9024,75.21599,89.246994
"42583",589.9157,74.776535,88.65804
"42584",589.929,74.390785,88.10906
"42585",589.9423,74.06363,87.60662
"42586",589.9556,73.79263,87.150116
"42587",589.96893,73.57046,86.73396
"42588",589.98224,73.392235,86.35482
"42589",589.99554,73.24574,86.00184
"42590",590.00885,73.13588,85.68091
"42591",590.02216,73.060196,85.390724
"42592",590.03546,73.01625,85.12991
"42593",590.04877,73.006485,84.90191
"42594",590.0621,73.02846,84.70534
"42595",590.0754,73.10414,84.56316
"42596",590.0887,73.29946,84.54299
"42597",590.102,73.78775,84.82189
"42598",590.1153,74.810715,85.65073
"42599",590.1286,76.5832,87.26105
"42600",590.1419,79.1638,89.73488
"42601",590.1552,82.41825,92.963196
"42602",590.1685,85.98764,96.608154
"42603",590.1818,89.38613,100.193756
"42604",590.1951,92.140076,103.24102
"42605",590.20844,93.95407,105.434395
"42606",590.22174,94.74265,106.65904
"42607",590.23505,94.6157,106.9928
"42608",590.24835,93.785614,106.61945
"42609",590.26166,92.5185,105.78314
"42610",590.27496,91.0634,104.719246
"42611",590.28827,89.63027,103.63185
"42612",590.3016,88.33631,102.63884
"42613",590.3149,87.20592,101.76895
"42614",590.3282,86.19028,100.97849
"42615",590.3415,85.21126,100.19292
"42616",590.3548,84.210266,99.354774
"42617",590.3681,83.194626,98.4707
"42618",590.3814,82.22293,97.59884
"42619",590.3947,81.39529,96.84066
"42620",590.408,80.79225,96.28123
"42621",590.4213,80.448006,95.96174
"42622",590.43463,80.3357,95.863434
"42623",590.44794,80.37965,95.91787
"42624",590.46124,80.479744,96.02983
"42625",590.47455,80.54566,96.11074
"42626",590.48785,80.50416,96.08629
"42627",590.50116,80.308846,95.90673
"42628",590.51447,79.95972,95.56725
"42629",590.5278,79.47387,95.08015
"42630",590.5411,78.88548,94.47532
"42631",590.5544,78.23361,93.78862
"42632",590.5677,77.55489,93.0547
"42633",590.581,76.8835,92.3069
"42634",590.5943,76.23651,91.56252
"42635",590.6076,75.63592,90.84432
"42636",590.6209,75.09148,90.163506
"42637",590.6342,74.60807,89.52671
"42638",590.6475,74.18814,88.938286
"42639",590.6608,73.8439,88.41243
"42640",590.67413,73.57046,87.94661
"42641",590.68744,73.36294,87.53817
"42642",590.70074,73.21156,87.17939
"42643",590.71405,73.10414,86.85983
"42644",590.72736,73.02113,86.56133
"42645",590.74066,72.952774,86.27489
"42646",590.75397,72.8893,85.99119
"42647",590.7673,72.82582,85.705505
"42648",590.7806,72.76723,85.42272
"42649",590.7939,72.71351,85.14298
"42650",590.8072,72.672005,84.87378
"42651",590.8205,72.65247,84.625244
"42652",590.8338,72.66956,84.41272
"42653",590.8471,72.764786,84.27887
"42654",590.8604,73.057755,84.34574
"42655",590.8737,73.75845,84.8295
"42656",590.887,75.13786,86.01386
"42657",590.9003,77.36446,88.088524
"42658",590.91364,80.413826,91.05553
"42659",590.92694,84.0296,94.684235
"42660",590.94025,87.76013,98.54069
"42661",590.95355,91.08293,102.10599
"42662",590.96686,93.57809,104.94749
"42663",590.98016,95.04295,106.83667
"42664",590.99347,95.501945,107.765755
"42665",591.0068,95.12108,107.86932
"42666",591.0201,94.15671,107.37749
"42667",591.0334,92.87007,106.53325
"42668",591.0467,91.48821,105.55358
"42669",591.06,90.17227,104.59665
"42670",591.0733,88.9955,103.73776
"42671",591.0866,87.93591,102.95929
"42672",591.0999,86.92027,102.19165
"42673",591.1132,85.872894,101.36053
"42674",591.1265,84.7596,100.430756
"42675",591.13983,83.60723,99.427124
"42676",591.15314,82.50126,98.433876
"42677",591.16644,81.54665,97.557434
"42678",591.17975,80.831314,96.89043
"42679",591.19305,80.394295,96.479385
"42680",591.20636,80.19653,96.293945
"42681",591.21967,80.15991,96.263466
"42682",591.233,80.18921,96.29776
"42683",591.2463,80.18677,96.30123
"42684",591.2596,80.076904,96.197205
"42685",591.2729,79.823,95.9457
"42686",591.2862,79.42504,95.54221
"42687",591.2995,78.89769,94.996895
"42688",591.3128,78.27512,94.33988
"42689",591.3261,77.58663,93.59749
"42690",591.3394,76.86641,92.80185
"42691",591.3527,76.14862,91.98614
"42692",591.366,75.457695,91.17486
"42693",591.37933,74.82292,90.39814
"42694",591.39264,74.25895,89.672386
"42695",591.40594,73.76822,89.00225
"42696",591.41925,73.34829,88.38758
"42697",591.43256,72.99672,87.82815
"42698",591.44586,72.70374,87.31632
"42699",591.45917,72.464485,86.84906
"42700",591.4725,72.28382,86.43291
"42701",591.4858,72.15442,86.06238
"42702",591.4991,72.076294,85.739075
"42703",591.5124,72.03723,85.45239
"42704",591.5257,72.02991,85.19623
"42705",591.539,72.03967,84.956924
"42706",591.5523,72.05432,84.72281
"42707",591.5656,72.061646,84.48183
"42708",591.5789,72.05432,84.226425
"42709",591.5922,72.03723,83.96103
"42710",591.6055,72.01282,83.687775
"42711",591.61884,71.990845,83.4162
"42712",591.63214,71.98352,83.158585
"42713",591.64545,72.00305,82.9276
"42714",591.65875,72.112915,82.78755
"42715",591.67206,72.444954,82.87312
"42716",591.68536,73.22621,83.41829
"42717",591.69867,74.70817,84.68857
"42718",591.712,77.02266,86.83769
"42719",591.7253,80.093994,89.81599
"42720",591.7386,83.62432,93.34925
"42721",591.7519,87.14488,96.98307
"42722",591.7652,90.16495,100.22641
"42723",591.7785,92.31342,102.69254
"42724",591.7918,93.44869,104.21261
"42725",591.8051,93.63668,104.82087
"42726",591.8184,93.07027,104.6806
"42727",591.8317,91.99603,104.01482
"42728",591.84503,90.67033,103.06399
"42729",591.85834,89.305565,102.03268
"42730",591.87164,88.05066,101.06857
"42731",591.88495,86.95445,100.22395
"42732",591.89825,85.98276,99.46958
"42733",591.91156,85.05989,98.73367
"42734",591.92487,84.11505,97.94695
"42735",591.9382,83.12138,97.08188
"42736",591.9515,82.11307,96.171104
"42737",591.9648,81.1902,95.31427
"42738",591.9781,80.448006,94.60927
"42739",591.9914,79.94995,94.12521
"42740",592.0047,79.70336,93.87706
"42741",592.018,79.65942,93.823845
"42742",592.0313,79.73022,93.884
"42743",592.0446,79.815674,93.96103
"42744",592.0579,79.83032,93.96992
"42745",592.0712,79.72289,93.857185
"42746",592.08453,79.46166,93.587296
"42747",592.09784,79.05882,93.16763
"42748",592.11115,78.54368,92.62308
"42749",592.12445,77.95285,91.98674
"42750",592.13776,77.31808,91.287994
"42751",592.15106,76.67841,90.56452
"42752",592.16437,76.06317,89.84548
"42753",592.1777,75.48211,89.141396
"42754",592.191,74.95476,88.47286
"42755",592.2043,74.48844,87.848885
"42756",592.2176,74.07828,87.26649
"42757",592.2309,73.72671,86.729866
"42758",592.2442,73.4313,86.23842
"42759",592.2575,73.18959,85.79144
"42760",592.2708,72.99428,85.38331
"42761",592.2841,72.84535,85.01546
"42762",592.2974,72.740364,84.68689
"42763",592.3107,72.672005,84.39166
"42764",592.32404,72.6305,84.121155
"42765",592.33734,72.62562,83.88597
"42766",592.35065,72.65003,83.67993
"42767",592.36395,72.69886,83.49907
"42768",592.37726,72.76723,83.33928
"42769",592.39056,72.84047,83.1865
"42770",592.4039,72.91371,83.03601
"42771",592.4172,72.97475,82.8756
"42772",592.4305,73.01625,82.69757
"42773",592.4438,73.04555,82.50863
"42774",592.4571,73.06264,82.308395
"42775",592.4704,73.074844,82.10381
"42776",592.4837,73.08705,81.89961
"42777",592.497,73.12367,81.72021
"42778",592.5103,73.2018,81.58345
"42779",592.5236,73.38735,81.556564
"42780",592.5369,73.83658,81.79915
"42781",592.55023,74.80339,82.57336
"42782",592.56354,76.51484,84.12241
"42783",592.57684,79.03929,86.53796
"42784",592.59015,82.23758,89.70622
"42785",592.60345,85.73617,93.274734
"42786",592.61676,89.039444,96.75726
"42787",592.63007,91.66888,99.669174
"42788",592.6434,93.34371,101.708664
"42789",592.6567,94.01511,102.79705
"42790",592.67,93.81003,103.029945
"42791",592.6833,92.9482,102.59968
"42792",592.6966,91.66888,101.72499
"42793",592.7099,90.21622,100.636986
"42794",592.7232,88.77577,99.5158
"42795",592.7365,87.467155,98.48143
"42796",592.7498,86.327,97.57463
"42797",592.7631,85.330894,96.77624
"42798",592.7764,84.41291,96.02484
"42799",592.78973,83.52178,95.271614
"42800",592.80304,82.66239,94.52228
"42801",592.81635,81.88846,93.83154
"42802",592.82965,81.27566,93.277756
"42803",592.84296,80.88991,92.93187
"42804",592.85626,80.7483,92.81807
"42805",592.86957,80.82155,92.9147
"42806",592.8829,81.01442,93.13325
"42807",592.8962,81.22682,93.37735
"42808",592.9095,81.36599,93.554855
"42809",592.9228,81.37087,93.602425
"42810",592.9361,81.20729,93.48168
"42811",592.9494,80.88258,93.1947
"42812",592.9627,80.428474,92.76817
"42813",592.976,79.88403,92.23712
"42814",592.9893,79.29809,91.64755
"42815",593.0026,78.69749,91.02502
"42816",593.0159,78.1091,90.39593
"42817",593.02924,77.557335,89.78507
"42818",593.04254,77.049515,89.20092
"42819",593.05585,76.58564,88.644844
"42820",593.06915,76.16815,88.12066
"42821",593.08246,75.81171,87.64447
"42822",593.09576,75.51629,87.21817
"42823",593.1091,75.27947,86.84124
"42824",593.1224,75.0988,86.513054
"42825",593.1357,74.969406,86.2305
"42826",593.149,74.89372,85.99761
"42827",593.1623,74.85466,85.79898
"42828",593.1756,74.84245,85.625984
"42829",593.1889,74.84978,85.47214
"42830",593.2022,74.861984,85.3234
"42831",593.2155,74.86931,85.170166
"42832",593.2288,74.86687,85.00739
"42833",593.2421,74.86687,84.846985
"42834",593.25543,74.864426,84.684135
"42835",593.26874,74.864426,84.52365
"42836",593.28204,74.861984,84.360725
"42837",593.29535,74.87175,84.20993
"42838",593.30865,74.91325,84.09118
"42839",593.32196,75.06462,84.08359
"42840",593.33527,75.4992,84.36394
"42841",593.3486,76.456245,85.180336
"42842",593.3619,78.12131,86.73466
"42843",593.3752,80.52613,89.08077
"42844",593.3885,83.49493,92.06601
"42845",593.4018,86.659035,95.33933
"42846",593.4151,89.55703,98.44542
"42847",593.4284,91.77875,100.9658
"42848",593.4417,93.09224,102.64738
"42849",593.455,93.48043,103.4447
"42850",593.4683,93.067825,103.45336
"42851",593.4816,92.06683,102.86074
"42852",593.49493,90.70939,101.88039
"42853",593.50824,89.22499,100.73066
"42854",593.52155,87.784546,99.57849
"42855",593.53485,86.47837,98.51558
"42856",593.54816,85.32601,97.56567
"42857",593.56146,84.281075,96.687164
"42858",593.57477,83.31182,95.85169
"42859",593.5881,82.39628,95.03964
"42860",593.6014,81.583275,94.30152
"42861",593.6147,80.94362,93.71134
"42862",593.628,80.56031,93.35752
"42863",593.6413,80.45533,93.27005
"42864",593.6546,80.59449,93.42344
"42865",593.6679,80.89723,93.74476
"42866",593.6812,81.248795,94.12436
"42867",593.6945,81.54177,94.45636
"42868",593.7078,81.69558,94.65835
"42869",593.7211,81.67361,94.68936
"42870",593.73444,81.45876,94.52682
"42871",593.74774,81.07301,94.18665
"42872",593.76105,80.552986,93.70016
"42873",593.77435,79.957275,93.12173
"42874",593.78766,79.32494,92.48806
"42875",593.80096,78.69749,91.83951
"42876",593.8143,78.10422,91.205536
"42877",593.8276,77.56222,90.604294
"42878",593.8409,77.08125,90.04715
"42879",593.8542,76.66132,89.53601
"42880",593.8675,76.30732,89.077675
"42881",593.8808,76.016785,88.671745
"42882",593.8941,75.792175,88.32266
"42883",593.9074,75.61639,88.01538
"42884",593.9207,75.47723,87.739235
"42885",593.934,75.36248,87.483154
"42886",593.9473,75.267265,87.24302
"42887",593.96063,75.176926,87.00478
"42888",593.97394,75.10124,86.77838
"42889",593.98724,75.04753,86.57159
"42890",594.00055,75.00847,86.37776
"42891",594.01385,74.97673,86.19004
"42892",594.02716,74.94499,86.00133
"42893",594.04047,74.92302,85.82139
"42894",594.0538,74.9279,85.66762
"42895",594.0671,75.02312,85.60433
"42896",594.0804,75.35027,85.77596
"42897",594.0937,76.14862,86.42901
"42898",594.107,77.645226,87.80526
"42899",594.1203,79.9353,90.02175
"42900",594.1336,82.91875,93.003174
"42901",594.1469,86.28306,96.458694
"42902",594.1602,89.56924,99.941216
"42903",594.1735,92.3061,102.97712
"42904",594.1868,94.17136,105.226944
"42905",594.20013,95.064926,106.56337
"42906",594.21344,95.064926,107.03415
"42907",594.22675,94.35935,106.799355
"42908",594.24005,93.19234,106.08107
"42909",594.25336,91.80072,105.101715
"42910",594.26666,90.39689,104.06666
"42911",594.27997,89.11513,103.1098
"42912",594.2933,88.00183,102.28136
"42913",594.3066,87.02525,101.55484
"42914",594.3199,86.10239,100.85151
"42915",594.3332,85.16243,100.10225
"42916",594.3465,84.19562,99.29676
"42917",594.3598,83.25567,98.48792
"42918",594.3731,82.43046,97.76445
"42919",594.3864,81.81766,97.2276
"42920",594.3997,81.45632,96.923065
"42921",594.413,81.32937,96.84162
"42922",594.42633,81.36599,96.919785
"42923",594.43964,81.47585,97.072334
"42924",594.45294,81.5613,97.2039
"42925",594.46625,81.55398,97.24537
"42926",594.47955,81.40505,97.145004
"42927",594.49286,81.09743,96.88129
"42928",594.50616,80.64088,96.45903
"42929",594.5195,80.06958,95.90776
"42930",594.5328,79.4226,95.262955
"42931",594.5461,78.73899,94.5613
"42932",594.5594,78.05539,93.838295
"42933",594.5727,77.39864,93.12078
"42934",594.586,76.78096,92.42181
"42935",594.5993,76.21942,91.759674
"42936",594.6126,75.71404,91.136154
"42937",594.6259,75.27947,90.56765
"42938",594.6392,74.915695,90.05636
"42939",594.6525,74.62516,89.60694
"42940",594.66583,74.39811,89.21193
"42941",594.67914,74.229645,88.86841
"42942",594.69244,74.10269,88.561134
"42943",594.70575,74.005035,88.27919
"42944",594.71906,73.92691,88.013725
"42945",594.73236,73.86099,87.758026
"42946",594.74567,73.79019,87.495384
"42947",594.759,73.71694,87.22808
"42948",594.7723,73.63882,86.95361
"42949",594.7856,73.57534,86.69135
"42950",594.7989,73.52895,86.4442
"42951",594.8122,73.51186,86.22489
"42952",594.8255,73.5436,86.05388
"42953",594.8388,73.69741,86.00593
"42954",594.8521,74.141754,86.25332
"42955",594.8654,75.11833,87.04683
"42956",594.8787,76.8542,88.63015
"42957",594.892,79.4226,91.10024
"42958",594.90533,82.67216,94.33176
"42959",594.91864,86.24399,97.98709
"42960",594.93195,89.64248,101.5807
"42961",594.94525,92.40131,104.64087
"42962",594.95856,94.22751,106.85461
"42963",594.97186,95.05028,108.12199
"42964",594.98517,94.98192,108.52395
"42965",594.9985,94.24704,108.257256
"42966",595.0118,93.10933,107.564766
"42967",595.0251,91.81293,106.67803
"42968",595.0384,90.54337,105.77763
"42969",595.0517,89.3959,104.95964
"42970",595.065,88.38026,104.237625
"42971",595.0783,87.43542,103.55467
"42972",595.0916,86.48325,102.83487
"42973",595.1049,85.46761,102.02183
"42974",595.1182,84.3885,101.11357
"42975",595.13153,83.30938,100.17159
"42976",595.14484,82.33036,99.29599
"42977",595.15814,81.54665,98.585106
"42978",595.17145,81.01686,98.103645
"42979",595.18475,80.73365,97.85221
"42980",595.19806,80.64088,97.782364
"42981",595.21136,80.6482,97.809715
"42982",595.2247,80.655525,97.837296
"42983",595.238,80.57984,97.7821
"42984",595.2513,80.36744,97.587814
"42985",595.2646,80.008545,97.2404
"42986",595.2779,79.51293,96.745056
"42987",595.2912,78.91234,96.12924
"42988",595.3045,78.238495,95.42141
"42989",595.3178,77.5256,94.653465
"42990",595.3311,76.807816,93.85836
"42991",595.3444,76.104675,93.055466
"42992",595.3577,75.43816,92.26723
"42993",595.37103,74.830246,91.516754
"42994",595.38434,74.29557,90.820526
"42995",595.39764,73.83658,90.18327
"42996",595.41095,73.45815,89.61224
"42997",595.42426,73.15785,89.10751
"42998",595.43756,72.92592,88.661766
"42999",595.45087,72.75258,88.267365
"43000",595.4642,72.62806,87.91637
"43001",595.4775,72.54261,87.60054
"43002",595.4908,72.48646,87.31134
"43003",595.5041,72.444954,87.035034
"43004",595.5174,72.413216,86.7672
"43005",595.5307,72.38636,86.50325
"43006",595.544,72.34974,86.2287
"43007",595.5573,72.30579,85.94568
"43008",595.5706,72.25941,85.658844
"43009",595.5839,72.21301,85.37056
"43010",595.5972,72.17639,85.09059
"43011",595.61053,72.15686,84.82657
"43012",595.62384,72.183716,84.60832
"43013",595.63715,72.32777,84.50812
"43014",595.65045,72.762344,84.70294
"43015",595.66376,73.724266,85.43869
"43016",595.67706,75.4284,86.94671
"43017",595.69037,77.943085,89.318535
"43018",595.7037,81.12428,92.435455
"43019",595.717,84.613106,95.95941
"43020",595.7303,87.93347,99.423935
"43021",595.7436,90.616615,102.354996
"43022",595.7569,92.3769,104.44705
"43023",595.7702,93.153275,105.61021
"43024",595.7835,93.0605,105.928474
"43025",595.7968,92.30854,105.584656
"43026",595.8101,91.14885,104.80961
"43027",595.8234,89.82071,103.82987
"43028",595.83673,88.50721,102.82327
"43029",595.85004,87.31823,101.90015
"43030",595.86334,86.26841,101.079025
"43031",595.87665,85.30404,100.31054
"43032",595.88995,84.351875,99.524124
"43033",595.90326,83.36553,98.673775
"43034",595.91656,82.34257,97.75598
"43035",595.9299,81.358665,96.84528
"43036",595.9432,80.52125,96.05032
"43037",595.9565,79.90845,95.45381
"43038",595.9698,79.55688,95.09938
"43039",595.9831,79.429924,94.95858
"43040",595.9964,79.45922,94.97006
"43041",596.0097,79.554436,95.04838
"43042",596.023,79.62524,95.105255
"43043",596.0363,79.59594,95.06425
"43044",596.0496,79.4226,94.87828
"43045",596.0629,79.10033,94.537964
"43046",596.07623,78.643776,94.0533
"43047",596.08954,78.08469,93.45183
"43048",596.10284,77.467,92.77429
"43049",596.11615,76.824905,92.05304
"43050",596.12946,76.190125,91.31904
"43051",596.14276,75.58709,90.59695
"43052",596.15607,75.03288,89.90484
"43053",596.1694,74.53971,89.25645
"43054",596.1827,74.107574,88.65368
"43055",596.196,73.738914,88.10088
"43056",596.2093,73.43618,87.60249
"43057",596.2226,73.196915,87.15811
"43058",596.2359,73.01625,86.764854
"43059",596.2492,72.8893,86.41966
"43060",596.2625,72.813614,86.12177
"43061",596.2758,72.781876,85.86546
"43062",596.2891,72.78432,85.64234
"43063",596.3024,72.81117,85.44371
"43064",596.31573,72.86,85.26789
"43065",596.32904,72.91371,85.09848
"43066",596.34235,72.95766,84.92098
"43067",596.35565,72.98451,84.72777
"43068",596.36896,72.989395,84.51342
"43069",596.38226,72.98207,84.28702
"43070",596.39557,72.969864,84.055504
"43071",596.4089,72.9601,83.82605
"43072",596.4222,72.9601,83.60606
"43073",596.4355,72.98207,83.408035
"43074",596.4488,73.05043,83.25709
"43075",596.4621,73.22865,83.21814
"43076",596.4754,73.670555,83.44844
"43077",596.4887,74.61295,84.19305
"43078",596.502,76.265816,85.67757
"43079",596.5153,78.70237,87.99743
"43080",596.5286,81.795685,91.05019
"43081",596.54193,85.19661,94.50723
"43082",596.55524,88.4242,97.89722
"43083",596.56854,91.02922,100.76549
"43084",596.58185,92.7187,102.79963
"43085",596.59515,93.434044,103.91244
"43086",596.60846,93.280235,104.178444
"43087",596.62177,92.472115,103.78533
"43088",596.6351,91.26116,102.964134
"43089",596.6484,89.87686,101.93175
"43090",596.6617,88.50233,100.86587
"43091",596.675,87.24498,99.87422
"43092",596.6883,86.136566,98.99221
"43093",596.7016,85.12825,98.17566
"43094",596.7149,84.16144,97.3691
"43095",596.7282,83.194626,96.53233
"43096",596.7415,82.24979,95.687325
"43097",596.7548,81.40017,94.90801
"43098",596.7681,80.740974,94.29257
"43099",596.78143,80.33814,93.912895
"43100",596.79474,80.201416,93.786736
"43101",596.80804,80.274666,93.86628
"43102",596.82135,80.45777,94.05797
"43103",596.83466,80.65797,94.27247
"43104",596.84796,80.78737,94.42243
"43105",596.86127,80.7776,94.43727
"43106",596.8746,80.59693,94.2809
"43107",596.8879,80.255135,93.957756
"43108",596.9012,79.78638,93.49697
"43109",596.9145,79.22484,92.92876
"43110",596.9278,78.61204,92.29173
"43111",596.9411,77.98947,91.62579
"43112",596.9544,77.37911,90.95261
"43113",596.9677,76.79805,90.28964
"43114",596.981,76.263374,89.65491
"43115",596.9943,75.77997,89.05473
"43116",597.0076,75.36004,88.50293
"43117",597.02094,75.003586,88.00148
"43118",597.03424,74.70084,87.5426
"43119",597.04755,74.45182,87.12798
"43120",597.06085,74.26383,86.76662
"43121",597.07416,74.13443,86.45796
"43122",597.08746,74.05875,86.19898
"43123",597.10077,74.02457,85.97914
"43124",597.1141,74.02701,85.79485
"43125",597.1274,74.04654,85.62773
"43126",597.1407,74.073395,85.468544
"43127",597.154,74.10025,85.310196
"43128",597.1673,74.12222,85.147804
"43129",597.1806,74.12955,84.97145
"43130",597.1939,74.12222,84.78068
"43131",597.2072,74.1149,84.589676
"43132",597.2205,74.11978,84.41065
"43133",597.2338,74.141754,84.24887
"43134",597.24713,74.20767,84.13172
"43135",597.26044,74.41032,84.15336
"43136",597.27374,74.93767,84.506035
"43137",597.28705,76.02655,85.43672
"43138",597.30035,77.85031,87.136314
"43139",597.31366,80.413826,89.63265
"43140",597.32697,83.50225,92.73401
"43141",597.3403,86.71763,96.05883
"43142",597.3536,89.57168,99.1228
"43143",597.3669,91.683525,101.53377
"43144",597.3802,92.860306,103.07566
"43145",597.3935,93.102005,103.719246
"43146",597.4068,92.560005,103.586685
"43147",597.4201,91.46868,102.88786
"43148",597.4334,90.072174,101.849754
"43149",597.4467,88.585335,100.67767
"43150",597.46,87.16441,99.52504
"43151",597.4733,85.88022,98.46473
"43152",597.48663,84.72541,97.493675
"43153",597.49994,83.65606,96.57199
"43154",597.51324,82.6453,95.67548
"43155",597.52655,81.70779,94.82063
"43156",597.53986,80.90944,94.07565
"43157",597.55316,80.33814,93.532776
"43158",597.56647,80.059814,93.265015
"43159",597.5798,80.08423,93.2913
"43160",597.5931,80.34547,93.55517
"43161",597.6064,80.72877,93.949265
"43162",597.6197,81.10475,94.34802
"43163",597.633,81.3782,94.65599
"43164",597.6463,81.47341,94.79427
"43165",597.6596,81.358665,94.72557
"43166",597.6729,81.04616,94.45552
"43167",597.6862,80.5774,94.019455
"43168",597.6995,79.9939,93.453995
"43169",597.7128,79.35424,92.81415
"43170",597.72614,78.69993,92.139656
"43171",597.73944,78.07004,91.46914
"43172",597.75275,77.488976,90.82777
"43173",597.76605,76.96651,90.22683
"43174",597.77936,76.507515,89.67304
"43175",597.79266,76.11444,89.17083
"43176",597.80597,75.78485,88.71982
"43177",597.8193,75.51385,88.31709
"43178",597.8326,75.29168,87.954735
"43179",597.8459,75.12077,87.636696
"43180",597.8592,74.99138,87.35483
"43181",597.8725,74.88884,87.09577
"43182",597.8858,74.80339,86.8506
"43183",597.8991,74.73258,86.6174
"43184",597.9124,74.66178,86.381996
"43185",597.9257,74.59342,86.14682
"43186",597.939,74.53727,85.921715
"43187",597.95233,74.50065,85.714386
"43188",597.96564,74.486,85.527885
"43189",597.97894,74.510414,85.37999
"43190",597.99225,74.61051,85.30854
"43191",598.00555,74.91081,85.44042
"43192",598.01886,75.62371,85.994286
"43193",598.03217,76.981155,87.21497
"43194",598.0455,79.11253,89.252014
"43195",598.0588,81.95438,92.066124
"43196",598.0721,85.23079,95.40361
"43197",598.0854,88.497444,98.833725
"43198",598.0987,91.285576,101.887405
"43199",598.112,93.24605,104.200554
"43200",598.1253,94.23483,105.60328
"43201",598.1386,94.310524,106.12381
"43202",598.1519,93.65377,105.91426
"43203",598.1652,92.508736,105.19591
"43204",598.1785,91.1342,104.21227
"43205",598.19183,89.74746,103.17348
"43206",598.20514,88.49012,102.22075
"43207",598.21844,87.39147,101.38742
"43208",598.23175,86.41245,100.63939
"43209",598.24506,85.472496,99.89982
"43210",598.25836,84.505684,99.10402
"43211",598.27167,83.509575,98.24871
"43212",598.285,82.545204,97.39401
"43213",598.2983,81.71511,96.643456
"43214",598.3116,81.11696,96.0989
"43215",598.3249,80.80202,95.81886
"43216",598.3382,80.743416,95.785324
"43217",598.3515,80.85817,95.92331
"43218",598.3648,81.041275,96.13323
"43219",598.3781,81.1902,96.3147
"43220",598.3914,81.21706,96.378746
"43221",598.4047,81.08034,96.28006
"43222",598.418,80.7776,96.011086
"43223",598.43134,80.33082,95.5886
"43224",598.44464,79.76929,95.03741
"43225",598.45795,79.132065,94.392975
"43226",598.47125,78.45823,93.69202
"43227",598.48456,77.786835,92.97244
"43228",598.49786,77.14229,92.258736
"43229",598.51117,76.54902,91.576164
"43230",598.5245,76.019226,90.93853
"43231",598.5378,75.55779,90.3527
"43232",598.5511,75.16716,89.82325
"43233",598.5644,74.84245,89.34752
"43234",598.5777,74.5861,88.92999
"43235",598.591,74.38346,88.558174
"43236",598.6043,74.22232,88.22152
"43237",598.6176,74.090485,87.909134
"43238",598.6309,73.97574,87.60972
"43239",598.6442,73.87076,87.31648
"43240",598.65753,73.7731,87.02729
"43241",598.67084,73.68276,86.74236
"43242",598.68414,73.60464,86.46683
"43243",598.69745,73.55581,86.21815
"43244",598.71075,73.531395,85.992355
"43245",598.72406,73.531395,85.790215
"43246",598.73737,73.565575,85.62225
"43247",598.7507,73.69985,85.55546
"43248",598.764,74.06851,85.72724
"43249",598.7773,74.91814,86.39151
"43250",598.7906,76.48554,87.80011
"43251",598.8039,78.87572,90.08046
"43252",598.8172,81.97879,93.1484
"43253",598.8305,85.46517,96.69662
"43254",598.8438,88.86122,100.26345
"43255",598.8571,91.683525,103.36267
"43256",598.8704,93.60494,105.6492
"43257",598.8837,94.53025,106.999664
"43258",598.89703,94.554665,107.47815
"43259",598.91034,93.90036,107.27868
"43260",598.92365,92.83345,106.64616
"43261",598.93695,91.60052,105.81427
"43262",598.95026,90.38468,104.96095
"43263",598.96356,89.29092,104.19171
"43264",598.97687,88.32899,103.52013
"43265",598.9902,87.43786,102.88928
"43266",599.0035,86.52476,102.20862
"43267",599.0168,85.521324,101.40908
"43268",599.0301,84.422676,100.48297
"43269",599.0434,83.29473,99.49323
"43270",599.0567,82.2449,98.546364
"43271",599.07,81.392845,97.76446
"43272",599.0833,80.80934,97.22448
"43273",599.0966,80.49683,96.93726
"43274",599.1099,80.396736,96.85269
"43275",599.1232,80.41871,96.88706
"43276",599.13654,80.45289,96.934326
"43277",599.14984,80.413826,96.90942
"43278",599.16315,80.25269,96.761215
"43279",599.17645,79.94995,96.46637
"43280",599.18976,79.50317,96.01802
"43281",599.20306,78.941635,95.44096
"43282",599.2164,78.294655,94.76091
"43283",599.2297,77.60616,94.01913
"43284",599.243,76.90547,93.24363
"43285",599.2563,76.226746,92.4682
"43286",599.2696,75.596855,91.7204
"43287",599.2829,75.028,91.01395
"43288",599.2962,74.52262,90.353195
"43289",599.3095,74.092926,89.752335
"43290",599.3228,73.73159,89.206406
"43291",599.3361,73.43862,88.71755
"43292",599.3494,73.216446,88.29034
"43293",599.36273,73.05531,87.91722
"43294",599.37604,72.94301,87.5879
"43295",599.38934,72.86488,87.289246
"43296",599.40265,72.81117,87.012566
"43297",599.41595,72.76967,86.746414
"43298",599.42926,72.740364,86.491165
"43299",599.44257,72.71839,86.242325
"43300",599.4559,72.69642,85.9928
"43301",599.4692,72.674446,85.742584
"43302",599.4825,72.64759,85.4868
"43303",599.4958,72.61829,85.22774
"43304",599.5091,72.59144,84.9702
"43305",599.5224,72.59144,84.73868
"43306",599.5357,72.67933,84.59505
"43307",599.549,72.97475,84.6617
"43308",599.5623,73.67788,85.145294
"43309",599.5756,75.03288,86.302734
"43310",599.5889,77.19356,88.30819
"43311",599.60223,80.111084,91.138016
"43312",599.61554,83.51934,94.54974
"43313",599.62885,86.97887,98.11925
"43314",599.64215,90.003815,101.36228
"43315",599.65546,92.2182,103.88929
"43316",599.66876,93.45846,105.51137
"43317",599.68207,93.77829,106.25178
"43318",599.6954,93.37057,106.27463
"43319",599.7087,92.47944,105.80133
"43320",599.722,91.34417,105.056046
"43321",599.7353,90.17227,104.238655
"43322",599.7486,89.08827,103.47254
"43323",599.7619,88.1239,102.792175
"43324",599.7752,87.2401,102.16225
"43325",599.7885,86.3563,101.5047
"43326",599.8018,85.39681,100.74384
"43327",599.8151,84.34699,99.86267
"43328",599.8284,83.25567,98.90719
"43329",599.84174,82.21805,97.971306
"43330",599.85504,81.35378,97.17635
"43331",599.86835,80.73365,96.598526
"43332",599.88165,80.37476,96.262566
"43333",599.89496,80.23071,96.130226
"43334",599.90826,80.23071,96.137436
"43335",599.9216,80.272224,96.18616
"43336",599.9349,80.26002,96.18246
"43337",599.9482,80.12573,96.0563
"43338",599.9615,79.84985,95.78435
"43339",599.9748,79.429924,95.359726
"43340",599.9881,78.887924,94.79991
"43341",600.0014,78.27024,94.14748
"43342",600.0147,77.61837,93.44155
"43343",600.028,76.96651,92.71526
"43344",600.0413,76.32685,91.98081
"43345",600.0546,75.72381,91.262985
"43346",600.06793,75.174484,90.58003
"43347",600.08124,74.68864,89.94339
"43348",600.09454,74.26383,89.35261
"43349",600.10785,73.90494,88.81446
"43350",600.12115,73.59731,88.31637
"43351",600.13446,73.3312,87.850174
"43352",600.14777,73.10414,87.41472
"43353",600.1611,72.918594,87.01368
"43354",600.1744,72.781876,86.65567
"43355",600.1877,72.691536,86.33977
"43356",600.201,72.65003,86.06987
"43357",600.2143,72.64515,85.8353
"43358",600.2276,72.672005,85.63231
"43359",600.2409,72.71839,85.44969
"43360",600.2542,72.77455,85.278305
"43361",600.2675,72.8307,85.108665
"43362",600.2808,72.886856,84.94078
"43363",600.2941,72.92836,84.76
"43364",600.30743,72.94545,84.55611
"43365",600.32074,72.92836,84.318565
"43366",600.33405,72.886856,84.056076
"43367",600.34735,72.82582,83.77276
"43368",600.36066,72.75746,83.48021
"43369",600.37396,72.7013,83.19772
"43370",600.38727,72.68177,82.9501
"43371",600.4006,72.74525,82.78488
"43372",600.4139,73.02113,82.83406
"43373",600.4272,73.738914,83.333755
"43374",600.4405,75.15251,84.5517
"43375",600.4538,77.40353,86.65123
"43376",600.4671,80.42359,89.59016
"43377",600.4804,83.92218,93.10198
"43378",600.4937,87.432976,96.735344
"43379",600.507,90.457924,99.99257
"43380",600.5203,92.613716,102.475174
"43381",600.5336,93.7612,104.01684
"43382",600.54694,93.97116,104.65684
"43383",600.56024,93.44869,104.57097
"43384",600.57355,92.45014,103.99269
"43385",600.58685,91.229416,103.16103
"43386",600.60016,89.99649,102.27903
"43387",600.61346,88.868546,101.46348
"43388",600.6268,87.87732,100.74939
"43389",600.6401,86.97398,100.092224
"43390",600.6534,86.082855,99.41903
"43391",600.6667,85.13313,98.65939
"43392",600.68,84.105286,97.791954
"43393",600.6933,83.0457,96.86066
"43394",600.7066,82.054474,95.96461
"43395",600.7199,81.24635,95.22069
"43396",600.7332,80.69703,94.71031
"43397",600.7465,80.40894,94.44401
"43398",600.7598,80.33082,94.37866
"43399",600.77313,80.37232,94.430504
"43400",600.78644,80.44312,94.51294
"43401",600.79974,80.44312,94.52679
"43402",600.81305,80.323494,94.421005
"43403",600.82635,80.0647,94.17232
"43404",600.83966,79.66674,93.77638
"43405",600.85297,79.14671,93.24594
"43406",600.8663,78.54368,92.61624
"43407",600.8796,77.891815,91.91887
"43408",600.8929,77.21309,91.17426
"43409",600.9062,76.52949,90.40357
"43410",600.9195,75.860535,89.62617
"43411",600.9328,75.23064,88.86691
"43412",600.9461,74.65446,88.14169
"43413",600.9594,74.144196,87.464386
"43414",600.9727,73.70718,86.844376
"43415",600.986,73.34341,86.28396
"43416",600.9993,73.0309,85.763435
"43417",601.01263,72.75746,85.27222
"43418",601.02594,72.52552,84.81395
"43419",601.03925,72.33265,84.3875
"43420",601.05255,72.18616,84.0014
"43421",601.06586,72.09338,83.664444
"43422",601.07916,72.05676,83.38074
"43423",601.09247,72.06897,83.144714
"43424",601.1058,72.11536,82.94325
"43425",601.1191,72.17883,82.76033
"43426",601.1324,72.23987,82.57695
"43427",601.1457,72.28626,82.380844
"43428",601.159,72.308235,82.16176
"43429",601.1723,72.31068,81.92383
"43430",601.1856,72.29359,81.66644
"43431",601.1989,72.26673,81.39876
"43432",601.2122,72.23987,81.13023
"43433",601.2255,72.217896,80.86575
"43434",601.23883,72.217896,80.62256
"43435",601.25214,72.254524,80.416
"43436",601.26544,72.36927,80.2887
"43437",601.27875,72.65736,80.33832
"43438",601.29205,73.3312,80.7827
"43439",601.30536,74.63737,81.88047
"43440",601.31866,76.72968,83.80521
"43441",601.332,79.586174,86.5595
"43442",601.3453,82.95293,89.91332
"43443",601.3586,86.397804,93.45048
"43444",601.3719,89.41543,96.66803
"43445",601.3852,91.62249,99.16933
"43446",601.3985,92.85542,100.765465
"43447",601.4118,93.15816,101.46993
"43448",601.4251,92.71137,101.43434
"43449",601.4384,91.7641,100.8843
"43450",601.4517,90.55558,100.04341
"43451",601.465,89.30068,99.11838
"43452",601.47833,88.13611,98.24445
"43453",601.49164,87.10826,97.470856
"43454",601.50494,86.187836,96.77256
"43455",601.51825,85.30648,96.08457
"43456",601.53156,84.40559,95.3495
"43457",601.54486,83.47784,94.559425
"43458",601.55817,82.579384,93.76965
"43459",601.5715,81.80057,93.07144
"43460",601.5848,81.24147,92.56861
"43461",601.5981,80.955826,92.32176
"43462",601.6114,80.92653,92.322334
"43463",601.6247,81.075455,92.50021
"43464",601.638,81.30007,92.75844
"43465",601.6513,81.4905,92.989494
"43466",601.6646,81.5613,93.10687
"43467",601.6779,81.46609,93.06045
"43468",601.6912,81.197525,92.8377
"43469",601.7045,80.77028,92.447876
"43470",601.71783,80.233154,91.93482
"43471",601.73114,79.63012,91.33907
"43472",601.74445,78.99779,90.69518
"43473",601.75775,78.37034,90.036415
"43474",601.77106,77.769745,89.384895
"43475",601.78436,77.21065,88.7561
"43476",601.79767,76.70771,88.166
"43477",601.811,76.265816,87.62122
"43478",601.8243,75.89227,87.13099
"43479",601.8376,75.58709,86.69744
"43480",601.8509,75.352715,86.325165
"43481",601.8642,75.176926,86.00415
"43482",601.8775,75.05974,85.736244
"43483",601.8908,74.986496,85.50862
"43484",601.9041,74.95476,85.32021
"43485",601.9174,74.94499,85.15279
"43486",601.9307,74.949875,84.9997
"43487",601.94403,74.95964,84.851654
"43488",601.95734,74.97917,84.71368
"43489",601.97064,74.99626,84.57387
"43490",601.98395,75.00847,84.42971
"43491",601.99725,75.01579,84.28105
"43492",602.01056,75.018234,84.12774
"43493",602.02386,75.01579,83.96962
"43494",602.0372,75.018234,83.81631
"43495",602.0505,75.04753,83.689926
"43496",602.0638,75.176926,83.66456
"43497",602.0771,75.545586,83.8825
"43498",602.0904,76.383,84.58072
"43499",602.1037,77.87717,85.96185
"43500",602.117,80.08179,88.100136
"43501",602.1303,82.865036,90.88594
"43502",602.1436,85.90219,94.01263
"43503",602.1569,88.75624,97.05112
"43504",602.1702,91.01213,99.58064
"43505",602.18353,92.41596,101.328606
"43506",602.19684,92.92134,102.221985
"43507",602.21014,92.647896,102.35233
"43508",602.22345,91.810486,101.91017
"43509",602.23676,90.65324,101.122
"43510",602.25006,89.391014,100.192696
"43511",602.26337,88.18005,99.27521
"43512",602.2767,87.096054,98.44684
"43513",602.29,86.134125,97.70666
"43514",602.3033,85.23811,97.002335
"43515",602.3166,84.351875,96.279785
"43516",602.3299,83.46075,95.52465
"43517",602.3432,82.60136,94.77341
"43518",602.3565,81.85184,94.10518
"43519",602.3698,81.31228,93.62349
"43520",602.3831,81.03639,93.38861
"43521",602.3964,81.01442,93.399025
"43522",602.4097,81.17555,93.59186
"43523",602.42303,81.41238,93.86542
"43524",602.43634,81.61013,94.10731
"43525",602.44965,81.69558,94.24307
"43526",602.46295,81.617455,94.21793
"43527",602.47626,81.36599,94.01701
"43528",602.48956,80.96071,93.65442
"43529",602.50287,80.445564,93.1693
"43530",602.5162,79.8645,92.60216
"43531",602.5295,79.26147,91.99489
"43532",602.5428,78.658424,91.36877
"43533",602.5561,78.08957,90.75799
"43534",602.5694,77.5671,90.17582
"43535",602.5827,77.08858,89.62127
"43536",602.596,76.65888,89.10059
"43537",602.6093,76.28535,88.62265
"43538",602.6226,75.96307,88.184296
"43539",602.6359,75.69695,87.79202
"43540",602.64923,75.48211,87.44271
"43541",602.66254,75.318535,87.137955
"43542",602.67584,75.20378,86.87691
"43543",602.68915,75.1281,86.651344
"43544",602.70245,75.089035,86.46004
"43545",602.71576,75.071945,86.28948
"43546",602.72906,75.06462,86.12816
"43547",602.7424,75.0573,85.966606
"43548",602.7557,75.04997,85.804825
"43549",602.769,75.035324,85.63549
"43550",602.7823,75.01335,85.458374
"43551",602.7956,74.97673,85.26592
"43552",602.8089,74.9279,85.06012
"43553",602.8222,74.879074,84.85279
"43554",602.8355,74.85222,84.66591
"43555",602.8488,74.896164,84.54899
"43556",602.8621,75.15251,84.64584
"43557",602.8754,75.843445,85.185295
"43558",602.88873,77.19356,86.40552
"43559",602.90204,79.3225,88.44676
"43560",602.91534,82.15457,91.25766
"43561",602.92865,85.4139,94.58432
"43562",602.94196,88.66346,98.00306
"43563",602.95526,91.44427,101.054596
"43564",602.96857,93.42184,103.3898
"43565",602.9819,94.48142,104.86882
"43566",602.9952,94.67918,105.51912
"43567",603.0085,94.205536,105.5042
"43568",603.0218,93.28756,105.03015
"43569",603.0351,92.157166,104.314995
"43570",603.0484,91.00725,103.54499
"43571",603.0617,89.9501,102.831825
"43572",603.075,89.01991,102.21258
"43573",603.0883,88.17517,101.649704
"43574",603.1016,87.33776,101.067764
"43575",603.1149,86.434425,100.39374
"43576",603.12823,85.44808,99.60847
"43577",603.14154,84.420235,98.75087
"43578",603.15485,83.44366,97.91242
"43579",603.16815,82.61845,97.194824
"43580",603.18146,82.01785,96.676056
"43581",603.19476,81.65652,96.37778
"43582",603.20807,81.495384,96.26841
"43583",603.2214,81.45144,96.271194
"43584",603.2347,81.43435,96.29946
"43585",603.248,81.36355,96.27348
"43586",603.2613,81.18288,96.13542
"43587",603.2746,80.86305,95.85256
"43588",603.2879,80.413826,95.430305
"43589",603.3012,79.85962,94.88903
"43590",603.3145,79.234604,94.25963
"43591",603.3278,78.56809,93.5692
"43592",603.3411,77.88937,92.84573
"43593",603.35443,77.23018,92.12058
"43594",603.36774,76.60761,91.41146
"43595",603.38104,76.04364,90.74148
"43596",603.39435,75.543144,90.11735
"43597",603.40765,75.106125,89.54105
"43598",603.42096,74.7277,89.0097
"43599",603.43427,74.407875,88.525116
"43600",603.4476,74.13443,88.07692
"43601",603.4609,73.91226,87.671455
"43602",603.4742,73.73647,87.30543
"43603",603.4875,73.61196,86.98518
"43604",603.5008,73.54116,86.71476
"43605",603.5141,73.51919,86.49095
"43606",603.5274,73.531395,86.30064
"43607",603.5407,73.568016,86.13512
"43608",603.554,73.616844,85.98295
"43609",603.5673,73.670555,85.83719
"43610",603.5806,73.7145,85.68334
"43611",603.59393,73.73647,85.508896
"43612",603.60724,73.73647,85.31316
"43613",603.62054,73.7145,85.09546
"43614",603.63385,73.67544,84.85998
"43615",603.64716,73.62173,84.60863
"43616",603.66046,73.565575,84.35316
"43617",603.67377,73.52651,84.11302
"43618",603.6871,73.52895,83.91317
"43619",603.7004,73.66567,83.84767
"43620",603.7137,74.11978,84.103836
"43621",603.727,75.142746,84.94305
"43622",603.7403,76.93233,86.58084
"43623",603.7536,79.5227,89.07535
"43624",603.7669,82.738075,92.27581
"43625",603.7802,86.21225,95.83555
"43626",603.7935,89.47402,99.29145
"43627",603.8068,92.09125,102.20474
"43628",603.8201,93.81491,104.30626
"43629",603.83344,94.605934,105.529
"43630",603.84674,94.58152,105.96102
"43631",603.86005,93.95163,105.786804
"43632",603.87335,92.96773,105.23889
"43633",603.88666,91.84711,104.52351
"43634",603.89996,90.74357,103.7902
"43635",603.91327,89.73769,103.12006
"43636",603.9266,88.8246,102.51128
"43637",603.9399,87.94324,101.905685
"43638",603.9532,87.01793,101.22861
"43639",603.9665,86.00961,100.4396
"43640",603.9798,84.9305,99.54828
"43641",603.9931,83.85138,98.62324
"43642",604.0064,82.87724,97.769455
"43643",604.0197,82.108185,97.09031
"43644",604.033,81.59304,96.641045
"43645",604.0463,81.31228,96.410065
"43646",604.05963,81.20241,96.3412
"43647",604.07294,81.17067,96.34704
"43648",604.08624,81.126724,96.339676
"43649",604.09955,80.99977,96.24793
"43650",604.11285,80.76051,96.03992
"43651",604.12616,80.38941,95.69258
"43652",604.13947,79.903564,95.2189
"43653",604.1528,79.31762,94.629944
"43654",604.1661,78.66575,93.95675
"43655",604.1794,77.97482,93.22413
"43656",604.1927,77.27413,92.46015
"43657",604.206,76.59052,91.69136
"43658",604.2193,75.9411,90.935394
"43659",604.2326,75.34295,90.2104
"43660",604.2459,74.80583,89.527756
"43661",604.2592,74.32975,88.88936
"43662",604.2725,73.917145,88.29956
"43663",604.2858,73.56313,87.75546
"43664",604.29913,73.2604,87.25158
"43665",604.31244,73.006485,86.787056
"43666",604.32574,72.80629,86.36832
"43667",604.33905,72.6598,85.997025
"43668",604.35236,72.569466,85.67731
"43669",604.36566,72.535286,85.41092
"43670",604.37897,72.55482,85.197174
"43671",604.3923,72.61341,85.0231
"43672",604.4056,72.69642,84.875275
"43673",604.4189,72.78432,84.73494
"43674",604.4322,72.86244,84.58758
"43675",604.4455,72.921036,84.42313
"43676",604.4588,72.94301,84.223885
"43677",604.4721,72.9308,83.99115
"43678",604.4854,72.89174,83.73118
"43679",604.4987,72.84779,83.4651
"43680",604.512,72.81117,83.20498
"43681",604.5253,72.7892,82.95836
"43682",604.53864,72.79164,82.735466
"43683",604.55194,72.83803,82.556595
"43684",604.56525,73.01381,82.50857
"43685",604.57855,73.497215,82.77366
"43686",604.59186,74.53483,83.60806
"43687",604.60516,76.32929,85.23174
"43688",604.61847,78.93187,87.71961
"43689",604.6318,82.16678,90.92114
"43690",604.6451,85.662926,94.485
"43691",604.6584,88.94667,97.94571
"43692",604.6717,91.58343,100.862045
"43693",604.685,93.32174,102.96234
"43694",604.6983,94.11032,104.16723
"43695",604.7116,94.06149,104.55935
"43696",604.7249,93.385216,104.322495
"43697",604.7382,92.315865,103.67143
"43698",604.7515,91.06828,102.80872
"43699",604.76483,89.82071,101.907036
"43700",604.77814,88.66834,101.06157
"43701",604.79144,87.620964,100.28508
"43702",604.80475,86.63218,99.534454
"43703",604.81805,85.645836,98.75536
"43704",604.83136,84.62287,97.90883
"43705",604.84467,83.58282,97.01324
"43706",604.858,82.60136,96.14374
"43707",604.8713,81.778595,95.40227
"43708",604.8846,81.18532,94.86457
"43709",604.8979,80.848404,94.5647
"43710",604.9112,80.73121,94.474014
"43711",604.9245,80.76051,94.52617
"43712",604.9378,80.84352,94.63294
"43713",604.9511,80.89479,94.71057
"43714",604.9644,80.84596,94.689705
"43715",604.9777,80.66041,94.53059
"43716",604.991,80.33814,94.22896
"43717",605.00433,79.90112,93.802505
"43718",605.01764,79.37133,93.26962
"43719",605.03094,78.78294,92.66159
"43720",605.04425,78.16525,92.00587
"43721",605.05756,77.53048,91.31376
"43722",605.07086,76.90303,90.60914
"43723",605.08417,76.30732,89.91665
"43724",605.0975,75.76288,89.25681
"43725",605.1108,75.27459,88.636116
"43726",605.1241,74.84978,88.06364
"43727",605.1374,74.493324,87.54624
"43728",605.1507,74.20279,87.083626
"43729",605.164,73.98062,86.6803
"43730",605.1773,73.82193,86.3335
"43731",605.1906,73.71694,86.03545
"43732",605.2039,73.653465,85.775635
"43733",605.2172,73.6144,85.538246
"43734",605.2305,73.58999,85.314285
"43735",605.24384,73.57778,85.10177
"43736",605.25714,73.57534,84.898636
"43737",605.27045,73.57534,84.69787
"43738",605.28375,73.57778,84.49954
"43739",605.29706,73.58755,84.30862
"43740",605.31036,73.59731,84.118
"43741",605.32367,73.60952,83.93012
"43742",605.337,73.63149,83.752396
"43743",605.3503,73.69741,83.6193
"43744",605.3636,73.88541,83.610344
"43745",605.3769,74.36637,83.90023
"43746",605.3902,75.36004,84.71785
"43747",605.4035,77.04219,86.255005
"43748",605.4168,79.447014,88.5674
"43749",605.4301,82.41337,91.51647
"43750",605.4434,85.60189,94.78041
"43751",605.4567,88.585335,97.93891
"43752",605.47003,90.9633,100.585175
"43753",605.48334,92.49409,102.458565
"43754",605.49664,93.1313,103.48622
"43755",605.50995,92.9604,103.72568
"43756",605.52325,92.17914,103.34943
"43757",605.53656,91.00969,102.56058
"43758",605.54987,89.671776,101.56672
"43759",605.5632,88.33387,100.53106
"43760",605.5765,87.081406,99.53903
"43761",605.5898,85.924164,98.60308
"43762",605.6031,84.82063,97.68468
"43763",605.6164,83.74639,96.76108
"43764",605.6297,82.70878,95.84054
"43765",605.643,81.76883,94.98524
"43766",605.6563,81.00954,94.28122
"43767",605.6696,80.50904,93.81227
"43768",605.6829,80.29908,93.61822
"43769",605.6962,80.343025,93.67151
"43770",605.70953,80.54566,93.884865
"43771",605.72284,80.8069,94.163155
"43772",605.73615,81.03151,94.41298
"43773",605.74945,81.13893,94.552635
"43774",605.76276,81.08034,94.52963
"43775",605.77606,80.850845,94.3339
"43776",605.78937,80.465096,93.97474
"43777",605.8027,79.957275,93.48145
"43778",605.816,79.364006,92.88685
"43779",605.8293,78.73411,92.237076
"43780",605.8426,78.10422,91.56763
"43781",605.8559,77.50118,90.90535
"43782",605.8692,76.93477,90.26085
"43783",605.8825,76.422066,89.65236
"43784",605.8958,75.9704,89.08888
"43785",605.9091,75.57488,88.567444
"43786",605.9224,75.24284,88.09712
"43787",605.9357,74.966965,87.672585
"43788",605.94904,74.737465,87.285805
"43789",605.96234,74.54459,86.92848
"43790",605.97565,74.3859,86.59931
"43791",605.98895,74.25407,86.29204
"43792",606.00226,74.144196,86.00261
"43793",606.01556,74.04898,85.7244
"43794",606.0289,73.968414,85.45787
"43795",606.0422,73.89761,85.198586
"43796",606.0555,73.84146,84.95174
"43797",606.0688,73.80484,84.722664
"43798",606.0821,73.797516,84.52174
"43799",606.0954,73.86099,84.391396
"43800",606.1087,74.10513,84.443695
"43801",606.122,74.72526,84.87961
"43802",606.1353,75.9411,85.93062
"43803",606.1486,77.90402,87.7667
"43804",606.1619,80.59693,90.39411
"43805",606.17523,83.790344,93.60618
"43806",606.18854,87.10338,97.03766
"43807",606.20184,90.08438,100.24064
"43808",606.21515,92.36225,102.83365
"43809",606.22845,93.73434,104.59206
"43810",606.24176,94.19333,105.48025
"43811",606.25507,93.86862,105.59908
"43812",606.2684,92.97749,105.14135
"43813",606.2817,91.75922,104.32862
"43814",606.295,90.443275,103.38016
"43815",606.3083,89.181046,102.44428
"43816",606.3216,88.04578,101.59592
"43817",606.3349,87.01549,100.81706
"43818",606.3482,86.0267,100.04751
"43819",606.3615,85.01106,99.2202
"43820",606.3748,83.949036,98.314766
"43821",606.3881,82.879684,97.36882
"43822",606.4014,81.898224,96.47735
"43823",606.41473,81.10475,95.743195
"43824",606.42804,80.567635,95.2406
"43825",606.44135,80.289314,94.98002
"43826",606.45465,80.216064,94.91581
"43827",606.46796,80.26734,94.97384
"43828",606.48126,80.34791,95.06276
"43829",606.49457,80.37232,95.098045
"43830",606.5079,80.28199,95.01935
"43831",606.5212,80.05737,94.80354
"43832",606.5345,79.68627,94.434235
"43833",606.5478,79.19066,93.92882
"43834",606.5611,78.59983,93.3127
"43835",606.5744,77.962616,92.63173
"43836",606.5877,77.30831,91.91376
"43837",606.601,76.66865,91.18998
"43838",606.6143,76.06317,90.4804
"43839",606.6276,75.508965,89.80317
"43840",606.6409,75.01335,89.16721
"43841",606.65424,74.58366,88.58169
"43842",606.66754,74.21744,88.04621
"43843",606.68085,73.9147,87.562775
"43844",606.69415,73.673,87.130905
"43845",606.70746,73.49233,86.752525
"43846",606.72076,73.36294,86.41977
"43847",606.7341,73.27505,86.12447
"43848",606.7474,73.22377,85.863045
"43849",606.7607,73.196915,85.624435
"43850",606.774,73.18471,85.399635
"43851",606.7873,73.18227,85.18422
"43852",606.8006,73.18471,84.97361
"43853",606.8139,73.18227,84.758194
"43854",606.8272,73.17738,84.54026
"43855",606.8405,73.16762,84.31729
"43856",606.8538,73.16518,84.10134
"43857",606.8671,73.18227,83.90485
"43858",606.88043,73.25063,83.76016
"43859",606.89374,73.47036,83.768974
"43860",606.90704,74.02945,84.124016
"43861",606.92035,75.176926,85.084915
"43862",606.93365,77.0959,86.85317
"43863",606.94696,79.818115,89.484634
"43864",606.96027,83.158005,92.81884
"43865",606.9736,86.72495,96.484474
"43866",606.9869,90.037994,100.00767
"43867",607.0002,92.66987,102.95323
"43868",607.0135,94.37644,105.05574
"43869",607.0268,95.12352,106.25208
"43870",607.0401,95.03807,106.639244
"43871",607.0534,94.3447,106.41582
"43872",607.0667,93.29244,105.81183
"43873",607.08,92.10834,105.04311
"43874",607.0933,90.95842,104.27158
"43875",607.1066,89.918365,103.57398
"43876",607.11993,88.97841,102.94398
"43877",607.13324,88.07019,102.31633
"43878",607.14655,87.10582,101.60416
"43879",607.15985,86.03647,100.75686
"43880",607.17316,84.88167,99.790695
"43881",607.18646,83.719536,98.78111
"43882",607.19977,82.65995,97.83776
"43883",607.2131,81.815216,97.07615
"43884",607.2264,81.24147,96.55913
"43885",607.2397,80.921646,96.2781
"43886",607.253,80.79225,96.177505
"43887",607.2663,80.76051,96.170525
"43888",607.2796,80.72877,96.162544
"43889",607.2929,80.621346,96.077896
"43890",607.3062,80.39185,95.86782
"43891",607.3195,80.028076,95.51629
"43892",607.3328,79.54467,95.03376
"43893",607.3461,78.96361,94.43847
"43894",607.35944,78.31907,93.76154
"43895",607.37274,77.64034,93.03029
"43896",607.38605,76.95918,92.27539
"43897",607.39935,76.30244,91.52362
"43898",607.41266,75.68719,90.79282
"43899",607.42596,75.13054,90.1014
"43900",607.4393,74.63737,89.45606
"43901",607.4526,74.20767,88.85879
"43902",607.4659,73.831696,88.3018
"43903",607.4792,73.51186,87.789215
"43904",607.4925,73.24574,87.32034
"43905",607.5058,73.03578,86.899315
"43906",607.5191,72.884415,86.53032
"43907",607.5324,72.80141,86.22495
"43908",607.5457,72.77455,85.973145
"43909",607.559,72.7892,85.762
"43910",607.5723,72.82582,85.57329
"43911",607.58563,72.87465,85.39793
"43912",607.59894,72.921036,85.22165
"43913",607.61224,72.952774,85.03217
"43914",607.62555,72.9601,84.819275
"43915",607.63885,72.95033,84.589516
"43916",607.65216,72.92836,84.347244
"43917",607.66547,72.886856,84.084755
"43918",607.6788,72.84535,83.82097
"43919",607.6921,72.8307,83.58274
"43920",607.7054,72.86488,83.39288
"43921",607.7187,73.01869,83.32372
"43922",607.732,73.45815,83.54502
"43923",607.7453,74.42985,84.31229
"43924",607.7586,76.14618,85.85455
"43925",607.7719,78.68772,88.275665
"43926",607.7852,81.917755,91.46469
"43927",607.7985,85.504234,95.1111
"43928",607.8118,88.95888,98.73775
"43929",607.82513,91.82025,101.87909
"43930",607.83844,93.78317,104.211395
"43931",607.85175,94.769516,105.62846
"43932",607.86505,94.872055,106.19255
"43933",607.87836,94.293434,106.07868
"43934",607.89166,93.277794,105.50971
"43935",607.90497,92.069275,104.716125
"43936",607.9183,90.85832,103.88234
"43937",607.9316,89.74502,103.10836
"43938",607.9449,88.73914,102.40702
"43939",607.9582,87.78943,101.73041
"43940",607.9715,86.803085,100.98749
"43941",607.9848,85.72884,100.12584
"43942",607.9981,84.58137,99.15739
"43943",608.0114,83.441216,98.1604
"43944",608.0247,82.406044,97.232765
"43945",608.038,81.58083,96.48274
"43946",608.05133,81.024185,95.975494
"43947",608.06464,80.726326,95.70964
"43948",608.07794,80.62623,95.63224
"43949",608.09125,80.635994,95.661575
"43950",608.10455,80.66041,95.705864
"43951",608.11786,80.61646,95.682556
"43952",608.13116,80.44312,95.52848
"43953",608.1445,80.12085,95.220055
"43954",608.1578,79.66918,94.77216
"43955",608.1711,79.10765,94.200294
"43956",608.1844,78.467995,93.53275
"43957",608.1977,77.79172,92.8086
"43958",608.211,77.10811,92.055984
"43959",608.2243,76.44404,91.301544
"43960",608.2376,75.82391,90.5703
"43961",608.2509,75.25994,89.875824
"43962",608.2642,74.76189,89.229645
"43963",608.2775,74.32975,88.63382
"43964",608.29083,73.95865,88.085526
"43965",608.30414,73.651024,87.58911
"43966",608.31744,73.39956,87.139244
"43967",608.33075,73.20424,86.73766
"43968",608.34406,73.06264,86.3837
"43969",608.35736,72.97719,86.08146
"43970",608.37067,72.938126,85.82294
"43971",608.384,72.94301,85.60714
"43972",608.3973,72.969864,85.41347
"43973",608.4106,73.01625,85.240166
"43974",608.4239,73.0724,85.07808
"43975",608.4372,73.131,84.92019
"43976",608.4505,73.17494,84.74948
"43977",608.4638,73.196915,84.558174
"43978",608.4771,73.196915,84.34558
"43979",608.4904,73.17006,84.10613
"43980",608.5037,73.11879,83.84143
"43981",608.517,73.05043,83.55804
"43982",608.53033,73.0016,83.29204
"43983",608.54364,73.01137,83.08311
"43984",608.55695,73.16762,83.020966
"43985",608.57025,73.636375,83.276215
"43986",608.58356,74.65934,84.10032
"43987",608.59686,76.439156,85.71324
"43988",608.61017,79.04173,88.204544
"43989",608.6235,82.320595,91.45346
"43990",608.6368,85.93637,95.141754
"43991",608.6501,89.41543,98.80632
"43992",608.6634,92.29389,101.97902
"43993",608.6767,94.261696,104.33101
"43994",608.69,95.23094,105.74593
"43995",608.7033,95.277336,106.268295
"43996",608.7166,94.60349,106.07187
"43997",608.7299,93.45846,105.383194
"43998",608.7432,92.09369,104.439
"43999",608.75653,90.704506,103.42775
"44000",608.76984,89.408104,102.465866
"44001",608.78314,88.23132,101.58309
"44002",608.79645,87.132675,100.74167
"44003",608.80975,86.048676,99.88056
"44004",608.82306,84.947586,98.96849
"44005",608.83636,83.84894,98.02445
"44006",608.8497,82.8333,97.12909
"44007",608.863,81.991,96.37533
"44008",608.8763,81.3904,95.83695
"44009",608.8896,81.058365,95.54836
"44010",608.9029,80.95827,95.48134
"44011",608.9162,81.01442,95.56744
"44012",608.9295,81.12428,95.709
"44013",608.9428,81.19508,95.81493
"44014",608.9561,81.160904,95.8181
"44015",608.9694,80.972916,95.66639
"44016",608.9827,80.62623,95.350105
"44017",608.99603,80.13306,94.8765
"44018",609.00934,79.52758,94.275185
"44019",609.02264,78.84886,93.5817
"44020",609.03595,78.14572,92.84259
"44021",609.04926,77.454796,92.09372
"44022",609.06256,76.79561,91.354996
"44023",609.07587,76.18768,90.646935
"44024",609.0892,75.63836,89.97848
"44025",609.1025,75.15007,89.35389
"44026",609.1158,74.7277,88.77996
"44027",609.1291,74.38102,88.268524
"44028",609.1424,74.11246,87.82437
"44029",609.1557,73.92203,87.44996
"44030",609.169,73.78775,87.12575
"44031",609.1823,73.69497,86.83884
"44032",609.1956,73.62905,86.57589
"44033",609.2089,73.58022,86.32797
"44034",609.2222,73.54116,86.088295
"44035",609.23553,73.50942,85.85472
"44036",609.24884,73.48257,85.62504
"44037",609.26215,73.460594,85.3994
"44038",609.27545,73.45083,85.18528
"44039",609.28876,73.45815,84.987946
"44040",609.30206,73.49233,84.817696
"44041",609.31537,73.56313,84.685135
"44042",609.3287,73.69985,84.620705
"44043",609.342,73.99039,84.71436
"44044",609.3553,74.60807,85.14425
"44045",609.3686,75.772644,86.14033
"44046",609.3819,77.65011,87.88569
"44047",609.3952,80.257576,90.41972
"44048",609.4085,83.41192,93.582115
"44049",609.4218,86.744484,97.0213
"44050",609.4351,89.79874,100.286316
"44051",609.4484,92.16449,102.95828
"44052",609.46173,93.609825,104.78376
"44053",609.47504,94.09079,105.69003
"44054",609.48834,93.71969,105.75927
"44055",609.50165,92.716255,105.18458
"44056",609.51495,91.32708,104.19279
"44057",609.52826,89.79385,103.013535
"44058",609.54156,88.28748,101.813225
"44059",609.5549,86.890976,100.675705
"44060",609.5682,85.60677,99.60684
"44061",609.5815,84.39826,98.57354
"44062",609.5948,83.23857,97.55129
"44063",609.6081,82.144806,96.55873
"44064",609.6214,81.180435,95.661385
"44065",609.6347,80.4358,94.953636
"44066",609.648,79.97925,94.510704
"44067",609.6613,79.83032,94.36113
"44068",609.6746,79.93042,94.455925
"44069",609.6879,80.18921,94.71254
"44070",609.70123,80.49195,95.021194
"44071",609.71454,80.73609,95.28071
"44072",609.72784,80.83864,95.40626
"44073",609.74115,80.75807,95.3519
"44074",609.75446,80.48951,95.107025
"44075",609.76776,80.059814,94.69263
"44076",609.78107,79.50805,94.14273
"44077",609.7944,78.88548,93.50479
"44078",609.8077,78.238495,92.822975
"44079",609.821,77.58907,92.11851
"44080",609.8343,76.96651,91.4206
"44081",609.8476,76.383,90.7423
"44082",609.8609,75.85321,90.09948
"44083",609.8742,75.386894,89.50358
"44084",609.8875,74.99382,88.96635
"44085",609.9008,74.67399,88.490074
"44086",609.9141,74.41764,88.06729
"44087",609.9274,74.20523,87.680435
"44088",609.94073,74.02701,87.32113
"44089",609.95404,73.87808,86.98555
"44090",609.96735,73.7438,86.65996
"44091",609.98065,73.62905,86.34971
"44092",609.99396,73.53628,86.057846
"44093",610.00726,73.46548,85.78506
"44094",610.02057,73.42397,85.53935
"44095",610.0339,73.411766,85.32165
"44096",610.0472,73.43862,85.142624
"44097",610.0605,73.52651,85.025475
"44098",610.0738,73.760895,85.05756
"44099",610.0871,74.322426,85.424126
"44100",610.1004,75.45281,86.37709
"44101",610.1137,77.34493,88.12711
"44102",610.127,80.03784,90.73705
"44103",610.1403,83.35821,94.0586
"44104",610.1536,86.9276,97.73293
"44105",610.16693,90.269936,101.291756
"44106",610.18024,92.945755,104.28851
"44107",610.19354,94.696266,106.44358
"44108",610.20685,95.45312,107.65969
"44109",610.22015,95.33105,108.02053
"44110",610.23346,94.5449,107.71348
"44111",610.24677,93.351036,106.974144
"44112",610.2601,91.99115,106.03148
"44113",610.2734,90.633705,105.04876
"44114",610.2867,89.36416,104.11152
"44115",610.3,88.17517,103.215164
"44116",610.3133,87.010605,102.306076
"44117",610.3266,85.821625,101.336174
"44118",610.3399,84.596016,100.29249
"44119",610.3532,83.387505,99.2276
"44120",610.3665,82.30106,98.24702
"44121",610.3798,81.44167,97.45953
"44122",610.3931,80.87526,96.93817
"44123",610.40643,80.6067,96.69696
"44124",610.41974,80.57496,96.68418
"44125",610.43304,80.68238,96.80957
"44126",610.44635,80.816666,96.96518
"44127",610.45966,80.88747,97.0615
"44128",610.47296,80.82155,97.023315
"44129",610.48627,80.59205,96.81949
"44130",610.4996,80.18921,96.43515
"44131",610.5129,79.64233,95.89418
"44132",610.5262,78.98802,95.2287
"44133",610.5395,78.277565,94.48662
"44134",610.5528,77.54757,93.7028
"44135",610.5661,76.82735,92.90594
"44136",610.5794,76.13153,92.11098
"44137",610.5927,75.47967,91.33823
"44138",610.606,74.8864,90.6037
"44139",610.6193,74.36149,89.91899
"44140",610.6326,73.919586,89.30089
"44141",610.64594,73.57046,88.76175
"44142",610.65924,73.30923,88.2996
"44143",610.67255,73.12123,87.90252
"44144",610.68585,72.99184,87.55817
"44145",610.69916,72.90639,87.253716
"44146",610.71246,72.84779,86.97345
"44147",610.72577,72.80141,86.70356
"44148",610.7391,72.762344,86.439545
"44149",610.7524,72.723274,86.1743
"44150",610.7657,72.68177,85.905396
"44151",610.779,72.64515,85.640076
"44152",610.7923,72.61585,85.380936
"44153",610.8056,72.60609,85.14041
"44154",610.8189,72.63538,84.938644
"44155",610.8322,72.75258,84.8257
"44156",610.8455,73.091934,84.938576
"44157",610.8588,73.87564,85.50641
"44158",610.87213,75.36248,86.801865
"44159",610.88544,77.71603,89.01049
"44160",610.89874,80.91432,92.13741
"44161",610.91205,84.698555,95.95022
"44162",610.92535,88.604866,100.00336
"44163",610.93866,92.10101,103.7684
"44164",610.95197,94.769516,106.81506
"44165",610.9653,96.38575,108.892845
"44166",610.9786,96.95949,109.97864
"44167",610.9919,96.66407,110.2132
"44168",611.0052,95.76807,109.83795
"44169",611.0185,94.55222,109.11486
"44170",611.0318,93.23872,108.25612
"44171",611.0451,91.98627,107.41737
"44172",611.0584,90.84367,106.64935
"44173",611.0717,89.779205,105.92375
"44174",611.085,88.70496,105.15511
"44175",611.0983,87.552605,104.27478
"44176",611.11163,86.29282,103.25102
"44177",611.12494,84.97444,102.12929
"44178",611.13824,83.702446,101.01274
"44179",611.15155,82.60624,100.032234
"44180",611.16486,81.77371,99.28115
"44181",611.17816,81.24147,98.80434
"44182",611.19147,80.96315,98.56481
"44183",611.2048,80.85573,98.48749
"44184",611.2181,80.81178,98.47028
"44185",611.2314,80.73609,98.41996
