"","Time..s.","PPG.trace","Preprocessed.PPG"
"18274",243.70094,76.654,122.06178
"18275",243.71428,75.53826,120.841484
"18276",243.72762,74.49821,119.662
"18277",243.74095,73.55825,118.55012
"18278",243.75429,72.73548,117.52605
"18279",243.76762,72.02991,116.59346
"18280",243.78096,71.4464,115.760895
"18281",243.7943,70.98253,115.029724
"18282",243.80763,70.63096,114.39636
"18283",243.82097,70.38926,113.86188
"18284",243.8343,70.25254,113.42482
"18285",243.84764,70.21347,113.08114
"18286",243.86098,70.2501,112.811935
"18287",243.87431,70.345314,112.60246
"18288",243.88765,70.47959,112.43503
"18289",243.90099,70.63096,112.28888
"18290",243.91432,70.784775,112.14991
"18291",243.92766,70.91905,111.996216
"18292",243.941,71.02403,111.81741
"18293",243.95433,71.08751,111.60039
"18294",243.96767,71.11192,111.34628
"18295",243.981,71.09239,111.048996
"18296",243.99434,71.05821,110.73645
"18297",244.00768,71.046005,110.44481
"18298",244.02101,71.08263,110.201614
"18299",244.03435,71.2169,110.05722
"18300",244.04768,71.56115,110.127
"18301",244.06102,72.3473,110.64943
"18302",244.07436,73.88785,111.950836
"18303",244.08769,76.42451,114.29649
"18304",244.10103,79.991455,117.75171
"18305",244.11436,84.32014,122.080124
"18306",244.1277,88.87831,126.7733
"18307",244.14104,93.00923,131.18167
"18308",244.15437,96.16113,134.74011
"18309",244.16771,98.03128,137.1153
"18310",244.18105,98.60746,138.25494
"18311",244.19438,98.09476,138.32373
"18312",244.20772,96.78615,137.58058
"18313",244.22105,95.00145,136.32045
"18314",244.23439,93.019,134.8068
"18315",244.24773,91.053635,133.24828
"18316",244.26106,89.18593,131.726
"18317",244.2744,87.40368,130.2308
"18318",244.28773,85.63119,128.68968
"18319",244.30107,83.83429,127.068756
"18320",244.3144,82.05203,125.40632
"18321",244.32774,80.413826,123.83224
"18322",244.34108,79.10277,122.53411
"18323",244.35442,78.27024,121.673546
"18324",244.36775,77.9675,121.31675
"18325",244.38109,78.12375,121.409485
"18326",244.39442,78.58274,121.809845
"18327",244.40776,79.149155,122.33197
"18328",244.4211,79.64965,122.80588
"18329",244.43443,79.95239,123.09767
"18330",244.44777,79.9939,123.13769
"18331",244.4611,79.742424,122.886024
"18332",244.47444,79.22484,122.36039
"18333",244.48778,78.49241,121.60374
"18334",244.50111,77.60128,120.6655
"18335",244.51445,76.612495,119.60175
"18336",244.52779,75.5993,118.4827
"18337",244.54112,74.6276,117.37348
"18338",244.55446,73.73647,116.31447
"18339",244.5678,72.9601,115.34236
"18340",244.58113,72.32288,114.48515
"18341",244.59447,71.81506,113.73743
"18342",244.6078,71.41955,113.086136
"18343",244.62114,71.12169,112.52014
"18344",244.63448,70.906845,112.02785
"18345",244.64781,70.7628,111.59964
"18346",244.66115,70.67002,111.2182
"18347",244.67448,70.623634,110.88025
"18348",244.68782,70.63096,110.59456
"18349",244.70116,70.68955,110.36037
"18350",244.7145,70.78966,110.16952
"18351",244.72783,70.923935,110.015976
"18352",244.74117,71.09239,109.9008
"18353",244.7545,71.29015,109.820206
"18354",244.76784,71.51232,109.77019
"18355",244.78117,71.75891,109.75154
"18356",244.79451,72.042114,109.77721
"18357",244.80785,72.43275,109.91916
"18358",244.82118,73.10414,110.35408
"18359",244.83452,74.32975,111.3642
"18360",244.84785,76.36591,113.22317
"18361",244.86119,79.28344,116.02713
"18362",244.87453,82.913864,119.63516
"18363",244.88786,86.83971,123.65206
"18364",244.9012,90.50919,127.535286
"18365",244.91454,93.40963,130.76413
"18366",244.92787,95.2285,133.00204
"18367",244.94121,95.89258,134.14201
"18368",244.95454,95.52636,134.27243
"18369",244.96788,94.36668,133.59795
"18370",244.98122,92.6894,132.36963
"18371",244.99455,90.75578,130.83255
"18372",245.00789,88.741585,129.15446
"18373",245.02122,86.72495,127.41101
"18374",245.03456,84.698555,125.594765
"18375",245.0479,82.65751,123.70055
"18376",245.06123,80.66285,121.78893
"18377",245.07457,78.86839,120.01519
"18378",245.0879,77.469444,118.58088
"18379",245.10124,76.64179,117.67415
"18380",245.11458,76.45136,117.37878
"18381",245.12791,76.82979,117.64631
"18382",245.14125,77.593956,118.31141
"18383",245.15459,78.521706,119.16397
"18384",245.16792,79.398186,119.994255
"18385",245.18126,80.062256,120.63952
"18386",245.1946,80.41627,120.995476
"18387",245.20793,80.430916,121.02313
"18388",245.22127,80.12573,120.731415
"18389",245.2346,79.56176,120.17137
"18390",245.24794,78.802475,119.39839
"18391",245.26128,77.93088,118.48937
"18392",245.27461,77.01045,117.50429
"18393",245.28795,76.09735,116.497765
"18394",245.30128,75.24284,115.5213
"18395",245.31462,74.48356,114.61336
"18396",245.32796,73.8439,113.801315
"18397",245.3413,73.32632,113.091354
"18398",245.35463,72.921036,112.47752
"18399",245.36797,72.61341,111.948685
"18400",245.3813,72.38148,111.485916
"18401",245.39464,72.20813,111.07449
"18402",245.40797,72.076294,110.69916
"18403",245.42131,71.98596,110.361206
"18404",245.43465,71.92981,110.05461
"18405",245.44798,71.92493,109.79753
"18406",245.46132,71.98352,109.603775
"18407",245.47466,72.130005,109.49974
"18408",245.48799,72.36683,109.49063
"18409",245.50133,72.69886,109.58412
"18410",245.51466,73.13832,109.795425
"18411",245.528,73.75601,110.19869
"18412",245.54134,74.73014,110.9777
"18413",245.55467,76.317085,112.39996
"18414",245.56801,78.71702,114.68481
"18415",245.58134,81.951935,117.87963
"18416",245.59468,85.79721,121.785904
"18417",245.60802,89.8085,125.978355
"18418",245.62135,93.434044,129.91042
"18419",245.63469,96.19287,133.08905
"18420",245.64803,97.82864,135.23085
"18421",245.66136,98.32426,136.2836
"18422",245.6747,97.831085,136.36307
"18423",245.68803,96.59327,135.68246
"18424",245.70137,94.906235,134.51398
"18425",245.7147,93.016556,133.09012
"18426",245.72804,91.087814,131.56815
"18427",245.74138,89.163956,129.99078
"18428",245.75471,87.218124,128.33133
"18429",245.76805,85.23323,126.572
"18430",245.78139,83.24101,124.74332
"18431",245.79472,81.3782,122.98178
"18432",245.80806,79.85718,121.50383
"18433",245.8214,78.87572,120.51791
"18434",245.83473,78.51682,120.12388
"18435",245.84807,78.72678,120.28749
"18436",245.8614,79.32494,120.84586
"18437",245.87474,80.09155,121.59138
"18438",245.88808,80.80934,122.31203
"18439",245.90141,81.31716,122.84514
"18440",245.91475,81.529564,123.0987
"18441",245.92809,81.41238,123.02931
"18442",245.94142,80.98268,122.64375
"18443",245.95476,80.291756,121.983536
"18444",245.9681,79.41772,121.118614
"18445",245.98143,78.433815,120.116516
"18446",245.99477,77.42306,119.056816
"18447",246.0081,76.453804,118.007034
"18448",246.02144,75.577324,117.01974
"18449",246.03477,74.827805,116.13201
"18450",246.04811,74.20523,115.34781
"18451",246.06145,73.704735,114.66623
"18452",246.07478,73.31411,114.07888
"18453",246.08812,73.01625,113.57209
"18454",246.10146,72.7892,113.1268
"18455",246.11479,72.62318,112.73544
"18456",246.12813,72.51331,112.39505
"18457",246.14146,72.44984,112.09761
"18458",246.1548,72.427864,111.83969
"18459",246.16814,72.430305,111.6055
"18460",246.18147,72.46937,111.408005
"18461",246.19481,72.5597,111.263
"18462",246.20815,72.725716,111.1965
"18463",246.22148,72.96742,111.21089
"18464",246.23482,73.29702,111.320724
"18465",246.24815,73.738914,111.553154
"18466",246.26149,74.40299,112.021576
"18467",246.27483,75.494316,112.937996
"18468",246.28816,77.27413,114.57701
"18469",246.3015,79.89136,117.109055
"18470",246.31483,83.29717,120.511475
"18471",246.32817,87.2108,124.52814
"18472",246.3415,91.14885,128.69153
"18473",246.35484,94.571754,132.46283
"18474",246.36818,97.06203,135.40846
"18475",246.38152,98.43168,137.31131
"18476",246.39485,98.70756,138.16318
"18477",246.40819,98.08011,138.12035
"18478",246.42152,96.813,137.41824
"18479",246.43486,95.19676,136.32741
"18480",246.4482,93.44869,135.05423
"18481",246.46153,91.6762,133.70201
"18482",246.47487,89.8793,132.26999
"18483",246.4882,87.99939,130.6988
"18484",246.50154,86.012054,128.96146
"18485",246.51488,83.97589,127.11317
"18486",246.52821,82.054474,125.315994
"18487",246.54155,80.46754,123.79326
"18488",246.55489,79.40551,122.74584
"18489",246.56822,78.95628,122.27804
"18490",246.58156,79.05882,122.34796
"18491",246.5949,79.537346,122.79707
"18492",246.60823,80.16724,123.412506
"18493",246.62157,80.73609,123.98659
"18494",246.6349,81.08766,124.36116
"18495",246.64824,81.13161,124.439095
"18496",246.66158,80.84108,124.18393
"18497",246.67491,80.24048,123.60961
"18498",246.68825,79.395744,122.77239
"18499",246.70158,78.382545,121.74031
"18500",246.71492,77.28878,120.596
"18501",246.72826,76.20233,119.42483
"18502",246.7416,75.18425,118.28807
"18503",246.75493,74.2736,117.22693
"18504",246.76826,73.5021,116.27648
"18505",246.7816,72.867325,115.43865
"18506",246.79494,72.35706,114.7055
"18507",246.80827,71.96887,114.07846
"18508",246.82161,71.692986,113.551605
"18509",246.83495,71.517204,113.11623
"18510",246.84828,71.431755,112.765686
"18511",246.86162,71.42931,112.49548
"18512",246.87495,71.500114,112.29845
"18513",246.88829,71.62707,112.159775
"18514",246.90163,71.79065,112.06171
"18515",246.91496,71.96887,111.98338
"18516",246.9283,72.14221,111.90575
"18517",246.94164,72.28382,111.8018
"18518",246.95497,72.38148,111.658325
"18519",246.9683,72.427864,111.46663
"18520",246.98164,72.43519,111.23732
"18521",246.99498,72.42542,110.99115
"18522",247.00832,72.4181,110.747116
"18523",247.02165,72.43519,110.52727
"18524",247.03499,72.50355,110.35922
"18525",247.04832,72.69642,110.317825
"18526",247.06166,73.19203,110.585205
"18527",247.075,74.26627,111.4467
"18528",247.08833,76.175476,113.17673
"18529",247.10167,79.00755,115.88929
"18530",247.115,82.6038,119.45452
"18531",247.12834,86.56138,123.49347
"18532",247.14168,90.32365,127.46078
"18533",247.15501,93.3608,130.82054
"18534",247.16835,95.34814,133.2254
"18535",247.18169,96.22217,134.57907
"18536",247.19502,96.114746,134.97859
"18537",247.20836,95.26513,134.63257
"18538",247.2217,93.94675,133.79123
"18539",247.23503,92.40864,132.68895
"18540",247.24837,90.809494,131.47757
"18541",247.2617,89.20058,130.20645
"18542",247.27504,87.5404,128.83379
"18543",247.28838,85.7728,127.30182
"18544",247.30171,83.87579,125.58521
"18545",247.31505,81.94705,123.77759
"18546",247.32838,80.17456,122.06594
"18547",247.34172,78.785385,120.68222
"18548",247.35506,77.94797,119.80685
"18549",247.3684,77.70138,119.49613
"18550",247.38173,77.9382,119.661125
"18551",247.39507,78.45823,120.11672
"18552",247.4084,79.03685,120.64716
"18553",247.42174,79.48852,121.06873
"18554",247.43507,79.68627,121.2505
"18555",247.44841,79.58373,121.13816
"18556",247.46175,79.19798,120.7394
"18557",247.47508,78.57053,120.08689
"18558",247.48842,77.77219,119.24387
"18559",247.50175,76.87373,118.2758
"18560",247.51509,75.93866,117.243034
"18561",247.52843,75.018234,116.195694
"18562",247.54176,74.158844,115.180626
"18563",247.5551,73.402,114.24125
"18564",247.56844,72.75746,113.390526
"18565",247.58177,72.21057,112.61731
"18566",247.59511,71.763794,111.92711
"18567",247.60844,71.40734,111.31328
"18568",247.62178,71.13878,110.7762
"18569",247.63512,70.95323,110.313736
"18570",247.64845,70.84825,109.92604
"18571",247.66179,70.81163,109.603424
"18572",247.67513,70.82872,109.333374
"18573",247.68846,70.88243,109.10048
"18574",247.7018,70.960556,108.89368
"18575",247.71513,71.06798,108.71861
"18576",247.72847,71.19249,108.563995
"18577",247.7418,71.31945,108.415726
"18578",247.75514,71.43664,108.26164
"18579",247.76848,71.534294,108.09169
"18580",247.78181,71.60021,107.89305
"18581",247.79515,71.63439,107.664734
"18582",247.80849,71.641716,107.41063
"18583",247.82182,71.63195,107.13966
"18584",247.83516,71.622185,106.86839
"18585",247.8485,71.61486,106.59926
"18586",247.86183,71.61486,106.33722
"18587",247.87517,71.60998,106.0703
"18588",247.8885,71.59777,105.7959
"18589",247.90184,71.568474,105.50403
"18590",247.91518,71.52453,105.196594
"18591",247.92851,71.4757,104.882904
"18592",247.94185,71.4342,104.57501
"18593",247.95518,71.4049,104.27803
"18594",247.96852,71.39269,103.99722
"18595",247.98186,71.414665,103.75021
"18596",247.9952,71.49035,103.5576
"18597",248.00853,71.63683,103.438156
"18598",248.02187,71.89075,103.430725
"18599",248.0352,72.36927,103.65584
"18600",248.04854,73.29946,104.347565
"18601",248.06187,74.97673,105.815445
"18602",248.07521,77.576866,108.258606
"18603",248.08855,81.05104,111.65706
"18604",248.10188,85.084305,115.72317
"18605",248.11522,89.15175,119.94949
"18606",248.12856,92.664986,123.74872
"18607",248.14189,95.187,126.66651
"18608",248.15523,96.55909,128.5132
"18609",248.16856,96.869156,129.34073
"18610",248.1819,96.34913,129.34787
"18611",248.19524,95.294426,128.80408
"18612",248.20857,93.978485,127.96609
"18613",248.22191,92.60883,127.033264
"18614",248.23524,91.30511,126.123566
"18615",248.24858,90.08438,125.25613
"18616",248.26192,88.87587,124.362755
"18617",248.27525,87.58434,123.3486
"18618",248.28859,86.16586,122.16713
"18619",248.30193,84.6717,120.86565
"18620",248.31526,83.228806,119.56874
"18621",248.3286,82.01541,118.456245
"18622",248.34193,81.18532,117.68913
"18623",248.35527,80.80446,117.345314
"18624",248.3686,80.82643,117.392426
"18625",248.38194,81.11452,117.70634
"18626",248.39528,81.48318,118.109825
"18627",248.40862,81.778595,118.45159
"18628",248.42195,81.881134,118.60971
"18629",248.43529,81.72732,118.51468
"18630",248.44862,81.322044,118.16338
"18631",248.46196,80.71656,117.59921
"18632",248.4753,79.957275,116.86232
"18633",248.48863,79.12474,116.02845
"18634",248.50197,78.28001,115.156364
"18635",248.5153,77.48165,114.30426
"18636",248.52864,76.76387,113.50778
"18637",248.54198,76.14862,112.791405
"18638",248.55531,75.64568,112.16811
"18639",248.56865,75.26971,111.65607
"18640",248.58199,75.00847,111.24701
"18641",248.59532,74.84978,110.932335
"18642",248.60866,74.776535,110.69815
"18643",248.622,74.76921,110.527596
"18644",248.63533,74.79851,110.39343
"18645",248.64867,74.84978,110.28216
"18646",248.662,74.91814,110.189575
"18647",248.67534,75.00603,110.11866
"18648",248.68867,75.10124,110.057816
"18649",248.70201,75.18913,109.99262
"18650",248.71535,75.26238,109.915535
"18651",248.72868,75.31609,109.8212
"18652",248.74202,75.36736,109.7261
"18653",248.75536,75.41375,109.627716
"18654",248.76869,75.45037,109.52102
"18655",248.78203,75.48211,109.41058
"18656",248.79536,75.4992,109.28649
"18657",248.8087,75.48943,109.13608
"18658",248.82204,75.457695,108.96339
"18659",248.83537,75.41131,108.775055
"18660",248.84871,75.355156,108.57551
"18661",248.86205,75.29412,108.36932
"18662",248.87538,75.23308,108.161224
"18663",248.88872,75.174484,107.95367
"18664",248.90205,75.123215,107.7516
"18665",248.91539,75.08171,107.5577
"18666",248.92873,75.054855,107.37715
"18667",248.94206,75.052414,107.22018
"18668",248.9554,75.071945,107.0851
"18669",248.96873,75.11589,106.975044
"18670",248.98207,75.18669,106.89322
"18671",248.9954,75.27703,106.833145
"18672",249.00874,75.38201,106.790535
"18673",249.02208,75.48699,106.751205
"18674",249.03542,75.58709,106.71027
"18675",249.04875,75.67986,106.665146
"18676",249.06209,75.775085,106.62537
"18677",249.07542,75.862976,106.58123
"18678",249.08876,75.928894,106.51787
"18679",249.1021,75.96307,106.42483
"18680",249.11543,75.965515,106.30112
"18681",249.12877,75.9411,106.15063
"18682",249.1421,75.90448,105.98717
"18683",249.15544,75.88739,105.842094
"18684",249.16878,75.95575,105.78194
"18685",249.18211,76.24872,105.948524
"18686",249.19545,77.0251,106.60768
"18687",249.20879,78.555885,108.0455
"18688",249.22212,80.94606,110.39055
"18689",249.23546,84.0589,113.53295
"18690",249.2488,87.50866,117.10955
"18691",249.26213,90.76555,120.60109
"18692",249.27547,93.32662,123.49859
"18693",249.2888,94.90379,125.49222
"18694",249.30214,95.47509,126.52926
"18695",249.31548,95.218735,126.7565
"18696",249.32881,94.383766,126.39712
"18697",249.34215,93.21919,125.68204
"18698",249.35548,91.93744,124.813385
"18699",249.36882,90.69962,123.948616
"18700",249.38216,89.59853,123.18189
"18701",249.3955,88.64637,122.529686
"18702",249.40883,87.79187,121.94539
"18703",249.42216,86.956894,121.35391
"18704",249.4355,86.07065,120.68507
"18705",249.44884,85.12825,119.93237
"18706",249.46217,84.190735,119.15511
"18707",249.47551,83.36309,118.45843
"18708",249.48885,82.7454,117.94583
"18709",249.50218,82.391396,117.67762
"18710",249.51552,82.29374,117.65469
"18711",249.52885,82.36698,117.799614
"18712",249.54219,82.513466,118.020065
"18713",249.55553,82.62577,118.210915
"18714",249.56886,82.62577,118.29297
"18715",249.5822,82.46464,118.21389
"18716",249.59554,82.127716,117.95399
"18717",249.60887,81.634544,117.527306
"18718",249.62221,81.024185,116.968025
"18719",249.63554,80.33814,116.31399
"18720",249.64888,79.62768,115.61409
"18721",249.66222,78.92699,114.901764
"18722",249.67555,78.28001,114.22125
"18723",249.68889,77.70382,113.59132
"18724",249.70222,77.21309,113.02883
"18725",249.71556,76.807816,112.53647
"18726",249.7289,76.4831,112.112
"18727",249.74223,76.226746,111.74574
"18728",249.75557,76.02899,111.43008
"18729",249.7689,75.877625,111.15462
"18730",249.78224,75.7702,110.91837
"18731",249.79558,75.701836,110.71783
"18732",249.80891,75.66277,110.54445
"18733",249.82225,75.63592,110.38206
"18734",249.83559,75.613945,110.22371
"18735",249.84892,75.60418,110.07688
"18736",249.86226,75.596855,109.93219
"18737",249.8756,75.59197,109.78971
"18738",249.88893,75.58709,109.64708
"18739",249.90227,75.577324,109.49941
"18740",249.9156,75.56512,109.349
"18741",249.92894,75.53826,109.183556
"18742",249.94228,75.4992,109.005066
"18743",249.95561,75.44305,108.808266
"18744",249.96895,75.372246,108.59506
"18745",249.98228,75.2868,108.365
"18746",249.99562,75.18425,108.115166
"18747",250.00896,75.07927,107.859695
"18748",250.0223,74.97429,107.600945
"18749",250.03563,74.8864,107.356
"18750",250.04897,74.82048,107.13029
"18751",250.0623,74.77409,106.92204
"18752",250.07564,74.73258,106.717224
"18753",250.08897,74.69596,106.516
"18754",250.10231,74.66422,106.31851
"18755",250.11565,74.63737,106.124916
"18756",250.12898,74.6276,105.94757
"18757",250.14232,74.64225,105.794334
"18758",250.15565,74.68131,105.66597
"18759",250.16899,74.737465,105.555916
"18760",250.18233,74.80827,105.46227
"18761",250.19566,74.88396,105.37572
"18762",250.209,74.9572,105.289085
"18763",250.22234,75.01335,105.18765
"18764",250.23567,75.0573,105.07577
"18765",250.24901,75.08171,104.945724
"18766",250.26234,75.089035,104.799355
"18767",250.27568,75.09148,104.64833
"18768",250.28902,75.10857,104.51203
"18769",250.30235,75.157394,104.408005
"18770",250.31569,75.32342,104.4227
"18771",250.32903,75.79462,104.74776
"18772",250.34236,76.84932,105.67104
"18773",250.3557,78.70725,107.43052
"18774",250.36903,81.38552,110.06839
"18775",250.38237,84.62531,113.35148
"18776",250.3957,87.974976,116.84568
"18777",250.40904,90.897385,120.0173
"18778",250.42238,92.95308,122.41354
"18779",250.43571,93.961395,123.826645
"18780",250.44905,93.99802,124.29956
"18781",250.46239,93.29977,124.03875
"18782",250.47572,92.13275,123.28735
"18783",250.48906,90.74113,122.27488
"18784",250.5024,89.3373,121.20672
"18785",250.51573,88.06287,120.224075
"18786",250.52907,86.98863,119.40181
"18787",250.5424,86.0975,118.72907
"18788",250.55574,85.32601,118.148125
"18789",250.56908,84.593575,117.58212
"18790",250.58241,83.8587,116.9908
"18791",250.59575,83.11894,116.37162
"18792",250.60909,82.44511,115.79525
"18793",250.62242,81.92508,115.35163
"18794",250.63576,81.6321,115.11881
"18795",250.6491,81.59548,115.133194
"18796",250.66243,81.78104,115.36861
"18797",250.67577,82.09842,115.741646
"18798",250.6891,82.43534,116.14414
"18799",250.70244,82.684364,116.46927
"18800",250.71577,82.7625,116.63129
"18801",250.72911,82.633095,116.58821
"18802",250.74245,82.30595,116.343346
"18803",250.75578,81.80545,115.91491
"18804",250.76912,81.18776,115.35364
"18805",250.78246,80.516365,114.71936
"18806",250.79579,79.835205,114.05434
"18807",250.80913,79.185776,113.39976
"18808",250.82246,78.59983,112.78837
"18809",250.8358,78.09689,112.24168
"18810",250.84914,77.68429,111.7696
"18811",250.86247,77.35958,111.37253
"18812",250.87581,77.10567,111.0361
"18813",250.88914,76.92012,110.76011
"18814",250.90248,76.78584,110.52959
"18815",250.91582,76.68818,110.33148
"18816",250.92915,76.61982,110.15963
"18817",250.94249,76.58076,110.01494
"18818",250.95583,76.561226,109.88856
"18819",250.96916,76.5539,109.77377
"18820",250.9825,76.55634,109.668526
"18821",250.99583,76.558784,109.563354
"18822",251.00917,76.558784,109.45582
"18823",251.0225,76.558784,109.34828
"18824",251.03584,76.561226,109.24319
"18825",251.04918,76.558784,109.133286
"18826",251.06252,76.54658,109.01354
"18827",251.07585,76.52216,108.88121
"18828",251.08919,76.47822,108.728584
"18829",251.10252,76.402534,108.54285
"18830",251.11586,76.30244,108.33033
"18831",251.1292,76.192566,108.10491
"18832",251.14253,76.07782,107.871185
"18833",251.15587,75.96796,107.638756
"18834",251.1692,75.8703,107.4151
"18835",251.18254,75.77997,107.19572
"18836",251.19588,75.69695,106.98083
"18837",251.20921,75.62127,106.770676
"18838",251.22255,75.55291,106.56548
"18839",251.23589,75.49676,106.37036
"18840",251.24922,75.45281,106.18569
"18841",251.26256,75.42596,106.01674
"18842",251.2759,75.423515,105.87136
"18843",251.28923,75.44549,105.75032
"18844",251.30257,75.48943,105.65194
"18845",251.3159,75.55535,105.576904
"18846",251.32924,75.63836,105.52102
"18847",251.34258,75.72625,105.47261
"18848",251.35591,75.81171,105.424515
"18849",251.36925,75.88251,105.36443
"18850",251.38258,75.931335,105.28459
"18851",251.39592,75.96307,105.189186
"18852",251.40926,75.97528,105.07524
"18853",251.42259,75.9704,104.94459
"18854",251.43593,75.94354,104.79181
"18855",251.44926,75.914246,104.63575
"18856",251.4626,75.8996,104.49342
"18857",251.47594,75.98993,104.45562
"18858",251.48927,76.35615,104.696526
"18859",251.50261,77.279015,105.50552
"18860",251.51595,78.97826,107.119736
"18861",251.52928,81.48806,109.59761
"18862",251.54262,84.56672,112.72277
"18863",251.55595,87.767456,116.066216
"18864",251.56929,90.56046,119.10196
"18865",251.58263,92.506294,121.37781
"18866",251.59596,93.402306,122.66464
"18867",251.6093,93.30709,122.98825
"18868",251.62263,92.43061,122.52762
"18869",251.63597,91.01701,121.50248
"18870",251.6493,89.30801,120.13776
"18871",251.66264,87.51598,118.63661
"18872",251.67598,85.8143,117.1698
"18873",251.68932,84.30305,115.84024
"18874",251.70265,83.018845,114.690506
"18875",251.71599,81.92996,113.69596
"18876",251.72932,80.99733,112.82364
"18877",251.74266,80.22339,112.080864
"18878",251.756,79.65209,111.51655
"18879",251.76933,79.33959,111.19318
"18880",251.78267,79.34936,111.182304
"18881",251.796,79.68627,111.498886
"18882",251.80934,80.29664,112.09945
"18883",251.82268,81.06813,112.88021
"18884",251.83601,81.87137,113.71683
"18885",251.84935,82.56718,114.471115
"18886",251.86269,83.053024,115.037186
"18887",251.87602,83.267876,115.34744
"18888",251.88936,83.19951,115.381195
"18889",251.9027,82.88701,115.16868
"18890",251.91603,82.388954,114.76084
"18891",251.92937,81.76883,114.21537
"18892",251.9427,81.08034,113.58215
"18893",251.95604,80.37476,112.91034
"18894",251.96938,79.69848,112.245766
"18895",251.98271,79.08812,111.625984
"18896",251.99605,78.56077,111.07014
"18897",252.00938,78.12375,110.58814
"18898",252.02272,77.77951,110.18527
"18899",252.03606,77.51583,109.8522
"18900",252.0494,77.315636,109.57438
"18901",252.06273,77.17403,109.348885
"18902",252.07607,77.07393,109.16048
"18903",252.0894,77.00557,109.00068
"18904",252.10274,76.96651,108.86804
"18905",252.11607,76.93965,108.74639
"18906",252.12941,76.929886,108.64099
"18907",252.14275,76.94209,108.55726
"18908",252.15608,76.978714,108.49832
"18909",252.16942,77.03731,108.4625
"18910",252.18275,77.10811,108.44072
"18911",252.19609,77.19112,108.43336
"18912",252.20943,77.27413,108.4286
"18913",252.22276,77.347374,108.41666
"18914",252.2361,77.39864,108.38503
"18915",252.24944,77.43038,108.33548
"18916",252.26277,77.44991,108.27471
"18917",252.27611,77.454796,108.199905
"18918",252.28944,77.44991,108.115486
"18919",252.30278,77.43038,108.016266
"18920",252.31612,77.39864,107.90423
"18921",252.32945,77.3547,107.77899
"18922",252.34279,77.298546,107.640175
"18923",252.35612,77.23262,107.48983
"18924",252.36946,77.17403,107.34476
"18925",252.3828,77.120316,107.202736
"18926",252.39613,77.07637,107.0688
"18927",252.40947,77.03975,106.94082
"18928",252.4228,77.015335,106.8239
"18929",252.43614,76.995804,106.7111
"18930",252.44948,76.98604,106.60745
"18931",252.46281,76.9836,106.510826
"18932",252.47615,77.00313,106.4361
"18933",252.48949,77.03487,106.37418
"18934",252.50282,77.069046,106.315704
"18935",252.51616,77.09102,106.246086
"18936",252.5295,77.0959,106.160065
"18937",252.54283,77.083694,106.057106
"18938",252.55617,77.05684,105.93912
"18939",252.5695,77.03975,105.830055
"18940",252.58284,77.07881,105.77661
"18941",252.59618,77.298546,105.90506
"18942",252.60951,77.91379,106.43588
"18943",252.62285,79.16136,107.61826
"18944",252.63618,81.15846,109.58916
"18945",252.64952,83.81476,112.281654
"18946",252.66286,86.80797,115.39407
"18947",252.6762,89.66445,118.4633
"18948",252.68953,91.91791,121.018776
"18949",252.70287,93.263145,122.73645
"18950",252.7162,93.63912,123.5269
"18951",252.72954,93.15816,123.47216
"18952",252.74287,92.018005,122.7432
"18953",252.75621,90.43595,121.53671
"18954",252.76955,88.602425,120.02931
"18955",252.78288,86.68589,118.38161
"18956",252.79622,84.82063,116.72528
"18957",252.80956,83.09453,115.14982
"18958",252.82289,81.549095,113.70109
"18959",252.83623,80.22339,112.42379
"18960",252.84956,79.166245,111.37363
"18961",252.8629,78.44846,110.62979
"18962",252.87624,78.12863,110.261475
"18963",252.88957,78.24826,110.322624
"18964",252.90291,78.79271,110.81233
"18965",252.91624,79.67895,111.66084
"18966",252.92958,80.75319,112.72505
"18967",252.94292,81.85916,113.85456
"18968",252.95625,82.847946,114.90144
"18969",252.96959,83.60723,115.749725
"18970",252.98293,84.06134,116.31656
"18971",252.99626,84.18829,116.57043
"18972",253.0096,84.017395,116.53041
"18973",253.02293,83.60967,116.24823
"18974",253.03627,83.03349,115.78485
"18975",253.0496,82.354774,115.20093
"18976",253.06294,81.6321,114.55184
"18977",253.07628,80.91432,113.88506
"18978",253.08961,80.24292,113.24223
"18979",253.10295,79.64965,112.656555
"18980",253.11629,79.149155,112.14511
"18981",253.12962,78.74143,111.7108
"18982",253.14296,78.40452,111.33456
"18983",253.1563,78.13107,111.01125
"18984",253.16963,77.90646,110.72824
"18985",253.18297,77.71847,110.47482
"18986",253.1963,77.576866,110.261925
"18987",253.20964,77.48409,110.09343
"18988",253.22298,77.437706,109.96842
"18989",253.23631,77.42794,109.878586
"18990",253.24965,77.44991,109.82018
"18991",253.26299,77.49386,109.78444
"18992",253.27632,77.557335,109.7696
"18993",253.28966,77.63058,109.76651
"18994",253.303,77.70382,109.76571
"18995",253.31633,77.77219,109.76232
"18996",253.32967,77.838104,109.75862
"18997",253.343,77.88693,109.73989
"18998",253.35634,77.91379,109.700714
"18999",253.36967,77.91623,109.63796
"19000",253.38301,77.89914,109.555756
"19001",253.39635,77.86008,109.45104
"19002",253.40968,77.806366,109.33046
"19003",253.42302,77.747765,109.20331
"19004",253.43636,77.68429,109.06945
"19005",253.44969,77.61837,108.93117
"19006",253.46303,77.55489,108.79327
"19007",253.47636,77.50118,108.66315
"19008",253.4897,77.45724,108.541115
"19009",253.50304,77.4255,108.42992
"19010",253.51637,77.40597,108.32993
"19011",253.52971,77.38888,108.23178
"19012",253.54305,77.37911,108.14042
"19013",253.55638,77.366905,108.04631
"19014",253.56972,77.35958,107.9567
"19015",253.58305,77.35714,107.87175
"19016",253.59639,77.36202,107.794044
"19017",253.60973,77.36446,107.71405
"19018",253.62306,77.36202,107.62925
"19019",253.6364,77.347374,107.532166
"19020",253.64973,77.3254,107.4273
"19021",253.66307,77.30343,107.32175
"19022",253.6764,77.32296,107.25701
"19023",253.68974,77.50118,107.35158
"19024",253.70308,78.0798,107.85211
"19025",253.71642,79.344475,109.05678
"19026",253.72975,81.47341,111.16523
"19027",253.74309,84.4007,114.138565
"19028",253.75642,87.82849,117.70387
"19029",253.76976,91.26116,121.38118
"19030",253.7831,94.16159,124.63352
"19031",253.79643,96.12451,127.038994
"19032",253.80977,97.01076,128.42914
"19033",253.8231,96.89113,128.8411
"19034",253.83644,95.956055,128.43387
"19035",253.84978,94.42283,127.39927
"19036",253.86311,92.53071,125.95786
"19037",253.87645,90.48234,124.30108
"19038",253.88979,88.4535,122.599815
"19039",253.90312,86.56138,120.97186
"19040",253.91646,84.874344,119.48987
"19041",253.9298,83.40948,118.17732
"19042",253.94313,82.15457,117.02896
"19043",253.95647,81.126724,116.06844
"19044",253.9698,80.37232,115.34925
"19045",253.98314,79.940186,114.92875
"19046",253.99648,79.87915,114.865845
"19047",254.00981,80.19409,115.17701
"19048",254.02315,80.82887,115.817856
"19049",254.03648,81.66384,116.67873
"19050",254.04982,82.55985,117.62673
"19051",254.06316,83.370415,118.51729
"19052",254.07649,83.9881,119.240295
"19053",254.08983,84.3299,119.706726
"19054",254.10316,84.36652,119.878654
"19055",254.1165,84.11505,119.76363
"19056",254.12984,83.63897,119.416145
"19057",254.14317,83.018845,118.90974
"19058",254.15651,82.31571,118.30094
"19059",254.16985,81.58572,117.64331
"19060",254.18318,80.87282,116.979965
"19061",254.19652,80.201416,116.33584
"19062",254.20985,79.58129,115.72201
"19063",254.22319,79.03197,115.1596
"19064",254.23653,78.56809,114.665474
"19065",254.24986,78.18967,114.2423
"19066",254.2632,77.88449,113.880554
"19067",254.27654,77.63546,113.565414
"19068",254.28987,77.4255,113.28156
"19069",254.3032,77.25216,113.02777
"19070",254.31654,77.11299,112.802734
"19071",254.32988,77.01045,112.60998
"19072",254.34322,76.946976,112.45308
"19073",254.35655,76.92012,112.33082
"19074",254.36989,76.92256,112.237015
"19075",254.38322,76.944534,112.16282
"19076",254.39656,76.981155,112.10396
"19077",254.4099,77.0251,112.053566
"19078",254.42323,77.07393,112.00943
"19079",254.43657,77.13252,111.976585
"19080",254.4499,77.20088,111.95534
"19081",254.46324,77.26925,111.93623
"19082",254.47658,77.32296,111.90461
"19083",254.48991,77.36202,111.860016
"19084",254.50325,77.38155,111.79711
"19085",254.51659,77.383995,111.71773
"19086",254.52992,77.37667,111.628654
"19087",254.54326,77.36446,111.53447
"19088",254.5566,77.347374,111.43502
"19089",254.56993,77.31808,111.32283
"19090",254.58327,77.27169,111.192635
"19091",254.5966,77.21553,111.051216
"19092",254.60994,77.16426,110.91293
"19093",254.62328,77.11543,110.77549
"19094",254.63661,77.07393,110.643845
"19095",254.64995,77.032425,110.5109
"19096",254.66328,76.98848,110.37422
"19097",254.67662,76.93721,110.22884
"19098",254.68996,76.88106,110.07698
"19099",254.7033,76.82002,109.91848
"19100",254.71663,76.76143,109.76051
"19101",254.72997,76.71015,109.60803
"19102",254.7433,76.6833,109.47837
"19103",254.75664,76.75899,109.45042
"19104",254.76997,77.1252,109.71535
"19105",254.78331,78.08713,110.58744
"19106",254.79665,79.91333,112.35387
"19107",254.80998,82.68192,115.11975
"19108",254.82332,86.20981,118.731445
"19109",254.83665,90.07706,122.79275
"19110",254.84999,93.70748,126.73808
"19111",254.86333,96.57862,130.03758
"19112",254.87666,98.38041,132.35745
"19113",254.89,99.07378,133.62521
"19114",254.90334,98.78813,133.93562
"19115",254.91667,97.73586,133.47049
"19116",254.93001,96.16113,132.45001
"19117",254.94334,94.3032,131.0971
"19118",254.95668,92.35737,129.59825
"19119",254.97002,90.48234,128.10939
"19120",254.98335,88.77577,126.7304
"19121",254.99669,87.25475,125.48363
"19122",255.01003,85.892426,124.34801
"19123",255.02336,84.661934,123.30165
"19124",255.0367,83.57549,122.36089
"19125",255.05003,82.669716,121.56685
"19126",255.06337,82.03006,121.01062
"19127",255.0767,81.72732,120.77132
"19128",255.09004,81.78836,120.88634
"19129",255.10338,82.159454,121.31332
"19130",255.11671,82.738075,121.95942
"19131",255.13005,83.387505,122.69441
"19132",255.14339,83.966125,123.37889
"19133",255.15672,84.36164,123.898346
"19134",255.17006,84.51545,124.18845
"19135",255.1834,84.4007,124.21481
"19136",255.19673,84.034485,123.986115
"19137",255.21007,83.458305,123.53601
"19138",255.2234,82.73319,122.91897
"19139",255.23674,81.917755,122.18894
"19140",255.25008,81.06569,121.396805
"19141",255.26341,80.22095,120.585365
"19142",255.27675,79.42016,119.79148
"19143",255.29008,78.68528,119.03848
"19144",255.30342,78.02365,118.33577
"19145",255.31676,77.452354,117.70271
"19146",255.3301,76.961624,117.13237
"19147",255.34343,76.558784,116.63458
"19148",255.35677,76.23407,116.20233
"19149",255.3701,75.98016,115.83074
"19150",255.38344,75.78485,115.50981
"19151",255.39677,75.6408,115.23404
"19152",255.41011,75.543144,115.00016
"19153",255.42345,75.48455,114.80229
"19154",255.43678,75.46014,114.63677
"19155",255.45012,75.47234,114.50711
"19156",255.46346,75.50652,114.3998
"19157",255.47679,75.55047,114.30333
"19158",255.49013,75.60174,114.21555
"19159",255.50346,75.650566,114.12694
"19160",255.5168,75.69451,114.034966
"19161",255.53014,75.718925,113.924835
"19162",255.54347,75.72381,113.79594
"19163",255.55681,75.71404,113.65254
"19164",255.57014,75.682304,113.48687
"19165",255.58348,75.63836,113.308
"19166",255.59682,75.58221,113.11555
"19167",255.61015,75.52117,112.91646
"19168",255.62349,75.45037,112.705696
"19169",255.63683,75.37469,112.48784
"19170",255.65016,75.28924,112.25785
"19171",255.6635,75.20622,112.027626
"19172",255.67683,75.13298,111.80458
"19173",255.69017,75.0695,111.58901
"19174",255.7035,75.02312,111.38855
"19175",255.71684,74.99138,111.20129
"19176",255.73018,74.96208,111.01547
"19177",255.74352,74.9279,110.82386
"19178",255.75685,74.89128,110.62874
"19179",255.77019,74.85222,110.43003
"19180",255.78352,74.81804,110.234985
"19181",255.79686,74.830246,110.08526
"19182",255.8102,74.98161,110.07507
"19183",255.82353,75.4992,110.43584
"19184",255.83687,76.70771,111.5037
"19185",255.8502,78.87572,113.568825
"19186",255.86354,82.06424,116.72221
"19187",255.87688,86.05112,120.7736
"19188",255.89021,90.36759,125.27917
"19189",255.90355,94.415504,129.65106
"19190",255.91689,97.63332,133.31937
"19191",255.93022,99.69634,135.93343
"19192",255.94356,100.558174,137.41077
"19193",255.9569,100.350655,137.84569
"19194",255.97023,99.30572,137.4367
"19195",255.98357,97.69192,136.42621
"19196",255.9969,95.77783,135.065
"19197",256.01025,93.79294,133.57317
"19198",256.0236,91.90814,132.1194
"19199",256.03693,90.21622,130.7996
"19200",256.05026,88.72694,129.62958
"19201",256.0636,87.39147,128.56683
"19202",256.07693,86.14145,127.54779
"19203",256.09027,84.95003,126.54829
"19204",256.1036,83.82941,125.58235
"19205",256.11694,82.86748,124.74009
"19206",256.13028,82.16434,124.12656
"19207",256.14362,81.7908,123.820656
"19208",256.15695,81.74441,123.83022
"19209",256.1703,81.96414,124.10447
"19210",256.18362,82.340126,124.54183
"19211",256.19696,82.738075,125.01291
"19212",256.2103,83.04326,125.403656
"19213",256.22363,83.16777,125.62327
"19214",256.23697,83.05791,125.6124
"19215",256.2503,82.703896,125.35394
"19216",256.26364,82.13016,124.8647
"19217",256.27698,81.38552,124.18663
"19218",256.2903,80.52369,123.368095
"19219",256.30365,79.605705,122.46648
"19220",256.317,78.68528,121.53373
"19221",256.33032,77.806366,120.61373
"19222",256.34366,77.00801,119.746826
"19223",256.357,76.30732,118.95264
"19224",256.37033,75.701836,118.23176
"19225",256.38367,75.18669,117.5823
"19226",256.397,74.75212,116.997314
"19227",256.41034,74.390785,116.471985
"19228",256.42368,74.090485,115.9964
"19229",256.437,73.85611,115.577354
"19230",256.45035,73.687645,115.216896
"19231",256.46368,73.57778,114.909775
"19232",256.47702,73.52163,114.65293
"19233",256.49036,73.50942,114.43828
"19234",256.5037,73.53628,114.26231
"19235",256.51703,73.59487,114.11891
"19236",256.53036,73.68032,114.0042
"19237",256.5437,73.77554,113.90194
"19238",256.55704,73.863434,113.79532
"19239",256.57037,73.934235,113.674355
"19240",256.5837,73.985504,113.53607
"19241",256.59705,74.01236,113.37498
"19242",256.61038,74.02701,113.202515
"19243",256.62372,74.02945,113.0183
"19244",256.63705,74.02457,112.82684
"19245",256.6504,74.002594,112.61814
"19246",256.66373,73.970856,112.39899
"19247",256.67706,73.92691,112.16663
"19248",256.6904,73.87808,111.928024
"19249",256.70374,73.81949,111.67812
"19250",256.71707,73.760895,111.42639
"19251",256.7304,73.70229,111.17282
"19252",256.74374,73.63882,110.912544
"19253",256.75708,73.56313,110.63808
"19254",256.77042,73.48501,110.3588
"19255",256.78375,73.409325,110.07953
"19256",256.7971,73.35317,109.81742
"19257",256.81042,73.358055,109.61459
"19258",256.82376,73.52895,109.577934
"19259",256.8371,74.092926,109.93969
"19260",256.85043,75.372246,111.03442
"19261",256.86377,77.645226,113.16278
"19262",256.8771,80.98024,116.42421
"19263",256.89044,85.16487,120.63947
"19264",256.90378,89.72793,125.36393
"19265",256.9171,94.05905,129.99905
"19266",256.93045,97.57961,133.95895
"19267",256.9438,99.94049,136.8692
"19268",256.95712,101.065994,138.61784
"19269",256.97046,101.07088,139.28104
"19270",256.9838,100.18463,139.05325
"19271",256.99713,98.685585,138.18498
"19272",257.01047,96.85939,136.94272
"19273",257.0238,94.95262,135.5628
"19274",257.03714,93.14839,134.22585
"19275",257.05048,91.5346,133.02293
"19276",257.0638,90.11856,131.96735
"19277",257.07715,88.82948,130.99448
"19278",257.09048,87.586784,130.0277
"19279",257.10382,86.33433,129.01233
"19280",257.11716,85.07698,127.95293
"19281",257.1305,83.88312,126.91772
"19282",257.14383,82.86015,126.0161
"19283",257.15717,82.11307,125.35839
"19284",257.1705,81.685814,124.99717
"19285",257.18384,81.55642,124.920456
"19286",257.19717,81.651634,125.06431
"19287",257.2105,81.85916,125.32345
"19288",257.22385,82.0618,125.58418
"19289",257.23718,82.15457,125.74139
"19290",257.25052,82.0618,125.71594
"19291",257.26385,81.75418,125.472755
"19292",257.2772,81.22926,125.002655
"19293",257.29053,80.51881,124.33061
"19294",257.30386,79.674065,123.50208
"19295",257.3172,78.75609,122.57392
"19296",257.33054,77.821014,121.599976
"19297",257.34387,76.91768,120.62855
"19298",257.3572,76.0827,119.69725
"19299",257.37054,75.34539,118.837524
"19300",257.38388,74.70817,118.05485
"19301",257.39722,74.178375,117.35969
"19302",257.41055,73.741356,116.740746
"19303",257.4239,73.38979,116.1936
"19304",257.43723,73.11391,115.71115
"19305",257.45056,72.903946,115.286
"19306",257.4639,72.75746,114.91777
"19307",257.47723,72.672005,114.60599
"19308",257.49057,72.63294,114.33792
"19309",257.5039,72.6305,114.105255
"19310",257.51724,72.66224,113.90669
"19311",257.53058,72.72083,113.73598
"19312",257.5439,72.79164,113.579315
"19313",257.55725,72.86977,113.43218
"19314",257.5706,72.94789,113.28749
"19315",257.58392,73.02846,113.14768
"19316",257.59726,73.111465,113.01283
"19317",257.6106,73.19203,112.878136
"19318",257.62393,73.27505,112.748405
"19319",257.63727,73.34829,112.611496
"19320",257.6506,73.409325,112.46467
"19321",257.66394,73.445946,112.295334
"19322",257.67728,73.463036,112.10761
"19323",257.6906,73.463036,111.903336
"19324",257.70395,73.443504,111.67953
"19325",257.7173,73.40444,111.43558
"19326",257.73062,73.34829,111.17332
"19327",257.74396,73.27749,110.89465
"19328",257.7573,73.19447,110.60156
"19329",257.77063,73.1017,110.29612
"19330",257.78397,73.01137,109.99022
"19331",257.7973,72.94545,109.70591
"19332",257.81064,72.92348,109.463486
"19333",257.82397,73.006485,109.325356
"19334",257.8373,73.34829,109.448616
"19335",257.85065,74.24185,110.134315
"19336",257.86398,76.01434,111.72687
"19337",257.87732,78.85863,114.4466
"19338",257.89066,82.720985,118.27329
"19339",257.904,87.25475,122.89209
"19340",257.91733,91.895935,127.75998
"19341",257.93066,96.007324,132.24312
"19342",257.944,99.09819,135.83421
"19343",257.95734,100.95613,138.28897
"19344",257.97067,101.62264,139.61037
"19345",257.984,101.27596,139.93939
"19346",257.99734,100.18463,139.51294
"19347",258.01068,98.6392,138.59828
"19348",258.02402,96.900894,137.44246
"19349",258.03735,95.17479,136.2445
"19350",258.0507,93.58541,135.12933
"19351",258.06403,92.17914,134.1476
"19352",258.07736,90.8925,133.24156
"19353",258.0907,89.62783,132.31728
"19354",258.10403,88.30457,131.29489
"19355",258.11737,86.90074,130.15057
"19356",258.1307,85.46761,128.93309
"19357",258.14404,84.12726,127.763596
"19358",258.15738,83.0164,126.781715
"19359",258.17072,82.230255,126.08983
"19360",258.18405,81.79813,125.727394
"19361",258.1974,81.671165,125.656624
"19362",258.21072,81.75174,125.78942
"19363",258.22406,81.90799,126.00041
"19364",258.2374,82.01297,126.165016
"19365",258.25073,81.969025,126.183975
"19366",258.26407,81.71999,125.996475
"19367",258.2774,81.248795,125.579025
"19368",258.29074,80.58228,124.95154
"19369",258.30408,79.77173,124.15918
"19370",258.3174,78.87572,123.256035
"19371",258.33075,77.945526,122.29071
"19372",258.3441,77.02754,121.308525
"19373",258.35742,76.16083,120.34892
"19374",258.37076,75.369804,119.43793
"19375",258.3841,74.669106,118.59254
"19376",258.39743,74.06851,117.825356
"19377",258.41077,73.57046,117.141945
"19378",258.4241,73.162735,116.5333
"19379",258.43744,72.83559,115.99249
"19380",258.45078,72.569466,115.50249
"19381",258.4641,72.36439,115.0652
"19382",258.47745,72.215454,114.67766
"19383",258.49078,72.13245,114.35138
"19384",258.50412,72.10803,114.0811
"19385",258.51746,72.13489,113.86133
"19386",258.5308,72.198364,113.679016
"19387",258.54413,72.28382,113.520676
"19388",258.55746,72.379036,113.374756
"19389",258.5708,72.47913,113.236694
"19390",258.58414,72.59388,113.11641
"19391",258.59747,72.71351,113.00459
"19392",258.6108,72.833145,112.89653
"19393",258.62415,72.94301,112.78243
"19394",258.63748,73.03334,112.65224
"19395",258.65082,73.094376,112.49557
"19396",258.66415,73.12123,112.306625
"19397",258.6775,73.11391,112.08434
"19398",258.69083,73.077286,111.832535
"19399",258.70416,73.0016,111.54052
"19400",258.7175,72.89662,111.21684
"19401",258.73083,72.764786,110.86303
"19402",258.74417,72.61829,110.49044
"19403",258.7575,72.47913,110.120605
"19404",258.77084,72.37171,109.77815
"19405",258.78418,72.32777,109.49582
"19406",258.79752,72.38636,109.31465
"19407",258.81085,72.637825,109.328186
"19408",258.8242,73.27993,109.74022
"19409",258.83752,74.57633,110.82662
"19410",258.85086,76.771194,112.852
"19411",258.8642,79.92798,115.90788
"19412",258.87753,83.87579,119.85345
"19413",258.89087,88.19226,124.29103
"19414",258.9042,92.315865,128.67064
"19415",258.91754,95.70214,132.44179
"19416",258.93088,98.00931,135.23965
"19417",258.9442,99.13725,136.93039
"19418",258.95755,99.18852,137.5797
"19419",258.9709,98.38285,137.37367
"19420",258.98422,97.00099,136.56628
"19421",258.99756,95.3164,135.41296
"19422",259.0109,93.56344,134.13864
"19423",259.02423,91.89838,132.89743
"19424",259.03757,90.372475,131.74335
"19425",259.0509,88.96864,130.66365
"19426",259.06424,87.6112,129.58647
"19427",259.07758,86.2269,128.44002
"19428",259.0909,84.81087,127.218575
"19429",259.10425,83.42657,125.98461
"19430",259.11758,82.196075,124.8612
"19431",259.13092,81.25124,123.98499
"19432",259.14426,80.672615,123.445465
"19433",259.1576,80.465096,123.258965
"19434",259.17093,80.56031,123.36871
"19435",259.18427,80.831314,123.65723
"19436",259.1976,81.13649,123.98838
"19437",259.21094,81.3489,124.236305
"19438",259.22427,81.38308,124.31264
"19439",259.2376,81.1902,124.16298
"19440",259.25095,80.77272,123.78269
"19441",259.26428,80.15747,123.19159
"19442",259.27762,79.3933,122.43234
"19443",259.29095,78.536354,121.556435
"19444",259.3043,77.642784,120.61713
"19445",259.31763,76.76631,119.66699
"19446",259.33096,75.93866,118.73829
"19447",259.3443,75.18669,117.859406
"19448",259.35764,74.52262,117.04492
"19449",259.37097,73.951324,116.30246
"19450",259.3843,73.46792,115.630035
"19451",259.39764,73.06996,115.027954
"19452",259.41098,72.75014,114.49157
"19453",259.42432,72.515755,114.03063
"19454",259.43765,72.35462,113.63562
"19455",259.451,72.254524,113.2966
"19456",259.46432,72.198364,112.9984
"19457",259.47766,72.181274,112.7375
"19458",259.491,72.19348,112.50537
"19459",259.50433,72.22766,112.29559
"19460",259.51767,72.28138,112.10643
"19461",259.531,72.361946,111.945786
"19462",259.54434,72.4596,111.80475
"19463",259.55768,72.5597,111.669205
"19464",259.571,72.66468,111.54167
"19465",259.58435,72.76723,111.41499
"19466",259.5977,72.86244,111.28419
"19467",259.61102,72.94789,111.14659
"19468",259.62436,73.023575,111.0019
"19469",259.6377,73.074844,110.83516
"19470",259.65103,73.10414,110.64805
"19471",259.66437,73.10414,110.432556
"19472",259.6777,73.074844,110.18777
"19473",259.69104,73.02113,109.91765
"19474",259.70438,72.95033,109.62876
"19475",259.7177,72.86977,109.327896
"19476",259.73105,72.796524,109.03184
"19477",259.7444,72.74769,108.7579
"19478",259.75772,72.74525,108.528824
"19479",259.77106,72.80141,108.35828
"19480",259.7844,72.955215,108.28713
"19481",259.79773,73.31655,108.42832
"19482",259.81107,74.10025,109.00317
"19483",259.8244,75.57488,110.293434
"19484",259.83774,77.945526,112.525795
"19485",259.85107,81.21706,115.73312
"19486",259.8644,85.152664,119.706764
"19487",259.87775,89.28603,124.00115
"19488",259.89108,93.05318,128.05849
"19489",259.90442,95.96582,131.37904
"19490",259.91776,97.7554,133.66756
"19491",259.9311,98.38529,134.8523
"19492",259.94443,97.99466,135.03621
"19493",259.95776,96.82277,134.42665
"19494",259.9711,95.14061,133.2702
"19495",259.98444,93.21919,131.82193
"19496",259.99777,91.27581,130.29164
"19497",260.0111,89.43008,128.79828
"19498",260.02444,87.728386,127.39128
"19499",260.03778,86.12436,126.02876
"19500",260.05112,84.58625,124.68204
"19501",260.06445,83.13359,123.372696
"19502",260.0778,81.846954,122.18398
"19503",260.09113,80.84108,121.235825
"19504",260.10446,80.22827,120.6493
"19505",260.1178,80.05005,120.47821
"19506",260.13113,80.257576,120.6873
"19507",260.14447,80.72144,121.15922
"19508",260.1578,81.29519,121.75551
"19509",260.17114,81.83963,122.34042
"19510",260.18448,82.23514,122.79342
"19511",260.1978,82.391396,123.01952
"19512",260.21115,82.27665,122.97951
"19513",260.2245,81.89578,122.669785
"19514",260.23782,81.28542,122.11867
"19515",260.25116,80.50904,121.382454
"19516",260.2645,79.63012,120.51944
"19517",260.27783,78.71458,119.59234
"19518",260.29117,77.81613,118.653725
"19519",260.3045,76.97383,117.74318
"19520",260.31784,76.21942,116.8942
"19521",260.33118,75.56512,116.12176
"19522",260.3445,75.00603,115.42408
"19523",260.35785,74.547035,114.80903
"19524",260.3712,74.178375,114.269966
"19525",260.38452,73.9025,113.812164
"19526",260.39786,73.71694,113.436066
"19527",260.4112,73.6144,113.137184
"19528",260.42453,73.58999,112.91322
"19529",260.43787,73.636375,112.7593
"19530",260.4512,73.738914,112.66298
"19531",260.46454,73.88052,112.60893
"19532",260.47787,74.0441,112.581276
"19533",260.4912,74.215,112.566055
"19534",260.50455,74.373695,112.543976
"19535",260.51788,74.510414,112.504875
"19536",260.53122,74.615395,112.43831
"19537",260.54456,74.70084,112.35549
"19538",260.5579,74.75456,112.243614
"19539",260.57123,74.78142,112.10655
"19540",260.58456,74.7863,111.94836
"19541",260.5979,74.77409,111.773224
"19542",260.61124,74.74967,111.585495
"19543",260.62457,74.73258,111.404335
"19544",260.6379,74.78874,111.29589
"19545",260.65125,75.0695,111.4138
"19546",260.66458,75.80682,111.99705
"19547",260.67792,77.23018,113.28937
"19548",260.69125,79.44457,115.417206
"19549",260.7046,82.35966,118.31493
"19550",260.71793,85.67025,121.699265
"19551",260.73126,88.92714,125.13335
"19552",260.7446,91.663994,128.14917
"19553",260.75793,93.539024,130.3887
"19554",260.77127,94.415504,131.68828
"19555",260.7846,94.33738,132.06064
"19556",260.79794,93.47311,131.64441
"19557",260.81128,92.05463,130.64696
"19558",260.82462,90.33097,129.3
"19559",260.83795,88.49012,127.782
"19560",260.8513,86.641945,126.19914
"19561",260.86462,84.83284,124.597595
"19562",260.87796,83.07988,122.99566
"19563",260.8913,81.4197,121.431725
"19564",260.90463,79.937744,119.99413
"19565",260.91797,78.77806,118.832504
"19566",260.9313,78.0676,118.083855
"19567",260.94464,77.8674,117.82327
"19568",260.95798,78.150604,118.03983
"19569",260.9713,78.80003,118.63147
"19570",260.98465,79.63744,119.43138
"19571",260.998,80.482185,120.26479
"19572",261.01132,81.17799,120.97567
"19573",261.02466,81.62478,121.45927
"19574",261.038,81.76883,121.65409
"19575",261.05133,81.600365,121.5409
"19576",261.06467,81.16579,121.156334
"19577",261.078,80.52857,120.55555
"19578",261.09134,79.76196,119.80546
"19579",261.10468,78.93431,118.97037
"19580",261.118,78.10422,118.10697
"19581",261.13135,77.31808,117.26159
"19582",261.14468,76.60029,116.45999
"19583",261.15802,75.97528,115.728745
"19584",261.17136,75.44549,115.07318
"19585",261.1847,75.01091,114.49628
"19586",261.19803,74.66422,113.99368
"19587",261.21136,74.40299,113.56571
"19588",261.2247,74.22232,113.21014
"19589",261.23804,74.10269,112.90996
"19590",261.25137,74.03677,112.65975
"19591",261.2647,74.022125,112.458755
"19592",261.27805,74.05386,112.30369
"19593",261.29138,74.124664,112.188675
"19594",261.30472,74.22476,112.10517
"19595",261.31805,74.337074,112.03701
"19596",261.3314,74.442055,111.96503
"19597",261.34473,74.529945,111.879234
"19598",261.35806,74.60319,111.78154
"19599",261.3714,74.67643,111.686134
"19600",261.38474,74.759445,111.60279
"19601",261.39807,74.861984,111.541565
"19602",261.4114,75.02312,111.54214
"19603",261.42474,75.34295,111.70644
"19604",261.43808,76.02167,112.23963
"19605",261.45142,77.31808,113.41172
"19606",261.46475,79.43481,115.44464
"19607",261.4781,82.3621,118.35427
"19608",261.49142,85.872894,121.93888
"19609",261.50476,89.54238,125.79189
"19610",261.5181,92.85054,129.39825
"19611",261.53143,95.360344,132.30963
"19612",261.54477,96.82765,134.25696
"19613",261.5581,97.22804,135.18321
"19614",261.57144,96.69337,135.18692
"19615",261.58478,95.46044,134.47566
"19616",261.5981,93.79538,133.29373
"19617",261.61145,91.949646,131.8791
"19618",261.6248,90.11856,130.42145
"19619",261.63812,88.394905,129.01399
"19620",261.65146,86.77623,127.65765
"19621",261.6648,85.223465,126.31664
"19622",261.67813,83.70733,124.96374
"19623",261.69147,82.26444,123.6367
"19624",261.7048,80.99489,122.43791
"19625",261.71814,80.03784,121.511955
"19626",261.73148,79.49828,120.97358
"19627",261.7448,79.412834,120.87245
"19628",261.75815,79.710686,121.151955
"19629",261.77148,80.26002,121.692245
"19630",261.78482,80.88747,122.32782
"19631",261.79816,81.43435,122.902435
"19632",261.8115,81.77615,123.28906
"19633",261.82483,81.83963,123.40804
"19634",261.83817,81.602806,123.22871
"19635",261.8515,81.08766,122.76365
"19636",261.86484,80.343025,122.053
"19637",261.87817,79.447014,121.16771
"19638",261.8915,78.4802,120.18362
"19639",261.90485,77.52804,119.18396
"19640",261.91818,76.646675,118.22535
"19641",261.93152,75.86542,117.3393
"19642",261.94485,75.19646,116.54114
"19643",261.9582,74.63004,115.824615
"19644",261.97153,74.1564,115.18317
"19645",261.98486,73.76822,114.61237
"19646",261.9982,73.46792,114.11733
"19647",262.01154,73.2604,113.70569
"19648",262.02487,73.14076,113.37544
"19649",262.0382,73.09926,113.11959
"19650",262.05154,73.12367,112.92836
"19651",262.06488,73.20424,112.794044
"19652",262.07822,73.321434,112.698875
"19653",262.09155,73.45571,112.62445
"19654",262.1049,73.58999,112.55422
"19655",262.11823,73.71206,112.47598
"19656",262.13156,73.80728,112.37471
"19657",262.1449,73.8732,112.24711
"19658",262.15823,73.9147,112.09715
"19659",262.17157,73.934235,111.92652
"19660",262.1849,73.93912,111.74185
"19661",262.19824,73.953766,111.5671
"19662",262.21158,74.005035,111.42943
"19663",262.2249,74.19058,111.427635
"19664",262.23825,74.70084,111.756355
"19665",262.2516,75.81171,112.70162
"19666",262.26492,77.76486,114.523895
"19667",262.27826,80.6482,117.33739
"19668",262.2916,84.30549,121.01493
"19669",262.30493,88.32899,125.17297
"19670",262.31827,92.1767,129.28096
"19671",262.3316,95.326164,132.81094
"19672",262.34494,97.428246,135.39197
"19673",262.35828,98.38773,136.89609
"19674",262.3716,98.31205,137.39502
"19675",262.38495,97.425804,137.08102
"19676",262.3983,96.02197,136.22174
"19677",262.41162,94.36912,135.06958
"19678",262.42496,92.6894,133.8389
"19679",262.4383,91.107346,132.65338
"19680",262.45163,89.64004,131.53317
"19681",262.46497,88.224,130.41838
"19682",262.4783,86.785995,129.23738
"19683",262.49164,85.28939,127.952835
"19684",262.50497,83.7879,126.61664
"19685",262.5183,82.39872,125.345825
"19686",262.53165,81.28054,124.302605
"19687",262.54498,80.55787,123.61995
"19688",262.55832,80.26734,123.346855
"19689",262.57166,80.34791,123.435776
"19690",262.585,80.67506,123.773796
"19691",262.59833,81.075455,124.19529
"19692",262.61166,81.39529,124.54873
"19693",262.625,81.50759,124.704636
"19694",262.63834,81.35134,124.5955
"19695",262.65167,80.92409,124.21047
"19696",262.665,80.255135,123.5704
"19697",262.67834,79.40307,122.7263
"19698",262.69168,78.433815,121.738396
"19699",262.70502,77.418175,120.67381
"19700",262.71835,76.42451,119.599464
"19701",262.7317,75.508965,118.57219
"19702",262.74503,74.70573,117.62861
"19703",262.75836,74.022125,116.779564
"19704",262.7717,73.45327,116.0239
"19705",262.78503,72.989395,115.355446
"19706",262.79837,72.61829,114.76527
"19707",262.8117,72.33753,114.25383
"19708",262.82504,72.149536,113.826385
"19709",262.83838,72.05432,113.48584
"19710",262.8517,72.044556,113.22777
"19711",262.86505,72.10559,113.04019
"19712",262.8784,72.22034,112.90823
"19713",262.89172,72.36927,112.81406
"19714",262.90506,72.52552,112.73184
"19715",262.9184,72.66956,112.6423
"19716",262.93173,72.78676,112.530426
"19717",262.94507,72.86488,112.38314
"19718",262.9584,72.901505,112.19679
"19719",262.97174,72.89906,111.97253
"19720",262.98508,72.86244,111.714005
"19721",262.9984,72.80629,111.43481
"19722",263.01175,72.75502,111.15874
"19723",263.0251,72.73792,110.91524
"19724",263.03842,72.78676,110.73714
"19725",263.05176,72.99916,110.72413
"19726",263.0651,73.59243,111.098625
"19727",263.07843,74.85466,112.16062
"19728",263.09177,77.02022,114.16539
"19729",263.1051,80.13306,117.18511
"19730",263.11844,83.983215,121.03943
"19731",263.13177,88.128784,125.30947
"19732",263.1451,92.000916,129.43562
"19733",263.15845,95.082016,132.89175
"19734",263.17178,97.06935,135.3504
"19735",263.18512,97.90677,136.72124
"19736",263.19846,97.73098,137.10504
"19737",263.2118,96.79347,136.72162
"19738",263.22513,95.38232,135.83527
"19739",263.23846,93.770966,134.70462
"19740",263.2518,92.15961,133.5236
"19741",263.26514,90.63615,132.38013
"19742",263.27847,89.181046,131.2574
"19743",263.2918,87.71862,130.08188
"19744",263.30515,86.18295,128.78741
"19745",263.31848,84.578926,127.3766
"19746",263.33182,82.99199,125.932755
"19747",263.34515,81.57595,124.610214
"19748",263.3585,80.50416,123.58767
"19749",263.37183,79.88159,122.98086
"19750",263.38516,79.710686,122.80625
"19751",263.3985,79.90845,122.99497
"19752",263.41183,80.308846,123.39251
"19753",263.42517,80.726326,123.81964
"19754",263.4385,81.00954,124.12555
"19755",263.45184,81.04616,124.19372
"19756",263.46518,80.79225,123.9725
"19757",263.47852,80.25269,123.4577
"19758",263.49185,79.48608,122.69898
"19759",263.5052,78.56077,121.757614
"19760",263.51852,77.557335,120.709206
"19761",263.53186,76.54658,119.622116
"19762",263.5452,75.58953,118.55715
"19763",263.55853,74.720375,117.55017
"19764",263.57187,73.968414,116.633224
"19765",263.5852,73.33608,115.81241
"19766",263.59854,72.8185,115.08658
"19767",263.61188,72.40589,114.449554
"19768",263.6252,72.0885,113.89485
"19769",263.63855,71.85657,113.41568
"19770",263.6519,71.69543,113.00006
"19771",263.66522,71.60265,112.647766
"19772",263.67856,71.57336,112.35605
"19773",263.6919,71.59533,112.114685
"19774",263.70523,71.67101,111.92772
"19775",263.71857,71.79309,111.78952
"19776",263.7319,71.9469,111.68686
"19777",263.74524,72.12512,111.61342
"19778",263.75858,72.31556,111.55777
"19779",263.7719,72.50355,111.505615
"19780",263.78525,72.674446,111.442245
"19781",263.79858,72.813614,111.35249
"19782",263.81192,72.90639,111.220695
"19783",263.82526,72.94545,111.038086
"19784",263.8386,72.9308,110.802986
"19785",263.85193,72.85756,110.508835
"19786",263.86526,72.73304,110.16112
"19787",263.8786,72.57191,109.77289
"19788",263.89194,72.40833,109.37718
"19789",263.90527,72.2765,109.0081
"19790",263.9186,72.20569,108.69594
"19791",263.93195,72.25208,108.498764
"19792",263.94528,72.55482,108.55937
"19793",263.95862,73.37026,109.14215
"19794",263.97195,75.00847,110.57318
"19795",263.9853,77.68673,113.09546
"19796",263.99863,81.392845,116.72929
"19797",264.01196,85.83139,121.21136
"19798",264.0253,90.44816,126.01035
"19799",264.03864,94.60349,130.49219
"19800",264.05197,97.76761,134.11266
"19801",264.0653,99.67193,136.5722
"19802",264.07864,100.31403,137.82906
"19803",264.09198,99.88678,138.03662
"19804",264.10532,98.685585,137.4569
"19805",264.11865,97.040054,136.3953
"19806",264.132,95.238266,135.126
"19807",264.14532,93.47799,133.84192
"19808",264.15866,91.83246,132.61757
"19809",264.172,90.26261,131.41748
"19810",264.18533,88.6952,130.17078
"19811",264.19867,87.07164,128.81894
"19812",264.212,85.4139,127.38219
"19813",264.22534,83.82208,125.95955
"19814",264.23868,82.459755,124.71666
"19815",264.252,81.47341,123.80718
"19816",264.26535,80.94362,123.32343
"19817",264.2787,80.850845,123.26015
"19818",264.29202,81.094986,123.530876
"19819",264.30536,81.50515,123.97526
"19820",264.3187,81.90311,124.42025
"19821",264.33203,82.13748,124.714096
"19822",264.34537,82.10574,124.74915
"19823",264.3587,81.76639,124.4756
"19824",264.37204,81.13893,123.90334
"19825",264.38538,80.28443,123.084435
"19826",264.3987,79.28588,122.09477
"19827",264.41205,78.22385,121.01042
"19828",264.42538,77.17403,119.9051
"19829",264.43872,76.20477,118.847534
"19830",264.45206,75.34295,117.86711
"19831",264.4654,74.61295,116.991585
"19832",264.47873,74.002594,116.21288
"19833",264.49207,73.50942,115.532295
"19834",264.5054,73.12123,114.94128
"19835",264.51874,72.8307,114.43579
"19836",264.53207,72.62318,114.00423
"19837",264.5454,72.49622,113.64674
"19838",264.55875,72.430305,113.34633
"19839",264.57208,72.41566,113.09512
"19840",264.58542,72.43763,112.88008
"19841",264.59875,72.49134,112.697464
"19842",264.6121,72.57191,112.54338
"19843",264.62543,72.674446,112.41379
"19844",264.63876,72.7892,112.29962
"19845",264.6521,72.901505,112.18659
"19846",264.66544,73.00404,112.06731
"19847",264.67877,73.09682,111.94146
"19848",264.6921,73.18715,111.81607
"19849",264.70544,73.26528,111.681305
"19850",264.71878,73.323875,111.52944
"19851",264.73212,73.36538,111.36232
"19852",264.74545,73.37759,111.1672
"19853",264.7588,73.35317,110.93584
"19854",264.77213,73.3019,110.67686
"19855",264.78546,73.22865,110.394295
"19856",264.7988,73.128555,110.082596
"19857",264.81213,73.00893,109.74824
"19858",264.82547,72.88197,109.40282
"19859",264.8388,72.762344,109.06075
"19860",264.85214,72.66956,108.7418
"19861",264.86548,72.6305,108.47366
"19862",264.8788,72.68177,108.29463
"19863",264.89215,72.93324,108.31741
"19864",264.9055,73.62417,108.787506
"19865",264.91882,75.09636,110.060455
"19866",264.93216,77.61593,112.42679
"19867",264.9455,81.23659,115.972946
"19868",264.95883,85.72152,120.49652
"19869",264.97217,90.55558,125.50938
"19870",264.9855,95.07713,130.3608
"19871",264.99884,98.68314,134.43796
"19872",265.01218,101.0074,137.34607
"19873",265.0255,101.97421,138.96936
"19874",265.03885,101.73739,139.41924
"19875",265.0522,100.58259,138.94373
"19876",265.06552,98.85649,137.86084
"19877",265.07886,96.883804,136.47742
"19878",265.0922,94.923325,135.04456
"19879",265.10553,93.12154,133.70912
"19880",265.11887,91.48577,132.4834
"19881",265.1322,89.94278,131.29933
"19882",265.14554,88.39735,130.0646
"19883",265.15887,86.80553,128.7352
"19884",265.1722,85.20882,127.35116
"19885",265.18555,83.72442,126.02953
"19886",265.19888,82.5037,124.9252
"19887",265.21222,81.67605,124.17579
"19888",265.22556,81.27322,123.82533
"19889",265.2389,81.23659,123.82849
"19890",265.25223,81.45144,124.081985
"19891",265.26556,81.75418,124.430084
"19892",265.2789,81.98367,124.71439
"19893",265.29224,82.01297,124.80568
"19894",265.30557,81.778595,124.63421
"19895",265.3189,81.27322,124.18441
"19896",265.33224,80.51881,123.46979
"19897",265.34558,79.586174,122.55337
"19898",265.35892,78.555885,121.51015
"19899",265.37225,77.49386,120.40299
"19900",265.3856,76.453804,119.28462
"19901",265.39893,75.47234,118.192345
"19902",265.41226,74.59586,117.17438
"19903",265.4256,73.84146,116.2511
"19904",265.43893,73.216446,115.43363
"19905",265.45227,72.71839,114.723595
"19906",265.4656,72.33753,114.11519
"19907",265.47894,72.059204,113.59741
"19908",265.49228,71.85901,113.14906
"19909",265.5056,71.727165,112.76282
"19910",265.51895,71.656364,112.43349
"19911",265.5323,71.641716,112.1581
"19912",265.54562,71.673454,111.928635
"19913",265.55896,71.744255,111.73923
"19914",265.5723,71.84436,111.581345
"19915",265.58563,71.96155,111.443665
"19916",265.59897,72.08362,111.31453
"19917",265.6123,72.198364,111.181885
"19918",265.62564,72.30091,111.040634
"19919",265.63898,72.40101,110.90013
"19920",265.6523,72.4889,110.75055
"19921",265.66565,72.55726,110.58418
"19922",265.679,72.59632,110.390656
"19923",265.69232,72.61341,110.17638
"19924",265.70566,72.603645,109.935776
"19925",265.719,72.569466,109.670456
"19926",265.73233,72.54017,109.40895
"19927",265.74567,72.52064,109.156296
"19928",265.759,72.51087,108.912796
"19929",265.77234,72.50111,108.66899
"19930",265.78568,72.4889,108.42244
"19931",265.799,72.47181,108.17062
"19932",265.81235,72.444954,107.90851
"19933",265.82568,72.413216,107.64067
"19934",265.83902,72.37415,107.36452
"19935",265.85236,72.34486,107.09691
"19936",265.8657,72.33997,106.8528
"19937",265.87903,72.3888,106.66225
"19938",265.89236,72.54505,106.58064
"19939",265.9057,72.98207,106.7847
"19940",265.91904,74.00748,107.5908
"19941",265.93237,75.982605,109.37866
"19942",265.9457,79.132065,112.40258
"19943",265.95905,83.41436,116.65775
"19944",265.97238,88.448616,121.798706
"19945",265.98572,93.592735,127.20685
"19946",265.99905,98.126495,132.16537
"19947",266.0124,101.48348,136.0888
"19948",266.02573,103.38781,138.66449
"19949",266.03906,103.86145,139.869
"19950",266.0524,103.133896,139.88712
"19951",266.06573,101.52987,139.00603
"19952",266.07907,99.41558,137.56454
"19953",266.0924,97.13283,135.88853
"19954",266.10574,94.940414,134.23152
"19955",266.11908,92.97261,132.7306
"19956",266.13242,91.23186,131.39525
"19957",266.14575,89.62539,130.13977
"19958",266.1591,88.05554,128.87071
"19959",266.17242,86.47349,127.54039
"19960",266.18576,84.928055,126.19725
"19961",266.1991,83.53887,124.96207
"19962",266.21243,82.45243,123.98621
"19963",266.22577,81.77371,123.38413
"19964",266.2391,81.52712,123.19297
"19965",266.25244,81.62966,123.34323
"19966",266.26578,81.951935,123.71643
"19967",266.2791,82.32792,124.15341
"19968",266.29245,82.59403,124.49227
"19969",266.3058,82.62821,124.60751
"19970",266.31912,82.36698,124.42841
"19971",266.33246,81.79324,123.92864
"19972",266.3458,80.94362,123.135056
"19973",266.35913,79.89624,122.117165
"19974",266.37247,78.746315,120.964
"19975",266.3858,77.576866,119.75537
"19976",266.39914,76.44892,118.551704
"19977",266.41248,75.421074,117.41289
"19978",266.4258,74.527504,116.37623
"19979",266.43915,73.7731,115.45081
"19980",266.45248,73.14809,114.63121
"19981",266.46582,72.65736,113.92636
"19982",266.47916,72.28626,113.325806
"19983",266.4925,72.02014,112.818634
"19984",266.50583,71.834595,112.38371
"19985",266.51917,71.72228,112.016235
"19986",266.5325,71.658806,111.69408
"19987",266.54584,71.641716,111.41632
"19988",266.55917,71.66369,111.17709
"19989",266.5725,71.727165,110.98006
"19990",266.58585,71.82239,110.81676
"19991",266.59918,71.94202,110.68083
"19992",266.61252,72.078735,110.565735
"19993",266.62585,72.217896,110.45735
"19994",266.6392,72.35218,110.34845
"19995",266.65253,72.47181,110.22908
"19996",266.66586,72.567024,110.089035
"19997",266.6792,72.637825,109.92755
"19998",266.69254,72.67689,109.73654
"19999",266.70587,72.689095,109.5199
"20000",266.7192,72.66712,109.269455
"20001",266.73254,72.61341,108.98659
"20002",266.74588,72.5597,108.70204
"20003",266.75922,72.518196,108.428024
"20004",266.77255,72.49622,108.17224
"20005",266.7859,72.49134,107.93286
"20006",266.79922,72.50843,107.7153
"20007",266.81256,72.5304,107.50316
"20008",266.8259,72.552376,107.2917
"20009",266.83923,72.57191,107.07849
"20010",266.85257,72.601204,106.875656
"20011",266.8659,72.63538,106.67862
"20012",266.87924,72.66224,106.47533
"20013",266.89258,72.68421,106.26799
"20014",266.9059,72.706184,106.06134
"20015",266.91925,72.75014,105.877365
"20016",266.9326,72.850235,105.75091
"20017",266.94592,73.111465,105.78871
"20018",266.95926,73.76578,106.22776
"20019",266.9726,75.18913,107.4563
"20020",266.98593,77.730675,109.8475
"20021",266.99927,81.52468,113.570595
"20022",267.0126,86.37339,118.46695
"20023",267.02594,91.76166,124.05438
"20024",267.03928,96.95216,129.61244
"20025",267.0526,101.222244,134.41228
"20026",267.06595,104.09338,137.94661
"20027",267.07928,105.41421,140.02036
"20028",267.09262,105.306786,140.70712
"20029",267.10596,104.042114,140.23329
"20030",267.1193,101.97421,138.9167
"20031",267.13263,99.474174,137.10336
"20032",267.14597,96.86427,135.10204
"20033",267.1593,94.383766,133.14853
"20034",267.17264,92.1474,131.36165
"20035",267.18597,90.1503,129.74416
"20036",267.1993,88.324104,128.23515
"20037",267.21265,86.61021,126.78139
"20038",267.22598,85.0013,125.37904
"20039",267.23932,83.57305,124.107086
"20040",267.25266,82.442665,123.088356
"20041",267.266,81.722435,122.44446
"20042",267.27933,81.45144,122.22729
"20043",267.29266,81.58083,122.40204
"20044",267.306,81.988556,122.85916
"20045",267.31934,82.50614,123.43889
"20046",267.33267,82.96513,123.9762
"20047",267.346,83.228806,124.33253
"20048",267.35934,83.20195,124.40657
"20049",267.37268,82.845505,124.150185
"20050",267.38602,82.178986,123.572586
"20051",267.39935,81.253685,122.71538
"20052",267.4127,80.14526,121.64613
"20053",267.42603,78.941635,120.447044
"20054",267.43936,77.733116,119.20545
"20055",267.4527,76.58076,117.982254
"20056",267.46603,75.53826,116.83291
"20057",267.47937,74.632484,115.787704
"20058",267.4927,73.87564,114.86313
"20059",267.50604,73.26284,114.058945
"20060",267.51938,72.779434,113.365005
"20061",267.5327,72.40833,112.768265
"20062",267.54605,72.14221,112.26491
"20063",267.5594,71.956665,111.8338
"20064",267.57272,71.837036,111.462814
"20065",267.58606,71.77112,111.1418
"20066",267.5994,71.76135,110.87488
"20067",267.61273,71.80774,110.6638
"20068",267.62607,71.90051,110.500565
"20069",267.6394,72.02991,110.37685
"20070",267.65274,72.183716,110.281586
"20071",267.66608,72.342415,110.19603
"20072",267.6794,72.49378,110.10809
"20073",267.69275,72.63294,110.01268
"20074",267.7061,72.764786,109.91431
"20075",267.71942,72.88197,109.8054
"20076",267.73276,72.97475,109.675735
"20077",267.7461,73.03822,109.51968
"20078",267.75943,73.0724,109.3363
"20079",267.77277,73.07973,109.127144
"20080",267.7861,73.06264,108.8938
"20081",267.79944,73.03334,108.64771
"20082",267.81277,72.99672,108.39339
"20083",267.8261,72.9601,108.13792
"20084",267.83945,72.9308,107.888626
"20085",267.85278,72.91127,107.648186
"20086",267.86612,72.89906,107.41446
"20087",267.87946,72.886856,107.18035
"20088",267.8928,72.86977,106.94098
"20089",267.90613,72.84291,106.69131
"20090",267.91946,72.813614,106.438354
"20091",267.9328,72.79408,106.19425
"20092",267.94614,72.798965,105.97395
"20093",267.95947,72.85756,105.80752
"20094",267.9728,73.04799,105.77475
"20095",267.98615,73.56313,106.07265
"20096",267.99948,74.74235,107.05071
"20097",268.01282,76.96895,109.113014
"20098",268.02615,80.45045,112.499794
"20099",268.0395,85.0721,117.13552
"20100",268.05283,90.389565,122.61149
"20101",268.06616,95.69726,128.24385
"20102",268.0795,100.25056,133.28769
"20103",268.09283,103.49035,137.16031
"20104",268.10617,105.18959,139.59363
"20105",268.1195,105.39712,140.58833
"20106",268.13284,104.34974,140.33461
"20107",268.14618,102.364845,139.11064
"20108",268.15952,99.78912,137.23383
"20109",268.17285,96.96193,135.02504
"20110",268.1862,94.151825,132.745
"20111",268.19952,91.527275,130.56268
"20112",268.21286,89.14931,128.54494
"20113",268.2262,87.00572,126.68727
"20114",268.23953,85.05989,124.960365
"20115",268.25287,83.32891,123.387505
"20116",268.2662,81.881134,122.043755
"20117",268.27954,80.82887,121.05028
"20118",268.29288,80.26002,120.507324
"20119",268.3062,80.21118,120.46661
"20120",268.31955,80.61158,120.87361
"20121",268.3329,81.31472,121.59586
"20122",268.34622,82.12039,122.44262
"20123",268.35956,82.83818,123.22667
"20124",268.3729,83.319145,123.796326
"20125",268.38623,83.46075,124.04165
"20126",268.39957,83.21904,123.90809
"20127",268.4129,82.62821,123.417854
"20128",268.42624,81.74197,122.61374
"20129",268.43958,80.6482,121.57441
"20130",268.4529,79.43725,120.38371
"20131",268.46625,78.204315,119.133194
"20132",268.47958,77.01778,117.89054
"20133",268.49292,75.93378,116.71335
"20134",268.50626,74.986496,115.639
"20135",268.5196,74.18326,114.67909
"20136",268.53293,73.52163,113.83569
"20137",268.54626,72.99184,113.103455
"20138",268.5596,72.584114,112.47673
"20139",268.57294,72.28626,111.94713
"20140",268.58627,72.0885,111.508316
"20141",268.5996,71.97131,111.14389
"20142",268.61295,71.922485,110.84416
"20143",268.62628,71.9176,110.58685
"20144",268.63962,71.94934,110.36601
"20145",268.65295,72.02258,110.18767
"20146",268.6663,72.13245,110.04823
"20147",268.67963,72.2765,109.94643
"20148",268.69296,72.44984,109.8784
"20149",268.7063,72.64027,109.832886
"20150",268.71964,72.83559,109.79822
"20151",268.73297,73.023575,109.76232
"20152",268.7463,73.199356,109.72009
"20153",268.75964,73.34829,109.65651
"20154",268.77298,73.46792,109.568275
"20155",268.78632,73.55581,109.45204
"20156",268.79965,73.61196,109.306816
"20157",268.813,73.63882,109.13405
"20158",268.82632,73.64126,108.937706
"20159",268.83966,73.62417,108.72191
"20160",268.853,73.59243,108.49093
"20161",268.86633,73.54604,108.24431
"20162",268.87967,73.48745,107.98403
"20163",268.893,73.42153,107.7146
"20164",268.90634,73.35317,107.44067
"20165",268.91968,73.28237,107.162155
"20166",268.933,73.20912,106.87898
"20167",268.94635,73.14076,106.59841
"20168",268.9597,73.09926,106.34256
"20169",268.97302,73.12123,106.14889
"20170",268.98636,73.3019,106.1146
"20171",268.9997,73.88052,106.48391
"20172",269.01303,75.228195,107.64035
"20173",269.02637,77.70626,109.9693
"20174",269.0397,81.461205,113.652565
"20175",269.05304,86.30991,118.546936
"20176",269.06638,91.73235,124.16656
"20177",269.0797,96.98634,129.78719
"20178",269.09305,101.33456,134.66623
"20179",269.10638,104.274055,138.27243
"20180",269.11972,105.63882,140.39575
"20181",269.13306,105.531395,141.08954
"20182",269.1464,104.200806,140.55681
"20183",269.15973,101.97177,139.08405
"20184",269.17307,99.19096,136.98985
"20185",269.1864,96.17578,134.57439
"20186",269.19974,93.18257,132.08667
"20187",269.21307,90.374916,129.69096
"20188",269.2264,87.801636,127.4419
"20189",269.23975,85.46273,125.3468
"20190",269.25308,83.35821,123.41299
"20191",269.26642,81.529564,121.689285
"20192",269.27975,80.06958,120.2771
"20193",269.2931,79.08812,119.29781
"20194",269.30643,78.65598,118.83718
"20195",269.31976,78.76097,118.90017
"20196",269.3331,79.30297,119.40345
"20197",269.34644,80.10376,120.18246
"20198",269.35977,80.96071,121.04265
"20199",269.3731,81.685814,121.797775
"20200",269.38644,82.142365,122.30701
"20201",269.39978,82.2449,122.476494
"20202",269.41312,81.97391,122.27565
"20203",269.42645,81.35134,121.71477
"20204",269.4398,80.45045,120.8561
"20205",269.45312,79.3518,119.77153
"20206",269.46646,78.150604,118.55008
"20207",269.4798,76.92256,117.264244
"20208",269.49313,75.7409,115.98641
"20209",269.50647,74.652016,114.764435
"20210",269.5198,73.69253,113.637825
"20211",269.53314,72.86488,112.613075
"20212",269.54648,72.181274,111.7065
"20213",269.5598,71.63683,110.917725
"20214",269.57315,71.22179,110.24133
"20215",269.5865,70.92149,109.66672
"20216",269.59982,70.728615,109.19014
"20217",269.61316,70.640724,108.812515
"20218",269.6265,70.65049,108.5298
"20219",269.63983,70.75304,108.34017
"20220",269.65317,70.93614,108.234314
"20221",269.6665,71.185165,108.20009
"20222",269.67984,71.48791,108.22737
"20223",269.69318,71.82483,108.298294
"20224",269.7065,72.16907,108.387054
"20225",269.71985,72.498665,108.47194
"20226",269.7332,72.79164,108.5305
"20227",269.74652,73.03334,108.54694
"20228",269.75986,73.21889,108.514786
"20229",269.7732,73.358055,108.44205
"20230",269.78653,73.463036,108.33947
"20231",269.79987,73.53872,108.21088
"20232",269.8132,73.582664,108.05291
"20233",269.82654,73.60952,107.87923
"20234",269.83987,73.62417,107.694176
"20235",269.8532,73.63149,107.50226
"20236",269.86655,73.636375,107.30813
"20237",269.87988,73.651024,107.12392
"20238",269.89322,73.670555,106.945045
"20239",269.90656,73.687645,106.76434
"20240",269.9199,73.69985,106.57929
"20241",269.93323,73.70229,106.38486
"20242",269.94656,73.69253,106.17829
"20243",269.9599,73.670555,105.95921
"20244",269.97324,73.65591,105.74677
"20245",269.98657,73.673,105.56561
"20246",269.9999,73.80728,105.50218
"20247",270.01324,74.268715,105.770096
"20248",270.02658,75.41375,106.73603
"20249",270.03992,77.611046,108.79001
"20250",270.05325,81.06813,112.17244
"20251",270.0666,85.65804,116.79573
"20252",270.07993,90.92668,122.24118
"20253",270.09326,96.163574,127.819534
"20254",270.1066,100.628975,132.79004
"20255",270.11993,103.77356,136.57928
"20256",270.13327,105.375145,138.9238
"20257",270.1466,105.48745,139.82907
"20258",270.15994,104.33753,139.47563
"20259",270.17328,102.223236,138.12189
"20260",270.1866,99.4815,136.07463
"20261",270.19995,96.41993,133.62186
"20262",270.2133,93.29488,131.00993
"20263",270.22662,90.27482,128.40533
"20264",270.23996,87.44274,125.89435
"20265",270.2533,84.842606,123.526794
"20266",270.26663,82.51591,121.351425
"20267",270.27997,80.55543,119.46957
"20268",270.2933,79.08812,118.019615
"20269",270.30664,78.238495,117.141495
"20270",270.31998,78.05783,116.905785
"20271",270.3333,78.504616,117.29188
"20272",270.34665,79.4226,118.16313
"20273",270.36,80.59449,119.31698
"20274",270.37332,81.78836,120.52943
"20275",270.38666,82.804,121.60095
"20276",270.4,83.50469,122.38927
"20277",270.41333,83.807434,122.80153
"20278",270.42667,83.69512,122.8082
"20279",270.44,83.209274,122.43782
"20280",270.45334,82.42069,121.74953
"20281",270.46667,81.41726,120.82174
"20282",270.48,80.289314,119.73808
"20283",270.49335,79.114975,118.572784
"20284",270.50668,77.96506,117.39521
"20285",270.52002,76.88838,116.254944
"20286",270.53336,75.91913,115.18845
"20287",270.5467,75.08659,114.22839
"20288",270.56003,74.38346,113.37172
"20289",270.57336,73.797516,112.61026
"20290",270.5867,73.323875,111.942795
"20291",270.60004,72.94057,111.35086
"20292",270.61337,72.64027,110.829956
"20293",270.6267,72.41566,110.37535
"20294",270.64005,72.271614,109.99429
"20295",270.65338,72.200806,109.68198
"20296",270.66672,72.200806,109.43825
"20297",270.68005,72.26429,109.25801
"20298",270.6934,72.38148,109.13345
"20299",270.70673,72.54017,109.05406
"20300",270.72006,72.73548,109.01625
"20301",270.7334,72.95766,109.01141
"20302",270.74673,73.199356,109.03304
"20303",270.76007,73.44839,109.06956
"20304",270.7734,73.69741,109.113846
"20305",270.78674,73.93179,109.151276
"20306",270.80008,74.13931,109.16917
"20307",270.81342,74.31266,109.15937
"20308",270.82675,74.45426,109.123245
"20309",270.8401,74.55436,109.05004
"20310",270.85342,74.61051,108.93602
"20311",270.86676,74.632484,108.78957
"20312",270.8801,74.617836,108.60719
"20313",270.89343,74.564125,108.38529
"20314",270.90677,74.476234,108.12753
"20315",270.9201,74.36149,107.84017
"20316",270.93344,74.229645,107.53213
"20317",270.94678,74.10025,107.22241
"20318",270.9601,74.002594,106.94039
"20319",270.97345,74.022125,106.77251
"20320",270.9868,74.356606,106.92018
"20321",271.00012,75.38201,107.76923
"20322",271.01346,77.51827,109.761185
"20323",271.0268,81.01686,113.18222
"20324",271.04013,85.78256,117.9797
"20325",271.05347,91.353935,123.73177
"20326",271.0668,96.99855,129.7312
"20327",271.08014,101.908295,135.17215
"20328",271.09348,105.48257,139.43106
"20329",271.1068,107.45281,142.19763
"20330",271.12015,107.86786,143.47058
"20331",271.13348,106.95964,143.43323
"20332",271.14682,105.02846,142.34453
"20333",271.16016,102.41367,140.51189
"20334",271.1735,99.44244,138.24107
"20335",271.18683,96.40528,135.8115
"20336",271.20016,93.5024,133.42128
"20337",271.2135,90.83391,131.17473
"20338",271.22684,88.394905,129.07428
"20339",271.24017,86.16098,127.10269
"20340",271.2535,84.139465,125.273705
"20341",271.26685,82.388954,123.65255
"20342",271.28018,81.02174,122.35999
"20343",271.29352,80.164795,121.53497
"20344",271.30685,79.871826,121.247154
"20345",271.3202,80.09155,121.462875
"20346",271.33353,80.68726,122.06145
"20347",271.34686,81.46853,122.86419
"20348",271.3602,82.24979,123.69134
"20349",271.37354,82.862595,124.37445
"20350",271.38687,83.20195,124.80326
"20351",271.4002,83.20439,124.90576
"20352",271.41354,82.86015,124.66166
"20353",271.42688,82.19852,124.0894
"20354",271.44022,81.27322,123.2328
"20355",271.45355,80.16235,122.16173
"20356",271.4669,78.95384,120.95829
"20357",271.48022,77.72091,119.692665
"20358",271.49356,76.53437,118.434906
"20359",271.5069,75.44549,117.237724
"20360",271.52023,74.495766,116.145676
"20361",271.53357,73.69497,115.172874
"20362",271.5469,73.03334,114.31422
"20363",271.56024,72.50599,113.56916
"20364",271.57358,72.09094,112.91992
"20365",271.5869,71.76868,112.350494
"20366",271.60025,71.52697,111.85156
"20367",271.6136,71.360954,111.42076
"20368",271.62692,71.258415,111.04825
"20369",271.64026,71.22423,110.74089
"20370",271.6536,71.26086,110.50328
"20371",271.66693,71.36828,110.3376
"20372",271.68027,71.536736,110.23631
"20373",271.6936,71.7467,110.18179
"20374",271.70694,71.98596,110.16315
"20375",271.72028,72.232544,110.15929
"20376",271.7336,72.481575,110.16559
"20377",271.74695,72.72083,110.16989
"20378",271.76028,72.94789,110.16948
"20379",271.77362,73.15053,110.15174
"20380",271.78696,73.31899,110.10616
"20381",271.8003,73.44106,110.019455
"20382",271.81363,73.514305,109.88773
"20383",271.82697,73.54116,109.711914
"20384",271.8403,73.51919,109.488106
"20385",271.85364,73.44839,109.21478
"20386",271.86697,73.33608,108.89774
"20387",271.8803,73.18471,108.538124
"20388",271.89365,73.01381,108.15425
"20389",271.90698,72.84779,107.76992
"20390",271.92032,72.71839,107.417015
"20391",271.93365,72.708626,107.1797
"20392",271.947,73.00404,107.24727
"20393",271.96033,73.944,107.968605
"20394",271.97366,75.93378,109.769135
"20395",271.987,79.24193,112.95022
"20396",272.00034,83.824524,117.509125
"20397",272.01367,89.27627,123.08038
"20398",272.027,94.916,129.01
"20399",272.04034,99.97711,134.53723
"20400",272.05368,103.81995,139.00435
"20401",272.06702,106.127106,142.05588
"20402",272.08035,106.881516,143.62675
"20403",272.0937,106.288246,143.87354
"20404",272.10703,104.64027,143.04706
"20405",272.12036,102.27207,141.44887
"20406",272.1337,99.53277,139.40556
"20407",272.14703,96.72022,137.20341
"20408",272.16037,94.03952,135.04523
"20409",272.1737,91.58343,133.02786
"20410",272.18704,89.34707,131.15349
"20411",272.20038,87.276726,129.37524
"20412",272.2137,85.34066,127.66658
"20413",272.22705,83.56573,126.05854
"20414",272.2404,82.04471,124.64895
"20415",272.25372,80.90944,123.577576
"20416",272.26706,80.25269,122.94925
"20417",272.2804,80.08423,122.78868
"20418",272.29373,80.323494,123.03058
"20419",272.30707,80.831314,123.54851
"20420",272.3204,81.43923,124.1824
"20421",272.33374,81.98123,124.76938
"20422",272.34708,82.32304,125.173096
"20423",272.3604,82.37919,125.30184
"20424",272.37375,82.11063,125.10763
"20425",272.3871,81.53445,124.597404
"20426",272.40042,80.709236,123.820145
"20427",272.41376,79.708244,122.84132
"20428",272.4271,78.60471,121.72867
"20429",272.44043,77.46212,120.54247
"20430",272.45377,76.334175,119.33522
"20431",272.4671,75.27215,118.15864
"20432",272.48044,74.31266,117.05141
"20433",272.49377,73.477684,116.038704
"20434",272.5071,72.77699,115.13419
"20435",272.52045,72.21301,114.3445
"20436",272.53378,71.763794,113.65193
"20437",272.54712,71.41711,113.04787
"20438",272.56046,71.16075,112.5233
"20439",272.5738,70.98253,112.06885
"20440",272.58713,70.872665,111.677185
"20441",272.60046,70.82628,111.345566
"20442",272.6138,70.84093,111.07353
"20443",272.62714,70.9044,110.850784
"20444",272.64047,71.01427,110.67641
"20445",272.6538,71.15587,110.5372
"20446",272.66714,71.31945,110.42441
"20447",272.68048,71.51232,110.34601
"20448",272.69382,71.73449,110.30293
"20449",272.70715,71.98352,110.29367
"20450",272.7205,72.24231,110.30194
"20451",272.73383,72.48646,110.303665
"20452",272.74716,72.689095,110.2715
"20453",272.7605,72.82826,110.182205
"20454",272.77383,72.89418,110.02401
"20455",272.78717,72.90883,109.816605
"20456",272.8005,72.87709,109.56327
"20457",272.81384,72.80385,109.26744
"20458",272.82718,72.69642,108.935135
"20459",272.8405,72.57191,108.58238
"20460",272.85385,72.45472,108.23306
"20461",272.8672,72.39124,107.93379
"20462",272.88052,72.45228,107.75705
"20463",272.89386,72.79408,107.86299
"20464",272.9072,73.69741,108.54114
"20465",272.92053,75.4992,110.14597
"20466",272.93387,78.44602,112.95215
"20467",272.9472,82.52079,116.978355
"20468",272.96054,87.40124,121.93758
"20469",272.97388,92.48188,127.24951
"20470",272.9872,97.059586,132.21727
"20471",273.00055,100.5362,136.22699
"20472",273.0139,102.59434,138.92688
"20473",273.02722,103.20958,140.2482
"20474",273.04056,102.56504,140.32896
"20475",273.0539,100.946365,139.41545
"20476",273.06723,98.68314,137.80681
"20477",273.08057,96.08545,135.79297
"20478",273.0939,93.42428,133.63446
"20479",273.10724,90.880295,131.50998
"20480",273.12057,88.51942,129.4891
"20481",273.1339,86.32456,127.560486
"20482",273.14725,84.281075,125.71464
"20483",273.16058,82.41337,123.98071
"20484",273.17392,80.799576,122.44234
"20485",273.18726,79.56664,121.23439
"20486",273.2006,78.83177,120.48598
"20487",273.21393,78.641335,120.25903
"20488",273.22726,78.93431,120.50955
"20489",273.2406,79.56664,121.10858
"20490",273.25394,80.365,121.893394
"20491",273.26727,81.146255,122.68606
"20492",273.2806,81.75418,123.3298
"20493",273.29395,82.08133,123.71177
"20494",273.30728,82.07645,123.77193
"20495",273.32062,81.74685,123.50722
"20496",273.33395,81.126724,122.94168
"20497",273.3473,80.28687,122.13704
"20498",273.36063,79.30053,121.15966
"20499",273.37396,78.238495,120.07577
"20500",273.3873,77.16426,118.94649
"20501",273.40063,76.12665,117.82026
"20502",273.41397,75.17204,116.74461
"20503",273.4273,74.31754,115.73924
"20504",273.44064,73.582664,114.82679
"20505",273.45398,72.96254,114.00613
"20506",273.46732,72.45716,113.28083
"20507",273.48065,72.05432,112.64227
"20508",273.494,71.74181,112.08147
"20509",273.50732,71.50988,111.59146
"20510",273.52066,71.360954,111.177216
"20511",273.534,71.28039,110.826675
"20512",273.54733,71.26574,110.539536
"20513",273.56067,71.32433,110.32518
"20514",273.574,71.448845,110.17857
"20515",273.58734,71.63439,110.09689
"20516",273.60068,71.87854,110.07962
"20517",273.614,72.16174,110.109024
"20518",273.62735,72.4596,110.16194
"20519",273.6407,72.75014,110.21684
"20520",273.65402,73.01625,110.2564
"20521",273.66736,73.24086,110.26277
"20522",273.6807,73.409325,110.22002
"20523",273.69403,73.52407,110.12881
"20524",273.70737,73.585106,109.98747
"20525",273.7207,73.585106,109.78701
"20526",273.73404,73.53384,109.53528
"20527",273.74738,73.443504,109.24288
"20528",273.7607,73.340965,108.935455
"20529",273.77405,73.26528,108.65168
"20530",273.78738,73.26528,108.44122
"20531",273.80072,73.402,108.367485
"20532",273.81406,73.831696,108.590996
"20533",273.8274,74.8156,109.38214
"20534",273.84073,76.64912,111.05365
"20535",273.85406,79.51537,113.81519
"20536",273.8674,83.36797,117.65265
"20537",273.88074,87.85779,122.24771
"20538",273.89407,92.40864,127.04411
"20539",273.9074,96.38575,131.409
"20540",273.92075,99.2813,134.8166
"20541",273.93408,100.85359,136.99144
"20542",273.94742,101.119705,137.90923
"20543",273.96075,100.26765,137.71716
"20544",273.9741,98.563515,136.6464
"20545",273.98743,96.29298,134.95596
"20546",274.00076,93.73678,132.90892
"20547",274.0141,91.11223,130.71364
"20548",274.02744,88.56336,128.51202
"20549",274.04077,86.151215,126.36748
"20550",274.0541,83.90509,124.313576
"20551",274.06744,81.866486,122.397
"20552",274.08078,80.113525,120.70237
"20553",274.09412,78.768295,119.36069
"20554",274.10745,77.943085,118.49699
"20555",274.1208,77.68917,118.178795
"20556",274.13412,77.96506,118.38247
"20557",274.14746,78.641335,118.995155
"20558",274.1608,79.52758,119.83894
"20559",274.17413,80.42603,120.72263
"20560",274.18747,81.16579,121.4757
"20561",274.2008,81.634544,121.98089
"20562",274.21414,81.77371,122.171135
"20563",274.22748,81.57595,122.0288
"20564",274.2408,81.08522,121.58732
"20565",274.25415,80.365,120.90101
"20566",274.2675,79.483635,120.03105
"20567",274.28082,78.49973,119.03101
"20568",274.29416,77.47433,117.958725
"20569",274.3075,76.46845,116.873924
"20570",274.32083,75.528496,115.82361
"20571",274.33417,74.686195,114.841576
"20572",274.3475,73.96109,113.95042
"20573",274.36084,73.35073,113.151344
"20574",274.37418,72.84779,112.44062
"20575",274.3875,72.444954,111.81428
"20576",274.40085,72.12512,111.25835
"20577",274.41418,71.87854,110.76567
"20578",274.42752,71.71496,110.3483
"20579",274.44086,71.639275,110.0137
"20580",274.4542,71.6466,109.75975
"20581",274.46753,71.73449,109.58659
"20582",274.48087,71.89563,109.48944
"20583",274.4942,72.11536,109.4559
"20584",274.50754,72.37171,109.465866
"20585",274.52087,72.65247,109.50824
"20586",274.5342,72.94789,109.57405
"20587",274.54755,73.23842,109.6442
"20588",274.56088,73.497215,109.6917
"20589",274.57422,73.71938,109.71066
"20590",274.58755,73.89029,109.6853
"20591",274.6009,74.00015,109.60424
"20592",274.61423,74.06607,109.482666
"20593",274.62756,74.10513,109.336296
"20594",274.6409,74.13199,109.17894
"20595",274.65424,74.16617,109.02975
"20596",274.66757,74.23697,108.91824
"20597",274.6809,74.407875,108.90906
"20598",274.69424,74.84001,109.16644
"20599",274.70758,75.81659,109.98177
"20600",274.72092,77.63302,111.66747
"20601",274.73425,80.448006,114.40849
"20602",274.7476,84.16388,118.13837
"20603",274.76093,88.40955,122.51416
"20604",274.77426,92.60883,126.97624
"20605",274.7876,96.15137,130.9128
"20606",274.80093,98.600136,133.8663
"20607",274.81427,99.77203,135.61946
"20608",274.8276,99.718315,136.18362
"20609",274.84094,98.63676,135.71826
"20610",274.85428,96.79347,134.45738
"20611",274.8676,94.469215,132.65793
"20612",274.88095,91.91791,130.55878
"20613",274.8943,89.325096,128.3384
"20614",274.90762,86.783554,126.088264
"20615",274.92096,84.351875,123.86857
"20616",274.9343,82.08865,121.74134
"20617",274.94763,80.09155,119.80951
"20618",274.96097,78.51682,118.23764
"20619",274.9743,77.51827,117.19274
"20620",274.98764,77.188675,116.78559
"20621",275.00098,77.51095,117.02001
"20622",275.0143,78.35081,117.78209
"20623",275.02765,79.483635,118.86338
"20624",275.041,80.6775,120.04111
"20625",275.05432,81.73464,121.11942
"20626",275.06766,82.52079,121.95978
"20627",275.081,82.950485,122.46825
"20628",275.09433,82.99931,122.609276
"20629",275.10767,82.69413,122.39782
"20630",275.121,82.091095,121.878975
"20631",275.13434,81.26345,121.11668
"20632",275.14767,80.291756,120.18446
"20633",275.161,79.26147,119.16329
"20634",275.17435,78.23117,118.10992
"20635",275.18768,77.2546,117.07807
"20636",275.20102,76.36591,116.10359
"20637",275.21436,75.58953,115.213646
"20638",275.2277,74.93767,114.42396
"20639",275.24103,74.40543,113.73353
"20640",275.25436,73.97818,113.13145
"20641",275.2677,73.64614,112.61123
"20642",275.28104,73.39712,112.16365
"20643",275.29437,73.21156,111.77176
"20644",275.3077,73.08461,111.43267
"20645",275.32104,73.01137,111.143326
"20646",275.33438,72.989395,110.90296
"20647",275.34772,73.00893,110.703415
"20648",275.36105,73.057755,110.533775
"20649",275.3744,73.14076,110.39984
"20650",275.38773,73.26528,110.31001
"20651",275.40106,73.43862,110.272896
"20652",275.4144,73.65591,110.28514
"20653",275.42773,73.91226,110.34325
"20654",275.44107,74.21988,110.460625
"20655",275.4544,74.66422,110.72434
"20656",275.46774,75.440605,111.333984
"20657",275.48108,76.824905,112.575806
"20658",275.49442,79.04173,114.69341
"20659",275.50775,82.13992,117.76166
"20660",275.5211,85.88754,121.57615
"20661",275.53442,89.84512,125.71771
"20662",275.54776,93.45113,129.63138
"20663",275.5611,96.21484,132.81543
"20664",275.57443,97.848175,134.95547
"20665",275.58777,98.304726,135.96979
"20666",275.6011,97.69924,135.93633
"20667",275.61444,96.26612,135.0563
"20668",275.62778,94.259254,133.55775
"20669",275.6411,91.930115,131.67421
"20670",275.65445,89.47402,129.59093
"20671",275.6678,87.00816,127.421135
"20672",275.68112,84.59113,125.22311
"20673",275.69446,82.27665,123.05209
"20674",275.7078,80.147705,120.99429
"20675",275.72113,78.348366,119.19957
"20676",275.73447,77.04707,117.846664
"20677",275.7478,76.37812,117.085434
"20678",275.76114,76.387886,116.98202
"20679",275.77448,76.998245,117.4795
"20680",275.7878,78.02609,118.41354
"20681",275.80115,79.22972,119.55549
"20682",275.81448,80.39185,120.69355
"20683",275.82782,81.324486,121.63843
"20684",275.84116,81.91043,122.26576
"20685",275.8545,82.09842,122.51345
"20686",275.86783,81.91287,122.39348
"20687",275.88116,81.409935,121.95032
"20688",275.8945,80.67017,121.254616
"20689",275.90784,79.76929,120.37467
"20690",275.92117,78.785385,119.38356
"20691",275.9345,77.77951,118.33973
"20692",275.94785,76.81026,117.30109
"20693",275.96118,75.92401,116.31516
"20694",275.97452,75.15007,115.41385
"20695",275.98785,74.50309,114.61531
"20696",276.0012,73.987946,113.92839
"20697",276.01453,73.585106,113.33768
"20698",276.02786,73.27993,112.83204
"20699",276.0412,73.05043,112.39254
"20700",276.05453,72.88197,112.00691
"20701",276.06787,72.7599,111.66241
"20702",276.0812,72.68177,111.358025
"20703",276.09454,72.637825,111.08539
"20704",276.10788,72.62806,110.84555
"20705",276.12122,72.654915,110.64203
"20706",276.13455,72.725716,110.48329
"20707",276.1479,72.84779,110.37805
"20708",276.16122,73.03822,110.34498
"20709",276.17456,73.32632,110.41552
"20710",276.1879,73.777985,110.65864
"20711",276.20123,74.57389,111.26011
"20712",276.21457,75.98993,112.506584
"20713",276.2279,78.28489,114.67623
"20714",276.24124,81.549095,117.88684
"20715",276.25458,85.60189,121.988045
"20716",276.2679,90.01846,126.57967
"20717",276.28125,94.205536,131.07982
"20718",276.2946,97.5967,134.9149
"20719",276.30792,99.828186,137.69629
"20720",276.32126,100.80232,139.29005
"20721",276.3346,100.61677,139.75458
"20722",276.34793,99.49615,139.27823
"20723",276.36127,97.71389,138.10522
"20724",276.3746,95.57275,136.51764
"20725",276.38794,93.32662,134.75816
"20726",276.40128,91.139084,132.98708
"20727",276.4146,89.076065,131.27216
"20728",276.42795,87.115585,129.5953
"20729",276.44128,85.21858,127.92066
"20730",276.45462,83.39971,126.26487
"20731",276.46796,81.75906,124.73046
"20732",276.4813,80.45533,123.4817
"20733",276.49463,79.62524,122.66583
"20734",276.50797,79.33959,122.36848
"20735",276.5213,79.54955,122.5578
"20736",276.53464,80.113525,123.1077
"20737",276.54797,80.82887,123.82659
"20738",276.5613,81.51003,124.53365
"20739",276.57465,82.003204,125.07401
"20740",276.58798,82.20828,125.34169
"20741",276.60132,82.08377,125.28619
"20742",276.61465,81.63943,124.90696
"20743",276.628,80.92653,124.24529
"20744",276.64133,80.0061,123.35382
"20745",276.65466,78.958725,122.30663
"20746",276.668,77.86252,121.17789
"20747",276.68134,76.788284,120.03686
"20748",276.69467,75.78729,118.9355
"20749",276.708,74.898605,117.91517
"20750",276.72134,74.13931,116.99646
"20751",276.73468,73.51675,116.19075
"20752",276.74802,73.023575,115.49498
"20753",276.76135,72.64271,114.8961
"20754",276.7747,72.36439,114.38786
"20755",276.78802,72.17151,113.956375
"20756",276.80136,72.03967,113.579895
"20757",276.8147,71.95422,113.24568
"20758",276.82803,71.90051,112.94054
"20759",276.84137,71.87366,112.66057
"20760",276.8547,71.86633,112.39929
"20761",276.86804,71.88098,112.15976
"20762",276.88138,71.9176,111.94266
"20763",276.8947,71.98108,111.753555
"20764",276.90805,72.08606,111.60794
"20765",276.9214,72.256966,111.53154
"20766",276.93472,72.549934,111.582535
"20767",276.94806,73.11391,111.9137
"20768",276.9614,74.21011,112.794716
"20769",276.97473,76.12421,114.52788
"20770",276.98807,79.012436,117.29499
"20771",277.0014,82.78691,121.038605
"20772",277.01474,87.113144,125.45193
"20773",277.02808,91.439384,130.00046
"20774",277.0414,95.17967,134.09822
"20775",277.05475,97.89212,137.28503
"20776",277.06808,99.388725,139.34076
"20777",277.08142,99.71099,140.26892
"20778",277.09476,99.0518,140.22571
"20779",277.1081,97.69192,139.4612
"20780",277.12143,95.92432,138.24646
"20781",277.13477,94.02731,136.84709
"20782",277.1481,92.1889,135.44704
"20783",277.16144,90.477455,134.11649
"20784",277.17477,88.85878,132.82523
"20785",277.1881,87.237656,131.48094
"20786",277.20145,85.56039,130.02985
"20787",277.21478,83.85138,128.4946
"20788",277.22812,82.24246,127.006035
"20789",277.24146,80.89723,125.73088
"20790",277.2548,79.974365,124.83605
"20791",277.26813,79.53002,124.39091
"20792",277.28146,79.52514,124.37134
"20793",277.2948,79.82056,124.65192
"20794",277.30814,80.24536,125.07111
"20795",277.32147,80.61646,125.44988
"20796",277.3348,80.81178,125.66447
"20797",277.34814,80.743416,125.62147
"20798",277.36148,80.39918,125.30046
"20799",277.37482,79.7937,124.70746
"20800",277.38815,78.97337,123.880684
"20801",277.4015,78.009,122.88423
"20802",277.41483,76.96651,121.77952
"20803",277.42816,75.90936,120.62758
"20804",277.4415,74.896164,119.48655
"20805",277.45483,73.98306,118.413956
"20806",277.46817,73.19447,117.43734
"20807",277.4815,72.53773,116.567924
"20808",277.49484,72.01282,115.809814
"20809",277.50818,71.60998,115.15738
"20810",277.5215,71.32189,114.6071
"20811",277.53485,71.12657,114.140594
"20812",277.5482,71.011826,113.74855
"20813",277.56152,70.96788,113.42372
"20814",277.57486,70.98009,113.15367
"20815",277.5882,71.03624,112.92795
"20816",277.60153,71.13878,112.75037
"20817",277.61487,71.26574,112.60042
"20818",277.6282,71.395134,112.45686
"20819",277.64154,71.500114,112.29294
"20820",277.65488,71.5758,112.103
"20821",277.6682,71.62707,111.89101
"20822",277.68155,71.675896,111.67818
"20823",277.6949,71.75159,111.493744
"20824",277.70822,71.88342,111.36781
"20825",277.72156,72.147095,111.37784
"20826",277.7349,72.71107,111.69641
"20827",277.74823,73.85123,112.608795
"20828",277.76157,75.84833,114.41375
"20829",277.7749,78.82689,117.26257
"20830",277.78824,82.65751,121.05653
"20831",277.80157,86.956894,125.438965
"20832",277.8149,91.15129,129.85077
"20833",277.82825,94.66697,133.71492
"20834",277.84158,97.1255,136.63179
"20835",277.85492,98.407265,138.44873
"20836",277.86826,98.600136,139.21683
"20837",277.8816,97.933624,139.13158
"20838",277.89493,96.70069,138.45908
"20839",277.90826,95.17723,137.45752
"20840",277.9216,93.58785,136.34244
"20841",277.93494,92.04974,135.22894
"20842",277.94827,90.57511,134.13086
"20843",277.9616,89.08583,132.97205
"20844",277.97495,87.50622,131.67636
"20845",277.98828,85.81186,130.21657
"20846",278.00162,84.06378,128.65012
"20847",278.01495,82.408485,127.12181
"20848",278.0283,81.02663,125.815216
"20849",278.04163,80.06714,124.88781
"20850",278.05496,79.57641,124.39918
"20851",278.0683,79.50317,124.3127
"20852",278.08163,79.71557,124.509575
"20853",278.09497,80.045166,124.830284
"20854",278.1083,80.31861,125.10514
"20855",278.12164,80.396736,125.19322
"20856",278.13498,80.216064,125.02495
"20857",278.14832,79.766846,124.58248
"20858",278.16165,79.07591,123.88426
"20859",278.175,78.19699,122.97646
"20860",278.18832,77.208206,121.931335
"20861",278.20166,76.17792,120.813805
"20862",278.215,75.157394,119.67384
"20863",278.22833,74.19058,118.5557
"20864",278.24167,73.323875,117.507454
"20865",278.255,72.589,116.56395
"20866",278.26834,71.98352,115.72688
"20867",278.28168,71.500114,114.992966
"20868",278.295,71.133896,114.36113
"20869",278.30835,70.86534,113.815506
"20870",278.3217,70.67246,113.33717
"20871",278.33502,70.55283,112.926056
"20872",278.34836,70.521095,112.59909
"20873",278.3617,70.56992,112.3517
"20874",278.37503,70.68467,112.17175
"20875",278.38837,70.84581,112.04179
"20876",278.4017,71.043564,111.953476
"20877",278.41504,71.25353,111.88356
"20878",278.42838,71.45373,111.810425
"20879",278.4417,71.61974,111.709366
"20880",278.45505,71.744255,111.57199
"20881",278.46838,71.81262,111.38237
"20882",278.48172,71.82727,111.14116
"20883",278.49506,71.79065,110.84914
"20884",278.5084,71.7174,110.51935
"20885",278.52173,71.63683,110.17995
"20886",278.53506,71.570915,109.85268
"20887",278.5484,71.55627,109.574615
"20888",278.56174,71.66857,109.42305
"20889",278.57507,72.078735,109.57286
"20890",278.5884,73.060196,110.30678
"20891",278.60175,74.91325,111.94297
"20892",278.61508,77.80881,114.679565
"20893",278.62842,81.66384,118.466125
"20894",278.64175,86.10971,122.96399
"20895",278.6551,90.57511,127.620316
"20896",278.66843,94.44236,131.81804
"20897",278.68176,97.24513,135.07213
"20898",278.6951,98.80034,137.16624
"20899",278.70844,99.19096,138.14438
"20900",278.72177,98.65629,138.20943
"20901",278.7351,97.50149,137.63763
"20902",278.74844,96.02197,136.70505
"20903",278.76178,94.449684,135.63345
"20904",278.77512,92.91402,134.54933
"20905",278.78845,91.4345,133.47337
"20906",278.8018,89.94522,132.34142
"20907",278.81512,88.37049,131.07747
"20908",278.82846,86.67124,129.6398
"20909",278.8418,84.90608,128.08311
"20910",278.85513,83.22392,126.55427
"20911",278.86847,81.81766,125.24875
"20912",278.8818,80.83864,124.32653
"20913",278.89514,80.35523,123.86933
"20914",278.90848,80.30396,123.82916
"20915",278.9218,80.53834,124.07304
"20916",278.93515,80.867935,124.41946
"20917",278.9485,81.126724,124.70537
"20918",278.96182,81.180435,124.79429
"20919",278.97516,80.96803,124.618774
"20920",278.9885,80.48707,124.16806
"20921",279.00183,79.77905,123.475266
"20922",279.01517,78.90013,122.58944
"20923",279.0285,77.92355,121.57849
"20924",279.04184,76.91524,120.50529
"20925",279.05518,75.931335,119.42499
"20926",279.0685,75.00847,118.37498
"20927",279.08185,74.18082,117.39134
"20928",279.09518,73.47524,116.50392
"20929",279.10852,72.901505,115.72629
"20930",279.12186,72.44251,115.04547
"20931",279.1352,72.08606,114.45285
"20932",279.14853,71.817505,113.93698
"20933",279.16187,71.61974,113.48352
"20934",279.1752,71.48058,113.08247
"20935",279.18854,71.4049,112.740555
"20936",279.20187,71.38781,112.454865
"20937",279.2152,71.42687,112.22479
"20938",279.22855,71.517204,112.04721
"20939",279.24188,71.65148,111.9164
"20940",279.25522,71.817505,111.82153
"20941",279.26855,71.99817,111.74649
"20942",279.2819,72.181274,111.679535
"20943",279.29523,72.359505,111.613434
"20944",279.30856,72.51331,111.52847
"20945",279.3219,72.62562,111.406815
"20946",279.33524,72.68665,111.2374
"20947",279.34857,72.691536,111.01373
"20948",279.3619,72.63294,110.726746
"20949",279.37524,72.51087,110.37445
"20950",279.38858,72.33997,109.96951
"20951",279.40192,72.13733,109.5275
"20952",279.41525,71.92981,109.074265
"20953",279.4286,71.76135,108.65361
"20954",279.44193,71.66369,108.29849
"20955",279.45526,71.68322,108.05751
"20956",279.4686,71.91516,108.02956
"20957",279.48193,72.57923,108.44098
"20958",279.49527,73.98306,109.612915
"20959",279.5086,76.385445,111.82727
"20960",279.52194,79.852295,115.18117
"20961",279.53528,84.16632,119.49058
"20962",279.5486,88.83925,124.2937
"20963",279.56195,93.224075,128.95476
"20964",279.5753,96.742195,132.88612
"20965",279.58862,99.054245,135.72137
"20966",279.60196,100.10162,137.3642
"20967",279.6153,100.04547,137.93622
"20968",279.62863,99.159225,137.67639
"20969",279.64197,97.76517,136.88106
"20970",279.6553,96.15137,135.82242
"20971",279.66864,94.52781,134.70358
"20972",279.68198,92.99458,133.62434
"20973",279.6953,91.53216,132.568
"20974",279.70865,90.04532,131.44153
"20975",279.722,88.45106,130.16118
"20976",279.73532,86.73472,128.70894
"20977",279.74866,84.98421,127.168884
"20978",279.762,83.36309,125.70352
"20979",279.77533,82.05203,124.49756
"20980",279.78867,81.18288,123.69253
"20981",279.802,80.77516,123.32178
"20982",279.81534,80.73853,123.30937
"20983",279.82867,80.92409,123.518005
"20984",279.842,81.17311,123.795906
"20985",279.85535,81.33181,123.991264
"20986",279.86868,81.29275,123.99382
"20987",279.88202,81.01198,123.75345
"20988",279.89536,80.479744,123.25284
"20989",279.9087,79.73266,122.520744
"20990",279.92203,78.82689,121.60662
"20991",279.93536,77.83322,120.576294
"20992",279.9487,76.8127,119.48806
"20993",279.96204,75.81903,118.39479
"20994",279.97537,74.88884,117.33395
"20995",279.9887,74.05142,116.33681
"20996",280.00204,73.31655,115.416046
"20997",280.01538,72.69886,114.5895
"20998",280.02872,72.20325,113.86572
"20999",280.04205,71.817505,113.23633
"21000",280.0554,71.52697,112.690094
"21001",280.06873,71.329216,112.227554
"21002",280.08206,71.219345,111.846725
"21003",280.0954,71.182724,111.535706
"21004",280.10873,71.2047,111.282135
"21005",280.12207,71.27062,111.07321
"21006",280.1354,71.37316,110.902954
"21007",280.14874,71.505,110.7652
"21008",280.16208,71.65148,110.64621
"21009",280.1754,71.81262,110.54646
"21010",280.18875,71.990845,110.46883
"21011",280.2021,72.16907,110.39676
"21012",280.21542,72.32288,110.30586
"21013",280.22876,72.44984,110.1929
"21014",280.2421,72.54261,110.04973
"21015",280.25543,72.59388,109.86795
"21016",280.26877,72.60609,109.64871
"21017",280.2821,72.58167,109.393234
"21018",280.29544,72.518196,109.09793
"21019",280.30878,72.4181,108.76402
"21020",280.3221,72.291145,108.40013
"21021",280.33545,72.147095,108.01518
"21022",280.3488,72.01282,107.6355
"21023",280.36212,71.9176,107.29068
"21024",280.37546,71.89319,107.01369
"21025",280.3888,71.9884,106.85556
"21026",280.40213,72.32044,106.93724
"21027",280.41547,73.12123,107.49805
"21028",280.4288,74.70817,108.870026
"21029",280.44214,77.31808,111.31457
"21030",280.45547,80.970474,114.883156
"21031",280.4688,85.39681,119.33982
"21032",280.48215,90.06485,124.176506
"21033",280.49548,94.32517,128.75136
"21034",280.50882,97.63088,132.50473
"21035",280.52216,99.6939,135.11871
"21036",280.5355,100.49714,136.53738
"21037",280.54883,100.22858,136.90936
"21038",280.56216,99.18364,136.49657
"21039",280.5755,97.672386,135.58481
"21040",280.58884,95.96338,134.42807
"21041",280.60217,94.26414,133.22769
"21042",280.6155,92.66743,132.07674
"21043",280.62885,91.14641,130.95157
"21044",280.64218,89.618065,129.77155
"21045",280.65552,88.02136,128.4754
"21046",280.66885,86.35386,127.05856
"21047",280.6822,84.70832,125.61158
"21048",280.69553,83.23857,124.28896
"21049",280.70886,82.10574,123.25734
"21050",280.7222,81.409935,122.627335
"21051",280.73553,81.14137,122.40283
"21052",280.74887,81.20241,122.499535
"21053",280.7622,81.45388,122.78858
"21054",280.77554,81.739525,123.11966
"21055",280.78888,81.92264,123.35713
"21056",280.80222,81.89578,123.39036
"21057",280.81555,81.61257,123.16639
"21058",280.8289,81.077896,122.682106
"21059",280.84222,80.31373,121.95162
"21060",280.85556,79.378654,121.02635
"21061",280.8689,78.348366,119.97665
"21062",280.88223,77.29366,118.87033
"21063",280.89557,76.27802,117.77012
"21064",280.9089,75.34295,116.718735
"21065",280.92224,74.52506,115.75532
"21066",280.93558,73.83658,114.895744
"21067",280.9489,73.272606,114.13917
"21068",280.96225,72.8185,113.47483
"21069",280.9756,72.464485,112.8964
"21070",280.98892,72.19592,112.39235
"21071",281.00226,72.00549,111.95804
"21072",281.0156,71.88342,111.586136
"21073",281.02893,71.82727,111.27634
"21074",281.04227,71.82483,111.01849
"21075",281.0556,71.86389,110.80208
"21076",281.06894,71.93469,110.61862
"21077",281.08228,72.03479,110.466675
"21078",281.0956,72.15686,110.33983
"21079",281.10895,72.291145,110.22902
"21080",281.12228,72.430305,110.12727
"21081",281.13562,72.55726,110.01767
"21082",281.14896,72.65736,109.88518
"21083",281.1623,72.725716,109.724075
"21084",281.17563,72.7599,109.530945
"21085",281.18896,72.764786,109.30958
"21086",281.2023,72.75502,109.073715
"21087",281.21564,72.73304,108.82533
"21088",281.22897,72.691536,108.55673
"21089",281.2423,72.6305,108.2673
"21090",281.25565,72.56214,107.96864
"21091",281.26898,72.49622,107.67029
"21092",281.28232,72.427864,107.36743
"21093",281.29565,72.35706,107.06
"21094",281.309,72.288704,106.75279
"21095",281.32233,72.22278,106.44589
"21096",281.33566,72.16174,106.141815
"21097",281.349,72.13489,105.87001
"21098",281.36234,72.15686,105.646194
"21099",281.37567,72.26917,105.51341
"21100",281.389,72.569466,105.57211
"21101",281.40234,73.287254,106.05769
"21102",281.41568,74.75456,107.31523
"21103",281.42902,77.261925,109.658676
"21104",281.44235,80.88991,113.201096
"21105",281.4557,85.40658,117.745575
"21106",281.46902,90.29435,122.8023
"21107",281.48236,94.90135,127.731
"21108",281.4957,98.61967,131.91498
"21109",281.50903,101.0782,134.95538
"21110",281.52237,102.203705,136.73958
"21111",281.5357,102.149994,137.37973
"21112",281.54904,101.18074,137.10266
"21113",281.56238,99.61822,136.20204
"21114",281.5757,97.77493,134.97183
"21115",281.58905,95.89502,133.64738
"21116",281.6024,94.12009,132.36917
"21117",281.61572,92.472115,131.16245
"21118",281.62906,90.89006,129.97014
"21119",281.6424,89.29092,128.7113
"21120",281.65573,87.62829,127.33902
"21121",281.66907,85.95102,125.90013
"21122",281.6824,84.39094,124.52602
"21123",281.69574,83.11162,123.38391
"21124",281.70908,82.2449,122.61443
"21125",281.7224,81.83963,122.27931
"21126",281.73575,81.83719,122.33436
"21127",281.74908,82.091095,122.645676
"21128",281.76242,82.44022,123.06015
"21129",281.77576,82.70634,123.40252
"21130",281.7891,82.77226,123.55302
"21131",281.80243,82.564735,123.43212
"21132",281.81577,82.07889,123.02642
"21133",281.8291,81.339134,122.35163
"21134",281.84244,80.40406,121.458405
"21135",281.85577,79.34203,120.409004
"21136",281.8691,78.22629,119.2727
"21137",281.88245,77.13008,118.12106
"21138",281.89578,76.11444,117.01574
"21139",281.90912,75.21355,115.99342
"21140",281.92245,74.43961,115.069916
"21141",281.9358,73.80484,114.26138
"21142",281.94913,73.29702,113.55997
"21143",281.96246,72.89906,112.952545
"21144",281.9758,72.59876,112.43034
"21145",281.98914,72.38392,111.98421
"21146",282.00247,72.24231,111.6046
"21147",282.0158,72.149536,111.269394
"21148",282.02914,72.09827,110.97279
"21149",282.04248,72.076294,110.70389
"21150",282.05582,72.08362,110.46359
"21151",282.06915,72.12756,110.26015
"21152",282.0825,72.215454,110.10202
"21153",282.09583,72.33997,109.98328
"21154",282.10916,72.4889,109.89282
"21155",282.1225,72.64515,109.81435
"21156",282.13583,72.7892,109.72856
"21157",282.14917,72.90639,109.620415
"21158",282.1625,72.989395,109.48175
"21159",282.17584,73.03822,109.3115
"21160",282.18918,73.05531,109.11104
"21161",282.2025,73.05043,108.88914
"21162",282.21585,73.03334,108.65488
"21163",282.2292,73.00893,108.41276
"21164",282.24252,72.969864,108.15523
"21165",282.25586,72.918594,107.88427
"21166",282.2692,72.86,107.604385
"21167",282.28253,72.80141,107.32267
"21168",282.29587,72.73548,107.03179
"21169",282.3092,72.672005,106.7413
"21170",282.32254,72.61829,106.45859
"21171",282.33588,72.57679,106.1864
"21172",282.3492,72.56458,105.942215
"21173",282.36255,72.61585,105.76112
"21174",282.3759,72.78676,105.70128
"21175",282.38922,73.18959,105.8787
"21176",282.40256,74.07828,106.554565
"21177",282.4159,75.775085,108.06632
"21178",282.42923,78.521706,110.680916
"21179",282.44257,82.337685,114.4507
"21180",282.4559,86.942245,119.12831
"21181",282.46924,91.78607,124.18908
"21182",282.48257,96.20264,128.97395
"21183",282.4959,99.62066,132.89832
"21184",282.50925,101.732506,135.6233
"21185",282.52258,102.51621,137.08615
"21186",282.53592,102.149994,137.42357
"21187",282.54926,100.92439,136.89015
"21188",282.5626,99.15434,135.77399
"21189",282.57593,97.145035,134.36325
"21190",282.58926,95.12596,132.87996
"21191",282.6026,93.23628,131.46297
"21192",282.61594,91.48577,130.12608
"21193",282.62927,89.81827,128.8175
"21194",282.6426,88.16052,127.46658
"21195",282.65594,86.50034,126.06142
"21196",282.66928,84.90608,124.67029
"21197",282.68262,83.50713,123.42465
"21198",282.69595,82.44511,122.47222
"21199",282.7093,81.81766,121.92118
"21200",282.72263,81.617455,121.77778
"21201",282.73596,81.74685,121.95772
"21202",282.7493,82.05203,122.31749
"21203",282.76263,82.36698,122.69656
"21204",282.77597,82.55741,122.96096
"21205",282.7893,82.52567,123.00914
"21206",282.80264,82.230255,122.79265
"21207",282.81598,81.67849,122.31058
"21208",282.8293,80.91432,121.59886
"21209",282.84265,79.991455,120.70457
"21210",282.856,78.975815,119.68866
"21211",282.86932,77.91867,118.59951
"21212",282.88266,76.876175,117.491974
"21213",282.896,75.90204,116.42022
"21214",282.90933,75.037766,115.42789
"21215",282.92267,74.30045,114.53551
"21216",282.936,73.70962,113.76656
"21217",282.94934,73.25796,113.11833
"21218",282.96268,72.921036,112.570724
"21219",282.976,72.672005,112.10048
"21220",282.98935,72.498665,111.698135
"21221",283.0027,72.393684,111.358734
"21222",283.01602,72.35218,111.07953
"21223",283.02936,72.35706,110.84541
"21224",283.0427,72.40833,110.65784
"21225",283.05603,72.498665,110.510925
"21226",283.06937,72.61585,110.39369
"21227",283.0827,72.75258,110.29967
"21228",283.09604,72.901505,110.222115
"21229",283.10938,73.05287,110.15166
"21230",283.1227,73.19203,110.07372
"21231",283.13605,73.31411,109.983055
"21232",283.14938,73.41421,109.87422
"21233",283.16272,73.49966,109.75387
"21234",283.17606,73.56069,109.61177
"21235",283.1894,73.59487,109.444725
"21236",283.20273,73.602196,109.25189
"21237",283.21606,73.58022,109.02999
"21238",283.2294,73.52407,108.773224
"21239",283.24274,73.43618,108.48296
"21240",283.25607,73.32632,108.167984
"21241",283.2694,73.20668,107.8398
"21242",283.28275,73.077286,107.498116
"21243",283.29608,72.95033,107.15483
"21244",283.30942,72.83559,106.819786
"21245",283.32275,72.75258,106.51289
"21246",283.3361,72.72083,106.25467
"21247",283.34943,72.76967,106.076035
"21248",283.36276,72.95766,106.03808
"21249",283.3761,73.443504,106.303856
"21250",283.38943,74.50065,107.15611
"21251",283.40277,76.44648,108.93009
"21252",283.4161,79.47143,111.843994
"21253",283.42944,83.50713,115.86318
"21254",283.44278,88.18005,120.6457
"21255",283.45612,92.894485,125.61575
"21256",283.46945,96.9839,130.10812
"21257",283.4828,99.93561,133.59058
"21258",283.49612,101.53231,135.81027
"21259",283.50946,101.81552,136.76637
"21260",283.5228,101.0074,136.63998
"21261",283.53613,99.41314,135.70221
"21262",283.54947,97.36477,134.2605
"21263",283.5628,95.14061,132.57898
"21264",283.57614,92.95796,130.86948
"21265",283.58948,90.914474,129.23093
"21266",283.6028,89.01259,127.67012
"21267",283.61615,87.19859,126.13777
"21268",283.6295,85.44076,124.60489
"21269",283.64282,83.773254,123.10741
"21270",283.65616,82.29374,121.745804
"21271",283.6695,81.13161,120.65535
"21272",283.68283,80.4065,119.96561
"21273",283.69617,80.15503,119.72684
"21274",283.7095,80.31373,119.89038
"21275",283.72284,80.74586,120.33231
"21276",283.73618,81.270775,120.88054
"21277",283.7495,81.72732,121.37679
"21278",283.76285,81.98367,121.687126
"21279",283.77618,81.95926,121.7247
"21280",283.78952,81.634544,121.46121
"21281",283.80286,81.03395,120.9117
"21282",283.8162,80.21362,120.12368
"21283",283.82953,79.23949,119.15622
"21284",283.84286,78.187225,118.08019
"21285",283.8562,77.117874,116.95419
"21286",283.86954,76.09003,115.83628
"21287",283.88287,75.15007,114.77414
"21288",283.8962,74.32487,113.79738
"21289",283.90955,73.636375,112.93154
"21290",283.92288,73.08461,112.180916
"21291",283.93622,72.66224,111.54244
"21292",283.94955,72.342415,110.99332
"21293",283.9629,72.11047,110.52208
"21294",283.97623,71.94934,110.114395
"21295",283.98956,71.8468,109.76027
"21296",284.0029,71.80286,109.46153
"21297",284.01624,71.81995,109.22246
"21298",284.02957,71.89319,109.04007
"21299",284.0429,72.010376,108.903915
"21300",284.05624,72.164185,108.808044
"21301",284.06958,72.342415,108.74141
"21302",284.08292,72.5304,108.690094
"21303",284.09625,72.71595,108.64221
"21304",284.1096,72.886856,108.585495
"21305",284.12292,73.03578,108.51214
"21306",284.13626,73.15541,108.41414
"21307",284.1496,73.233536,108.27837
"21308",284.16293,73.270164,108.10355
"21309",284.17627,73.289696,107.91278
"21310",284.1896,73.306786,107.72018
"21311",284.20294,73.33364,107.53787
"21312",284.21628,73.358055,107.353966
"21313",284.2296,73.38003,107.16838
"21314",284.24295,73.38247,106.96395
"21315",284.2563,73.34585,106.720535
"21316",284.26962,73.26772,106.43447
"21317",284.28296,73.18227,106.13863
"21318",284.2963,73.08705,105.83037
"21319",284.30963,72.98207,105.50936
"21320",284.32297,72.87221,105.18019
"21321",284.3363,72.781876,104.86712
"21322",284.34964,72.73304,104.59272
"21323",284.36298,72.77211,104.40469
"21324",284.3763,73.006485,104.4132
"21325",284.38965,73.66811,104.856285
"21326",284.40298,75.10368,106.09399
"21327",284.41632,77.625694,108.46299
"21328",284.42966,81.341576,112.104675
"21329",284.443,86.05112,116.85614
"21330",284.45633,91.2343,122.22842
"21331",284.46967,96.17822,127.523415
"21332",284.483,100.21149,132.06226
"21333",284.49634,102.889755,135.37213
"21334",284.50967,104.0885,137.28618
"21335",284.523,103.92981,137.88025
"21336",284.53635,102.68467,137.38292
"21337",284.54968,100.69001,136.09715
"21338",284.56302,98.2974,134.3511
"21339",284.57635,95.80713,132.43263
"21340",284.5897,93.41451,130.534
"21341",284.60303,91.205,128.74368
"21342",284.61636,89.15663,127.04547
"21343",284.6297,87.21324,125.38823
"21344",284.64304,85.350426,123.750824
"21345",284.65637,83.64629,122.21389
"21346",284.6697,82.21805,120.89959
"21347",284.68304,81.20973,119.96059
"21348",284.69638,80.69703,119.48569
"21349",284.70972,80.67506,119.4855
"21350",284.72305,81.03883,119.87037
"21351",284.7364,81.61501,120.47901
"21352",284.74973,82.230255,121.14472
"21353",284.76306,82.720985,121.70515
"21354",284.7764,82.97002,122.03921
"21355",284.78973,82.90898,122.070984
"21356",284.80307,82.53544,121.788345
"21357",284.8164,81.883575,121.21571
"21358",284.82974,81.01442,120.40542
"21359",284.84308,80.00366,119.42636
"21360",284.8564,78.924545,118.34736
"21361",284.86975,77.83566,117.22487
"21362",284.8831,76.790726,116.1123
"21363",284.89642,75.82391,115.0452
"21364",284.90976,74.97429,114.06507
"21365",284.9231,74.26139,113.19512
"21366",284.93643,73.68276,112.437164
"21367",284.94977,73.231094,111.788086
"21368",284.9631,72.884415,111.22988
"21369",284.97644,72.62562,110.748726
"21370",284.98978,72.43519,110.32785
"21371",285.0031,72.30579,109.96205
"21372",285.01645,72.234985,109.6508
"21373",285.0298,72.24231,109.41547
"21374",285.04312,72.318,109.24873
"21375",285.05646,72.45472,109.145386
"21376",285.0698,72.63294,109.087814
"21377",285.08313,72.8307,109.05536
"21378",285.09647,73.02846,109.029076
"21379",285.1098,73.21156,108.99432
"21380",285.12314,73.375145,108.94577
"21381",285.13647,73.51675,108.88035
"21382",285.1498,73.63149,108.792496
"21383",285.16315,73.71694,108.67893
"21384",285.17648,73.77554,108.54119
"21385",285.18982,73.80484,108.37598
"21386",285.20316,73.80484,108.18238
"21387",285.2165,73.777985,107.96193
"21388",285.22983,73.73403,107.72354
"21389",285.24316,73.67544,107.46914
"21390",285.2565,73.60952,107.20558
"21391",285.26984,73.531395,106.92776
"21392",285.28317,73.445946,106.64017
"21393",285.2965,73.35317,106.34258
"21394",285.30984,73.2604,106.0421
"21395",285.32318,73.17006,105.74115
"21396",285.33652,73.1017,105.45936
"21397",285.34985,73.08705,105.22914
"21398",285.3632,73.179825,105.10589
"21399",285.37653,73.514305,105.22724
"21400",285.38986,74.38346,105.89372
"21401",285.4032,76.17059,107.50534
"21402",285.41653,79.15892,110.374
"21403",285.42987,83.372856,114.56165
"21404",285.4432,88.497444,119.79164
"21405",285.45654,93.92233,125.48207
"21406",285.46988,98.90776,130.90257
"21407",285.48322,102.80919,135.39487
"21408",285.49655,105.255516,138.55399
"21409",285.5099,106.20523,140.29294
"21410",285.52322,105.83902,140.74564
"21411",285.53656,104.44984,140.16393
"21412",285.5499,102.37217,138.85031
"21413",285.56323,99.9527,137.12997
"21414",285.57657,97.48196,135.28276
"21415",285.5899,95.14549,133.49261
"21416",285.60324,93.00679,131.82721
"21417",285.61658,91.036545,130.26343
"21418",285.6299,89.15907,128.73085
"21419",285.64325,87.325554,127.18355
"21420",285.6566,85.55062,125.63754
"21421",285.66992,83.93683,124.197205
"21422",285.68326,82.62577,123.00917
"21423",285.6966,81.7322,122.197655
"21424",285.70993,81.30007,121.81966
"21425",285.72327,81.27566,121.83587
"21426",285.7366,81.54421,122.14429
"21427",285.74994,81.94705,122.59538
"21428",285.76328,82.32792,123.037094
