"","Time..s.","PPG.trace","Preprocessed.PPG"
"23144",323.68002,80.90456,88.22192
"23145",323.69336,79.38598,86.731606
"23146",323.7067,77.642784,84.96922
"23147",323.72003,75.82147,83.07425
"23148",323.73337,74.056305,81.178505
"23149",323.7467,72.45716,79.39362
"23150",323.76004,71.09239,77.79314
"23151",323.77338,69.98886,76.41124
"23152",323.7867,69.149,75.25853
"23153",323.80005,68.55573,74.326164
"23154",323.8134,68.16998,73.58278
"23155",323.82672,67.95758,73.00069
"23156",323.84006,67.86481,72.531586
"23157",323.8534,67.85016,72.13771
"23158",323.86673,67.8819,71.789764
"23159",323.88007,67.96979,71.49896
"23160",323.8934,68.21881,71.37204
"23161",323.90674,68.93172,71.71678
"23162",323.92007,70.59922,73.0384
"23163",323.9334,73.687645,75.833046
"23164",323.94675,78.33616,80.2843
"23165",323.96008,84.242004,86.13815
"23166",323.97342,90.69718,92.72589
"23167",323.98676,96.781265,99.144264
"23168",324.0001,101.625084,104.5125
"23169",324.01343,104.70374,108.26694
"23170",324.02676,105.92447,110.25966
"23171",324.0401,105.480125,110.62546
"23172",324.05344,103.692986,109.63457
"23173",324.06677,100.929276,107.61127
"23174",324.0801,97.57229,104.90832
"23175",324.09344,93.99802,101.88318
"23176",324.10678,90.53849,98.86109
"23177",324.12012,87.43786,96.08979
"23178",324.13345,84.805984,93.69035
"23179",324.1468,82.64042,91.67497
"23180",324.16013,80.867935,89.985
"23181",324.17346,79.43969,88.58388
"23182",324.1868,78.3386,87.46528
"23183",324.20013,77.60616,86.68092
"23184",324.21347,77.29366,86.29362
"23185",324.2268,77.40841,86.32379
"23186",324.24014,77.8674,86.7018
"23187",324.25348,78.52415,87.2919
"23188",324.2668,79.19554,87.917175
"23189",324.28015,79.710686,88.40718
"23190",324.2935,79.94507,88.63252
"23191",324.30682,79.82056,88.506294
"23192",324.32016,79.30541,87.98554
"23193",324.3335,78.41428,87.07271
"23194",324.34683,77.21065,85.81952
"23195",324.36017,75.79462,84.31632
"23196",324.3735,74.28092,82.67121
"23197",324.38684,72.77455,80.98612
"23198",324.40018,71.37316,79.35894
"23199",324.4135,70.14511,77.8613
"23200",324.42685,69.12459,76.53281
"23201",324.4402,68.32624,75.3946
"23202",324.45352,67.7525,74.456055
"23203",324.46686,67.38384,73.70466
"23204",324.4802,67.20805,73.13461
"23205",324.49353,67.193405,72.720215
"23206",324.50687,67.30572,72.43232
"23207",324.5202,67.50347,72.233376
"23208",324.53354,67.74517,72.08456
"23209",324.54688,67.97711,71.93353
"23210",324.5602,68.157776,71.73848
"23211",324.57355,68.26032,71.470955
"23212",324.58688,68.29694,71.14071
"23213",324.60022,68.34089,70.81893
"23214",324.61356,68.63386,70.74755
"23215",324.6269,69.590904,71.3494
"23216",324.64023,71.71984,73.15305
"23217",324.65356,75.34539,76.51985
"23218",324.6669,80.396736,81.42574
"23219",324.68024,86.37339,87.414795
"23220",324.69357,92.474556,93.715126
"23221",324.7069,97.813995,99.4444
"23222",324.72025,101.68856,103.87565
"23223",324.73358,103.78821,106.65306
"23224",324.74692,104.16907,107.7773
"23225",324.76025,103.097275,107.460785
"23226",324.7736,100.92195,106.00725
"23227",324.78693,98.03616,103.77527
"23228",324.80026,94.83299,101.13573
"23229",324.8136,91.66888,98.43514
"23230",324.82693,88.800186,95.93111
"23231",324.84027,86.35874,93.76466
"23232",324.8536,84.351875,91.956505
"23233",324.86694,82.69657,90.437195
"23234",324.88028,81.29519,89.12008
"23235",324.89362,80.113525,87.97889
"23236",324.90695,79.1638,87.032715
"23237",324.9203,78.51682,86.359604
"23238",324.93362,78.21896,86.015396
"23239",324.94696,78.2678,86.008575
"23240",324.9603,78.57053,86.25718
"23241",324.97363,78.98802,86.63
"23242",324.98697,79.36889,86.97924
"23243",325.0003,79.588615,87.179245
"23244",325.01364,79.554436,87.13221
"23245",325.02698,79.20775,86.7716
"23246",325.0403,78.536354,86.07545
"23247",325.05365,77.56954,85.0629
"23248",325.067,76.36103,83.778435
"23249",325.08032,75.001144,82.30483
"23250",325.09366,73.57778,80.72526
"23251",325.107,72.18616,79.13294
"23252",325.12033,70.906845,77.60945
"23253",325.13367,69.80087,76.219315
"23254",325.147,68.9073,75.00702
"23255",325.16034,68.23834,73.99141
"23256",325.17368,67.78668,73.172195
"23257",325.187,67.53277,72.53661
"23258",325.20035,67.44244,72.05668
"23259",325.21368,67.48882,71.71064
"23260",325.22702,67.63531,71.46615
"23261",325.24036,67.84772,71.29216
"23262",325.2537,68.10162,71.166306
"23263",325.26703,68.37507,71.067924
"23264",325.28036,68.663155,70.99273
"23265",325.2937,68.95369,70.928986
"23266",325.30704,69.24422,70.87431
"23267",325.32037,69.52499,70.81896
"23268",325.3337,69.79599,70.76262
"23269",325.34705,70.04501,70.692764
"23270",325.36038,70.259865,70.59652
"23271",325.37372,70.433205,70.46548
"23272",325.38705,70.55039,70.2837
"23273",325.4004,70.591896,70.0299
"23274",325.41373,70.5333,69.6773
"23275",325.42706,70.36729,69.21545
"23276",325.4404,70.132904,68.68004
"23277",325.45374,69.97177,68.210556
"23278",325.46707,70.223236,68.148636
"23279",325.4804,71.431755,69.05163
"23280",325.49374,74.110016,71.46213
"23281",325.50708,78.45823,75.62628
"23282",325.52042,84.21515,81.33502
"23283",325.53375,90.68253,87.93413
"23284",325.5471,96.9131,94.49853
"23285",325.56042,102.01083,100.124794
"23286",325.57376,105.39712,104.19891
"23287",325.5871,106.94255,106.53801
"23288",325.60043,106.82048,107.2579
"23289",325.61377,105.35317,106.62873
"23290",325.6271,102.90929,104.97713
"23291",325.64044,99.88922,102.67297
"23292",325.65378,96.66895,100.07424
"23293",325.6671,93.57809,97.50428
"23294",325.68045,90.84123,95.19174
"23295",325.6938,88.551155,93.240456
"23296",325.70712,86.67368,91.6302
"23297",325.72046,85.101395,90.266464
"23298",325.7338,83.74639,89.07088
"23299",325.74713,82.59159,88.03315
"23300",325.76047,81.66628,87.18883
"23301",325.7738,81.024185,86.5988
"23302",325.78714,80.69459,86.30121
"23303",325.80048,80.64332,86.271645
"23304",325.8138,80.762955,86.411385
"23305",325.82715,80.92409,86.59636
"23306",325.84048,81.007095,86.708244
"23307",325.85382,80.92409,86.65671
"23308",325.86716,80.61402,86.37552
"23309",325.8805,80.042725,85.82341
"23310",325.89383,79.21019,84.99221
"23311",325.90717,78.14816,83.9055
"23312",325.9205,76.91524,82.61471
"23313",325.93384,75.58709,81.19016
"23314",325.94717,74.249176,79.71435
"23315",325.9605,72.96742,78.252884
"23316",325.97385,71.81262,76.87832
"23317",325.98718,70.83116,75.64101
"23318",326.00052,70.04501,74.56833
"23319",326.01385,69.46395,73.67617
"23320",326.0272,69.07576,72.958725
"23321",326.04053,68.85359,72.39517
"23322",326.05386,68.77547,71.96872
"23323",326.0672,68.80965,71.65213
"23324",326.08054,68.926834,71.41962
"23325",326.09387,69.10506,71.2518
"23326",326.1072,69.32235,71.128624
"23327",326.12054,69.56649,71.039085
"23328",326.13388,69.81308,70.959625
"23329",326.14722,70.05722,70.88542
"23330",326.16055,70.2916,70.80909
"23331",326.1739,70.51133,70.725426
"23332",326.18723,70.70664,70.624214
"23333",326.20056,70.86778,70.494934
"23334",326.2139,70.98497,70.32674
"23335",326.22723,71.05089,70.11093
"23336",326.24057,71.063095,69.843475
"23337",326.2539,71.01671,69.51781
"23338",326.26724,70.91173,69.132095
"23339",326.28058,70.748146,68.68451
"23340",326.2939,70.54307,68.19031
"23341",326.30725,70.345314,67.69702
"23342",326.3206,70.28428,67.334274
"23343",326.33392,70.65537,67.40175
"23344",326.34726,71.90051,68.354866
"23345",326.3606,74.45426,70.6555
"23346",326.37393,78.48997,74.51791
"23347",326.38727,83.79523,79.77598
"23348",326.4006,89.78409,85.88344
"23349",326.41394,95.6289,92.034004
"23350",326.42728,100.51423,97.40774
"23351",326.4406,103.8761,101.410675
"23352",326.45395,105.52895,103.80966
"23353",326.4673,105.58022,104.65871
"23354",326.48062,104.30335,104.18121
"23355",326.49396,102.04501,102.68236
"23356",326.5073,99.193405,100.51965
"23357",326.52063,96.11719,98.04323
"23358",326.53397,93.14107,95.57077
"23359",326.5473,90.4799,93.32026
"23360",326.56064,88.22888,91.39674
"23361",326.57397,86.37095,89.79596
"23362",326.5873,84.823074,88.447174
"23363",326.60065,83.51446,87.289276
"23364",326.61398,82.425575,86.31022
"23365",326.62732,81.57595,85.53639
"23366",326.64066,81.01198,85.02167
"23367",326.654,80.75563,84.79694
"23368",326.66733,80.765396,84.83032
"23369",326.68066,80.94118,85.03002
"23370",326.694,81.15846,85.27672
"23371",326.70734,81.30251,85.45697
"23372",326.72067,81.2781,85.47326
"23373",326.734,81.01198,85.24708
"23374",326.74734,80.482185,84.74891
"23375",326.76068,79.693596,83.97539
"23376",326.77402,78.67063,82.94285
"23377",326.78735,77.469444,81.70012
"23378",326.8007,76.17059,80.32219
"23379",326.81403,74.85222,78.88415
"23380",326.82736,73.58999,77.46105
"23381",326.8407,72.45472,76.12547
"23382",326.85403,71.49767,74.93263
"23383",326.86737,70.73838,73.90764
"23384",326.8807,70.17929,73.05912
"23385",326.89404,69.8082,72.38113
"23386",326.90738,69.593346,71.84778
"23387",326.92072,69.505455,71.43468
"23388",326.93405,69.51034,71.1116
"23389",326.9474,69.58846,70.86192
"23390",326.96072,69.732506,70.6806
"23391",326.97406,69.925385,70.55262
"23392",326.9874,70.16708,70.479485
"23393",327.00073,70.44297,70.44809
"23394",327.01407,70.73106,70.437515
"23395",327.0274,71.011826,70.42863
"23396",327.04074,71.26086,70.396774
"23397",327.05408,71.46105,70.32387
"23398",327.0674,71.60265,70.19862
"23399",327.08075,71.68322,70.01677
"23400",327.0941,71.692986,69.76663
"23401",327.10742,71.6173,69.43135
"23402",327.12076,71.45617,69.008255
"23403",327.1341,71.22179,68.50688
"23404",327.14743,70.95323,67.964005
"23405",327.16077,70.748146,67.47621
"23406",327.1741,70.79698,67.23592
"23407",327.18744,71.44152,67.592865
"23408",327.20078,73.094376,68.97827
"23409",327.2141,76.04608,71.71418
"23410",327.22745,80.29908,75.84362
"23411",327.24078,85.489586,81.04347
"23412",327.25412,90.95842,86.68385
"23413",327.26746,95.91943,91.98732
"23414",327.2808,99.71587,96.28124
"23415",327.29413,101.976654,99.15814
"23416",327.30746,102.66514,100.5334
"23417",327.3208,101.944916,100.52147
"23418",327.33414,100.10651,99.368835
"23419",327.34747,97.49172,97.38238
"23420",327.3608,94.45701,94.89428
"23421",327.37415,91.334404,92.22346
"23422",327.38748,88.39735,89.6406
"23423",327.40082,85.79477,87.300446
"23424",327.41415,83.57549,85.26225
"23425",327.4275,81.71999,83.518486
"23426",327.44083,80.22095,82.07319
"23427",327.45416,79.10033,80.95947
"23428",327.4675,78.40452,80.23555
"23429",327.48083,78.15793,79.9391
"23430",327.49417,78.345924,80.069534
"23431",327.5075,78.86839,80.54031
"23432",327.52084,79.56664,81.2032
"23433",327.53418,80.26734,81.89036
"23434",327.54752,80.82155,82.45292
"23435",327.56085,81.1194,82.77644
"23436",327.5742,81.09743,82.78945
"23437",327.58752,80.72877,82.455086
"23438",327.60086,80.028076,81.77717
"23439",327.6142,79.05394,80.80391
"23440",327.62753,77.87961,79.60001
"23441",327.64087,76.59785,78.25199
"23442",327.6542,75.301445,76.84927
"23443",327.66754,74.073395,75.474396
"23444",327.68088,72.97475,74.190544
"23445",327.6942,72.044556,73.04082
"23446",327.70755,71.3048,72.05246
"23447",327.7209,70.75548,71.231415
"23448",327.73422,70.381935,70.568985
"23449",327.74756,70.1622,70.04868
"23450",327.7609,70.07675,69.6558
"23451",327.77423,70.10605,69.37499
"23452",327.78757,70.22568,69.18543
"23453",327.8009,70.40635,69.06065
"23454",327.81424,70.623634,68.978134
"23455",327.82758,70.84337,68.904854
"23456",327.8409,71.03624,68.811584
"23457",327.85425,71.182724,68.67795
"23458",327.86758,71.26818,68.48787
"23459",327.88092,71.28283,68.229645
"23460",327.89426,71.236435,67.91084
"23461",327.9076,71.13634,67.53688
"23462",327.92093,71.01427,67.13782
"23463",327.93427,70.923935,66.76668
"23464",327.9476,70.98985,66.548965
"23465",327.96094,71.42931,66.70686
"23466",327.97427,72.55726,67.56697
"23467",327.9876,74.64469,69.421814
"23468",328.00095,77.77219,72.38196
"23469",328.01428,81.72732,76.26747
"23470",328.02762,86.05844,80.65257
"23471",328.04095,90.1503,84.933754
"23472",328.0543,93.436485,88.53714
"23473",328.06763,95.54101,91.061554
"23474",328.08096,96.36622,92.37242
"23475",328.0943,96.00244,92.52009
"23476",328.10764,94.6572,91.67493
"23477",328.12097,92.58198,90.05774
"23478",328.1343,90.040436,87.909386
"23479",328.14764,87.28649,85.46921
"23480",328.16098,84.54475,82.95517
"23481",328.17432,81.9617,80.514145
"23482",328.18765,79.62768,78.241425
"23483",328.201,77.61593,76.21804
"23484",328.21432,76.019226,74.54684
"23485",328.22766,74.93767,73.34088
"23486",328.241,74.461586,72.706604
"23487",328.25433,74.62272,72.694664
"23488",328.26767,75.352715,73.25662
"23489",328.281,76.49287,74.25155
"23490",328.29434,77.80881,75.45789
"23491",328.30768,79.07591,76.656525
"23492",328.321,80.1062,77.657936
"23493",328.33435,80.78493,78.33998
"23494",328.3477,81.06081,78.64039
"23495",328.36102,80.93141,78.54414
"23496",328.37436,80.430916,78.072754
"23497",328.3877,79.63012,77.28542
"23498",328.40103,78.61936,76.26311
"23499",328.41437,77.486534,75.087135
"23500",328.4277,76.32197,73.844025
"23501",328.44104,75.211105,72.618225
"23502",328.45438,74.22232,71.47979
"23503",328.4677,73.39712,70.47404
"23504",328.48105,72.7599,69.630486
"23505",328.4944,72.30579,68.95013
"23506",328.50772,72.02258,68.42647
"23507",328.52106,71.8761,68.030685
"23508",328.5344,71.83948,67.74019
"23509",328.54773,71.8761,67.52179
"23510",328.56107,71.96155,67.35336
"23511",328.5744,72.06897,67.20958
"23512",328.58774,72.181274,67.074036
"23513",328.60107,72.28382,66.93225
"23514",328.6144,72.376595,66.78389
"23515",328.62775,72.46693,66.63599
"23516",328.64108,72.584114,66.51776
"23517",328.65442,72.78676,66.48866
"23518",328.66776,73.22865,66.70515
"23519",328.6811,74.15152,67.41641
"23520",328.69443,75.83368,68.91581
"23521",328.70776,78.41917,71.3711
"23522",328.7211,81.80301,74.70554
"23523",328.73444,85.63851,78.59739
"23524",328.74777,89.41543,82.55051
"23525",328.7611,92.59174,86.02106
"23526",328.77444,94.77928,88.60209
"23527",328.78778,95.82666,90.11132
"23528",328.80112,95.782715,90.56196
"23529",328.81445,94.80614,90.07859
"23530",328.8278,93.09224,88.827385
"23531",328.84113,90.85832,87.0026
"23532",328.85446,88.324104,84.80771
"23533",328.8678,85.69222,82.43596
"23534",328.88113,83.1165,80.03812
"23535",328.89447,80.71168,77.73068
"23536",328.9078,78.56565,75.606895
"23537",328.92114,76.790726,73.78715
"23538",328.93448,75.52361,72.41975
"23539",328.9478,74.8864,71.64265
"23540",328.96115,74.949875,71.546326
"23541",328.9745,75.67254,72.111176
"23542",328.98782,76.895706,73.19911
"23543",329.00116,78.37766,74.58406
"23544",329.0145,79.852295,76.007996
"23545",329.02783,81.10719,77.25828
"23546",329.04117,82.003204,78.18889
"23547",329.0545,82.47196,78.720245
"23548",329.06784,82.511024,78.836555
"23549",329.08118,82.15701,78.56101
"23550",329.0945,81.478294,77.9497
"23551",329.10785,80.56275,77.08035
"23552",329.1212,79.50317,76.03835
"23553",329.13452,78.38743,74.90709
"23554",329.14786,77.298546,73.767815
"23555",329.1612,76.297554,72.6824
"23556",329.17453,75.423515,71.692665
"23557",329.18787,74.71061,70.83675
"23558",329.2012,74.16617,70.127014
"23559",329.21454,73.7731,69.55164
"23560",329.22787,73.50454,69.08849
"23561",329.2412,73.338524,68.7195
"23562",329.25455,73.24574,68.41855
"23563",329.26788,73.199356,68.161095
"23564",329.28122,73.18471,67.93393
"23565",329.29456,73.196915,67.73316
"23566",329.3079,73.23598,67.55963
"23567",329.32123,73.32632,67.4386
"23568",329.33456,73.55337,67.4571
"23569",329.3479,74.08072,67.783
"23570",329.36124,75.17937,68.69667
"23571",329.37457,77.07881,70.44547
"23572",329.3879,79.815674,73.09105
"23573",329.40125,83.177536,76.44715
"23574",329.41458,86.746925,80.11584
"23575",329.42792,89.98917,83.56892
"23576",329.44125,92.44282,86.33473
"23577",329.4546,93.84421,88.12496
"23578",329.46793,94.186005,88.89939
"23579",329.48126,93.60738,88.764084
"23580",329.4946,92.29145,87.87338
"23581",329.50793,90.426186,86.39223
"23582",329.52127,88.1947,84.486565
"23583",329.5346,85.770355,82.3183
"23584",329.54794,83.29717,80.02544
"23585",329.56128,80.89479,77.72609
"23586",329.57462,78.67063,75.52989
"23587",329.58795,76.74189,73.55961
"23588",329.6013,75.24773,71.96363
"23589",329.61462,74.34196,70.909355
"23590",329.62796,74.144196,70.53478
"23591",329.6413,74.683754,70.89135
"23592",329.65463,75.85565,71.89712
"23593",329.66797,77.44747,73.35943
"23594",329.6813,79.19066,75.02285
"23595",329.69464,80.80446,76.61136
"23596",329.70798,82.08621,77.91825
"23597",329.7213,82.916306,78.81354
"23598",329.73465,83.26299,79.25136
"23599",329.748,83.1458,79.23613
"23600",329.76132,82.64042,78.829056
"23601",329.77466,81.83963,78.11078
"23602",329.788,80.848404,77.17704
"23603",329.80133,79.766846,76.121994
"23604",329.81467,78.67307,75.020935
"23605",329.828,77.63546,73.94186
"23606",329.84134,76.700386,72.93289
"23607",329.85468,75.90204,72.03143
"23608",329.868,75.25262,71.25395
"23609",329.88135,74.74235,70.59533
"23610",329.89468,74.36637,70.05505
"23611",329.90802,74.09781,69.61044
"23612",329.92136,73.90982,69.238014
"23613",329.9347,73.78287,68.920746
"23614",329.94803,73.69985,68.64345
"23615",329.96136,73.65591,68.402626
"23616",329.9747,73.66323,68.2117
"23617",329.98804,73.77554,68.12599
"23618",330.00137,74.144196,68.30013
"23619",330.0147,75.02312,68.99606
"23620",330.02805,76.66132,70.478745
"23621",330.04138,79.149155,72.86224
"23622",330.05472,82.31327,75.99977
"23623",330.06805,85.750824,79.50961
"23624",330.0814,88.93935,82.877846
"23625",330.09473,91.39056,85.60841
"23626",330.10806,92.81392,87.38773
"23627",330.1214,93.18501,88.15926
"23628",330.13474,92.645454,88.03174
"23629",330.14807,91.39544,87.176895
"23630",330.1614,89.62051,85.75807
"23631",330.17474,87.49157,83.92978
"23632",330.18808,85.155106,81.82742
"23633",330.20142,82.74784,79.58125
"23634",330.21475,80.38453,77.30381
"23635",330.2281,78.15793,75.089226
"23636",330.24142,76.18768,73.06142
"23637",330.25476,74.634926,71.38953
"23638",330.2681,73.670555,70.2575
"23639",330.28143,73.43618,69.82533
"23640",330.29477,74.00015,70.18419
"23641",330.3081,75.2868,71.28334
"23642",330.32144,77.086136,72.935394
"23643",330.33478,79.09544,74.853645
"23644",330.3481,81.007095,76.73703
"23645",330.36145,82.56962,78.331024
"23646",330.3748,83.63897,79.480675
"23647",330.38812,84.159,80.11442
"23648",330.40146,84.1712,80.25659
"23649",330.4148,83.76105,79.97678
"23650",330.42813,83.035934,79.3692
"23651",330.44147,82.1033,78.53144
"23652",330.4548,81.06325,77.55711
"23653",330.46814,79.9939,76.52099
"23654",330.48148,78.958725,75.48563
"23655",330.4948,77.99924,74.4936
"23656",330.50815,77.13985,73.571686
"23657",330.52148,76.40009,72.74255
"23658",330.53482,75.78241,72.012375
"23659",330.54816,75.29168,71.38985
"23660",330.5615,74.915695,70.86673
"23661",330.57483,74.63981,70.43196
"23662",330.58817,74.46403,70.08868
"23663",330.6015,74.407875,69.85953
"23664",330.61484,74.57389,69.85079
"23665",330.62817,75.21599,70.323326
"23666",330.6415,76.65156,71.6094
"23667",330.65485,79.07347,73.926674
"23668",330.66818,82.37919,77.20344
"23669",330.68152,86.170746,81.06934
"23670",330.69485,89.86954,84.96097
"23671",330.7082,92.87984,88.27969
"23672",330.72153,94.786606,90.58896
"23673",330.73486,95.48974,91.75417
"23674",330.7482,95.14305,91.89154
"23675",330.76154,93.98337,91.20508
"23676",330.77487,92.23041,89.8891
"23677",330.7882,90.07706,88.11795
"23678",330.80154,87.70397,86.05978
"23679",330.81488,85.262535,83.859085
"23680",330.82822,82.87236,81.63336
"23681",330.84155,80.63111,79.48187
"23682",330.8549,78.6096,77.48008
"23683",330.86823,76.90303,75.730064
"23684",330.88156,75.64324,74.3735
"23685",330.8949,74.984055,73.57816
"23686",330.90823,75.037766,73.47513
"23687",330.92157,75.826355,74.10865
"23688",330.9349,77.23506,75.38693
"23689",330.94824,79.012436,77.0779
"23690",330.96158,80.85573,78.890335
"23691",330.9749,82.47929,80.540634
"23692",330.98825,83.6878,81.82662
"23693",331.0016,84.386055,82.64012
"23694",331.01492,84.5716,82.96273
"23695",331.02826,84.29572,82.82971
"23696",331.0416,83.65606,82.32429
"23697",331.05493,82.75029,81.53277
"23698",331.06827,81.68093,80.549355
"23699",331.0816,80.5359,79.45685
"23700",331.09494,79.3933,78.331
"23701",331.10828,78.3093,77.22804
"23702",331.1216,77.32296,76.188866
"23703",331.13495,76.46845,75.2507
"23704",331.1483,75.76044,74.43233
"23705",331.16162,75.19646,73.73586
"23706",331.17496,74.759445,73.14874
"23707",331.1883,74.444496,72.67003
"23708",331.20163,74.268715,72.32064
"23709",331.21497,74.356606,72.22943
"23710",331.2283,74.98894,72.68541
"23711",331.24164,76.51484,74.05472
"23712",331.25497,79.11742,76.548386
"23713",331.2683,82.650185,80.05357
"23714",331.28165,86.659035,84.14524
"23715",331.29498,90.51408,88.208374
"23716",331.30832,93.59762,91.62048
"23717",331.32166,95.501945,93.94974
"23718",331.335,96.16846,95.100685
"23719",331.34833,95.78027,95.217766
"23720",331.36166,94.59373,94.52435
"23721",331.375,92.83345,93.22013
"23722",331.38834,90.71183,91.49956
"23723",331.40167,88.42664,89.54912
"23724",331.415,86.153656,87.53946
"23725",331.42834,84.0296,85.607704
"23726",331.44168,82.142365,83.84639
"23727",331.45502,80.533455,82.30443
"23728",331.46835,79.23949,81.02713
"23729",331.4817,78.3093,80.07318
"23730",331.49503,77.80881,79.51985
"23731",331.50836,77.79416,79.43673
"23732",331.5217,78.27024,79.84388
"23733",331.53503,79.15892,80.678505
"23734",331.54837,80.29664,81.78994
"23735",331.5617,81.47585,82.978424
"23736",331.57504,82.50614,84.05483
"23737",331.58838,83.23857,84.86558
"23738",331.6017,83.59258,85.32079
"23739",331.61505,83.55108,85.391556
"23740",331.6284,83.1458,85.097244
"23741",331.64172,82.43534,84.48509
"23742",331.65506,81.50027,83.62612
"23743",331.6684,80.430916,82.60365
"23744",331.68173,79.31518,81.50138
"23745",331.69507,78.22629,80.39109
"23746",331.7084,77.222855,79.33223
"23747",331.72174,76.34394,78.36653
"23748",331.73508,75.613945,77.522285
"23749",331.7484,75.028,76.79928
"23750",331.76175,74.581215,76.19712
"23751",331.7751,74.251625,75.6982
"23752",331.78842,74.02457,75.291504
"23753",331.80176,73.917145,74.99735
"23754",331.8151,74.0441,74.93422
"23755",331.82843,74.64713,75.351135
"23756",331.84177,76.03143,76.56816
"23757",331.8551,78.35813,78.77084
"23758",331.86844,81.51736,81.87876
"23759",331.88177,85.13313,85.541954
"23760",331.8951,88.66834,89.23757
"23761",331.90845,91.57122,92.41133
"23762",331.92178,93.46578,94.667496
"23763",331.93512,94.261696,95.88422
"23764",331.94846,94.083466,96.151665
"23765",331.9618,93.14839,95.6567
"23766",331.97513,91.666435,94.58563
"23767",331.98846,89.847565,93.13134
"23768",332.0018,87.89929,91.49081
"23769",332.01514,86.014496,89.85286
"23770",332.02847,84.3299,88.35622
"23771",332.0418,82.90654,87.06816
"23772",332.05515,81.74685,85.9993
"23773",332.06848,80.814224,85.12126
"23774",332.08182,80.096436,84.42892
"23775",332.09515,79.59838,83.933876
"23776",332.1085,79.35424,83.677185
"23777",332.12183,79.3933,83.69607
"23778",332.13516,79.70092,83.984726
"23779",332.1485,80.201416,84.475876
"23780",332.16183,80.7776,85.05836
"23781",332.17517,81.304955,85.61001
"23782",332.1885,81.66628,86.012115
"23783",332.20184,81.795685,86.19359
"23784",332.21518,81.65652,86.110535
"23785",332.22852,81.25124,85.75703
"23786",332.24185,80.61402,85.158905
"23787",332.2552,79.80347,84.36754
"23788",332.26852,78.90013,83.45806
"23789",332.28186,77.97238,82.49594
"23790",332.2952,77.08858,81.548775
"23791",332.30853,76.29023,80.65945
"23792",332.32187,75.613945,79.86723
"23793",332.3352,75.0695,79.18573
"23794",332.34854,74.64469,78.60684
"23795",332.36188,74.319984,78.114784
"23796",332.3752,74.07828,77.69558
"23797",332.38855,73.89273,77.32498
"23798",332.4019,73.75113,76.99253
"23799",332.41522,73.66079,76.70692
"23800",332.42856,73.67544,76.52347
"23801",332.4419,73.944,76.59439
"23802",332.45523,74.7277,77.18884
"23803",332.46857,76.27802,78.57441
"23804",332.4819,78.67063,80.85071
"23805",332.49524,81.739525,83.87806
"23806",332.50858,85.11116,87.304054
"23807",332.5219,88.289925,90.64254
"23808",332.53525,90.811935,93.423615
"23809",332.54858,92.403755,95.35331
"23810",332.56192,93.03853,96.3757
"23811",332.57526,92.83833,96.58296
"23812",332.5886,91.99115,96.13698
"23813",332.60193,90.704506,95.22506
"23814",332.61526,89.18349,94.03856
"23815",332.6286,87.620964,92.763016
"23816",332.64194,86.18295,91.563156
"23817",332.65527,84.95735,90.53077
"23818",332.6686,83.949036,89.67737
"23819",332.68195,83.106735,88.95847
"23820",332.69528,82.36942,88.318245
"23821",332.70862,81.705345,87.72821
"23822",332.72195,81.13161,87.20776
"23823",332.7353,80.69947,86.81099
"23824",332.74863,80.46754,86.600914
"23825",332.76196,80.445564,86.59355
"23826",332.7753,80.59205,86.75396
"23827",332.78864,80.81911,86.99952
"23828",332.80197,81.03395,87.23996
"23829",332.8153,81.146255,87.384575
"23830",332.82864,81.09987,87.37401
"23831",332.84198,80.85817,87.16668
"23832",332.85532,80.40894,86.74427
"23833",332.86865,79.76929,86.11739
"23834",332.882,78.98558,85.32648
"23835",332.89532,78.116425,84.42562
"23836",332.90866,77.222855,83.47319
"23837",332.922,76.36347,82.52702
"23838",332.93533,75.58465,81.63456
"23839",332.94867,74.92058,80.83251
"23840",332.962,74.38346,80.136665
"23841",332.97534,73.968414,79.546104
"23842",332.98868,73.66567,79.05488
"23843",333.002,73.46548,78.65674
"23844",333.01535,73.35561,78.342674
"23845",333.0287,73.31655,78.09598
"23846",333.04202,73.33364,77.90421
"23847",333.05536,73.39712,77.75937
"23848",333.0687,73.47524,77.63116
"23849",333.08203,73.55581,77.50783
"23850",333.09537,73.616844,77.367485
"23851",333.1087,73.651024,77.202194
"23852",333.12204,73.636375,76.98914
"23853",333.13538,73.5729,76.72681
"23854",333.1487,73.45083,76.40389
"23855",333.16205,73.29458,76.042984
"23856",333.17538,73.16762,75.70648
"23857",333.18872,73.231094,75.55645
"23858",333.20206,73.777985,75.891815
"23859",333.2154,75.11589,77.035286
"23860",333.22873,77.40597,79.17274
"23861",333.24207,80.5359,82.2216
"23862",333.2554,84.15411,85.85657
"23863",333.26874,87.75281,89.585075
"23864",333.28207,90.82414,92.89868
"23865",333.2954,93.00923,95.42203
"23866",333.30875,94.19821,97.01755
"23867",333.32208,94.469215,97.73225
"23868",333.33542,93.98825,97.703445
"23869",333.34875,92.94331,97.09564
"23870",333.3621,91.55413,96.11094
"23871",333.37543,90.0502,94.96808
"23872",333.38876,88.6244,93.856346
"23873",333.4021,87.38415,92.885605
"23874",333.41544,86.3563,92.08852
"23875",333.42877,85.48226,91.41311
"23876",333.4421,84.69611,90.79828
"23877",333.45544,83.95392,90.202835
"23878",333.46878,83.25811,89.630585
"23879",333.48212,82.66239,89.13668
"23880",333.49545,82.22537,88.78286
"23881",333.5088,81.97879,88.60582
"23882",333.52213,81.89334,88.58221
"23883",333.53546,81.898224,88.646255
"23884",333.5488,81.91043,88.71778
"23885",333.56213,81.85672,88.72377
"23886",333.57547,81.671165,88.59624
"23887",333.5888,81.324486,88.30178
"23888",333.60214,80.80446,87.82314
"23889",333.61548,80.12329,87.167114
"23890",333.6288,79.31274,86.36041
"23891",333.64215,78.4094,85.4356
"23892",333.6555,77.467,84.4435
"23893",333.66882,76.544136,83.441475
"23894",333.68216,75.69207,82.481415
"23895",333.6955,74.94011,81.59483
"23896",333.70883,74.31754,80.81415
"23897",333.72217,73.82681,80.14584
"23898",333.7355,73.45571,79.58183
"23899",333.74884,73.18471,79.10632
"23900",333.76218,72.99916,78.7078
"23901",333.7755,72.87953,78.3694
"23902",333.78885,72.80629,78.07365
"23903",333.8022,72.76967,77.812225
"23904",333.81552,72.75746,77.57407
"23905",333.82886,72.7599,77.35019
"23906",333.8422,72.77455,77.13859
"23907",333.85553,72.78676,76.925
"23908",333.86887,72.796524,76.70936
"23909",333.8822,72.79408,76.48181
"23910",333.89554,72.76967,76.232216
"23911",333.90887,72.725716,75.96232
"23912",333.9222,72.66468,75.673965
"23913",333.93555,72.59144,75.37149
"23914",333.94888,72.50355,75.05208
"23915",333.96222,72.40833,74.722595
"23916",333.97556,72.308235,74.385254
"23917",333.9889,72.20569,74.04234
"23918",334.00223,72.10315,73.69623
"23919",334.01556,72.00305,73.34935
"23920",334.0289,71.91272,73.00911
"23921",334.04224,71.84192,72.68558
"23922",334.05557,71.79553,72.38425
"23923",334.0689,71.783325,72.11565
"23924",334.08224,71.8053,71.880844
"23925",334.09558,71.85657,71.676025
"23926",334.10892,71.93469,71.499664
"23927",334.12225,72.027466,71.34039
"23928",334.1356,72.13245,71.19623
"23929",334.14893,72.23987,71.057785
"23930",334.16226,72.33997,70.91539
"23931",334.1756,72.42054,70.75658
"23932",334.18893,72.46937,70.56854
"23933",334.20227,72.48646,70.350296
"23934",334.2156,72.52552,70.15456
"23935",334.22894,72.725716,70.12117
"23936",334.24228,73.402,70.57013
"23937",334.2556,74.95232,71.91426
"23938",334.26895,77.63546,74.43967
"23939",334.2823,81.42947,78.15978
"23940",334.29562,85.98764,82.76263
"23941",334.30896,90.7509,87.713
"23942",334.3223,95.06004,92.35811
"23943",334.33563,98.39506,96.16375
"23944",334.34897,100.51179,98.85532
"23945",334.3623,101.41024,100.39477
"23946",334.37564,101.23445,100.88805
"23947",334.38898,100.191956,100.509125
"23948",334.4023,98.55131,99.49947
"23949",334.41565,96.60792,98.13581
"23950",334.429,94.64744,96.69433
"23951",334.44232,92.88716,95.391785
"23952",334.45566,91.43694,94.34429
"23953",334.469,90.287025,93.55178
"23954",334.48233,89.35195,92.93818
"23955",334.49567,88.52674,92.40522
"23956",334.509,87.73815,91.88309
"23957",334.52234,86.976425,91.363174
"23958",334.53568,86.2855,90.89026
"23959",334.549,85.72396,90.52514
"23960",334.56235,85.316246,90.296295
"23961",334.57568,85.0428,90.18898
"23962",334.58902,84.84749,90.15125
"23963",334.60236,84.65461,90.109856
"23964",334.6157,84.39826,89.99896
"23965",334.62903,84.02228,89.76042
"23966",334.64236,83.4876,89.35144
"23967",334.6557,82.777145,88.74997
"23968",334.66904,81.898224,87.95783
"23969",334.68237,80.88014,86.99907
"23970",334.6957,79.766846,85.91328
"23971",334.70905,78.6096,84.74874
"23972",334.72238,77.469444,83.56514
"23973",334.73572,76.402534,82.41915
"23974",334.74905,75.45281,81.35701
"23975",334.7624,74.649574,80.411674
"23976",334.77573,74.00992,79.60482
"23977",334.78906,73.52163,78.929344
"23978",334.8024,73.1725,78.37777
"23979",334.81573,72.938126,77.93004
"23980",334.82907,72.781876,77.55311
"23981",334.8424,72.68177,77.22744
"23982",334.85574,72.62318,76.940155
"23983",334.86908,72.59388,76.68033
"23984",334.88242,72.57923,76.434235
"23985",334.89575,72.57923,76.20233
"23986",334.9091,72.58167,75.97287
"23987",334.92242,72.57923,75.7386
"23988",334.93576,72.567024,75.49449
"23989",334.9491,72.54017,75.23535
"23990",334.96243,72.50111,74.963165
"23991",334.97577,72.447395,74.67511
"23992",334.9891,72.376595,74.368286
"23993",335.00244,72.28626,74.03972
"23994",335.01578,72.17639,73.6888
"23995",335.0291,72.05432,73.322235
"23996",335.04245,71.93469,72.9543
"23997",335.0558,71.82727,72.59483
"23998",335.06912,71.744255,72.256424
"23999",335.08246,71.69787,71.95204
"24000",335.0958,71.67834,71.673065
"24001",335.10913,71.68078,71.41545
"24002",335.12247,71.692986,71.16768
"24003",335.1358,71.710075,70.92517
"24004",335.14914,71.710075,70.66611
"24005",335.16248,71.690544,70.38751
"24006",335.1758,71.6466,70.08389
"24007",335.18915,71.588005,69.76425
"24008",335.20248,71.536736,69.4501
"24009",335.21582,71.55871,69.207596
"24010",335.22916,71.82483,69.20993
"24011",335.2425,72.63538,69.765015
"24012",335.25583,74.32975,71.22923
"24013",335.26917,77.11543,73.83772
"24014",335.2825,80.92653,77.55868
"24015",335.29584,85.40414,82.06524
"24016",335.30917,89.9794,86.80938
"24017",335.3225,94.01999,91.16183
"24018",335.33585,97.03517,94.615135
"24019",335.34918,98.795456,96.90777
"24020",335.36252,99.30816,98.00783
"24021",335.37585,98.71488,98.01793
"24022",335.3892,97.23537,97.12325
"24023",335.40253,95.147934,95.574425
"24024",335.41586,92.755325,93.65519
"24025",335.4292,90.338295,91.636765
"24026",335.44254,88.128784,89.75033
"24027",335.45587,86.24399,88.11955
"24028",335.4692,84.701,86.77168
"24029",335.48254,83.46075,85.67834
"24030",335.49588,82.48173,84.807465
"24031",335.50922,81.74685,84.15014
"24032",335.52255,81.27566,83.733536
"24033",335.5359,81.09987,83.59761
"24034",335.54922,81.21217,83.744286
"24035",335.56256,81.55154,84.12153
"24036",335.5759,82.01297,84.63145
"24037",335.58923,82.45243,85.13381
"24038",335.60257,82.75273,85.51075
"24039",335.6159,82.83818,85.68222
"24040",335.62924,82.65751,85.59024
"24041",335.64258,82.193634,85.20941
"24042",335.6559,81.46609,84.550415
"24043",335.66925,80.52125,83.65139
"24044",335.6826,79.41772,82.56415
"24045",335.69592,78.22629,81.35452
"24046",335.70926,77.015335,80.08814
"24047",335.7226,75.862976,78.842514
"24048",335.73593,74.83269,77.682945
"24049",335.74927,73.96353,76.65231
"24050",335.7626,73.270164,75.77031
"24051",335.77594,72.7599,75.04974
"24052",335.78928,72.413216,74.47681
"24053",335.8026,72.200806,74.02731
"24054",335.81595,72.095825,73.678604
"24055",335.82928,72.07385,73.40962
"24056",335.84262,72.10559,73.193665
"24057",335.85596,72.17883,73.0202
"24058",335.8693,72.28138,72.87834
"24059",335.88263,72.40101,72.75676
"24060",335.89597,72.532845,72.65112
"24061",335.9093,72.6598,72.54472
"24062",335.92264,72.77699,72.43254
"24063",335.93597,72.87709,72.30692
"24064",335.9493,72.952774,72.16002
"24065",335.96265,73.006485,71.99351
"24066",335.97598,73.04799,71.81647
"24067",335.98932,73.08217,71.6334
"24068",336.00266,73.10658,71.441635
"24069",336.016,73.12367,71.24331
"24070",336.02933,73.128555,71.03331
"24071",336.04266,73.11635,70.80637
"24072",336.056,73.077286,70.5522
"24073",336.06934,73.00893,70.26751
"24074",336.08267,72.89174,69.931854
"24075",336.096,72.725716,69.5437
"24076",336.10934,72.50111,69.09177
"24077",336.12268,72.22522,68.58154
"24078",336.13602,71.922485,68.03584
"24079",336.14935,71.64904,67.50998
"24080",336.1627,71.536736,67.1367
"24081",336.17603,71.83948,67.17497
"24082",336.18936,72.9308,68.01128
"24083",336.2027,75.159836,70.0194
"24084",336.21603,78.6218,73.33012
"24085",336.22937,83.07988,77.745125
"24086",336.2427,87.99451,82.756
"24087",336.25604,92.662544,87.67386
"24088",336.26938,96.42481,91.83183
"24089",336.2827,98.8687,94.788994
"24090",336.29605,99.894104,96.404045
"24091",336.3094,99.632866,96.764496
"24092",336.32272,98.29496,96.040115
"24093",336.33606,96.13428,94.45115
"24094",336.3494,93.44137,92.262436
"24095",336.36273,90.50187,89.74298
"24096",336.37607,87.56481,87.13411
"24097",336.3894,84.823074,84.62877
"24098",336.40274,82.38407,82.340485
"24099",336.41608,80.306404,80.33732
"24100",336.4294,78.63645,78.67694
"24101",336.44275,77.44015,77.43803
"24102",336.4561,76.80049,76.718376
"24103",336.46942,76.78096,76.59886
"24104",336.48276,77.37179,77.089096
"24105",336.4961,78.46555,78.10073
"24106",336.50943,79.871826,79.45905
"24107",336.52277,81.339134,80.922356
"24108",336.5361,82.63554,82.260605
"24109",336.54944,83.580376,83.2878
"24110",336.56277,84.068665,83.88798
"24111",336.5761,84.0589,84.005356
"24112",336.58945,83.57061,83.643906
"24113",336.60278,82.669716,82.85459
"24114",336.61612,81.463646,81.73195
"24115",336.62946,80.06714,80.38118
"24116",336.6428,78.59495,78.91109
"24117",336.65613,77.14473,77.41696
"24118",336.66946,75.80438,75.98739
"24119",336.6828,74.62516,74.677055
"24120",336.69614,73.63882,73.52275
"24121",336.70947,72.867325,72.552475
"24122",336.7228,72.31068,71.772934
"24123",336.73615,71.95422,71.17619
"24124",336.74948,71.77356,70.744095
"24125",336.76282,71.73693,70.45039
"24126",336.77615,71.82239,70.27763
"24127",336.7895,71.99573,70.19542
"24128",336.80283,72.24475,70.194305
"24129",336.81616,72.54505,70.25226
"24130",336.8295,72.886856,70.3611
"24131",336.84283,73.25063,70.502594
"24132",336.85617,73.619286,70.66033
"24133",336.8695,73.96353,70.80518
"24134",336.88284,74.26627,70.91929
"24135",336.89618,74.50797,70.98181
"24136",336.90952,74.67643,70.978645
"24137",336.92285,74.74479,70.880646
"24138",336.9362,74.69596,70.667595
"24139",336.94952,74.5153,70.32118
"24140",336.96286,74.20279,69.83728
"24141",336.9762,73.78531,69.23864
"24142",336.98953,73.323875,68.583
"24143",337.00287,72.89906,67.94956
"24144",337.0162,72.67933,67.50793
"24145",337.02954,72.972305,67.57213
"24146",337.04288,74.175934,68.556145
"24147",337.0562,76.58808,70.78629
"24148",337.06955,80.22339,74.31498
"24149",337.0829,84.74738,78.845955
"24150",337.09622,89.53506,83.78198
"24151",337.10956,93.84177,88.386665
"24152",337.1229,97.05226,92.02972
"24153",337.13623,98.863815,94.37415
"24154",337.14957,99.27642,95.37625
"24155",337.1629,98.48539,95.18761
"24156",337.17624,96.73243,94.012314
"24157",337.18958,94.28123,92.084
"24158",337.2029,91.38567,89.634735
"24159",337.21625,88.27772,86.88258
"24160",337.22958,85.155106,84.01865
"24161",337.24292,82.15457,81.17921
"24162",337.25626,79.37377,78.46574
"24163",337.2696,76.90303,75.975426
"24164",337.28293,74.881516,73.85713
"24165",337.29626,73.48745,72.303116
"24166",337.3096,72.89906,71.511215
"24167",337.32294,73.22377,71.61402
"24168",337.33627,74.42985,72.608345
"24169",337.3496,76.32929,74.333725
"24170",337.36295,78.61448,76.5042
"24171",337.37628,80.92409,78.770515
"24172",337.38962,82.930954,80.80626
"24173",337.40295,84.40803,82.37492
"24174",337.4163,85.23079,83.335434
"24175",337.42963,85.38949,83.65759
"24176",337.44296,84.945145,83.38167
"24177",337.4563,84.01007,82.60113
"24178",337.46964,82.71366,81.43003
"24179",337.48297,81.18776,79.98893
"24180",337.4963,79.554436,78.39272
"24181",337.50964,77.92111,76.745476
"24182",337.52298,76.385445,75.144844
"24183",337.53632,75.020676,73.66712
"24184",337.54965,73.882965,72.37381
"24185",337.563,72.99672,71.29641
"24186",337.57632,72.37415,70.454994
"24187",337.58966,71.99817,69.8407
"24188",337.603,71.8468,69.43927
"24189",337.61633,71.87854,69.21622
"24190",337.62967,72.05188,69.13576
"24191",337.643,72.31556,69.15106
"24192",337.65634,72.620735,69.216095
"24193",337.66968,72.92836,69.29312
"24194",337.683,73.199356,69.34313
"24195",337.69635,73.426414,69.35767
"24196",337.7097,73.62417,69.350006
"24197",337.72302,73.863434,69.39003
"24198",337.73636,74.337074,69.671906
"24199",337.7497,75.39178,70.549644
"24200",337.76303,77.437706,72.45157
"24201",337.77637,80.709236,75.64303
"24202",337.7897,85.09895,80.05491
"24203",337.80304,90.142975,85.25827
"24204",337.81638,95.14061,90.572876
"24205",337.8297,99.34234,95.24775
"24206",337.84305,102.20615,98.716
"24207",337.85638,103.52941,100.733215
"24208",337.86972,103.38781,101.326904
"24209",337.88306,102.00107,100.671036
"24210",337.8964,99.615776,98.97328
"24211",337.90973,96.50538,96.475876
"24212",337.92307,92.9482,93.43449
"24213",337.9364,89.22255,90.11347
"24214",337.94974,85.57015,86.74928
"24215",337.96307,82.16922,83.522415
"24216",337.9764,79.114975,80.53596
"24217",337.98975,76.47578,77.8691
"24218",338.00308,74.337074,75.62027
"24219",338.01642,72.833145,73.93938
"24220",338.02975,72.12024,73.00251
"24221",338.0431,72.32044,72.95647
"24222",338.05643,73.43374,73.82977
"24223",338.06976,75.29412,75.48496
"24224",338.0831,77.59884,77.642624
"24225",338.09644,79.974365,79.943115
"24226",338.10977,82.074005,82.041954
"24227",338.1231,83.64629,83.679054
"24228",338.13644,84.559395,84.7061
"24229",338.14978,84.78645,85.07564
"24230",338.16312,84.38361,84.82237
"24231",338.17645,83.46075,84.03649
"24232",338.1898,82.15213,82.83602
"24233",338.20312,80.59693,81.348076
"24234",338.21646,78.924545,79.69434
"24235",338.2298,77.24483,77.98102
"24236",338.24313,75.64324,76.293335
"24237",338.25647,74.19791,74.71185
"24238",338.2698,72.96498,73.297615
"24239",338.28314,71.98352,72.09631
"24240",338.29648,71.2633,71.12558
"24241",338.3098,70.79942,70.38869
"24242",338.32315,70.55772,69.85947
"24243",338.3365,70.4918,69.498474
"24244",338.34982,70.55283,69.262375
"24245",338.36316,70.694435,69.10875
"24246",338.3765,70.86534,68.98885
"24247",338.38983,71.04845,68.886505
"24248",338.40317,71.27306,68.83139
"24249",338.4165,71.69787,68.983475
"24250",338.42984,72.69886,69.72502
"24251",338.44318,74.793625,71.59163
"24252",338.4565,78.35081,74.986115
"24253",338.46985,83.34356,79.92733
"24254",338.4832,89.30801,85.99626
"24255",338.49652,95.448235,92.42737
"24256",338.50986,100.858475,98.320366
"24257",338.5232,104.82338,102.937096
"24258",338.53653,107.03044,105.91989
"24259",338.54987,107.528496,107.26265
"24260",338.5632,106.55192,107.14634
"24261",338.57654,104.396126,105.8203
"24262",338.58987,101.37606,103.56261
"24263",338.6032,97.80911,100.66366
"24264",338.61655,94.01999,97.43107
"24265",338.62988,90.30656,94.15576
"24266",338.64322,86.8983,91.06959
"24267",338.65656,83.914856,88.30171
"24268",338.6699,81.38308,85.89227
"24269",338.68323,79.290764,83.84318
"24270",338.69656,77.65011,82.18036
"24271",338.7099,76.524605,80.98142
"24272",338.72324,76.00946,80.35767
"24273",338.73657,76.16083,80.38434
"24274",338.7499,76.946976,81.050514
"24275",338.76324,78.21408,82.22221
"24276",338.77658,79.71313,83.66545
"24277",338.78992,81.16579,85.109146
"24278",338.80325,82.337685,86.317474
"24279",338.8166,83.075,87.12784
"24280",338.82993,83.29473,87.443665
"24281",338.84326,82.98711,87.239
"24282",338.8566,82.19119,86.53643
"24283",338.86993,80.990005,85.40372
"24284",338.88327,79.500725,83.94537
"24285",338.8966,77.85031,82.27936
"24286",338.90994,76.14862,80.51049
"24287",338.92328,74.50797,78.74949
"24288",338.9366,73.01869,77.088585
"24289",338.94995,71.727165,75.578896
"24290",338.9633,70.67002,74.26323
"24291",338.97662,69.85458,73.15623
"24292",338.98996,69.26864,72.253235
"24293",339.0033,68.89021,71.53945
"24294",339.01663,68.69001,70.992065
"24295",339.02997,68.63386,70.58247
"24296",339.0433,68.67048,70.2639
"24297",339.05664,68.76082,70.00019
"24298",339.06998,68.87312,69.76127
"24299",339.0833,69.0074,69.54783
"24300",339.09665,69.2662,69.463104
"24301",339.11,69.942474,69.80395
"24302",339.12332,71.52453,71.0717
"24303",339.13666,74.48844,73.77075
"24304",339.15,79.00755,78.11763
"24305",339.16333,84.81331,83.89237
"24306",339.17667,91.226974,90.45645
"24307",339.19,97.35012,96.93044
"24308",339.20334,102.31602,102.43853
"24309",339.21667,105.59243,106.41232
"24310",339.23,107.052414,108.67207
"24311",339.24335,106.8571,109.32215
"24312",339.25668,105.27993,108.58427
"24313",339.27002,102.643166,106.7375
"24314",339.28336,99.29839,104.10033
"24315",339.2967,95.61425,101.01926
"24316",339.31003,91.94476,97.837715
"24317",339.32336,88.57069,94.836914
"24318",339.3367,85.66537,92.19943
"24319",339.35004,83.27764,89.98875
"24320",339.36337,81.356224,88.169754
"24321",339.3767,79.83032,86.68623
"24322",339.39005,78.66575,85.51636
"24323",339.40338,77.87717,84.68608
"24324",339.41672,77.50851,84.25108
"24325",339.43005,77.58175,84.24647
"24326",339.4434,78.048065,84.637215
"24327",339.45673,78.77562,85.30377
"24328",339.47006,79.586174,86.076065
"24329",339.4834,80.30396,86.78092
"24330",339.49673,80.782486,87.26894
"24331",339.51007,80.93141,87.44232
"24332",339.5234,80.70435,87.24437
"24333",339.53674,80.08911,86.65114
"24334",339.55008,79.11253,85.677345
"24335",339.56342,77.838104,84.37518
"24336",339.57675,76.36591,82.835434
"24337",339.5901,74.80095,81.156906
"24338",339.60342,73.26284,79.45633
"24339",339.61676,71.8468,77.82976
"24340",339.6301,70.626076,76.35425
"24341",339.64343,69.63485,75.07008
"24342",339.65677,68.88045,73.99177
"24343",339.6701,68.34577,73.109604
"24344",339.68344,68.01129,72.41093
"24345",339.69678,67.83063,71.85561
"24346",339.7101,67.77203,71.416725
"24347",339.72345,67.78668,71.04925
"24348",339.7368,67.83795,70.71885
"24349",339.75012,67.89166,70.392494
"24350",339.76346,67.96735,70.08979
"24351",339.7768,68.155334,69.90176
"24352",339.79013,68.7071,70.083374
"24353",339.80347,70.047455,71.07082
"24354",339.8168,72.6305,73.34285
"24355",339.83014,76.66621,77.148254
"24356",339.84348,81.969025,82.34689
"24357",339.8568,87.97009,88.40949
"24358",339.87015,93.85153,94.53999
"24359",339.88348,98.78325,99.90457
"24360",339.89682,102.18906,103.897354
"24361",339.91016,103.871216,106.27292
"24362",339.9235,103.94202,107.08969
"24363",339.93683,102.660255,106.55612
"24364",339.95016,100.353096,104.95709
"24365",339.9635,97.38918,102.62921
"24366",339.97684,94.14206,99.9255
"24367",339.99017,90.93645,97.16183
"24368",340.0035,88.0238,94.59095
"24369",340.01685,85.53353,92.351425
"24370",340.03018,83.47051,90.46133
"24371",340.04352,81.76883,88.868095
"24372",340.05685,80.343025,87.49757
"24373",340.0702,79.166245,86.331505
"24374",340.08353,78.25315,85.39236
"24375",340.09686,77.66476,84.749374
"24376",340.1102,77.42794,84.43958
"24377",340.12354,77.523155,84.45442
"24378",340.13687,77.86008,84.71394
"24379",340.1502,78.30686,85.09386
"24380",340.16354,78.71702,85.4511
"24381",340.17688,78.97826,85.67225
"24382",340.19022,79.00023,85.66229
"24383",340.20355,78.73411,85.36493
"24384",340.2169,78.167694,84.75896
"24385",340.23022,77.32052,83.85452
"24386",340.24356,76.25361,82.70388
"24387",340.2569,75.03288,81.36608
"24388",340.27023,73.738914,79.91689
"24389",340.28357,72.444954,78.42728
"24390",340.2969,71.22911,76.97534
"24391",340.31024,70.14755,75.61969
"24392",340.32358,69.2491,74.413345
"24393",340.3369,68.55329,73.38157
"24394",340.35025,68.065,72.53557
"24395",340.3636,67.76959,71.86719
"24396",340.37692,67.64263,71.358025
"24397",340.39026,67.64263,70.971855
"24398",340.4036,67.74029,70.68334
"24399",340.41693,67.89899,70.45892
"24400",340.43027,68.086975,70.26875
"24401",340.4436,68.26765,70.07714
"24402",340.45694,68.42878,69.871635
"24403",340.47028,68.55329,69.634544
"24404",340.4836,68.67048,69.39402
"24405",340.49695,68.90242,69.27191
"24406",340.51028,69.51278,69.53547
"24407",340.52362,70.89708,70.59204
"24408",340.53696,73.42397,72.83447
"24409",340.5503,77.21797,76.42297
"24410",340.56363,82.04959,81.167656
"24411",340.57697,87.36706,86.54917
"24412",340.5903,92.43061,91.84294
"24413",340.60364,96.532234,96.33302
"24414",340.61697,99.21538,99.5328
"24415",340.6303,100.350655,101.268555
"24416",340.64365,100.04791,101.60177
"24417",340.65698,98.56107,100.741425
"24418",340.67032,96.22217,98.98255
"24419",340.68365,93.368126,96.63545
"24420",340.697,90.34318,94.02826
"24421",340.71033,87.43786,91.44617
"24422",340.72366,84.85237,89.09311
"24423",340.737,82.66483,87.057205
"24424",340.75034,80.87282,85.348465
"24425",340.76367,79.429924,83.932846
"24426",340.777,78.30198,82.78709
"24427",340.79034,77.488976,81.92102
"24428",340.80368,77.00801,81.36159
"24429",340.81702,76.88106,81.141136
"24430",340.83035,77.07149,81.2341
"24431",340.8437,77.4963,81.5674
"24432",340.85703,78.01877,82.01163
"24433",340.87036,78.504616,82.43556
"24434",340.8837,78.84642,82.73064
"24435",340.89703,78.96361,82.811775
"24436",340.91037,78.80492,82.6207
"24437",340.9237,78.36057,82.13901
"24438",340.93704,77.65743,81.384636
"24439",340.95038,76.74677,80.40077
"24440",340.9637,75.68963,79.24197
"24441",340.97705,74.56657,77.98421
"24442",340.9904,73.44839,76.696236
"24443",341.00372,72.40589,75.449005
"24444",341.01706,71.48791,74.2937
"24445",341.0304,70.7335,73.273285
"24446",341.04373,70.15488,72.40508
"24447",341.05707,69.752045,71.69459
"24448",341.0704,69.505455,71.12775
"24449",341.08374,69.39315,70.687485
"24450",341.09708,69.39559,70.35846
"24451",341.1104,69.49569,70.12717
"24452",341.12375,69.66659,69.9698
"24453",341.1371,69.88876,69.86906
"24454",341.15042,70.13779,69.8021
"24455",341.16376,70.38926,69.74538
"24456",341.1771,70.626076,69.681854
"24457",341.19043,70.82384,69.58668
"24458",341.20377,70.96788,69.44397
"24459",341.2171,71.043564,69.2374
"24460",341.23044,71.07042,68.98436
"24461",341.24377,71.10948,68.74437
"24462",341.2571,71.33654,68.6936
"24463",341.27045,72.08118,69.16751
"24464",341.28378,73.73647,70.57535
"24465",341.29712,76.561226,73.20437
"24466",341.31046,80.5066,77.04228
"24467",341.3238,85.19905,81.750565
"24468",341.33713,90.0087,86.72268
"24469",341.35046,94.237274,91.26403
"24470",341.3638,97.32082,94.792496
"24471",341.37714,98.99321,97.00616
"24472",341.39047,99.27398,97.88046
"24473",341.4038,98.338905,97.5477
"24474",341.41714,96.45411,96.23599
"24475",341.43048,93.924774,94.22085
"24476",341.44382,91.073166,91.80439
"24477",341.45715,88.18738,89.26464
"24478",341.4705,85.49447,86.82759
"24479",341.48383,83.12871,84.63353
"24480",341.49716,81.13405,82.73664
"24481",341.5105,79.51049,81.14852
"24482",341.52383,78.2678,79.89053
"24483",341.53717,77.43282,79.00143
"24484",341.5505,77.0544,78.54278
"24485",341.56384,77.14229,78.53862
"24486",341.57718,77.65499,78.96202
"24487",341.5905,78.46067,79.69442
"24488",341.60385,79.38842,80.574066
"24489",341.6172,80.2478,81.41434
"24490",341.63052,80.88991,82.064186
"24491",341.64386,81.2195,82.421585
"24492",341.6572,81.19264,82.43284
"24493",341.67053,80.8069,82.084366
"24494",341.68387,80.10376,81.40644
"24495",341.6972,79.151596,80.45752
"24496",341.71054,78.04562,79.325035
"24497",341.72388,76.87373,78.09207
"24498",341.7372,75.716484,76.83713
"24499",341.75055,74.63004,75.61683
"24500",341.7639,73.66567,74.48465
"24501",341.77722,72.84047,73.4615
"24502",341.79056,72.164185,72.561485
"24503",341.8039,71.63683,71.78926
"24504",341.81723,71.26086,71.15193
"24505",341.83057,71.02403,70.64201
"24506",341.8439,70.91173,70.24921
"24507",341.85724,70.91417,69.967636
"24508",341.87057,71.01671,69.78624
"24509",341.8839,71.19737,69.68617
"24510",341.89725,71.42687,69.640594
"24511",341.91058,71.67834,69.624146
"24512",341.92392,71.92493,69.61069
"24513",341.93726,72.15198,69.58539
"24514",341.9506,72.33753,69.525696
"24515",341.96393,72.47669,69.4254
"24516",341.97726,72.5597,69.2733
"24517",341.9906,72.59876,69.07985
"24518",342.00394,72.61829,68.86809
"24519",342.01727,72.72083,68.739944
"24520",342.0306,73.11879,68.91043
"24521",342.04395,74.14664,69.72324
"24522",342.05728,76.112,71.50569
"24523",342.07062,79.114975,74.38717
"24524",342.08395,82.95293,78.197464
"24525",342.0973,87.15953,82.496346
"24526",342.11063,91.11711,86.67766
"24527",342.12396,94.23483,90.14279
"24528",342.1373,96.15869,92.51149
"24529",342.15063,96.81056,93.66832
"24530",342.16397,96.31739,93.70048
"24531",342.1773,94.889145,92.78215
"24532",342.19064,92.76753,91.125824
"24533",342.20398,90.20157,88.95885
"24534",342.21732,87.44274,86.51882
"24535",342.23065,84.70344,84.0121
"24536",342.244,82.15213,81.60777
"24537",342.25732,79.89624,79.419136
"24538",342.27066,77.99924,77.51889
"24539",342.284,76.53193,75.98906
"24540",342.29733,75.56756,74.91631
"24541",342.31067,75.18913,74.399376
"24542",342.324,75.41619,74.4761
"24543",342.33734,76.19501,75.11167
"24544",342.35068,77.37423,76.17199
"24545",342.364,78.73411,77.449814
"24546",342.37735,80.04028,78.71643
"24547",342.3907,81.10231,79.77972
"24548",342.40402,81.795685,80.50754
"24549",342.41736,82.06668,80.83465
"24550",342.4307,81.91531,80.74786
"24551",342.44403,81.38796,80.280365
"24552",342.45737,80.550545,79.48632
"24553",342.4707,79.4934,78.44638
"24554",342.48404,78.314186,77.251335
"24555",342.49738,77.0959,75.98037
"24556",342.5107,75.91913,74.712845
"24557",342.52405,74.84245,73.508644
"24558",342.53738,73.9147,72.41972
"24559",342.55072,73.15297,71.46783
"24560",342.56406,72.56214,70.66303
"24561",342.5774,72.13977,70.008224
"24562",342.59073,71.8761,69.49892
"24563",342.60406,71.7467,69.11565
"24564",342.6174,71.73205,68.84308
"24565",342.63074,71.81018,68.66284
"24566",342.64407,71.94934,68.54607
"24567",342.6574,72.12268,68.46782
"24568",342.67075,72.30335,68.40233
"24569",342.68408,72.464485,68.32294
"24570",342.69742,72.59876,68.221725
"24571",342.71075,72.70374,68.09541
"24572",342.7241,72.796524,67.96019
"24573",342.73743,72.952774,67.891335
"24574",342.75076,73.34341,68.061745
"24575",342.7641,74.25895,68.76927
"24576",342.77744,75.999695,70.33061
"24577",342.79077,78.7219,72.92781
"24578",342.8041,82.2913,76.45727
"24579",342.81744,86.28794,80.52551
"24580",342.83078,90.13809,84.57216
"24581",342.84412,93.25826,88.00915
"24582",342.85745,95.26513,90.430336
"24583",342.8708,96.043945,91.68619
"24584",342.88412,95.709465,91.85308
"24585",342.89746,94.45701,91.091545
"24586",342.9108,92.50385,89.59017
"24587",342.92413,90.057526,87.53459
"24588",342.93747,87.345085,85.13645
"24589",342.9508,84.55207,82.57297
"24590",342.96414,81.83475,79.997894
"24591",342.97748,79.31518,77.53566
"24592",342.9908,77.09102,75.2901
"24593",343.00415,75.27459,73.38277
"24594",343.0175,74.00015,71.96066
"24595",343.03082,73.40688,71.1799
"24596",343.04416,73.57534,71.14233
"24597",343.0575,74.48356,71.84978
"24598",343.07083,75.982605,73.17644
"24599",343.08417,77.823456,74.89175
"24600",343.0975,79.7058,76.70608
"24601",343.11084,81.36355,78.35463
"24602",343.12418,82.60624,79.63993
"24603",343.1375,83.33868,80.45381
"24604",343.15085,83.54131,80.76078
"24605",343.16418,83.26299,80.593124
"24606",343.17752,82.58671,80.01881
"24607",343.19086,81.617455,79.13039
"24608",343.2042,80.45777,78.02125
"24609",343.21753,79.20531,76.78309
"24610",343.23087,77.95285,75.5058
"24611",343.2442,76.77852,74.267494
"24612",343.25754,75.72869,73.117
"24613",343.27087,74.84001,72.09484
"24614",343.2842,74.13199,71.22557
"24615",343.29755,73.59487,70.50508
"24616",343.31088,73.214005,69.92406
"24617",343.32422,72.96742,69.465416
"24618",343.33755,72.82582,69.10405
"24619",343.3509,72.762344,68.81638
"24620",343.36423,72.74525,68.57311
"24621",343.37756,72.740364,68.34152
"24622",343.3909,72.7306,68.10489
"24623",343.40424,72.72083,67.86795
"24624",343.41757,72.75746,67.67711
"24625",343.4309,72.97963,67.67295
"24626",343.44424,73.66079,68.13473
"24627",343.45758,75.15251,69.42835
"24628",343.47092,77.69894,71.823296
"24629",343.48425,81.25124,75.303696
"24630",343.4976,85.45052,79.542076
"24631",343.51093,89.705956,83.967834
"24632",343.52426,93.368126,87.93332
"24633",343.5376,95.93164,90.91459
"24634",343.55093,97.19386,92.674675
"24635",343.56427,97.22804,93.24616
"24636",343.5776,96.23682,92.79331
"24637",343.59094,94.44236,91.506256
"24638",343.60428,92.05707,89.57229
"24639",343.6176,89.28115,87.17316
"24640",343.63095,86.29771,84.47975
"24641",343.6443,83.267876,81.64672
"24642",343.65762,80.323494,78.80446
"24643",343.67096,77.58663,76.077705
"24644",343.6843,75.19646,73.612114
"24645",343.69763,73.321434,71.58698
"24646",343.71097,72.15686,70.21371
"24647",343.7243,71.87854,69.69029
"24648",343.73764,72.5597,70.11766
"24649",343.75098,74.11246,71.43791
"24650",343.7643,76.28535,73.42682
"24651",343.77765,78.729225,75.754616
"24652",343.791,81.077896,78.063576
"24653",343.80432,83.02373,80.04309
"24654",343.81766,84.38117,81.495026
"24655",343.831,85.08675,82.33751
"24656",343.84433,85.17464,82.58436
"24657",343.85767,84.735176,82.3066
"24658",343.871,83.88556,81.60496
"24659",343.88434,82.75029,80.59111
"24660",343.89767,81.444115,79.37088
"24661",343.911,80.05737,78.02927
"24662",343.92435,78.660866,76.63455
"24663",343.93768,77.315636,75.247475
"24664",343.95102,76.08026,73.928215
"24665",343.96436,74.99626,72.721725
"24666",343.9777,74.09537,71.66447
"24667",343.99103,73.38247,70.76705
"24668",344.00436,72.84779,70.02558
"24669",344.0177,72.46204,69.41633
"24670",344.03104,72.18616,68.90488
"24671",344.04437,72.00061,68.47514
"24672",344.0577,71.93713,68.16168
"24673",344.07104,72.15198,68.12456
"24674",344.08438,72.95766,68.68498
"24675",344.09772,74.757,70.26426
"24676",344.11105,77.79416,73.13757
"24677",344.1244,81.9617,77.23618
"24678",344.13773,86.78111,82.1169
"24679",344.15106,91.55413,87.10182
"24680",344.1644,95.54589,91.45465
"24681",344.17773,98.23636,94.63093
"24682",344.19107,99.46685,96.431305
"24683",344.2044,99.38384,96.956635
"24684",344.21774,98.2388,96.417336
"24685",344.23108,96.27589,95.02438
"24686",344.24442,93.712364,92.96948
"24687",344.25775,90.75334,90.43897
"24688",344.2711,87.56237,87.584045
"24689",344.28442,84.28596,84.54396
"24690",344.29776,81.04616,81.438095
"24691",344.3111,77.96506,78.38969
"24692",344.32443,75.18669,75.54773
"24693",344.33777,72.91615,73.12678
"24694",344.3511,71.38781,71.37707
"24695",344.36444,70.83116,70.551285
"24696",344.37778,71.35607,70.78967
"24697",344.3911,72.903946,72.06743
"24698",344.40445,75.21355,74.15528
"24699",344.4178,77.90158,76.69374
"24700",344.43112,80.52613,79.252716
"24701",344.44446,82.720985,81.46401
"24702",344.4578,84.26154,83.0896
"24703",344.47113,85.07454,84.03577
"24704",344.48447,85.206375,84.32618
"24705",344.4978,84.76448,84.04698
"24706",344.51114,83.88556,83.31695
"24707",344.52448,82.69413,82.24694
"24708",344.5378,81.30007,80.93707
"24709",344.55115,79.798584,79.47621
"24710",344.56448,78.27268,77.944016
"24711",344.57782,76.79317,76.41052
"24712",344.59116,75.41619,74.933334
"24713",344.6045,74.178375,73.55228
"24714",344.61783,73.09682,72.288795
"24715",344.63116,72.166626,71.14288
"24716",344.6445,71.38537,70.11684
"24717",344.65784,70.76036,69.222626
"24718",344.67117,70.37217,68.5457
"24719",344.6845,70.4625,68.33516
"24720",344.69785,71.4757,69.05031
"24721",344.71118,73.89029,71.19852
"24722",344.72452,77.891815,75.00912
"24723",344.73785,83.209274,80.2607
"24724",344.7512,89.14931,86.30102
"24725",344.76453,94.80614,92.24376
"24726",344.77786,99.32769,97.228004
"24727",344.7912,102.20859,100.71289
"24728",344.80453,103.380486,102.57881
"24729",344.81787,103.08995,103.01892
"24730",344.8312,101.63729,102.28783
"24731",344.84454,99.28863,100.615326
"24732",344.85788,96.30518,98.23465
"24733",344.87122,92.94331,95.38232
"24734",344.88455,89.43496,92.27844
"24735",344.8979,85.977875,89.1162
"24736",344.91122,82.70634,86.03147
"24737",344.92456,79.72289,83.1326
"24738",344.9379,77.14473,80.54578
"24739",344.95123,75.13786,78.449684
"24740",344.96457,73.89517,77.05505
"24741",344.9779,73.58999,76.5591
"24742",344.99124,74.28336,77.05216
"24743",345.00458,75.860535,78.45069
"24744",345.0179,78.04074,80.50154
"24745",345.03125,80.44312,82.8427
"24746",345.0446,82.6746,85.08802
"24747",345.05792,84.42756,86.92456
"24748",345.07126,85.52865,88.16401
"24749",345.0846,85.92172,88.72985
"24750",345.09793,85.65072,88.6439
"24751",345.11127,84.823074,87.992836
"24752",345.1246,83.56817,86.88865
"24753",345.13794,82.022736,85.45472
"24754",345.15128,80.31861,83.813805
"24755",345.1646,78.56321,82.06836
"24756",345.17795,76.84444,80.30469
"24757",345.19128,75.228195,78.589836
"24758",345.20462,73.77066,76.983185
"24759",345.21796,72.50111,75.51897
"24760",345.2313,71.431755,74.21527
"24761",345.24463,70.56504,73.080795
"24762",345.25797,69.91318,72.13409
"24763",345.2713,69.576256,71.48195
"24764",345.28464,69.837494,71.41744
"24765",345.29797,71.17784,72.44021
"24766",345.3113,74.0441,75.03078
"24767",345.32465,78.538795,79.339355
"24768",345.33798,84.281075,85.03597
"24769",345.35132,90.50431,91.39299
"24770",345.36465,96.271,97.487946
"24771",345.378,100.74616,102.47157
"24772",345.39133,103.485466,105.85919
"24773",345.43134,102.26719,106.888916
"24774",345.44467,99.66216,104.97974
"24775",345.458,96.46876,102.40077
"24776",345.47134,93.00435,99.45101
"24777",345.48468,89.547264,96.400314
"24778",345.49802,86.29771,93.44911
"24779",345.51135,83.36309,90.711296
"24780",345.5247,80.799576,88.25288
"24781",345.53802,78.64622,86.124504
"24782",345.55136,76.978714,84.414696
"24783",345.5647,75.91669,83.258255
"24784",345.57803,75.560234,82.7742
"24785",345.59137,75.93622,83.011444
"24786",345.6047,76.94942,83.89765
"24787",345.61804,78.382545,85.23545
"24788",345.63138,79.94995,86.75231
"24789",345.6447,81.36599,88.16679
"24790",345.65805,82.41093,89.25441
"24791",345.6714,82.950485,89.86931
"24792",345.68472,82.94072,89.951744
"24793",345.69806,82.4036,89.50652
"24794",345.7114,81.40505,88.583084
"24795",345.72473,80.059814,87.28175
"24796",345.73807,78.48997,85.713776
"24797",345.7514,76.81514,83.99176
"24798",345.76474,75.14519,82.22228
"24799",345.77808,73.565575,80.49096
"24800",345.7914,72.14465,78.868965
"24801",345.80475,70.91905,77.39789
"24802",345.81808,69.910736,76.10579
"24803",345.83142,69.12215,75.00191
"24804",345.84476,68.53864,74.07847
"24805",345.8581,68.157776,73.33943
"24806",345.87143,68.02838,72.839966
"24807",345.88477,68.38239,72.81986
"24808",345.8981,69.65194,73.72636
"24809",345.91144,72.27894,76.029976
"24810",345.92477,76.43427,79.94403
"24811",345.9381,81.849396,85.24773
"24812",345.95145,87.87244,91.32856
"24813",345.96478,93.6318,97.33394
"24814",345.97812,98.285194,102.41333
"24815",345.99146,101.30526,106.00481
"24816",346.0048,102.59922,107.964554
"24817",346.01813,102.35264,108.424194
"24818",346.03146,100.85603,107.626114
"24819",346.0448,98.43412,105.85595
"24820",346.05814,95.43603,103.43392
"24821",346.07147,92.208435,100.688705
"24822",346.0848,89.05409,97.91588
"24823",346.09814,86.18295,95.32768
"24824",346.11148,83.69512,93.033066
"24825",346.12482,81.58572,91.03913
"24826",346.13815,79.80347,89.306435
"24827",346.1515,78.3386,87.83543
"24828",346.16483,77.22041,86.66532
"24829",346.17816,76.51972,85.87777
"24830",346.1915,76.28535,85.53464
"24831",346.20483,76.51484,85.64805
"24832",346.21817,77.09834,86.12264
"24833",346.2315,77.86252,86.79614
"24834",346.24484,78.60227,87.4691
"24835",346.25818,79.151596,87.97475
"24836",346.2715,79.38354,88.180176
"24837",346.28485,79.234604,88.01198
"24838",346.2982,78.69016,87.44362
"24839",346.31152,77.789276,86.5018
"24840",346.32486,76.60761,85.25105
"24841",346.3382,75.25262,83.79005
"24842",346.35153,73.831696,82.22077
"24843",346.36487,72.45228,80.6486
"24844",346.3782,71.199814,79.16026
"24845",346.39154,70.13046,77.8159
"24846",346.40488,69.2662,76.64321
"24847",346.4182,68.607,75.64858
"24848",346.43155,68.121155,74.8067
"24849",346.4449,67.7818,74.09613
"24850",346.45822,67.5523,73.48481
"24851",346.47156,67.386284,72.9298
"24852",346.4849,67.26421,72.41355
"24853",346.49823,67.18364,71.93498
"24854",346.51157,67.21538,71.56621
"24855",346.5249,67.562065,71.513374
"24856",346.53824,68.6363,72.19892
"24857",346.55157,70.889755,74.09726
"24858",346.5649,74.57389,77.496704
"24859",346.57825,79.534904,82.288155
"24860",346.59158,85.25033,87.989044
"24861",346.60492,90.934006,93.83679
"24862",346.61826,95.75586,99.000336
"24863",346.6316,99.125046,102.86189
"24864",346.64493,100.82674,105.16124
"24865",346.65826,100.96834,105.953674
"24866",346.6716,99.80377,105.44437
"24867",346.68494,97.6553,103.91476
"24868",346.69827,94.872055,101.68324
"24869",346.7116,91.82269,99.09863
"24870",346.72495,88.831924,96.477325
"24871",346.73828,86.14145,94.06285
"24872",346.75162,83.86603,91.97935
"24873",346.76495,81.986115,90.220245
"24874",346.7783,80.42603,88.72223
"24875",346.79163,79.10765,87.41716
"24876",346.80496,78.009,86.29063
"24877",346.8183,77.16426,85.38367
"24878",346.83163,76.63935,84.77014
"24879",346.84497,76.473335,84.49911
"24880",346.8583,76.63203,84.54759
"24881",346.87164,77.00801,84.81833
"24882",346.88498,77.45968,85.1765
"24883",346.89832,77.84543,85.482864
"24884",346.91165,78.048065,85.61817
"24885",346.925,77.98703,85.49614
"24886",346.93832,77.625694,85.0719
"24887",346.95166,76.95918,84.33119
"24888",346.965,76.02899,83.30598
"24889",346.97833,74.90349,82.05638
"24890",346.99167,73.66567,80.6593
"24891",347.005,72.410774,79.20646
"24892",347.01834,71.2169,77.77542
"24893",347.03168,70.152435,76.43648
"24894",347.045,69.261314,75.23762
"24895",347.05835,68.57282,74.21354
"24896",347.0717,68.08453,73.36815
"24897",347.08502,67.774475,72.68573
"24898",347.09836,67.630424,72.15963
"24899",347.1117,67.62066,71.76331
"24900",347.12503,67.718315,71.47411
"24901",347.13837,67.90875,71.28075
"24902",347.1517,68.172424,71.166565
"24903",347.16504,68.4947,71.119225
"24904",347.17838,68.841385,71.10637
"24905",347.1917,69.190506,71.10678
"24906",347.20505,69.51766,71.09614
"24907",347.21838,69.8082,71.0591
"24908",347.23172,70.05234,70.98474
"24909",347.24506,70.25254,70.87408
"24910",347.2584,70.41367,70.7306
"24911",347.27173,70.55039,70.56774
"24912",347.28506,70.66758,70.389626
"24913",347.2984,70.7628,70.19321
"24914",347.31174,70.82628,69.96802
"24915",347.32507,70.84581,69.70087
"24916",347.3384,70.784775,69.35376
"24917",347.35175,70.62852,68.90953
"24918",347.36508,70.40391,68.39206
"24919",347.37842,70.24521,67.93348
"24920",347.39175,70.47959,67.86302
"24921",347.4051,71.656364,68.74228
"24922",347.41843,74.31022,71.13539
"24923",347.43176,78.63645,75.28382
"24924",347.4451,84.34699,80.95175
"24925",347.45844,90.74601,87.48661
"24926",347.47177,96.900894,93.97731
"24927",347.4851,101.93271,99.53728
"24928",347.49844,105.29458,103.58455
"24929",347.51178,106.87663,105.95706
"24930",347.52512,106.861984,106.78231
"24931",347.53845,105.54604,106.30581
"24932",347.5518,103.26818,104.82626
"24933",347.56512,100.419014,102.70422
"24934",347.57846,97.3843,100.3076
"24935",347.5918,94.50584,97.9724
"24936",347.60513,91.998474,95.91834
"24937",347.61847,89.94522,94.24004
"24938",347.6318,88.28748,92.8931
"24939",347.64514,86.908066,91.77266
"24940",347.65848,85.697105,90.77757
"24941",347.6718,84.60822,89.86672
"24942",347.68515,83.66338,89.06589
"24943",347.6985,82.92363,88.44061
"24944",347.71182,82.43534,88.043686
"24945",347.72516,82.193634,87.87808
"24946",347.7385,82.125275,87.87827
"24947",347.75183,82.125275,87.94469
"24948",347.76517,82.08621,87.97204
"24949",347.7785,81.91531,87.86633
"24950",347.79184,81.55642,87.56729
"24951",347.80518,80.970474,87.02998
"24952",347.8185,80.15991,86.24975
"24953",347.83185,79.149155,85.24399
"24954",347.84518,77.98703,84.055275
"24955",347.85852,76.734566,82.73991
"24956",347.87186,75.46258,81.365875
"24957",347.8852,74.229645,79.99115
"24958",347.89853,73.1017,78.682884
"24959",347.91187,72.12024,77.485855
"24960",347.9252,71.32189,76.44127
"24961",347.93854,70.71397,75.56215
"24962",347.95187,70.294044,74.852036
"24963",347.9652,70.04257,74.29725
"24964",347.97855,69.93271,73.87621
"24965",347.99188,69.93271,73.56161
"24966",348.00522,70.00839,73.322685
"24967",348.01855,70.135345,73.1374
"24968",348.0319,70.2916,72.98538
"24969",348.04523,70.45762,72.84801
"24970",348.05856,70.61631,72.708496
"24971",348.0719,70.75304,72.55198
"24972",348.08524,70.86534,72.37532
"24973",348.09857,70.95079,72.17531
"24974",348.1119,71.00694,71.94867
"24975",348.12524,71.03136,71.69205
"24976",348.13858,71.026474,71.40689
"24977",348.15192,70.99962,71.09961
"24978",348.16525,70.963,70.78172
"24979",348.1786,70.93126,70.467575
"24980",348.19193,70.90929,70.1622
"24981",348.20526,70.89708,69.865906
"24982",348.2186,70.887314,69.57167
"24983",348.23193,70.87755,69.27713
"24984",348.24527,70.855576,68.97008
"24985",348.2586,70.81651,68.64525
"24986",348.27194,70.75304,68.294785
"24987",348.28528,70.67002,67.922806
"24988",348.2986,70.57725,67.53847
"24989",348.31195,70.572365,67.23912
"24990",348.3253,70.9044,67.27654
"24991",348.33862,72.00305,68.09096
"24992",348.35196,74.32975,70.167755
"24993",348.3653,78.12131,73.78212
"24994",348.37863,83.226364,78.82847
"24995",348.39197,89.112686,84.81561
"24996",348.4053,94.99901,90.98671
"24997",348.41864,100.069885,96.526306
"24998",348.43198,103.72961,100.81321
"24999",348.4453,105.7438,103.568954
"25000",348.45865,106.18082,104.81047
"25001",348.472,105.255516,104.70332
"25002",348.48532,103.28283,103.51987
"25003",348.49866,100.63386,101.59848
"25004",348.512,97.689476,99.298904
"25005",348.52533,94.79393,96.956154
"25006",348.53867,92.208435,94.83297
"25007",348.552,90.05264,93.05869
"25008",348.56534,88.326546,91.64674
"25009",348.57867,86.9276,90.507996
"25010",348.592,85.74349,89.540375
"25011",348.60535,84.701,88.67736
"25012",348.61868,83.78546,87.90873
"25013",348.63202,83.038376,87.27994
"25014",348.64536,82.51835,86.85486
"25015",348.6587,82.2449,86.66011
"25016",348.67203,82.16922,86.65458
"25017",348.68536,82.20584,86.75899
"25018",348.6987,82.24979,86.871864
"25019",348.71204,82.2034,86.89578
"25020",348.72537,81.98367,86.74491
"25021",348.7387,81.549095,86.37232
"25022",348.75204,80.88014,85.75178
"25023",348.76538,79.98657,84.88571
"25024",348.77872,78.905014,83.803734
"25025",348.79205,77.696495,82.561
"25026",348.8054,76.42939,81.22191
"25027",348.81873,75.18425,79.86519
"25028",348.83206,74.03433,78.56478
"25029",348.8454,73.03822,77.38225
"25030",348.85873,72.22766,76.35413
"25031",348.87207,71.6173,75.500885
"25032",348.8854,71.19005,74.811676
"25033",348.89874,70.92149,74.26781
"25034",348.91208,70.78233,73.84494
"25035",348.9254,70.745705,73.52026
"25036",348.93875,70.77989,73.26525
"25037",348.9521,70.86046,73.05769
"25038",348.96542,70.96788,72.8795
"25039",348.97876,71.08751,72.71687
"25040",348.9921,71.20714,72.55798
"25041",349.00543,71.32189,72.397964
"25042",349.01877,71.42931,72.23419
"25043",349.0321,71.52453,72.06157
"25044",349.04544,71.61486,71.88704
"25045",349.05878,71.692986,71.703125
"25046",349.0721,71.763794,71.51434
"25047",349.08545,71.817505,71.31067
"25048",349.0988,71.85901,71.096466
"25049",349.11212,71.87366,70.856705
"25050",349.12546,71.854126,70.58322
"25051",349.1388,71.79065,70.26518
"25052",349.15213,71.68078,69.89877
"25053",349.16547,71.52453,69.482544
"25054",349.1788,71.31945,69.0126
"25055",349.19214,71.08995,68.51184
"25056",349.20547,70.86778,68.01123
"25057",349.2188,70.728615,67.586685
"25058",349.23215,70.84581,67.41415
"25059",349.24548,71.56115,67.843414
"25060",349.25882,73.29702,69.31557
"25061",349.27216,76.35371,72.16279
"25062",349.2855,80.71656,76.4117
"25063",349.29883,86.00961,81.72714
"25064",349.31216,91.56634,87.471664
"25065",349.3255,96.59571,92.86249
"25066",349.33884,100.43366,97.219055
"25067",349.35217,102.72129,100.14523
"25068",349.3655,103.42199,101.55597
"25069",349.37885,102.694435,101.56035
"25070",349.39218,100.81697,100.39209
"25071",349.40552,98.13138,98.357025
"25072",349.41885,95.00633,95.798584
"25073",349.4322,91.79828,93.05948
"25074",349.44553,88.79286,90.42276
"25075",349.45886,86.16098,88.06566
"25076",349.4722,83.96124,86.05845
"25077",349.48553,82.16678,84.38777
"25078",349.49887,80.73121,83.01991
"25079",349.5122,79.64233,81.95388
"25080",349.52554,78.924545,81.22492
"25081",349.53888,78.61204,80.87881
"25082",349.55222,78.70481,80.92821
"25083",349.56555,79.14183,81.32475
"25084",349.5789,79.798584,81.95469
"25085",349.59222,80.51881,82.66862
"25086",349.60556,81.143814,83.30984
"25087",349.6189,81.55398,83.755745
"25088",349.63223,81.66628,83.91661
"25089",349.64557,81.43191,83.73431
"25090",349.6589,80.85573,83.20287
"25091",349.67224,79.974365,82.34825
"25092",349.68558,78.86107,81.23415
"25093",349.6989,77.61349,79.95098
"25094",349.71225,76.32197,78.584885
"25095",349.7256,75.06706,77.21504
"25096",349.73892,73.9147,75.90853
"25097",349.75226,72.903946,74.70761
"25098",349.7656,72.06653,73.648445
"25099",349.77893,71.40978,72.743774
"25100",349.79227,70.93126,71.99681
"25101",349.8056,70.61631,71.39847
"25102",349.81894,70.44053,70.92944
"25103",349.83228,70.37461,70.56479
"25104",349.8456,70.399025,70.28841
"25105",349.85895,70.49668,70.08603
"25106",349.87228,70.66514,69.957504
"25107",349.88562,70.89952,69.90017
"25108",349.89896,71.182724,69.89899
"25109",349.9123,71.505,69.945724
"25110",349.92563,71.837036,70.0123
"25111",349.93896,72.149536,70.0697
"25112",349.9523,72.41566,70.0905
"25113",349.96564,72.61097,70.0488
"25114",349.97897,72.723274,69.93019
"25115",349.9923,72.74525,69.72476
"25116",350.00565,72.674446,69.427246
"25117",350.01898,72.52552,69.04939
"25118",350.03232,72.32044,68.61073
"25119",350.04565,72.10315,68.15346
"25120",350.059,71.98352,67.78705
"25121",350.07233,72.181274,67.73428
"25122",350.08566,73.03334,68.34201
"25123",350.099,74.90105,69.99201
"25124",350.11234,77.96994,72.901566
"25125",350.12567,82.11795,76.98614
"25126",350.139,86.890976,81.82535
"25127",350.15234,91.62005,86.76976
"25128",350.16568,95.606926,91.11977
"25129",350.17902,98.33402,94.33458
"25130",350.19235,99.59136,96.164856
"25131",350.2057,99.43023,96.61595
"25132",350.21902,98.06058,95.85349
"25133",350.23236,95.76318,94.12049
"25134",350.2457,92.84566,91.695564
"25135",350.25903,89.61318,88.86452
"25136",350.27237,86.34165,85.8934
"25137",350.2857,83.245895,82.99582
"25138",350.29904,80.45533,80.30669
"25139",350.31238,78.04074,77.90633
"25140",350.3257,76.070496,75.874855
"25141",350.33905,74.63981,74.32137
"25142",350.3524,73.848785,73.36285
"25143",350.36572,73.77554,73.09738
"25144",350.37906,74.41276,73.540085
"25145",350.3924,75.63592,74.588646
"25146",350.40573,77.225296,76.04165
"25147",350.41907,78.905014,77.63466
"25148",350.4324,80.41871,79.114136
"25149",350.44574,81.58572,80.29423
"25150",350.45908,82.30106,81.05913
"25151",350.4724,82.513466,81.34344
"25152",350.48575,82.23514,81.143654
"25153",350.49908,81.52468,80.503044
"25154",350.51242,80.46754,79.493546
"25155",350.52576,79.17113,78.21175
"25156",350.5391,77.747765,76.76248
"25157",350.55243,76.30244,75.24677
"25158",350.56577,74.9279,73.75669
"25159",350.5791,73.687645,72.35793
"25160",350.59244,72.62318,71.09621
"25161",350.60577,71.75403,69.99654
"25162",350.6191,71.08995,69.07477
"25163",350.63245,70.61875,68.325134
"25164",350.64578,70.33311,67.74632
"25165",350.65912,70.21103,67.32215
"25166",350.67245,70.23056,67.035774
"25167",350.6858,70.362404,66.86232
"25168",350.69913,70.572365,66.7711
"25169",350.71246,70.82628,66.7304
"25170",350.7258,71.08995,66.7074
"25171",350.73914,71.33898,66.67799
"25172",350.75247,71.53918,66.60753
"25173",350.7658,71.66613,66.47008
"25174",350.77914,71.71252,66.25603
"25175",350.79248,71.692986,65.97751
"25176",350.80582,71.65392,65.67885
"25177",350.81915,71.707634,65.47174
"25178",350.8325,72.07385,65.57883
"25179",350.84583,73.11391,66.371185
"25180",350.85916,75.19646,68.23855
"25181",350.8725,78.502174,71.39416
"25182",350.88583,82.862595,75.70777
"25183",350.89917,87.765015,80.699646
"25184",350.9125,92.491646,85.66893
"25185",350.92584,96.31983,89.88748
"25186",350.93918,98.75639,92.83404
"25187",350.9525,99.65484,94.31862
"25188",350.96585,99.142136,94.42013
"25189",350.9792,97.48196,93.35814
"25190",350.99252,94.95018,91.37267
"25191",351.00586,91.82269,88.71238
"25192",351.0192,88.358284,85.61743
"25193",351.03253,84.78401,82.30435
"25194",351.04587,81.27322,78.943054
"25195",351.0592,77.945526,75.65515
"25196",351.07254,74.90837,72.553795
"25197",351.08588,72.291145,69.77746
"25198",351.0992,70.28428,67.52969
"25199",351.11255,69.119705,66.0615
"25200",351.1259,68.98543,65.58721
"25201",351.13922,69.959564,66.21714
"25202",351.15256,71.922485,67.866295
"25203",351.1659,74.581215,70.2726
"25204",351.17923,77.50851,73.030556
"25205",351.19257,80.28199,75.72618
"25206",351.2059,82.547646,78.00065
"25207",351.21924,84.088196,79.62081
"25208",351.23257,84.83772,80.49809
"25209",351.2459,84.83772,80.64927
"25210",351.25925,84.2005,80.16322
"25211",351.27258,83.07988,79.17387
"25212",351.28592,81.6321,77.822334
"25213",351.29926,79.99634,76.23757
"25214",351.3126,78.30198,74.5431
"25215",351.32593,76.646675,72.83473
"25216",351.33926,75.11345,71.19672
"25217",351.3526,73.763336,69.6939
"25218",351.36594,72.62806,68.36373
"25219",351.37927,71.72228,67.227585
"25220",351.3926,71.04845,66.295074
"25221",351.40594,70.58701,65.55391
"25222",351.41928,70.30381,64.97655
"25223",351.43262,70.15976,64.52949
"25224",351.44595,70.10849,64.17071
"25225",351.4593,70.11093,63.86404
"25226",351.47263,70.12558,63.569656
"25227",351.48596,70.13779,63.27329
"25228",351.4993,70.15732,62.984627
"25229",351.51263,70.26231,62.782032
"25230",351.52597,70.64561,62.86103
"25231",351.5393,71.67834,63.601437
"25232",351.55264,73.81705,65.480095
"25233",351.56598,77.34493,68.814766
"25234",351.5793,82.16678,73.55364
"25235",351.59265,87.765015,79.21959
"25236",351.606,93.33395,85.03117
"25237",351.61932,98.01419,90.128105
"25238",351.63266,101.1783,93.855156
"25239",351.646,102.591896,95.93057
"25240",351.65933,102.381935,96.426605
"25241",351.67267,100.84871,95.59282
"25242",351.686,98.2974,93.69303
"25243",351.69934,95.011215,90.97864
"25244",351.71268,91.244064,87.68059
"25245",351.726,87.220566,84.00847
"25246",351.73935,83.12138,80.134926
"25247",351.7527,79.09544,76.20653
"25248",351.76602,75.27947,72.36229
"25249",351.77936,71.82483,68.76013
"25250",351.7927,68.94881,65.62863
"25251",351.80603,66.915085,63.249557
"25252",351.81937,65.9971,61.92267
"25253",351.8327,66.37553,61.863503
"25254",351.84604,68.050354,63.112564
"25255",351.85938,70.79942,65.488205
"25256",351.8727,74.22476,68.62602
"25257",351.88605,77.81613,72.03692
"25258",351.89938,81.07057,75.223114
"25259",351.91272,83.61944,77.805435
"25260",351.92606,85.26986,79.56896
"25261",351.9394,86.00229,80.46607
"25262",351.95273,85.9144,80.56575
"25263",351.96606,85.17464,80.01081
"25264",351.9794,83.96124,78.95912
"25265",351.99274,82.42802,77.54968
"25266",352.00607,80.71168,75.90922
"25267",352.0194,78.92699,74.14677
"25268",352.03275,77.17647,72.36272
"25269",352.04608,75.5407,70.63872
"25270",352.05942,74.08072,69.03938
"25271",352.07275,72.8307,67.60439
"25272",352.0861,71.80286,66.35251
"25273",352.09943,70.98985,65.28334
"25274",352.11276,70.362404,64.37433
"25275",352.1261,69.88632,63.597073
"25276",352.13943,69.53231,62.92701
"25277",352.15277,69.29061,62.358196
"25278",352.1661,69.239334,61.97225
"25279",352.17944,69.65682,62.053467
"25280",352.19278,71.08995,63.163372
"25281",352.20612,74.13199,65.92697
"25282",352.21945,79.06859,70.6802
"25283",352.2328,85.60189,77.184395
"25284",352.24612,92.894485,84.65205
"25285",352.25946,99.8111,91.97161
"25286",352.2728,105.27749,98.0571
"25287",352.28613,108.63935,102.20888
"25288",352.29947,109.81369,104.2782
"25289",352.3128,109.134964,104.53115
"25290",352.32614,107.04021,103.34686
"25291",352.33948,103.905396,101.05706
"25292",352.3528,100.04547,97.94418
"25293",352.36615,95.743645,94.268776
"25294",352.3795,91.268486,90.28561
"25295",352.39282,86.82994,86.1992
"25296",352.40616,82.59403,82.17673
"25297",352.4195,78.67063,78.33439
"25298",352.43283,75.18913,74.81135
"25299",352.44617,72.32044,71.79232
"25300",352.4595,70.29893,69.53082
"25301",352.47284,69.366295,68.29503
"25302",352.48618,69.698326,68.294754
"25303",352.4995,71.29015,69.56465
"25304",352.51285,73.90982,71.91214
"25305",352.52618,77.137405,74.94941
"25306",352.53952,80.46021,78.18276
"25307",352.55286,83.404594,81.141525
"25308",352.5662,85.63363,83.47695
"25309",352.57953,86.97398,84.993355
"25310",352.59286,87.415886,85.65319
"25311",352.6062,87.05943,85.52849
"25312",352.61954,86.065765,84.755424
"25313",352.63287,84.60334,83.48255
"25314",352.6462,82.84062,81.863686
"25315",352.65955,80.919205,80.03104
"25316",352.67288,78.9514,78.09196
"25317",352.68622,77.02754,76.13533
"25318",352.69955,75.22087,74.23577
"25319",352.7129,73.58999,72.45554
"25320",352.72623,72.17151,70.836754
"25321",352.73956,70.994736,69.415344
"25322",352.7529,70.05478,68.19397
"25323",352.76624,69.32479,67.15319
"25324",352.77957,68.78035,66.27515
"25325",352.7929,68.43122,65.5754
"25326",352.80624,68.42878,65.21143
"25327",352.81958,69.21492,65.63597
"25328",352.83292,71.46105,67.54507
"25329",352.84625,75.699394,71.51657
"25330",352.8596,81.92264,77.60542
"25331",352.87292,89.47646,85.21933
"25332",352.88626,97.24269,93.2817
"25333",352.8996,103.98596,100.563805
"25334",352.91293,108.73945,106.06685
"25335",352.92627,111.13939,109.3649
"25336",352.9396,111.39086,110.58948
"25337",352.95294,109.95041,110.12999
"25338",352.96628,107.245285,108.36082
"25339",352.9796,103.62951,105.59646
"25340",352.99295,99.42535,102.13072
"25341",353.0063,94.93065,98.243065
"25342",353.01962,90.423744,94.20274
"25343",353.03296,86.12924,90.233986
"25344",353.0463,82.196075,86.492355
"25345",353.05963,78.71702,83.081924
"25346",353.07297,75.77753,80.10234
"25347",353.0863,73.50454,77.6974
"25348",353.09964,72.06897,76.05885
"25349",353.11298,71.624626,75.36667
"25350",353.1263,72.25208,75.73239
"25351",353.13965,73.863434,77.10162
"25352",353.15298,76.18768,79.23411
"25353",353.16632,78.82445,81.75174
"25354",353.17966,81.341576,84.23213
"25355",353.193,83.38262,86.3151
"25356",353.20633,84.715645,87.75383
"25357",353.21967,85.25277,88.43832
"25358",353.233,85.015945,88.36564
"25359",353.24634,84.11261,87.61905
"25360",353.25967,82.69657,86.33153
"25361",353.273,80.94362,84.66284
"25362",353.28635,79.009995,82.758705
"25363",353.29968,77.032425,80.7502
"25364",353.31302,75.11345,78.73849
"25365",353.32635,73.323875,76.79621
"25366",353.3397,71.7174,74.98111
"25367",353.35303,70.330666,73.33554
"25368",353.36636,69.188065,71.89077
"25369",353.3797,68.2945,70.65933
"25370",353.39304,67.63775,69.63678
"25371",353.40637,67.18608,68.79879
"25372",353.4197,66.932175,68.14445
"25373",353.43304,66.97856,67.78246
"25374",353.44638,67.65484,68.05182
"25375",353.45972,69.56649,69.57768
"25376",353.47305,73.27749,72.96263
"25377",353.4864,78.922104,78.39717
"25378",353.49973,86.02426,85.465645
"25379",353.51306,93.62936,93.258995
"25380",353.5264,100.5655,100.621056
"25381",353.53973,105.82437,106.5226
"25382",353.55307,108.89082,110.39606
"25383",353.5664,109.821014,112.22909
"25384",353.57974,108.97139,112.31137
"25385",353.59308,106.75212,110.99746
"25386",353.6064,103.52697,108.608315
"25387",353.61975,99.63531,105.45187
"25388",353.6331,95.42626,101.85643
"25389",353.64642,91.212326,98.124565
"25390",353.65976,87.24498,94.50761
"25391",353.6731,83.69268,91.18171
"25392",353.68643,80.618904,88.22333
"25393",353.69977,78.03586,85.65962
"25394",353.7131,75.9704,83.53278
"25395",353.72644,74.50553,81.94199
"25396",353.73978,73.73647,81.001236
"25397",353.7531,73.741356,80.81039
"25398",353.76645,74.48844,81.36189
"25399",353.7798,75.82147,82.52269
"25400",353.79312,77.46456,84.0352
"25401",353.80646,79.11253,85.60394
"25402",353.8198,80.48707,86.950745
"25403",353.83313,81.40505,87.88395
"25404",353.84647,81.76639,88.28919
"25405",353.8598,81.55154,88.12954
"25406",353.87314,80.799576,87.42606
"25407",353.88647,79.588615,86.24009
"25408",353.8998,78.05539,84.69401
"25409",353.91315,76.32929,82.90714
"25410",353.92648,74.54215,81.005295
"25411",353.93982,72.80385,79.096436
"25412",353.95316,71.199814,77.267525
"25413",353.9665,69.788666,75.581375
"25414",353.97983,68.59968,74.07328
"25415",353.99316,67.64019,72.75753
"25416",354.0065,66.90776,71.638855
"25417",354.01984,66.390175,70.712135
"25418",354.03317,66.058136,69.95479
"25419",354.0465,65.86771,69.328674
"25420",354.05984,65.7847,68.80403
"25421",354.07318,65.80423,68.37933
"25422",354.08652,66.04837,68.179855
"25423",354.09985,66.89067,68.58617
"25424",354.1132,68.93416,70.219986
"25425",354.12653,72.69642,73.63644
"25426",354.13986,78.25803,78.96982
"25427",354.1532,85.155106,85.812454
"25428",354.16653,92.48676,93.30521
"25429",354.17987,99.16167,100.37032
"25430",354.1932,104.23743,106.04488
"25431",354.20654,107.26238,109.827255
"25432",354.21988,108.26826,111.68508
"25433",354.23322,107.55535,111.85556
"25434",354.24655,105.48745,110.648766
"25435",354.2599,102.42832,108.38612
"25436",354.27322,98.75395,105.41264
"25437",354.28656,94.82567,102.07042
"25438",354.2999,90.97307,98.68112
"25439",354.31323,87.450066,95.50103
"25440",354.32657,84.39582,92.679596
"25441",354.3399,81.83719,90.25833
"25442",354.35324,79.74975,88.2283
"25443",354.36658,78.09445,86.565186
"25444",354.3799,76.88106,85.292244
"25445",354.39325,76.14618,84.4599
"25446",354.4066,75.92157,84.11486
"25447",354.41992,76.18036,84.2462
"25448",354.43326,76.82002,84.7665
"25449",354.4466,77.659874,85.50698
"25450",354.45993,78.504616,86.278595
"25451",354.47327,79.17845,86.9057
"25452",354.4866,79.54711,87.24869
"25453",354.49994,79.54467,87.23209
"25454",354.51328,79.14427,86.81747
"25455",354.5266,78.36057,86.00703
"25456",354.53995,77.2546,84.84982
"25457",354.55328,75.914246,83.423676
"25458",354.56662,74.43961,81.821365
"25459",354.57996,72.921036,80.12903
"25460",354.5933,71.45373,78.440506
"25461",354.60663,70.10605,76.82576
"25462",354.61996,68.93904,75.34956
"25463",354.6333,67.981995,74.04686
"25464",354.64664,67.25445,72.94375
"25465",354.65997,66.74174,72.03274
"25466",354.6733,66.41703,71.29371
"25467",354.68665,66.24124,70.69345
"25468",354.69998,66.17288,70.19513
"25469",354.71332,66.17288,69.76303
"25470",354.72665,66.20218,69.36023
"25471",354.74,66.2388,68.96567
"25472",354.75333,66.29496,68.59179
"25473",354.76666,66.47074,68.33929
"25474",354.78,67.054245,68.5
"25475",354.79333,68.53132,69.57252
"25476",354.80667,71.414665,72.097466
"25477",354.82,75.93622,76.35072
"25478",354.83334,81.86893,82.15644
"25479",354.84668,88.53895,88.884865
"25480",354.86002,95.011215,95.62398
"25481",354.87335,100.34821,101.43008
"25482",354.8867,103.93225,105.649994
"25483",354.90002,105.59243,108.05806
"25484",354.91336,105.497215,108.7626
"25485",354.9267,103.96399,108.02617
"25486",354.94003,101.34188,106.15294
"25487",354.95337,98.004425,103.482414
"25488",354.9667,94.30808,100.34871
"25489",354.98004,90.597084,97.08484
"25490",354.99338,87.14,93.958916
"25491",355.0067,84.102844,91.14488
"25492",355.02005,81.549095,88.719345
"25493",355.0334,79.466545,86.6852
"25494",355.04672,77.823456,85.025444
"25495",355.06006,76.62226,83.75623
"25496",355.0734,75.88739,82.91581
"25497",355.08673,75.64568,82.545586
"25498",355.10007,75.88739,82.65122
"25499",355.1134,76.52949,83.1648
"25500",355.12674,77.418175,83.94504
"25501",355.14008,78.37034,84.81652
"25502",355.1534,79.21263,85.60789
"25503",355.16675,79.80347,86.17412
"25504",355.18008,80.05249,86.417
"25505",355.19342,79.906006,86.272156
"25506",355.20676,79.37133,85.73454
"25507",355.2201,78.487526,84.83109
"25508",355.23343,77.330284,83.62659
"25509",355.24677,75.98016,82.19304
"25510",355.2601,74.529945,80.6172
"25511",355.27344,73.074844,78.991165
"25512",355.28677,71.690544,77.39046
"25513",355.3001,70.43809,75.87833
"25514",355.31345,69.36874,74.51016
"25515",355.32678,68.50446,73.31366
"25516",355.34012,67.845276,72.295235
"25517",355.35345,67.38384,71.453964
"25518",355.3668,67.1104,70.78626
"25519",355.38013,67.000534,70.2736
"25520",355.39346,67.02983,69.89666
"25521",355.4068,67.173874,69.63538
"25522",355.42014,67.40826,69.46895
"25523",355.43347,67.698784,69.36598
"25524",355.4468,68.001526,69.28431
"25525",355.46014,68.279854,69.18768
"25526",355.47348,68.506905,69.04848
"25527",355.48682,68.68513,68.86754
"25528",355.50015,68.89998,68.7288
"25529",355.5135,69.39803,68.879974
"25530",355.52682,70.62852,69.779144
"25531",355.54016,73.07973,71.93749
"25532",355.5535,77.01778,75.65929
"25533",355.56683,82.2913,80.839615
"25534",355.58017,88.341194,86.96111
"25535",355.5935,94.31541,93.195984
"25536",355.60684,99.337456,98.66539
"25537",355.62018,102.76524,102.69747
"25538",355.6335,104.36439,105.008026
"25539",355.64685,104.2301,105.63513
"25540",355.6602,102.63584,104.798065
"25541",355.67352,99.92584,102.79544
"25542",355.68686,96.480965,99.97324
"25543",355.7002,92.6894,96.69671
"25544",355.71353,88.89784,93.3017
"25545",355.72687,85.37484,90.05675
"25546",355.7402,82.286415,87.136284
"25547",355.75354,79.70336,84.62468
"25548",355.76688,77.64034,82.55239
"25549",355.7802,76.11444,80.95275
"25550",355.79355,75.16228,79.879166
"25551",355.8069,74.80827,79.373985
"25552",355.82022,75.054855,79.45833
"25553",355.83356,75.81171,80.060646
"25554",355.8469,76.92256,81.04062
"25555",355.86023,78.170135,82.192024
"25556",355.87357,79.344475,83.30918
"25557",355.8869,80.255135,84.199356
"25558",355.90024,80.79225,84.744446
"25559",355.91357,80.89479,84.87174
"25560",355.9269,80.55543,84.56034
"25561",355.94025,79.80835,83.83062
"25562",355.95358,78.729225,82.74551
"25563",355.96692,77.420616,81.39719
"25564",355.98026,75.98016,79.87613
"25565",355.9936,74.50309,78.27344
"25566",356.00693,73.07973,76.6783
"25567",356.02026,71.77112,75.153435
"25568",356.0336,70.623634,73.748795
"25569",356.04694,69.661705,72.49385
"25570",356.06027,68.89998,71.40905
"25571",356.0736,68.33845,70.50064
"25572",356.08694,67.97467,69.77244
"25573",356.10028,67.79889,69.22086
"25574",356.11362,67.791565,68.83225
"25575",356.12695,67.9234,68.58257
"25576",356.1403,68.16266,68.444435
"25577",356.15363,68.472725,68.38458
"25578",356.16696,68.81209,68.363716
"25579",356.1803,69.149,68.351006
"25580",356.19363,69.4493,68.31221
"25581",356.20697,69.68856,68.221756
"25582",356.2203,69.85458,68.065544
"25583",356.23364,69.976654,67.87057
"25584",356.24698,70.13779,67.71847
"25585",356.2603,70.56992,67.84241
"25586",356.27365,71.656364,68.634155
"25587",356.287,73.85611,70.573166
"25588",356.30032,77.43038,73.955444
"25589",356.31366,82.27177,78.71653
"25590",356.327,87.87488,84.39063
"25591",356.34033,93.4609,90.22275
"25592",356.35367,98.18509,95.36759
"25593",356.367,101.42245,99.17323
"25594",356.38034,102.91417,101.334404
"25595",356.39368,102.748146,101.884445
"25596",356.407,101.18074,101.02792
"25597",356.42035,98.53422,99.0433
"25598",356.4337,95.14549,96.233765
"25599",356.44702,91.351494,92.91306
"25600",356.46036,87.45983,89.37614
"25601",356.4737,83.717094,85.866516
"25602",356.48703,80.306404,82.57198
"25603",356.50037,77.347374,79.62253
"25604",356.5137,74.92302,77.11528
"25605",356.52704,73.15297,75.18658
"25606",356.54037,72.15198,73.97162
"25607",356.5537,71.99817,73.572556
"25608",356.56705,72.68177,74.0061
"25609",356.58038,74.073395,75.16904
"25610",356.59372,75.91669,76.827126
"25611",356.60706,77.90402,78.68686
"25612",356.6204,79.727776,80.445114
"25613",356.63373,81.15846,81.867294
"25614",356.64706,82.06668,82.811714
"25615",356.6604,82.39628,83.205894
"25616",356.67374,82.15213,83.03663
"25617",356.68707,81.40505,82.356804
"25618",356.7004,80.255135,81.25079
"25619",356.71375,78.82445,79.82808
"25620",356.72708,77.242386,78.20928
"25621",356.74042,75.62127,76.50199
"25622",356.75375,74.056305,74.80019
"25623",356.7671,72.62318,73.18133
"25624",356.78043,71.37316,71.70079
"25625",356.79376,70.33799,70.39603
"25626",356.8071,69.53231,69.28841
"25627",356.82043,68.96101,68.38999
"25628",356.83377,68.60944,67.69345
"25629",356.8471,68.44099,67.16904
"25630",356.86044,68.4239,66.790726
"25631",356.87378,68.52155,66.52663
"25632",356.88712,68.699776,66.346146
"25633",356.90045,68.929276,66.22251
"25634",356.9138,69.173416,66.12069
"25635",356.92712,69.4078,66.01674
"25636",356.94046,69.63485,65.91278
"25637",356.9538,69.88144,65.83546
"25638",356.96713,70.24765,65.88546
"25639",356.98047,70.977646,66.31069
"25640",356.9938,72.45472,67.50581
"25641",357.00714,75.06218,69.87749
"25642",357.02048,78.95384,73.614845
"25643",357.0338,83.912415,78.540726
"25644",357.04715,89.35439,84.104965
"25645",357.0605,94.49607,89.53897
"25646",357.07382,98.56107,94.05698
"25647",357.08716,101.05379,97.12972
"25648",357.1005,101.839935,98.5738
"25649",357.11383,101.09285,98.50922
"25650",357.12717,99.11284,97.188354
"25651",357.1405,96.22217,94.89496
"25652",357.15384,92.72358,91.90331
"25653",357.16718,88.902725,88.48007
"25654",357.1805,85.00618,84.86174
"25655",357.19385,81.22682,81.23882
"25656",357.20718,77.71114,77.76148
"25657",357.22052,74.58854,74.56735
"25658",357.23386,72.0177,71.82741
"25659",357.2472,70.18417,69.74443
"25660",357.26053,69.26864,68.52215
"25661",357.27386,69.39315,68.3113
"25662",357.2872,70.54795,69.134636
"25663",357.30054,72.535286,70.82659
"25664",357.31387,75.03044,73.08847
"25665",357.3272,77.63546,75.53819
"25666",357.34055,79.991455,77.8203
"25667",357.35388,81.8201,79.648674
"25668",357.36722,82.984665,80.87012
"25669",357.38055,83.458305,81.43703
"25670",357.3939,83.29717,81.383965
"25671",357.40723,82.61112,80.80095
"25672",357.42056,81.53689,79.80831
"25673",357.4339,80.216064,78.535515
"25674",357.44724,78.75853,77.08473
"25675",357.46057,77.27169,75.5591
"25676",357.4739,75.83124,74.03339
"25677",357.48724,74.50065,72.572525
"25678",357.50058,73.32632,71.22634
"25679",357.51392,72.34974,70.041214
"25680",357.52725,71.58068,69.03308
"25681",357.5406,71.011826,68.201126
"25682",357.55392,70.62119,67.52962
"25683",357.56726,70.37217,66.9875
"25684",357.5806,70.22812,66.54258
"25685",357.59393,70.152435,66.16152
"25686",357.60727,70.118256,65.8196
"25687",357.6206,70.13046,65.523
"25688",357.63394,70.22812,65.31223
"25689",357.64728,70.52354,65.30228
"25690",357.6606,71.28771,65.77031
"25691",357.67395,72.938126,67.14847
"25692",357.6873,75.84833,69.83799
"25693",357.70062,80.11841,73.97833
"25694",357.71396,85.435875,79.2995
"25695",357.7273,91.124435,85.15793
"25696",357.74063,96.3296,90.71073
"25697",357.75397,100.27253,95.16396
"25698",357.7673,102.50889,98.03384
"25699",357.78064,103.00206,99.23041
"25700",357.79398,101.979095,98.926254
"25701",357.8073,99.757385,97.39139
"25702",357.82065,96.65919,94.91061
"25703",357.83398,92.97017,91.74219
"25704",357.84732,88.94911,88.12645
"25705",357.86066,84.825516,84.28252
"25706",357.874,80.78737,80.395164
"25707",357.88733,76.98848,76.62088
"25708",357.90067,73.59243,73.13072
"25709",357.914,70.79698,70.13504
"25710",357.92734,68.824295,67.874756
"25711",357.94067,67.879456,66.58067
"25712",357.954,68.09186,66.41431
"25713",357.96735,69.42977,67.38009
"25714",357.98068,71.67101,69.29101
"25715",357.99402,74.44694,71.806656
"25716",358.00735,77.332726,74.51891
"25717",358.0207,79.9353,77.03814
"25718",358.03403,81.9617,79.062515
"25719",358.04736,83.25811,80.42023
"25720",358.0607,83.807434,81.071365
"25721",358.07404,83.685356,81.06827
"25722",358.08737,83.02373,80.521805
"25723",358.1007,81.971466,79.56403
"25724",358.11404,80.66773,78.32191
"25725",358.12738,79.234604,76.909645
"25726",358.14072,77.77219,75.42331
"25727",358.15405,76.34882,73.93033
"25728",358.1674,75.01579,72.4832
"25729",358.18073,73.80972,71.121376
"25730",358.19406,72.75746,69.87567
"25731",358.2074,71.85901,68.75089
"25732",358.22073,71.114365,67.75185
"25733",358.23407,70.50645,66.86626
"25734",358.2474,70.01816,66.08129
"25735",358.26074,69.62997,65.381165
"25736",358.27408,69.349205,64.77634
"25737",358.2874,69.21736,64.31165
"25738",358.30075,69.3785,64.13583
"25739",358.3141,70.14755,64.57296
"25740",358.32742,71.98108,66.098595
"25741",358.34076,75.2575,69.12442
"25742",358.3541,80.01831,73.73703
"25743",358.36743,85.838715,79.55801
"25744",358.38077,91.92035,85.8221
"25745",358.3941,97.31838,91.59264
"25746",358.40744,101.241776,96.057236
"25747",358.42078,103.29015,98.76942
"25748",358.4341,103.51476,99.72185
"25749",358.44745,102.21835,99.16028
"25750",358.4608,99.76471,97.400955
"25751",358.47412,96.48829,94.74218
"25752",358.48746,92.67475,91.4439
"25753",358.5008,88.568245,87.73348
"25754",358.51413,84.37629,83.80928
"25755",358.52747,80.27711,79.846855
"25756",358.5408,76.422066,76.00047
"25757",358.55414,72.97719,72.44379
"25758",358.56747,70.14511,69.39225
"25759",358.5808,68.16998,67.10915
"25760",358.59415,67.26177,65.83125
"25761",358.60748,67.542534,65.71394
"25762",358.62082,68.97078,66.75289
"25763",358.63416,71.3341,68.771545
"25764",358.6475,74.26139,71.428024
"25765",358.66083,77.313194,74.3005
"25766",358.67416,80.08423,76.98757
"25767",358.6875,82.27665,79.182625
"25768",358.70084,83.719536,80.696655
"25769",358.71417,84.37873,81.472084
"25770",358.7275,84.32258,81.552765
"25771",358.74084,83.682915,81.04818
"25772",358.75418,82.60868,80.089035
"25773",358.76752,81.24391,78.805786
"25774",358.78085,79.71313,77.31387
"25775",358.7942,78.12131,75.71309
"25776",358.80753,76.5539,74.086975
"25777",358.82086,75.071945,72.49733
"25778",358.8342,73.7145,70.985886
"25779",358.84753,72.50843,69.5834
"25780",358.86087,71.46105,68.30191
"25781",358.8742,70.5626,67.13661
"25782",358.88754,69.79843,66.07752
"25783",358.90088,69.15633,65.116615
"25784",358.9142,68.63386,64.25528
"25785",358.92755,68.28962,63.555847
"25786",358.9409,68.29206,63.192337
"25787",358.95422,69.00252,63.53692
"25788",358.96756,70.9044,65.09513
"25789",358.9809,74.373695,68.28018
"25790",358.99423,79.38354,73.114204
"25791",359.00757,85.42367,79.13507
"25792",359.0209,91.62005,85.50094
"25793",359.03424,97.00099,91.24501
"25794",359.04758,100.79256,95.567856
"25795",359.0609,102.66758,98.09264
"25796",359.07425,102.7335,98.86693
"25797",359.0876,101.337,98.18085
"25798",359.10092,98.85161,96.362236
"25799",359.11426,95.58007,93.67981
"25800",359.1276,91.78119,90.367805
"25801",359.14093,87.657585,86.612366
"25802",359.15427,83.389946,82.58403
"25803",359.1676,79.12962,78.42964
"25804",359.18094,75.04997,74.32279
"25805",359.19427,71.37316,70.491295
"25806",359.2076,68.37751,67.22606
"25807",359.22095,66.35844,64.84378
"25808",359.23428,65.58694,63.64598
"25809",359.24762,66.19241,63.80105
"25810",359.26096,68.11139,65.288536
"25811",359.2743,71.063095,67.86872
"25812",359.28763,74.60807,71.134415
"25813",359.30096,78.23361,74.59146
"25814",359.3143,81.46853,77.77118
"25815",359.32764,83.97833,80.32687
"25816",359.34097,85.592125,82.06499
"25817",359.3543,86.30015,82.94776
"25818",359.36765,86.204926,83.049416
"25819",359.38098,85.470055,82.508446
"25820",359.39432,84.263985,81.47331
"25821",359.40765,82.74052,80.08309
"25822",359.421,81.02907,78.45728
"25823",359.43433,79.2224,76.68277
"25824",359.44766,77.39864,74.83472
"25825",359.461,75.62371,72.97849
"25826",359.47433,73.94156,71.159584
"25827",359.48767,72.38148,69.41018
"25828",359.501,70.97032,67.76094
"25829",359.51434,69.747154,66.2556
"25830",359.52768,68.78279,64.97083
"25831",359.54102,68.28962,64.12712
"25832",359.55435,68.68513,64.15668
"25833",359.58102,74.18082,69.00248
"25834",359.59436,79.605705,74.24552
"25835",359.6077,86.185394,80.81289
"25836",359.62103,92.909134,87.72992
"25837",359.63437,98.67094,93.895134
"25838",359.6477,102.63584,98.443504
"25839",359.66104,104.48402,100.999054
"25840",359.67438,104.38392,101.66408
"25841",359.6877,102.74326,100.785416
"25842",359.70105,99.984436,98.73732
"25843",359.7144,96.44923,95.82662
"25844",359.72772,92.41108,92.30251
"25845",359.74106,88.09216,88.371445
"25846",359.7544,83.67315,84.20531
"25847",359.76773,79.30541,79.952354
"25848",359.78107,75.16228,75.78751
"25849",359.7944,71.47326,71.94732
"25850",359.80774,68.5362,68.743805
"25851",359.82108,66.67338,66.522736
"25852",359.8344,66.14603,65.578926
"25853",359.84775,67.0518,66.051765
"25854",359.86108,69.25887,67.8542
"25855",359.87442,72.413216,70.67288
"25856",359.88776,76.016785,74.03937
"25857",359.9011,79.54711,77.44522
"25858",359.91443,82.562294,80.44625
"25859",359.92776,84.77669,82.740715
"25860",359.9411,86.07553,84.18883
"25861",359.95444,86.49058,84.79373
"25862",359.96777,86.151215,84.657196
"25863",359.9811,85.22102,83.91923
"25864",359.99445,83.861145,82.7225
"25865",360.00778,82.21561,81.197624
"25866",360.02112,80.396736,79.44799
"25867",360.03445,78.49973,77.563385
"25868",360.0478,76.60517,75.62194
"25869",360.06113,74.776535,73.68722
"25870",360.07446,73.07973,71.82718
"25871",360.0878,71.59533,70.126526
"25872",360.10114,70.518654,68.7872
"25873",360.11447,70.237885,68.21014
"25874",360.1278,71.33898,69.006165
"25875",360.14114,74.32731,71.72383
"25876",360.15448,79.281,76.50025
"25877",360.16782,85.68978,82.886566
"25878",360.18115,92.59174,89.96633
"25879",360.1945,98.85161,96.61969
"25880",360.20782,103.51476,101.871956
"25881",360.22116,106.1149,105.206924
"25882",360.2345,106.720375,106.628494
"25883",360.24783,105.70962,106.45275
"25884",360.26117,103.483025,105.02959
"25885",360.2745,100.384834,102.66524
"25886",360.28784,96.71046,99.627884
"25887",360.30118,92.73579,96.175415
"25888",360.3145,88.690315,92.52794
"25889",360.32785,84.749825,88.859024
"25890",360.3412,81.06569,85.32332
"25891",360.35452,77.806366,82.0973
"25892",360.36786,75.194016,79.4164
"25893",360.3812,73.47036,77.54256
"25894",360.39453,72.84779,76.71594
"25895",360.40787,73.40444,77.04909
"25896",360.4212,75.00847,78.44701
"25897",360.43454,77.33761,80.62016
"25898",360.44788,79.957275,83.15663
"25899",360.4612,82.42802,85.62604
"25900",360.47455,84.403145,87.67704
"25901",360.48788,85.68734,89.09883
"25902",360.50122,86.219574,89.80879
"25903",360.51456,86.03403,89.817604
"25904",360.5279,85.243,89.21513
"25905",360.54123,83.98566,88.121635
"25906",360.55457,82.406044,86.66657
"25907",360.5679,80.635994,84.97171
"25908",360.58124,78.79271,83.1483
"25909",360.59457,76.95674,81.274605
"25910",360.6079,75.1989,79.42166
"25911",360.62125,73.5729,77.64563
"25912",360.63458,72.14465,76.01654
"25913",360.64792,71.026474,74.65288
"25914",360.66125,70.49424,73.840225
"25915",360.6746,70.99718,74.046104
"25916",360.68793,72.99672,75.76431
"25917",360.70126,76.646675,79.19542
"25918",360.7146,81.64675,84.090706
"25919",360.72794,87.2987,89.79411
"25920",360.74127,92.69428,95.417786
"25921",360.7546,96.988785,100.108986
"25922",360.76794,99.67925,103.33035
"25923",360.78128,100.714424,104.9805
"25924",360.79462,100.32868,105.24208
"25925",360.80795,98.83696,104.38563
"25926",360.8213,96.52979,102.667114
"25927",360.83463,93.68307,100.336945
"25928",360.84796,90.565346,97.64682
"25929",360.8613,87.411,94.82265
"25930",360.87463,84.39338,92.03662
"25931",360.88797,81.62722,89.40775
"25932",360.9013,79.200424,87.03181
"25933",360.91464,77.21309,85.019485
"25934",360.92798,75.789734,83.50904
"25935",360.9413,75.03288,82.62062
"25936",360.95465,74.986496,82.419014
"25937",360.968,75.58465,82.8605
"25938",360.98132,76.63447,83.77234
"25939",360.99466,77.874725,84.907425
"25940",361.008,79.04173,86.00802
"25941",361.02133,79.940186,86.876526
"25942",361.03467,80.45289,87.38736
"25943",361.048,80.54322,87.491844
"25944",361.06134,80.21118,87.17678
"25945",361.07468,79.500725,86.47292
"25946",361.088,78.485085,85.44168
"25947",361.10135,77.25948,84.16874
"25948",361.1147,75.92401,82.74763
"25949",361.12802,74.56901,81.26525
"25950",361.14136,73.270164,79.79669
"25951",361.1547,72.078735,78.39496
"25952",361.16803,71.02159,77.09027
"25953",361.18137,70.132904,75.921005
"25954",361.1947,69.46639,74.946144
"25955",361.20804,69.15877,74.30934
"25956",361.22137,69.48348,74.295265
"25957",361.2347,70.77989,75.26303
"25958",361.24805,73.255516,77.45053
"25959",361.26138,76.822464,80.80672
"25960",361.27472,81.075455,84.96041
"25961",361.28806,85.41634,89.33491
"25962",361.3014,89.18593,93.27375
"25963",361.31473,91.9057,96.28058
"25964",361.32806,93.3901,98.13703
"25965",361.3414,93.73922,98.904594
"25966",361.35474,93.15816,98.752884
"25967",361.36807,91.87396,97.87988
"25968",361.3814,90.11368,96.49066
"25969",361.39474,88.097046,94.790085
"25970",361.40808,86.029144,92.97522
"25971",361.42142,84.04669,91.181175
"25972",361.43475,82.24246,89.5034
"25973",361.4481,80.63111,87.96213
"25974",361.46143,79.23216,86.5829
"25975",361.47476,78.07248,85.39922
"25976",361.4881,77.20088,84.46739
"25977",361.50143,76.66132,83.84036
"25978",361.51477,76.470894,83.5456
"25979",361.5281,76.58564,83.550064
"25980",361.54144,76.90059,83.758316
"25981",361.55478,77.27169,84.03256
"25982",361.5681,77.57931,84.25492
"25983",361.58145,77.72823,84.3282
"25984",361.5948,77.662315,84.19129
"25985",361.60812,77.36202,83.81795
"25986",361.62146,76.841995,83.215485
"25987",361.6348,76.14374,82.41854
"25988",361.64813,75.33318,81.48748
"25989",361.66147,74.46891,80.47737
"25990",361.6748,73.60952,79.44514
"25991",361.68814,72.80873,78.44465
"25992",361.70148,72.09338,77.50458
"25993",361.7148,71.47814,76.64226
"25994",361.72815,70.975204,75.87302
"25995",361.7415,70.58213,75.19792
"25996",361.75482,70.28184,74.60332
"25997",361.76816,70.07675,74.094536
"25998",361.7815,69.96689,73.67457
"25999",361.79483,69.99863,73.39277
"26000",361.80817,70.31846,73.400055
"26001",361.8215,71.18028,73.95933
"26002",361.83484,72.82338,75.32681
"26003",361.84818,75.32586,77.60503
"26004",361.8615,78.51438,80.647484
"26005",361.87485,82.005646,84.09232
"26006",361.88818,85.29916,87.44851
"26007",361.90152,87.93347,90.24842
"26008",361.91486,89.63027,92.193146
"26009",361.9282,90.355385,93.21921
"26010",361.94153,90.250404,93.437836
"26011",361.95486,89.50576,93.01352
"26012",361.9682,88.31678,92.1216
"26013",361.98154,86.890976,90.95569
"26014",361.99487,85.40902,89.68907
"26015",362.0082,84.01251,88.46159
"26016",362.02155,82.7625,87.33697
"26017",362.03488,81.66384,86.32464
"26018",362.04822,80.69215,85.40494
"26019",362.06155,79.823,84.55742
"26020",362.0749,79.063705,83.792595
"26021",362.08823,78.44846,83.148094
"26022",362.10156,78.02609,82.67724
"26023",362.1149,77.8259,82.41536
"26024",362.12823,77.821014,82.34254
"26025",362.14157,77.95773,82.41116
"26026",362.1549,78.150604,82.540215
"26027",362.16824,78.3093,82.64112
"26028",362.18158,78.363014,82.642
"26029",362.19492,78.260475,82.488304
"26030",362.20825,77.97482,82.14829
"26031",362.2216,77.506065,81.61625
"26032",362.23492,76.88106,80.91331
"26033",362.24826,76.14862,80.083405
"26034",362.2616,75.36492,79.17935
"26035",362.27493,74.58854,78.258125
"26036",362.28827,73.87564,77.37612
"26037",362.3016,73.270164,76.57926
"26038",362.31494,72.798965,75.89776
"26039",362.32828,72.46204,75.33581
"26040",362.3416,72.24719,74.88539
"26041",362.35495,72.12268,74.5186
"26042",362.3683,72.061646,74.211395
"26043",362.38162,72.042114,73.94379
"26044",362.39496,72.05188,73.704865
"26045",362.4083,72.08118,73.48578
"26046",362.42163,72.12756,73.2847
"26047",362.43497,72.19348,73.1046
"26048",362.4483,72.2765,72.943665
"26049",362.46164,72.37171,72.797516
"26050",362.47498,72.47425,72.66167
"26051",362.4883,72.57435,72.52658
"26052",362.50165,72.66712,72.3873
"26053",362.51498,72.742805,72.233826
"26054",362.52832,72.798965,72.0632
"26055",362.54166,72.8307,71.86991
"26056",362.555,72.84291,71.65808
"26057",362.56833,72.84047,71.431984
"26058",362.58167,72.83803,71.20581
"26059",362.595,72.84535,70.98933
"26060",362.60834,72.867325,70.78772
"26061",362.62167,72.90639,70.60389
"26062",362.635,72.94789,70.42372
"26063",362.64835,72.98451,70.23997
"26064",362.66168,73.01137,70.04759
"26065",362.67502,73.0309,69.84873
"26066",362.68835,73.04799,69.64804
"26067",362.7017,73.07973,69.46253
"26068",362.71503,73.128555,69.295105
"26069",362.72836,73.20424,69.15606
"26070",362.7417,73.31411,69.053566
"26071",362.75504,73.46548,68.996
"26072",362.76837,73.64614,68.972466
"26073",362.7817,73.84146,68.96923
"26074",362.79504,74.039215,68.97453
"26075",362.80838,74.215,68.96404
"26076",362.82172,74.34196,68.910225
"26077",362.83505,74.407875,68.79933
"26078",362.8484,74.4152,68.631905
"26079",362.86172,74.407875,68.45006
"26080",362.87506,74.53239,68.39982
"26081",362.8884,75.125656,68.82223
"26082",362.90173,76.59785,70.1421
"26083",362.91507,79.168686,72.60662
"26084",362.9284,82.735634,76.14759
"26085",362.94174,86.8568,80.35424
"26086",362.95508,90.897385,84.6091
"26087",362.9684,94.203094,88.255356
"26088",362.98175,96.35157,90.84768
"26089",362.9951,97.26223,92.269325
"26090",363.00842,97.14015,92.68669
"26091",363.02176,96.2588,92.340965
"26092",363.0351,94.87938,91.469635
"26093",363.04843,93.24605,90.301285
"26094",363.06177,91.58831,89.05749
"26095",363.0751,90.07706,87.90837
"26096",363.08844,88.814835,86.96106
"26097",363.10178,87.818726,86.24042
"26098",363.1151,87.03746,85.70349
"26099",363.12845,86.397804,85.28375
"26100",363.14178,85.84604,84.931915
"26101",363.15512,85.36996,84.63852
"26102",363.16846,84.996414,84.432785
"26103",363.1818,84.75716,84.34966
"26104",363.19513,84.65217,84.39333
"26105",363.20847,84.65217,84.53871
"26106",363.2218,84.69367,84.72559
"26107",363.23514,84.70832,84.88692
"26108",363.24847,84.63752,84.96325
"26109",363.2618,84.437325,84.907974
"26110",363.27515,84.088196,84.69751
"26111",363.28848,83.58282,84.319885
"26112",363.30182,82.94072,83.78975
"26113",363.31516,82.18387,83.124794
"26114",363.3285,81.36599,82.37516
"26115",363.34183,80.53101,81.58287
"26116",363.35516,79.725334,80.793785
"26117",363.3685,78.98558,80.04545
"26118",363.38184,78.348366,79.37653
"26119",363.39517,77.83078,78.807335
"26120",363.4085,77.435265,78.34403
"26121",363.42184,77.15694,77.98556
"26122",363.43518,76.97627,77.71605
"26123",363.44852,76.87129,77.51658
"26124",363.46185,76.81514,77.362656
"26125",363.4752,76.78584,77.23383
"26126",363.48853,76.76875,77.1163
"26127",363.50186,76.756546,77.00312
"26128",363.5152,76.749214,76.89443
"26129",363.52853,76.734566,76.7782
"26130",363.54187,76.715034,76.656624
"26131",363.5552,76.680855,76.51979
"26132",363.56854,76.63203,76.36724
"26133",363.58188,76.56611,76.196075
"26134",363.5952,76.4831,76.00576
"26135",363.60855,76.37812,75.79088
"26136",363.6219,76.25361,75.553185
"26137",363.63522,76.11444,75.29694
"26138",363.64856,75.96063,75.02171
"26139",363.6619,75.79706,74.73191
"26140",363.67523,75.62859,74.432106
"26141",363.68857,75.46746,74.13437
"26142",363.7019,75.32098,73.846245
"26143",363.71524,75.20622,73.58527
"26144",363.72858,75.13542,73.36467
"26145",363.7419,75.10857,73.1858
"26146",363.75525,75.12077,73.04515
"26147",363.7686,75.16472,72.93662
"26148",363.78192,75.22331,72.84412
"26149",363.79526,75.284355,72.75589
"26150",363.8086,75.34051,72.66468
"26151",363.82193,75.37957,72.558136
"26152",363.83527,75.39178,72.42596
"26153",363.8486,75.37713,72.2673
"26154",363.86194,75.34783,72.093544
"26155",363.87527,75.338066,71.9384
"26156",363.8886,75.43572,71.89037
"26157",363.90195,75.841,72.15302
"26158",363.91528,76.8127,72.99475
"26159",363.92862,78.551,74.63345
"26160",363.94196,81.05104,77.08821
"26161",363.9553,84.08331,80.15333
"26162",363.96863,87.220566,83.41818
"26163",363.98196,89.97696,86.400215
"26164",363.9953,91.966736,88.701775
"26165",364.00864,93.019,90.128
"26166",364.02197,93.204544,90.72039
"26167",364.0353,92.70161,90.6301
"26168",364.04865,91.720146,90.04556
"26169",364.06198,90.47013,89.161804
"26170",364.07532,89.146866,88.16573
"26171",364.08865,87.90662,87.21132
"26172",364.102,86.85191,86.4037
"26173",364.11533,86.014496,85.7804
"26174",364.12866,85.365074,85.31893
"26175",364.142,84.823074,84.94459
"26176",364.15533,84.317696,84.58993
"26177",364.16867,83.809875,84.21703
"26178",364.182,83.3167,83.84292
"26179",364.19534,82.882126,83.511986
"26180",364.20868,82.564735,83.28466
"26181",364.22202,82.39384,83.19391
"26182",364.23535,82.357216,83.23209
"26183",364.2487,82.4036,83.35214
"26184",364.26202,82.459755,83.483406
"26185",364.27536,82.45731,83.55783
"26186",364.2887,82.34501,83.522316
"26187",364.30203,82.091095,83.34168
"26188",364.31537,81.69314,83.00907
"26189",364.3287,81.16823,82.53707
"26190",364.34204,80.552986,81.958336
"26191",364.35538,79.89136,81.31399
"26192",364.3687,79.2224,80.64163
"26193",364.38205,78.58274,79.97768
"26194",364.3954,78.011444,79.36209
"26195",364.40872,77.53292,78.82143
"26196",364.42206,77.152054,78.363464
"26197",364.4354,76.85664,77.97906
"26198",364.44873,76.63935,77.663536
"26199",364.46207,76.4831,77.40227
"26200",364.4754,76.36591,77.17518
"26201",364.48874,76.27314,76.96884
"26202",364.50208,76.20233,76.78157
"26203",364.5154,76.138855,76.59942
"26204",364.52875,76.07538,76.41528
"26205",364.54208,76.0119,76.229164
"26206",364.55542,75.95575,76.048386
"26207",364.56876,75.911804,75.87806
"26208",364.5821,75.877625,75.716125
"26209",364.59543,75.85321,75.56289
"26210",364.60876,75.82391,75.40401
"26211",364.6221,75.789734,75.23933
"26212",364.63544,75.736015,75.05404
"26213",364.64877,75.67254,74.857315
"26214",364.6621,75.59197,74.64152
"26215",364.67545,75.50408,74.41588
"26216",364.68878,75.403984,74.175285
"26217",364.70212,75.301445,73.92912
"26218",364.71545,75.191574,73.672424
"26219",364.7288,75.089035,73.419624
"26220",364.74213,74.9987,73.17583
"26221",364.75546,74.9279,72.94874
"26222",364.7688,74.87663,72.73897
"26223",364.78214,74.84001,72.542244
"26224",364.79547,74.80827,72.34926
"26225",364.8088,74.77409,72.15284
"26226",364.82214,74.72526,71.9407
"26227",364.83548,74.6569,71.707504
"26228",364.84882,74.58366,71.46729
"26229",364.86215,74.52506,71.23944
"26230",364.8755,74.54215,71.08544
"26231",364.88882,74.77898,71.15171
"26232",364.90216,75.47967,71.68925
"26233",364.9155,76.87862,72.94694
"26234",364.92883,79.06859,75.03937
"26235",364.94217,81.90311,77.84478
"26236",364.9555,85.030594,81.03174
"26237",364.96884,87.97986,84.13821
"26238",364.98218,90.304115,86.71184
"26239",364.9955,91.74944,88.47917
"26240",365.00885,92.2768,89.3737
"26241",365.0222,92.02533,89.50588
"26242",365.03552,91.18791,89.04426
"26243",365.04886,89.969635,88.175606
"26244",365.0622,88.5658,87.08333
"26245",365.07553,87.16197,85.947174
"26246",365.08887,85.89487,84.90388
"26247",365.1022,84.85237,84.04559
"26248",365.11554,84.03937,83.384224
"26249",365.12888,83.41192,82.883
"26250",365.1422,82.9041,82.481804
"26251",365.15555,82.48417,82.152626
"26252",365.16888,82.15457,81.90066
"26253",365.18222,81.94461,81.758026
"26254",365.19556,81.89578,81.769966
"26255",365.2089,82.00809,81.94151
"26256",365.22223,82.247345,82.24352
"26257",365.23557,82.533,82.5994
"26258",365.2489,82.791794,82.937355
"26259",365.26224,82.950485,83.18329
"26260",365.27557,82.948044,83.27305
"26261",365.2889,82.760056,83.177185
"26262",365.30225,82.391396,82.894775
"26263",365.31558,81.85916,82.43727
"26264",365.32892,81.20729,81.8435
"26265",365.34225,80.48951,81.163445
"26266",365.3556,79.75464,80.44387
"26267",365.36893,79.04173,79.7233
"26268",365.38226,78.38743,79.03905
"26269",365.3956,77.821014,78.42224
"26270",365.40894,77.3547,77.88783
"26271",365.42227,76.99092,77.44139
"26272",365.4356,76.71992,77.076355
"26273",365.44894,76.52949,76.783424
"26274",365.46228,76.40009,76.54558
"26275",365.47562,76.31953,76.352516
"26276",365.48895,76.2707,76.188675
"26277",365.5023,76.243835,76.04527
"26278",365.51562,76.23407,75.91813
"26279",365.52896,76.23651,75.80289
"26280",365.5423,76.24628,75.695045
"26281",365.55563,76.265816,75.59728
"26282",365.56897,76.28779,75.50256
"26283",365.5823,76.30244,75.40121
"26284",365.59564,76.30732,75.29054
"26285",365.60898,76.29023,75.15806
"26286",365.6223,76.24628,74.99818
"26287",365.63565,76.1828,74.8174
"26288",365.649,76.102234,74.617546
"26289",365.66232,76.016785,74.41029
"26290",365.67566,75.931335,74.20037
"26291",365.689,75.85321,73.9951
"26292",365.70233,75.77753,73.78983
"26293",365.71567,75.70916,73.589516
"26294",365.729,75.63592,73.38219
"26295",365.74234,75.54803,73.15792
"26296",365.75568,75.43816,72.908936
"26297",365.769,75.30877,72.636986
"26298",365.78235,75.16228,72.343895
"26299",365.7957,75.018234,72.048676
"26300",365.80902,74.92546,71.800224
"26301",365.82236,74.99626,71.71245
"26302",365.8357,75.45525,72.015076
"26303",365.84903,76.575874,72.993675
"26304",365.86237,78.52903,74.83983
"26305",365.8757,81.253685,77.51852
"26306",365.88904,84.45197,80.75598
"26307",365.90237,87.66247,84.1056
"26308",365.9157,90.392006,87.074585
"26309",365.92905,92.27192,89.27925
"26310",365.94238,93.170364,90.561195
"26311",365.95572,93.15816,90.96056
"26312",365.96906,92.4062,90.6198
"26313",365.9824,91.10979,89.71108
"26314",365.99573,89.47646,88.42494
"26315",366.00906,87.70153,86.94615
"26316",366.0224,85.977875,85.463165
"26317",366.03574,84.43244,84.10454
"26318",366.04907,83.13359,82.9442
"26319",366.0624,82.07645,81.98498
"26320",366.07574,81.25857,81.23199
"26321",366.08908,80.6775,80.69025
"26322",366.10242,80.360115,80.394035
"26323",366.11575,80.343025,80.3882
"26324",366.1291,80.638435,80.69433
"26325",366.14243,81.20241,81.27825
"26326",366.15576,81.92264,82.03606
"26327",366.1691,82.66483,82.83833
"26328",366.18243,83.28008,83.53686
"26329",366.19577,83.67071,84.02998
"26330",366.2091,83.78302,84.257
"26331",366.22244,83.60479,84.19699
"26332",366.23578,83.158005,83.862854
"26333",366.2491,82.48905,83.29259
"26334",366.26245,81.6614,82.54272
"26335",366.2758,80.740974,81.67421
"26336",366.28912,79.7937,80.75009
"26337",366.30246,78.887924,79.83787
"26338",366.3158,78.07004,78.98523
"26339",366.32913,77.366905,78.22179
"26340",366.34247,76.79317,77.565765
"26341",366.3558,76.35371,77.02609
"26342",366.36914,76.02655,76.58499
"26343",366.38248,75.79462,76.22889
"26344",366.3958,75.64568,75.94854
"26345",366.40915,75.56512,75.7319
"26346",366.4225,75.53582,75.56402
"26347",366.43582,75.545586,75.43428
"26348",366.44916,75.577324,75.32682
"26349",366.4625,75.62127,75.23256
"26350",366.47583,75.667656,75.14211
"26351",366.48917,75.71404,75.053116
"26352",366.5025,75.755554,74.96069
"26353",366.51584,75.79706,74.86956
"26354",366.52917,75.83856,74.779724
"26355",366.5425,75.87518,74.6863
"26356",366.55585,75.90204,74.58426
"26357",366.56918,75.90692,74.46108
"26358",366.58252,75.88983,74.316086
"26359",366.59586,75.841,74.13882
"26360",366.6092,75.75311,73.92096
"26361",366.62253,75.61883,73.65396
"26362",366.63586,75.43572,73.33395
"26363",366.6492,75.20378,72.95937
"26364",366.66254,74.93034,72.53606
"26365",366.67587,74.632484,72.07977
"26366",366.6892,74.35905,71.6386
"26367",366.70255,74.23453,71.33781
"26368",366.71588,74.49088,71.413994
"26369",366.72922,75.44305,72.194
"26370",366.74255,77.330284,73.938835
"26371",366.7559,80.14526,76.67039
"26372",366.76923,83.59991,80.12957
"26373",366.78256,87.19615,83.83831
"26374",366.7959,90.36271,87.229744
"26375",366.80923,92.63325,89.82412
"26376",366.82257,93.79782,91.383484
