"","Time..s.","PPG.trace","Preprocessed.PPG"
"39130",534.28516,73.721825,89.473915
"39131",534.29846,73.59731,89.15321
"39132",534.31177,73.480125,88.835945
"39133",534.3251,73.3727,88.52478
"39134",534.3384,73.28237,88.22735
"39135",534.3517,73.22133,87.95638
"39136",534.365,73.199356,87.72258
"39137",534.3783,73.214005,87.52471
"39138",534.3916,73.255516,87.354164
"39139",534.4049,73.306786,87.19467
"39140",534.4182,73.340965,87.01969
"39141",534.4315,73.323875,86.79451
"39142",534.4448,73.24086,86.50287
"39143",534.4581,73.07973,86.130516
"39144",534.47144,72.85756,85.69209
"39145",534.48474,72.64759,85.25893
"39146",534.49805,72.74525,85.126816
"39147",534.51135,73.673,85.82785
"39148",534.52466,75.89227,87.84941
"39149",534.53796,79.47631,91.305084
"39150",534.5513,84.06622,95.87863
"39151",534.5646,89.01015,100.94962
"39152",534.5779,93.51949,105.74054
"39153",534.5912,96.935074,109.578606
"39154",534.6045,99.020065,112.19282
"39155",534.6178,99.94537,113.7125
"39156",534.6311,99.999084,114.3895
"39157",534.6444,99.422905,114.43829
"39158",534.6577,98.42191,114.044266
"39159",534.671,97.16701,113.36504
"39160",534.6843,95.79736,112.53187
"39161",534.69763,94.39597,111.624146
"39162",534.71094,92.97505,110.6531
"39163",534.72424,91.510185,109.593704
"39164",534.73755,89.98917,108.43238
"39165",534.75085,88.446175,107.20155
"39166",534.76416,86.956894,105.97621
"39167",534.77747,85.628746,104.86546
"39168",534.7908,84.55695,103.96957
"39169",534.8041,83.792786,103.3478
"39170",534.8174,83.319145,102.99268
"39171",534.8307,83.08232,102.85958
"39172",534.844,82.98711,102.86069
"39173",534.8573,82.948044,102.91497
"39174",534.8706,82.879684,102.938736
"39175",534.8839,82.720985,102.870026
"39176",534.8972,82.41825,102.65232
"39177",534.9105,81.95682,102.26646
"39178",534.9238,81.35378,101.72457
"39179",534.93713,80.6482,101.061295
"39180",534.95044,79.888916,100.322266
"39181",534.96375,79.11986,99.549736
"39182",534.97705,78.37278,98.775154
"39183",534.99036,77.662315,98.01384
"39184",535.00366,76.995804,97.27428
"39185",535.01697,76.37812,96.56271
"39186",535.0303,75.809265,95.88068
"39187",535.0436,75.29412,95.23457
"39188",535.0569,74.82292,94.61632
"39189",535.0702,74.38834,94.01996
"39190",535.0835,73.99283,93.44908
"39191",535.0968,73.6437,92.91223
"39192",535.1101,73.35073,92.42063
"39193",535.1234,73.11635,91.97846
"39194",535.1367,72.94057,91.58757
"39195",535.15,72.813614,91.24001
"39196",535.1633,72.723274,90.9251
"39197",535.17664,72.65247,90.62691
"39198",535.18994,72.59144,90.33626
"39199",535.20325,72.52796,90.04126
"39200",535.21655,72.45716,89.73695
"39201",535.22986,72.379036,89.42311
"39202",535.24316,72.308235,89.11415
"39203",535.2565,72.24231,88.80786
"39204",535.2698,72.19104,88.51416
"39205",535.2831,72.14221,88.2213
"39206",535.2964,72.0885,87.92203
"39207",535.3097,72.010376,87.596664
"39208",535.323,71.90051,87.23712
"39209",535.3363,71.73937,86.822876
"39210",535.3496,71.52697,86.352325
"39211",535.3629,71.28039,85.84096
"39212",535.3762,71.17296,85.461044
"39213",535.3895,71.68078,85.69302
"39214",535.40283,73.42153,87.1738
"39215",535.41614,76.74189,90.28858
"39216",535.42944,81.478294,94.92317
"39217",535.44275,87.05699,100.548065
"39218",535.45605,92.62592,106.337524
"39219",535.46936,97.303734,111.4099
"39220",535.48267,100.50446,115.15137
"39221",535.496,102.169525,117.45719
"39222",535.5093,102.56992,118.550385
"39223",535.5226,101.98886,118.67464
"39224",535.5359,100.6778,118.050735
"39225",535.5492,98.88335,116.90246
"39226",535.5625,96.84718,115.4564
"39227",535.5758,94.74021,113.8759
"39228",535.5891,92.65522,112.25154
"39229",535.6024,90.633705,110.6255
"39230",535.6157,88.70496,109.02907
"39231",535.629,86.91295,107.50908
"39232",535.64233,85.34066,106.15282
"39233",535.65564,84.07355,105.0526
"39234",535.66895,83.17021,104.27656
"39235",535.68225,82.633095,103.83851
"39236",535.69556,82.388954,103.67665
"39237",535.70886,82.32548,103.68783
"39238",535.72217,82.32304,103.75806
"39239",535.7355,82.28397,103.79159
"39240",535.7488,82.13504,103.71403
"39241",535.7621,81.82742,103.47313
"39242",535.7754,81.34402,103.04683
"39243",535.7887,80.67994,102.42475
"39244",535.802,79.85474,101.6208
"39245",535.8153,78.907455,100.668976
"39246",535.8286,77.891815,99.619194
"39247",535.8419,76.86397,98.52547
"39248",535.8552,75.8703,97.4338
"39249",535.8685,74.94011,96.37456
"39250",535.88184,74.10025,95.37658
"39251",535.89514,73.34829,94.440254
"39252",535.90845,72.67933,93.56343
"39253",535.92175,72.08362,92.73895
"39254",535.93506,71.56115,91.9691
"39255",535.94836,71.1046,91.24884
"39256",535.9617,70.70664,90.57291
"39257",535.975,70.35996,89.93581
"39258",535.9883,70.05966,89.33425
"39259",536.0016,69.79599,88.75994
"39260",536.0149,69.573814,88.21889
"39261",536.0282,69.39803,87.717285
"39262",536.0415,69.27108,87.25902
"39263",536.0548,69.19539,86.848045
"39264",536.0681,69.16853,86.48354
"39265",536.0814,69.17586,86.15238
"39266",536.0947,69.205154,85.84342
"39267",536.10803,69.2491,85.550026
"39268",536.12134,69.30038,85.265335
"39269",536.13464,69.35653,84.98712
"39270",536.14795,69.40536,84.70334
"39271",536.16125,69.42733,84.394226
"39272",536.17456,69.39315,84.02965
"39273",536.18787,69.278404,83.583435
"39274",536.2012,69.068436,83.038414
"39275",536.2145,68.770584,82.39895
"39276",536.2278,68.43122,81.708664
"39277",536.2411,68.25544,81.17136
"39278",536.2544,68.76814,81.31704
"39279",536.2677,70.65537,82.85327
"39280",536.281,74.285805,86.19168
"39281",536.2943,79.44457,91.17188
"39282",536.3076,85.44564,97.155594
"39283",536.3209,91.33929,103.21941
"39284",536.3342,96.163574,108.398056
"39285",536.34753,99.32281,112.0624
"39286",536.36084,100.82185,114.16528
"39287",536.37415,101.01961,115.01372
"39288",536.38745,100.265205,114.916176
"39289",536.40076,98.793015,114.07727
"39290",536.41406,96.8008,112.67233
"39291",536.42737,94.466774,110.863335
"39292",536.4407,91.92767,108.77632
"39293",536.454,89.29092,106.51231
"39294",536.4673,86.65659,104.16833
"39295",536.4806,84.156555,101.876305
"39296",536.4939,81.93729,99.78693
"39297",536.5072,80.15259,98.06277
"39298",536.5205,78.92943,96.844376
"39299",536.5338,78.32639,96.207886
"39300",536.5471,78.28977,96.118965
"39301",536.5604,78.675514,96.45126
"39302",536.5737,79.28588,97.02024
"39303",536.58704,79.91089,97.62293
"39304",536.60034,80.37476,98.08402
"39305",536.61365,80.56519,98.28616
"39306",536.62695,80.43824,98.17687
"39307",536.64026,80.025635,97.77796
"39308",536.65356,79.37377,97.1269
"39309",536.6669,78.56077,96.29433
"39310",536.6802,77.645226,95.33381
"39311",536.6935,76.67109,94.28609
"39312",536.7068,75.67742,93.18839
"39313",536.7201,74.69596,92.07185
"39314",536.7334,73.75357,90.963715
"39315",536.7467,72.87465,89.889595
"39316",536.76,72.076294,88.868576
"39317",536.7733,71.360954,87.905624
"39318",536.7866,70.73106,87.00575
"39319",536.7999,70.169525,86.154564
"39320",536.81323,69.661705,85.33954
"39321",536.82654,69.207596,84.562355
"39322",536.83984,68.81453,83.83202
"39323",536.85315,68.50446,83.17241
"39324",536.86646,68.30183,82.610535
"39325",536.87976,68.21637,82.15951
"39326",536.89307,68.23834,81.81324
"39327",536.9064,68.34089,81.54823
"39328",536.9197,68.50202,81.34502
"39329",536.933,68.69489,81.17857
"39330",536.9463,68.89754,81.02793
"39331",536.9596,69.0782,80.86164
"39332",536.9729,69.190506,80.63264
"39333",536.9862,69.21004,80.31437
"39334",536.9995,69.14656,79.913704
"39335",537.0128,69.1783,79.60627
"39336",537.0261,69.83017,79.91996
"39337",537.0394,71.851685,81.623665
"39338",537.05273,75.70916,85.2265
"39339",537.06604,81.22194,90.605194
"39340",537.07935,87.65514,97.076584
"39341",537.09265,93.99069,103.65135
"39342",537.10596,99.19096,109.28883
"39343",537.11926,102.589455,113.28704
"39344",537.13257,104.15686,115.56036
"39345",537.1459,104.31068,116.469086
"39346",537.1592,103.468376,116.38649
"39347",537.1725,101.88144,115.53294
"39348",537.1858,99.74273,114.07803
"39349",537.1991,97.2256,112.177864
"39350",537.2124,94.452126,109.94269
"39351",537.2257,91.51995,107.46214
"39352",537.239,88.51942,104.82161
"39353",537.2523,85.56771,102.13614
"39354",537.2656,82.8333,99.575714
"39355",537.27893,80.52613,97.357086
"39356",537.29224,78.82933,95.67673
"39357",537.30554,77.86008,94.67089
"39358",537.31885,77.61593,94.35987
"39359",537.33215,77.960175,94.629616
"39360",537.34546,78.67307,95.27877
"39361",537.35876,79.49828,96.062515
"39362",537.3721,80.21118,96.759735
"39363",537.3854,80.65308,97.20824
"39364",537.3987,80.75563,97.33119
"39365",537.412,80.51881,97.11798
"39366",537.4253,80.0061,96.62149
"39367",537.4386,79.30053,95.91611
"39368",537.4519,78.46311,95.05683
"39369",537.4652,77.540245,94.08594
"39370",537.4785,76.561226,93.03005
"39371",537.4918,75.560234,91.9216
"39372",537.5051,74.564125,90.78675
"39373",537.51843,73.59731,89.65007
"39374",537.53174,72.6598,88.512474
"39375",537.54504,71.75647,87.37976
"39376",537.55835,70.889755,86.25543
"39377",537.57166,70.07919,85.16017
"39378",537.58496,69.34432,84.11527
"39379",537.59827,68.716866,83.15482
"39380",537.6116,68.22125,82.30661
"39381",537.6249,67.859924,81.577194
"39382",537.6382,67.61089,80.948784
"39383",537.6515,67.422905,80.373634
"39384",537.6648,67.26177,79.819466
"39385",537.6781,67.10307,79.262695
"39386",537.6914,66.9395,78.69609
"39387",537.7047,66.82231,78.17076
"39388",537.718,66.97856,77.91521
"39389",537.7313,68.00397,78.53369
"39390",537.7446,70.674904,80.82975
"39391",537.75793,75.40154,85.26498
"39392",537.77124,81.86893,91.58866
"39393",537.78455,89.181046,98.95918
"39394",537.79785,96.17822,106.24327
"39395",537.81116,101.73739,112.30801
"39396",537.82446,105.20912,116.45903
"39397",537.83777,106.67155,118.70924
"39398",537.8511,106.6569,119.52808
"39399",537.8644,105.63149,119.33571
"39400",537.8777,103.86389,118.369095
"39401",537.891,101.53231,116.783264
"39402",537.9043,98.78081,114.70464
"39403",537.9176,95.71679,112.22752
"39404",537.9309,92.43305,109.43494
"39405",537.9442,89.01991,106.41033
"39406",537.9575,85.61166,103.28395
"39407",537.9708,82.41093,100.25858
"39408",537.98413,79.64233,97.56532
"39409",537.99744,77.53536,95.44718
"39410",538.01074,76.25117,94.08597
"39411",538.02405,75.82391,93.541565
"39412",538.03735,76.14618,93.73333
"39413",538.05066,76.995804,94.462524
"39414",538.06396,78.07248,95.44532
"39415",538.0773,79.10033,96.41293
"39416",538.0906,79.85962,97.14411
"39417",538.1039,80.24048,97.520584
"39418",538.1172,80.22339,97.51101
"39419",538.1305,79.8645,97.1591
"39420",538.1438,79.24437,96.53474
"39421",538.1571,78.42405,95.6908
"39422",538.1704,77.454796,94.6723
"39423",538.1837,76.3708,93.508766
"39424",538.197,75.21843,92.24299
"39425",538.2103,74.03189,90.90703
"39426",538.22363,72.85512,89.543755
"39427",538.23694,71.72961,88.19497
"39428",538.25024,70.674904,86.88182
"39429",538.26355,69.70077,85.61627
"39430",538.27686,68.81941,84.41306
"39431",538.29016,68.04547,83.28973
"39432",538.30347,67.39117,82.26184
"39433",538.3168,66.8687,81.345345
"39434",538.3301,66.48051,80.5468
"39435",538.3434,66.211945,79.85575
"39436",538.3567,66.03128,79.24421
"39437",538.37,65.90433,78.68073
"39438",538.3833,65.81644,78.15235
"39439",538.3966,65.87259,77.76527
"39440",538.4099,66.4976,77.94879
"39441",538.4232,68.51179,79.54103
"39442",538.4365,72.61585,83.28609
"39443",538.4498,78.839096,89.27858
"39444",538.46313,86.45884,96.862045
"39445",538.47644,94.30808,104.913124
"39446",538.48975,101.1075,112.15967
"39447",538.50305,105.87808,117.58986
"39448",538.51636,108.36347,120.88394
"39449",538.52966,108.99336,122.40019
"39450",538.54297,108.35371,122.66658
"39451",538.5563,106.80339,122.00232
"39452",538.5696,104.549934,120.58647
"39453",538.5829,101.76181,118.56554
"39454",538.5962,98.59037,116.07416
"39455",538.6095,95.15526,113.21999
"39456",538.6228,91.53948,110.07782
"39457",538.6361,87.852905,106.751854
"39458",538.6494,84.26154,103.4059
"39459",538.6627,80.98268,100.26021
"39460",538.676,78.26292,97.57115
"39461",538.68933,76.33662,95.59057
"39462",538.70264,75.32586,94.46533
"39463",538.71594,75.18913,94.18254
"39464",538.72925,75.74578,94.58885
"39465",538.74255,76.7248,95.43493
"39466",538.75586,77.838104,96.445885
"39467",538.76917,78.82689,97.36711
"39468",538.7825,79.50805,98.01161
"39469",538.7958,79.79126,98.27945
"39470",538.8091,79.656975,98.13864
"39471",538.8224,79.13451,97.60545
"39472",538.8357,78.29221,96.736115
"39473",538.849,77.22041,95.61095
"39474",538.8623,76.00214,94.30581
"39475",538.8756,74.70817,92.88691
"39476",538.8889,73.39468,91.40805
"39477",538.9022,72.10315,89.91011
"39478",538.9155,70.86534,88.42552
"39479",538.92883,69.70565,86.98038
"39480",538.94214,68.648506,85.60153
"39481",538.95544,67.7232,84.32149
"39482",538.96875,66.951706,83.16634
"39483",538.98206,66.338905,82.14578
"39484",538.99536,65.87503,81.255
"39485",539.00867,65.550316,80.48888
"39486",539.022,65.3428,79.8298
"39487",539.0353,65.232925,79.261894
"39488",539.0486,65.20851,78.77601
"39489",539.0619,65.25002,78.355286
"39490",539.0752,65.3135,77.957825
"39491",539.0885,65.35256,77.53793
"39492",539.1018,65.32571,77.053345
"39493",539.1151,65.22316,76.492226
"39494",539.1284,65.07179,75.87908
"39495",539.1417,64.97658,75.31736
"39496",539.155,65.30862,75.17992
"39497",539.16833,66.915085,76.32728
"39498",539.18164,70.748146,79.751434
"39499",539.19495,77.13008,85.844246
"39500",539.20825,85.45785,94.08233
"39501",539.22156,94.49607,103.29111
"39502",539.23486,102.77745,112.02549
"39503",539.24817,108.998245,118.958084
"39504",539.2615,112.567635,123.43367
"39505",539.2748,113.80545,125.689224
"39506",539.2881,113.446556,126.38675
"39507",539.3014,112.02319,126.00859
"39508",539.3147,109.81125,124.79737
"39509",539.328,107.028,122.945724
"39510",539.3413,103.868774,120.63113
"39511",539.3546,100.50446,118.01271
"39512",539.3679,97.06447,115.21348
"39513",539.3812,93.644005,112.32628
"39514",539.39453,90.34074,109.44939
"39515",539.40784,87.274284,106.706085
"39516",539.42114,84.60822,104.26735
"39517",539.43445,82.52323,102.32636
"39518",539.44775,81.15846,101.04044
"39519",539.46106,80.55787,100.47605
"39520",539.47437,80.63111,100.56673
"39521",539.4877,81.17067,101.12601
"39522",539.501,81.90555,101.89747
"39523",539.5143,82.579384,102.63085
"39524",539.5276,83.001755,103.13383
"39525",539.5409,83.075,103.30087
"39526",539.5542,82.794235,103.1162
"39527",539.5675,82.20096,102.610245
"39528",539.5808,81.358665,101.83673
"39529",539.5941,80.32105,100.841576
"39530",539.6074,79.151596,99.68215
"39531",539.6207,77.90158,98.405624
"39532",539.63403,76.6247,97.06317
"39533",539.64734,75.372246,95.70524
"39534",539.66064,74.18326,94.371635
"39535",539.67395,73.08217,93.088776
"39536",539.68726,72.08118,91.871605
"39537",539.70056,71.19249,90.73546
"39538",539.71387,70.421,89.688736
"39539",539.7272,69.76669,88.735085
"39540",539.7405,69.22957,87.87817
"39541",539.7538,68.79744,87.10946
"39542",539.7671,68.45808,86.42001
"39543",539.7804,68.19684,85.79809
"39544",539.7937,68.01129,85.24369
"39545",539.807,67.90387,84.76162
"39546",539.8203,67.86969,84.349434
"39547",539.8336,67.90875,84.00942
"39548",539.8469,68.001526,83.72434
"39549",539.8602,68.1358,83.483665
"39550",539.87354,68.28474,83.26184
"39551",539.88684,68.42634,83.03734
"39552",539.90015,68.54841,82.79773
"39553",539.91345,68.646065,82.53752
"39554",539.92676,68.7071,82.243744
"39555",539.94006,68.731514,81.91525
"39556",539.95337,68.72175,81.553345
"39557",539.9667,68.665596,81.144745
"39558",539.98,68.57282,80.69777
"39559",539.9933,68.455635,80.22348
"39560",540.0066,68.333565,79.74065
"39561",540.0199,68.21637,79.25887
"39562",540.0332,68.12604,78.8003
"39563",540.0465,68.069885,78.373085
"39564",540.0598,68.04547,77.97585
"39565",540.0731,68.033264,77.590065
"39566",540.0864,68.0235,77.20634
"39567",540.09973,68.01129,76.81986
"39568",540.11304,68.00885,76.44277
"39569",540.12634,68.21149,76.27068
"39570",540.13965,69.35409,77.04489
"39571",540.15295,72.49134,79.84946
"39572",540.16626,78.20187,85.32535
"39573",540.17957,86.082855,93.15014
"39574",540.1929,95.00389,102.26126
"39575",540.2062,103.50744,111.23368
"39576",540.2195,110.15793,118.618774
"39577",540.2328,114.1326,123.53588
"39578",540.2461,115.60967,126.0796
"39579",540.2594,115.3753,126.95802
"39580",540.2727,114.07156,126.759766
"39581",540.286,112.042725,125.79566
"39582",540.2993,109.53048,124.28475
"39583",540.3126,106.75212,122.42922
"39584",540.3259,103.88342,120.39653
"39585",540.33923,101.04402,118.30348
"39586",540.35254,98.29008,116.20716
"39587",540.36584,95.63378,114.12243
"39588",540.37915,93.09468,112.071884
"39589",540.39246,90.70939,110.0958
"39590",540.40576,88.54383,108.264915
"39591",540.41907,86.68345,106.671524
"39592",540.4324,85.19661,105.39354
"39593",540.4457,84.10773,104.46705
"39594",540.459,83.39727,103.88496
"39595",540.4723,82.98222,103.57607
"39596",540.4856,82.760056,103.4471
"39597",540.4989,82.60868,103.38197
"39598",540.5122,82.4036,103.258415
"39599",540.5255,82.06424,102.99416
"39600",540.5388,81.54177,102.5362
"39601",540.5521,80.83864,101.88125
"39602",540.5654,79.991455,101.06027
"39603",540.57874,79.03929,100.10784
"39604",540.59204,78.01877,99.0573
"39605",540.60535,76.95186,97.928474
"39606",540.61865,75.85809,96.739456
"39607",540.63196,74.75456,95.50649
"39608",540.64526,73.67788,94.26589
"39609",540.65857,72.64759,93.03804
"39610",540.6719,71.692986,91.85367
"39611",540.6852,70.821396,90.72249
"39612",540.6985,70.05966,89.67392
"39613",540.7118,69.42245,88.72607
"39614",540.7251,68.909744,87.88281
"39615",540.7384,68.53132,87.157814
"39616",540.7517,68.279854,86.54795
"39617",540.765,68.12848,86.03032
"39618",540.7783,68.052795,85.58365
"39619",540.7916,68.03082,85.188324
"39620",540.80493,68.04059,84.82405
"39621",540.81824,68.07233,84.482056
"39622",540.83154,68.12604,84.163025
"39623",540.84485,68.19928,83.865204
"39624",540.85815,68.29206,83.58921
"39625",540.87146,68.39216,83.32343
"39626",540.88477,68.48249,83.05102
"39627",540.8981,68.55085,82.75945
"39628",540.9114,68.58991,82.44073
"39629",540.9247,68.60944,82.10369
"39630",540.938,68.61921,81.7575
"39631",540.9513,68.62165,81.40429
"39632",540.9646,68.611885,81.03895
"39633",540.9779,68.58503,80.65621
"39634",540.9912,68.52888,80.24334
"39635",541.0045,68.44831,79.8043
"39636",541.0178,68.36286,79.35786
"39637",541.0311,68.30427,78.9356
"39638",541.04443,68.28718,78.55302
"39639",541.05774,68.31403,78.213844
"39640",541.07104,68.37507,77.90969
"39641",541.08435,68.45319,77.624535
"39642",541.09766,68.541084,77.351585
"39643",541.11096,68.63386,77.086266
"39644",541.12427,68.74128,76.83849
"39645",541.1376,68.86336,76.608734
"39646",541.1509,69.00252,76.39987
"39647",541.1642,69.149,76.20268
"39648",541.1775,69.312584,76.02717
"39649",541.1908,69.678795,76.059395
"39650",541.2041,70.906845,76.964905
"39651",541.2174,73.94156,79.715454
"39652",541.2307,79.28588,84.87045
"39653",541.244,86.53208,92.09434
"39654",541.2573,94.59617,100.36255
"39655",541.2706,102.115814,108.338326
"39656",541.28394,107.77997,114.6936
"39657",541.29724,110.89281,118.67457
"39658",541.31055,111.676506,120.42367
"39659",541.32385,110.922104,120.65916
"39660",541.33716,109.26681,119.97018
"39661",541.35046,107.04509,118.66305
"39662",541.3638,104.4596,116.92272
"39663",541.3771,101.691,114.91849
"39664",541.3904,98.880905,112.78623
"39665",541.4037,96.12695,110.62231
"39666",541.417,93.49264,108.49196
"39667",541.4303,91.00969,106.43066
"39668",541.4436,88.72694,104.49196
"39669",541.4569,86.710304,102.74805
"39670",541.4702,85.033035,101.28047
"39671",541.4835,83.75372,100.15844
"39672",541.4968,82.896774,99.41879
"39673",541.51013,82.44022,99.052765
"39674",541.52344,82.31083,98.999626
"39675",541.53674,82.38651,99.14752
"39676",541.55005,82.547646,99.38323
"39677",541.56335,82.67948,99.59468
"39678",541.57666,82.684364,99.6833
"39679",541.58997,82.493935,99.57675
"39680",541.6033,82.09842,99.25917
"39681",541.6166,81.512474,98.7388
"39682",541.6299,80.78493,98.05852
"39683",541.6432,79.96704,97.26516
"39684",541.6565,79.10277,96.39986
"39685",541.6698,78.21652,95.48557
"39686",541.6831,77.32296,94.53628
"39687",541.6964,76.42939,93.55905
"39688",541.7097,75.55047,92.56855
"39689",541.723,74.703285,91.58232
"39690",541.7363,73.91226,90.62578
"39691",541.74963,73.199356,89.72263
"39692",541.76294,72.57191,88.88267
"39693",541.77625,72.02991,88.108536
"39694",541.78955,71.56359,87.39316
"39695",541.80286,71.165634,86.73157
"39696",541.81616,70.83116,86.12102
"39697",541.82947,70.56748,85.570816
"39698",541.8428,70.37217,85.080734
"39699",541.8561,70.24765,84.65534
"39700",541.8694,70.186615,84.28954
"39701",541.8827,70.169525,83.96578
"39702",541.896,70.18173,83.670784
"39703",541.9093,70.21591,83.39814
"39704",541.9226,70.26231,83.13878
"39705",541.9359,70.32578,82.89795
"39706",541.9492,70.41123,82.681076
"39707",541.9625,70.521095,82.49129
"39708",541.9758,70.63828,82.312256
"39709",541.98914,70.750595,82.13201
"39710",542.00244,70.84337,81.935745
"39711",542.01575,70.89952,81.70575
"39712",542.02905,70.923935,81.44577
"39713",542.04236,70.9337,81.171906
"39714",542.05566,70.941025,80.895905
"39715",542.069,70.95567,80.62746
"39716",542.0823,70.98009,80.36923
"39717",542.0956,71.01427,80.12154
"39718",542.1089,71.043564,79.870026
"39719",542.1222,71.05821,79.60478
"39720",542.1355,71.063095,79.33023
"39721",542.1488,71.06065,79.04851
"39722",542.1621,71.06065,78.76915
"39723",542.1754,71.05821,78.48735
"39724",542.1887,71.063095,78.2128
"39725",542.202,71.168076,78.0385
"39726",542.21533,71.800415,78.39484
"39727",542.22864,73.77066,80.10884
"39728",542.24194,77.7551,83.89861
"39729",542.25525,83.70977,89.783134
"39730",542.26855,90.83635,97.02564
"39731",542.28186,97.92386,104.45179
"39732",542.29517,103.710075,110.79813
"39733",542.3085,107.2868,115.11578
"39734",542.3218,108.541695,117.2234
"39735",542.3351,108.06073,117.63436
"39736",542.3484,106.53483,116.98536
"39737",542.3617,104.35706,115.63681
"39738",542.375,101.72518,113.76608
"39739",542.3883,98.78813,111.50794
"39740",542.4016,95.68261,108.98955
"39741",542.4149,92.52094,106.31796
"39742",542.4282,89.40566,103.59396
"39743",542.4415,86.431984,100.914215
"39744",542.45483,83.734184,98.41741
"39745",542.46814,81.47341,96.27333
"39746",542.48145,79.818115,94.66408
"39747",542.49475,78.88548,93.72576
"39748",542.50806,78.69993,93.50538
"39749",542.52136,79.17601,93.940834
"39750",542.53467,80.11841,94.85748
"39751",542.548,81.253685,95.99646
"39752",542.5613,82.33524,97.117195
"39753",542.5746,83.177536,98.03246
"39754",542.5879,83.66338,98.61761
"39755",542.6012,83.758606,98.82731
"39756",542.6145,83.49493,98.68108
"39757",542.6278,82.950485,98.24586
"39758",542.6411,82.21805,97.60562
"39759",542.6544,81.375755,96.83264
"39760",542.6677,80.482185,95.98206
"39761",542.681,79.58373,95.09868
"39762",542.69434,78.69993,94.201866
"39763",542.70764,77.84299,93.3043
"39764",542.72095,77.02022,92.41412
"39765",542.73425,76.23163,91.53242
"39766",542.74756,75.494316,90.677345
"39767",542.76086,74.82292,89.86515
"39768",542.7742,74.22476,89.10521
"39769",542.7875,73.704735,88.40471
"39770",542.8008,73.26528,87.76853
"39771",542.8141,72.89418,87.18697
"39772",542.8274,72.589,86.65974
"39773",542.8407,72.34486,86.184006
"39774",542.854,72.16174,85.76167
"39775",542.8673,72.03235,85.38733
"39776",542.8806,71.95422,85.06021
"39777",542.8939,71.922485,84.77704
"39778",542.9072,71.93469,84.53682
"39779",542.92053,71.990845,84.34093
"39780",542.93384,72.09338,84.19318
"39781",542.94714,72.232544,84.08525
"39782",542.96045,72.393684,84.00366
"39783",542.97375,72.55726,83.929535
"39784",542.98706,72.71107,83.85075
"39785",543.00037,72.84291,83.75482
"39786",543.0137,72.94545,83.633705
"39787",543.027,73.02846,83.49626
"39788",543.0403,73.1017,83.35165
"39789",543.0536,73.162735,83.19711
"39790",543.0669,73.216446,83.03716
"39791",543.0802,73.255516,82.86425
"39792",543.0935,73.27505,82.67302
"39793",543.1068,73.25796,82.44578
"39794",543.1201,73.20424,82.18137
"39795",543.1334,73.11879,81.88356
"39796",543.1467,73.00893,81.55866
"39797",543.16003,72.89418,81.22545
"39798",543.17334,72.87709,80.986305
"39799",543.18665,73.33364,81.22027
"39800",543.19995,74.949875,82.62818
"39801",543.21326,78.345924,85.86642
"39802",543.22656,83.55352,91.02232
"39803",543.23987,89.92325,97.5031
"39804",543.2532,96.375984,104.26594
"39805",543.2665,101.749596,110.1513
"39806",543.2798,105.17494,114.25632
"39807",543.2931,106.459145,116.32724
"39808",543.3064,106.02701,116.721954
"39809",543.3197,104.4889,115.99719
"39810",543.333,102.24521,114.51878
"39811",543.3463,99.491264,112.46001
"39812",543.3596,96.35645,109.934296
"39813",543.3729,92.95308,107.04206
"39814",543.3862,89.39834,103.892105
"39815",543.39954,85.824066,100.611534
"39816",543.41284,82.406044,97.37551
"39817",543.42615,79.37621,94.42087
"39818",543.43945,77.00313,92.02829
"39819",543.45276,75.526054,90.457565
"39820",543.46606,75.09392,89.88562
"39821",543.4794,75.701836,90.340225
"39822",543.4927,77.15694,91.66101
"39823",543.506,79.11986,93.53509
"39824",543.5193,81.19264,95.58037
"39825",543.5326,83.018845,97.44384
"39826",543.5459,84.349434,98.86877
"39827",543.5592,85.07942,99.73467
"39828",543.5725,85.23567,100.04965
"39829",543.5858,84.92073,99.89832
"39830",543.5991,84.27863,99.409996
"39831",543.6124,83.43389,98.69896
"39832",543.62573,82.47929,97.85166
"39833",543.63904,81.480736,96.93059
"39834",543.65234,80.479744,95.97587
"39835",543.66565,79.51049,95.02161
"39836",543.67896,78.58762,94.08344
"39837",543.69226,77.72579,93.177475
"39838",543.70557,76.93477,92.315384
"39839",543.7189,76.224304,91.50913
"39840",543.7322,75.596855,90.763695
"39841",543.7455,75.04997,90.079216
"39842",543.7588,74.581215,89.45577
"39843",543.7721,74.18326,88.88848
"39844",543.7854,73.83658,88.36003
"39845",543.7987,73.53872,87.86957
"39846",543.812,73.289696,87.41863
"39847",543.8253,73.09926,87.0185
"39848",543.8386,72.97963,86.68323
"39849",543.8519,72.94057,86.42478
"39850",543.86523,72.97719,86.2408
"39851",543.87854,73.077286,86.12144
"39852",543.89185,73.22133,86.04915
"39853",543.90515,73.38979,86.00578
"39854",543.91846,73.585106,85.99453
"39855",543.93176,73.8024,86.01136
"39856",543.94507,74.04898,86.06427
"39857",543.9584,74.31754,86.146866
"39858",543.9717,74.58366,86.235405
"39859",543.985,74.82292,86.30541
"39860",543.9983,74.9987,86.31941
"39861",544.0116,75.08171,86.24613
"39862",544.0249,75.04753,86.05826
"39863",544.0382,74.89372,85.74969
"39864",544.0515,74.63981,85.336205
"39865",544.0648,74.319984,84.84888
"39866",544.0781,74.06119,84.41258
"39867",544.09143,74.20035,84.36616
"39868",544.10474,75.335625,85.3202
"39869",544.11804,78.04562,87.88444
"39870",544.13135,82.45731,92.235054
"39871",544.14465,88.08972,97.94425
"39872",544.15796,94.01511,104.12244
"39873",544.17126,99.173874,109.71918
"39874",544.1846,102.70176,113.846245
"39875",544.1979,104.2765,116.13042
"39876",544.2112,104.14221,116.754776
"39877",544.2245,102.79942,116.16643
"39878",544.2378,100.646065,114.725555
"39879",544.2511,97.91165,112.63633
"39880",544.2644,94.74021,110.02463
"39881",544.2777,91.24895,106.993996
"39882",544.291,87.55993,103.65651
"39883",544.3043,83.82208,100.15491
"39884",544.3176,80.24292,96.69518
"39885",544.33093,77.100784,93.56064
"39886",544.34424,74.70084,91.0701
"39887",544.35754,73.31899,89.52265
"39888",544.37085,73.11391,89.10879
"39889",544.38416,74.056305,89.836
"39890",544.39746,75.90692,91.50088
"39891",544.41077,78.27512,93.74117
"39892",544.4241,80.72144,96.13359
"39893",544.4374,82.862595,98.29729
"39894",544.4507,84.43488,99.95903
"39895",544.464,85.333336,100.99607
"39896",544.4773,85.57748,101.406876
"39897",544.4906,85.28695,101.29064
"39898",544.5039,84.6009,100.769806
"39899",544.5172,83.6585,99.97118
"39900",544.5305,82.57694,99.00395
"39901",544.5438,81.45388,97.96142
"39902",544.5571,80.35279,96.90576
"39903",544.57043,79.30541,95.86941
"39904",544.58374,78.34104,94.88333
"39905",544.59705,77.471886,93.96233
"39906",544.61035,76.700386,93.11183
"39907",544.62366,76.02411,92.33244
"39908",544.63696,75.440605,91.624695
"39909",544.65027,74.93767,90.97928
"39910",544.6636,74.50553,90.38895
"39911",544.6769,74.13687,89.84859
"39912",544.6902,73.829254,89.35775
"39913",544.7035,73.58022,88.915886
"39914",544.7168,73.39712,88.532166
"39915",544.7301,73.272606,88.20132
"39916",544.7434,73.20424,87.92272
"39917",544.7567,73.18715,87.69327
"39918",544.77,73.22133,87.51455
"39919",544.7833,73.304344,87.385735
"39920",544.79663,73.43618,87.308334
"39921",544.80994,73.6144,87.28144
"39922",544.82324,73.83658,87.30407
"39923",544.83655,74.092926,87.36781
"39924",544.84985,74.36637,87.456665
"39925",544.86316,74.62028,87.53452
"39926",544.87646,74.82292,87.56905
"39927",544.8898,74.932785,87.517136
"39928",544.9031,74.91814,87.34414
"39929",544.9164,74.77165,87.03885
"39930",544.9297,74.527504,86.63132
"39931",544.943,74.30778,86.24058
"39932",544.9563,74.43717,86.19209
"39933",544.9696,75.45037,87.031456
"39934",544.9829,77.85275,89.291664
"39935",544.9962,81.76883,93.14064
"39936",545.0095,86.783554,98.21064
"39937",545.0228,92.07416,103.71323
"39938",545.03613,96.66895,108.68534
"39939",545.04944,99.76959,112.306885
"39940",545.06274,101.051346,114.206436
"39941",545.07605,100.68513,114.49807
"39942",545.08936,99.088425,113.547775
"39943",545.10266,96.63477,111.690636
"39944",545.11597,93.558556,109.134254
"39945",545.1293,90.01358,106.012985
"39946",545.1426,86.136566,102.4489
"39947",545.1559,82.08865,98.59275
"39948",545.1692,78.082245,94.65161
"39949",545.1825,74.39323,90.902664
"39950",545.1958,71.33166,87.665886
"39951",545.2091,69.19539,85.25873
"39952",545.2224,68.1944,83.92009
"39953",545.2357,68.41169,83.768456
"39954",545.249,69.749596,84.744225
"39955",545.2623,71.95422,86.628525
"39956",545.27563,74.63981,89.06268
"39957",545.28894,77.383995,91.639366
"39958",545.30225,79.80347,93.97709
"39959",545.31555,81.636986,95.80447
"39960",545.32886,82.75273,96.97137
"39961",545.34216,83.17021,97.47487
"39962",545.35547,83.018845,97.42257
"39963",545.3688,82.45731,96.955376
"39964",545.3821,81.63943,96.21428
"39965",545.3954,80.69215,95.31823
"39966",545.4087,79.708244,94.35596
"39967",545.422,78.751205,93.3898
"39968",545.4353,77.855194,92.454765
"39969",545.4486,77.03975,91.572296
"39970",545.4619,76.3122,90.75224
"39971",545.4752,75.66277,89.98757
"39972",545.4885,75.07439,89.26365
"39973",545.50183,74.53971,88.57505
"39974",545.51514,74.05875,87.923454
"39975",545.52844,73.636375,87.31542
"39976",545.54175,73.28481,86.765
"39977",545.55505,73.02602,86.29636
"39978",545.56836,72.86488,85.91729
"39979",545.58167,72.80629,85.63573
"39980",545.595,72.84047,85.44511
"39981",545.6083,72.96498,85.34589
"39982",545.6216,73.17494,85.336006
"39983",545.6349,73.45083,85.39861
"39984",545.6482,73.7731,85.51623
"39985",545.6615,74.1149,85.66344
"39986",545.6748,74.4567,85.821335
"39987",545.6881,74.76677,85.958176
"39988",545.7014,75.02312,86.05099
"39989",545.7147,75.18913,86.06148
"39990",545.728,75.25262,85.974625
"39991",545.74133,75.20622,85.77988
"39992",545.75464,75.07439,85.49824
"39993",545.76794,74.92302,85.19295
"39994",545.78125,74.92546,85.036736
"39995",545.79456,75.42596,85.378654
"39996",545.80786,76.895706,86.70547
"39997",545.82117,79.68627,89.399025
"39998",545.8345,83.76837,93.47132
"39999",545.8478,88.656136,98.476845
"40000",545.8611,93.54879,103.64
"40001",545.8744,97.601585,108.116196
"40002",545.8877,100.19928,111.26394
"40003",545.901,101.170975,112.86686
"40004",545.9143,100.7364,113.09387
"40005",545.9276,99.27886,112.28435
"40006",545.9409,97.110855,110.7188
"40007",545.9542,94.43015,108.572815
"40008",545.9675,91.35882,105.95242
"40009",545.98083,88.0116,102.96017
"40010",545.99414,84.51789,99.71683
"40011",546.00745,81.077896,96.418015
"40012",546.02075,77.95773,93.331535
"40013",546.03406,75.45037,90.76035
"40014",546.04736,73.82193,88.98974
"40015",546.06067,73.23598,88.210724
"40016",546.074,73.69497,88.45834
"40017",546.0873,75.01579,89.58214
"40018",546.1006,76.88594,91.29653
"40019",546.1139,78.94408,93.257355
"40020",546.1272,80.86061,95.14089
"40021",546.1405,82.391396,96.69857
"40022",546.1538,83.39727,97.779175
"40023",546.1671,83.8587,98.34677
"40024",546.1804,83.84161,98.450264
"40025",546.1937,83.45098,98.17968
"40026",546.20703,82.80888,97.645424
"40027",546.22034,82.037384,96.9617
"40028",546.23364,81.22438,96.212364
"40029",546.24695,80.428474,95.45472
"40030",546.26025,79.676506,94.71614
"40031",546.27356,78.97337,94.0029
"40032",546.28687,78.30686,93.304306
"40033",546.3002,77.68185,92.62638
"40034",546.3135,77.11299,91.985085
"40035",546.3268,76.60517,91.38705
"40036",546.3401,76.16327,90.83906
"40037",546.3534,75.78241,90.3383
"40038",546.3667,75.44549,89.86958
"40039",546.38,75.142746,89.424515
"40040",546.3933,74.879074,89.009056
"40041",546.4066,74.67155,88.6415
"40042",546.4199,74.53971,88.343155
"40043",546.4332,74.49821,88.13102
"40044",546.44653,74.54215,88.00304
"40045",546.45984,74.652016,87.942345
"40046",546.47314,74.78386,87.90707
"40047",546.48645,74.89372,87.85393
"40048",546.49976,74.95232,87.75295
"40049",546.51306,75.020676,87.663574
"40050",546.52637,75.403984,87.89128
"40051",546.5397,76.69306,89.036736
"40052",546.553,79.45678,91.69711
"40053",546.5663,83.82941,96.052765
"40054",546.5796,89.3666,101.709625
"40055",546.5929,95.24071,107.87644
"40056",546.6062,100.48249,113.5945
"40057",546.6195,104.28382,118.035904
"40058",546.6328,106.32731,120.83826
"40059",546.6461,106.830246,122.163925
"40060",546.6594,106.21011,122.38224
"40061",546.6727,104.78432,121.77551
"40062",546.68604,102.77501,120.54071
"40063",546.69934,100.370186,118.84761
"40064",546.71265,97.74807,116.86206
"40065",546.72595,95.04051,114.70913
"40066",546.73926,92.3476,112.48624
"40067",546.75256,89.75235,110.27685
"40068",546.76587,87.36462,108.19388
"40069",546.7792,85.32845,106.38786
"40070",546.7925,83.80011,105.02603
"40071",546.8058,82.896774,104.24145
"40072",546.8191,82.650185,104.08538
"40073",546.8324,82.95537,104.47338
"40074",546.8457,83.60235,105.212715
"40075",546.859,84.34455,106.06749
"40076",546.8723,84.972,106.8307
"40077",546.8856,85.347984,107.36206
"40078",546.8989,85.401695,107.58289
"40079",546.91223,85.14778,107.49778
"40080",546.92554,84.630196,107.14106
"40081",546.93884,83.90997,106.56553
"40082",546.95215,83.04814,105.82588
"40083",546.96545,82.11307,104.98606
"40084",546.97876,81.15602,104.09505
"40085",546.99207,80.216064,103.191216
"40086",547.0054,79.32494,102.30685
"40087",547.0187,78.504616,101.46542
"40088",547.032,77.76242,100.6765
"40089",547.0453,77.09346,99.937614
"40090",547.0586,76.48554,99.23887
"40091",547.0719,75.928894,98.572395
"40092",547.0852,75.421074,97.937355
"40093",547.0985,74.96452,97.337715
"40094",547.1118,74.56901,96.78484
"40095",547.1251,74.25651,96.30263
"40096",547.1384,74.04654,95.91318
"40097",547.15173,73.94888,95.62948
"40098",547.16504,73.951324,95.442825
"40099",547.17834,74.022125,95.32461
"40100",547.19165,74.11246,95.228134
"40101",547.20496,74.161285,95.09298
"40102",547.21826,74.1564,94.90564
"40103",547.23157,74.18326,94.749886
"40104",547.2449,74.50553,94.89039
"40105",547.2582,75.58953,95.80269
"40106",547.2715,77.86252,97.93785
"40107",547.2848,81.43679,101.44533
"40108",547.2981,86.03647,106.089905
"40109",547.3114,91.090256,111.33233
"40110",547.3247,95.87549,116.464134
"40111",547.338,99.757385,120.84214
"40112",547.3513,102.421,124.12317
"40113",547.3646,103.89319,126.29602
"40114",547.3779,104.34974,127.49924
"40115",547.39124,103.96155,127.87198
"40116",547.40454,102.9044,127.56363
"40117",547.41785,101.35653,126.73152
"40118",547.43115,99.493706,125.53609
"40119",547.44446,97.46731,124.118866
"40120",547.45776,95.40185,122.59926
"40121",547.47107,93.36324,121.04196
"40122",547.4844,91.41741,119.51373
"40123",547.4977,89.64248,118.0956
"40124",547.511,88.13855,116.893
"40125",547.5243,86.98375,115.99252
"40126",547.5376,86.202484,115.4295
"40127",547.5509,85.76059,115.18143
"40128",547.5642,85.538414,115.13927
"40129",547.5775,85.38705,115.16097
"40130",547.5908,85.17464,115.116905
"40131",547.6041,84.840164,114.94414
"40132",547.61743,84.36408,114.61931
"40133",547.63074,83.76349,114.15509
"40134",547.64404,83.06035,113.56956
"40135",547.65735,82.27665,112.88149
"40136",547.67065,81.41482,112.090805
"40137",547.68396,80.47486,111.19506
"40138",547.69727,79.45922,110.19426
"40139",547.7106,78.38987,109.10801
"40140",547.7239,77.30587,107.973694
"40141",547.7372,76.25117,106.8348
"40142",547.7505,75.25994,105.726425
"40143",547.7638,74.354164,104.67252
"40144",547.7771,73.55825,103.70018
"40145",547.7904,72.87465,102.81528
"40146",547.8037,72.31312,102.03108
"40147",547.817,71.8761,101.35385
"40148",547.8303,71.56359,100.787476
"40149",547.8436,71.35851,100.318756
"40150",547.85693,71.236435,99.926636
"40151",547.87024,71.15831,99.574646
"40152",547.88354,71.08263,99.22266
"40153",547.89685,70.98009,98.841446
"40154",547.91016,70.83116,98.410645
"40155",547.92346,70.643166,97.93613
"40156",547.93677,70.421,97.421555
"40157",547.9501,70.18417,96.88538
"40158",547.9634,69.98154,96.376
"40159",547.9767,70.01572,96.0971
"40160",547.99,70.657814,96.427185
"40161",548.0033,72.33997,97.8174
"40162",548.0166,75.267265,100.50531
"40163",548.0299,79.31762,104.40777
"40164",548.0432,84.051575,109.1204
"40165",548.0565,88.81972,114.01515
"40166",548.0698,92.94087,118.41193
"40167",548.0831,95.975586,121.85104
"40168",548.09644,97.82864,124.20334
"40169",548.10974,98.614784,125.54662
"40170",548.12305,98.53666,126.05021
"40171",548.13635,97.813995,125.906815
"40172",548.14966,96.66895,125.31846
"40173",548.16296,95.28466,124.45507
"40174",548.1763,93.77829,123.426346
"40175",548.1896,92.18646,122.26509
"40176",548.2029,90.50675,120.96621
"40177",548.2162,88.73914,119.52694
"40178",548.2295,86.92027,117.98117
"40179",548.2428,85.1429,116.42005
"40180",548.2561,83.543755,114.98162
"40181",548.2694,82.24002,113.78863
"40182",548.2827,81.30251,112.92112
"40183",548.296,80.71168,112.37099
"40184",548.3093,80.39185,112.0734
"40185",548.32263,80.218506,111.9123
"40186",548.33594,80.06714,111.76776
"40187",548.34924,79.83276,111.535484
"40188",548.36255,79.447014,111.14451
"40189",548.37585,78.87816,110.55837
"40190",548.38916,78.1384,109.783554
"40191",548.40247,77.25948,108.846466
"40192",548.4158,76.29511,107.796455
"40193",548.4291,75.299,106.68457
"40194",548.4424,74.32731,105.56597
"40195",548.4557,73.428856,104.49025
"40196",548.469,72.637825,103.49387
"40197",548.4823,71.973755,102.59973
"40198",548.4956,71.43908,101.81424
"40199",548.5089,71.01671,101.124344
"40200",548.5222,70.677345,100.50426
"40201",548.5355,70.38926,99.924835
"40202",548.5488,70.12802,99.36326
"40203",548.56213,69.88632,98.81306
"40204",548.57544,69.67635,98.28703
"40205",548.58875,69.505455,97.79352
"40206",548.60205,69.383385,97.34349
"40207",548.61536,69.31014,96.93848
"40208",548.62866,69.278404,96.57268
"40209",548.64197,69.263756,96.22298
"40210",548.6553,69.25399,95.8777
"40211",548.6686,69.2491,95.536995
"40212",548.6819,69.25643,95.20836
"40213",548.6952,69.27596,94.89215
"40214",548.7085,69.31014,94.5912
"40215",548.7218,69.35653,94.30353
"40216",548.7351,69.400475,94.01486
"40217",548.7484,69.42733,93.71048
"40218",548.7617,69.41024,93.36299
"40219",548.775,69.337,92.95882
"40220",548.7883,69.19295,92.481544
"40221",548.80164,69.02693,91.977806
"40222",548.81494,69.02205,91.63001
"40223",548.82825,69.60311,91.86801
"40224",548.84155,71.27306,93.21306
"40225",548.85486,74.3444,96.01167
"40226",548.86816,78.765854,100.25639
"40227",548.8815,84.10773,105.5597
"40228",548.8948,89.66201,111.24235
"40229",548.9081,94.645,116.527275
"40230",548.9214,98.48539,120.825325
"40231",548.9347,100.97566,123.893265
"40232",548.948,102.20859,125.78168
"40233",548.9613,102.416115,126.68323
"40234",548.9746,101.88388,126.8515
"40235",548.9879,100.89754,126.54903
"40236",549.0012,99.681694,125.98623
"40237",549.0145,98.37064,125.29023
"40238",549.02783,96.97658,124.470245
"40239",549.04114,95.4287,123.45289
"40240",549.05444,93.64645,122.15278
"40241",549.06775,91.62249,120.555275
"40242",549.08105,89.4374,118.73339
"40243",549.09436,87.259636,116.85055
"40244",549.10767,85.28207,115.09984
"40245",549.121,83.6585,113.641335
"40246",549.1343,82.45487,112.55203
"40247",549.1476,81.62966,111.803535
"40248",549.1609,81.07301,111.29781
"40249",549.1742,80.66285,110.92118
"40250",549.1875,80.274666,110.55371
"40251",549.2008,79.82544,110.11307
"40252",549.2141,79.25414,109.536316
"40253",549.2274,78.54856,108.80743
"40254",549.2407,77.72091,107.93442
"40255",549.254,76.80293,106.94522
"40256",549.26733,75.841,105.883385
"40257",549.28064,74.88396,104.79637
"40258",549.29395,73.97818,103.73072
"40259",549.30725,73.14809,102.71245
"40260",549.32056,72.410774,101.76102
"40261",549.33386,71.77356,100.88664
"40262",549.34717,71.236435,100.09244
"40263",549.3605,70.7921,99.37424
"40264",549.3738,70.43076,98.72516
"40265",549.3871,70.14511,98.140465
"40266",549.4004,69.91806,97.605446
"40267",549.4137,69.73739,97.10971
"40268",549.427,69.59823,96.64984
"40269",549.4403,69.49813,96.224686
"40270",549.4536,69.43954,95.837906
"40271",549.4669,69.41512,95.483475
"40272",549.4802,69.420006,95.15758
"40273",549.4935,69.437096,94.84404
"40274",549.50684,69.44442,94.52127
"40275",549.52014,69.43221,94.1792
"40276",549.53345,69.400475,93.817215
"40277",549.54675,69.35409,93.43959
"40278",549.56006,69.30282,93.05563
"40279",549.57336,69.25643,92.67496
"40280",549.5867,69.21736,92.30015
"40281",549.6,69.18074,91.92657
"40282",549.6133,69.153885,91.56161
"40283",549.6266,69.153885,91.222664
"40284",549.6399,69.19783,90.927666
"40285",549.6532,69.29061,90.68288
"40286",549.6665,69.42977,90.487366
"40287",549.6798,69.593346,90.32062
"40288",549.6931,69.749596,90.15166
"40289",549.7064,69.85458,89.93632
"40290",549.7197,69.88632,89.65101
"40291",549.73303,69.85947,89.3081
"40292",549.74634,69.89365,89.02538
"40293",549.75964,70.31846,89.13437
"40294",549.77295,71.62951,90.14287
"40295",549.78625,74.26139,92.51317
"40296",549.79956,78.34348,96.41593
"40297",549.81287,83.612114,101.6328
"40298",549.8262,89.461815,107.595375
"40299",549.8395,95.09422,113.52347
"40300",549.8528,99.78424,118.68518
"40301",549.8661,103.1461,122.6653
"40302",549.8794,105.14809,125.390594
"40303",549.8927,105.970856,126.99924
"40304",549.906,105.89761,127.73758
"40305",549.9193,105.21889,127.86815
"40306",549.9326,104.18616,127.623505
"40307",549.9459,102.96788,127.16104
"40308",549.9592,101.61776,126.52867
"40309",549.97253,100.09186,125.67832
"40310",549.98584,98.285194,124.49953
"40311",549.99915,96.10742,122.893166
"40312",550.01245,93.558556,120.84766
"40313",550.02576,90.775314,118.48812
"40314",550.03906,87.992065,116.0416
"40315",550.05237,85.47738,113.77667
"40316",550.0657,83.441216,111.911674
"40317",550.079,81.96658,110.54458
"40318",550.0923,80.99489,109.63434
"40319",550.1056,80.37232,109.04286
"40320",550.1189,79.920654,108.60283
"40321",550.1322,79.48608,108.16577
"40322",550.1455,78.96361,107.62724
"40323",550.1588,78.28977,106.92102
"40324",550.1721,77.45724,106.03504
"40325",550.1854,76.47822,104.97656
"40326",550.1987,75.39422,103.78251
"40327",550.21204,74.26139,102.50575
"40328",550.22534,73.145645,101.21068
"40329",550.23865,72.10315,99.95399
"40330",550.25195,71.17784,98.781906
"40331",550.26526,70.3917,97.72008
"40332",550.27856,69.73983,96.767944
"40333",550.2919,69.20027,95.90775
"40334",550.3052,68.73884,95.108826
"40335",550.3185,68.32868,94.346756
"40336",550.3318,67.96246,93.61581
"40337",550.3451,67.63775,92.91492
"40338",550.3584,67.36187,92.252716
"40339",550.3717,67.14946,91.64536
"40340",550.385,67.00542,91.09974
"40341",550.3983,66.91753,90.60577
"40342",550.4116,66.86626,90.14567
"40343",550.4249,66.8394,89.70838
"40344",550.43823,66.82231,89.28002
"40345",550.45154,66.795456,88.84136
"40346",550.46484,66.7686,88.40186
"40347",550.47815,66.74174,87.96152
"40348",550.49146,66.71244,87.5179
"40349",550.50476,66.6807,87.07092
"40350",550.51807,66.64652,86.620514
"40351",550.5314,66.6099,86.166595
"40352",550.5447,66.580605,85.71886
"40353",550.558,66.5684,85.28729
"40354",550.5713,66.580605,84.87976
"40355",550.5846,66.62699,84.50679
"40356",550.5979,66.71244,84.17433
"40357",550.6112,66.8394,83.886055
"40358",550.6245,67.0103,83.64568
"40359",550.6378,67.23003,83.45948
"40360",550.6511,67.4815,83.31189
"40361",550.6644,67.74273,83.181915
"40362",550.67773,67.97467,83.030815
"40363",550.69104,68.13336,82.81371
"40364",550.70435,68.1944,82.503914
"40365",550.71765,68.19928,82.13987
"40366",550.73096,68.37751,81.949326
"40367",550.74426,69.21736,82.42597
"40368",550.75757,71.29504,84.16669
"40369",550.7709,74.969406,87.56903
"40370",550.7842,80.18921,92.63163
"40371",550.7975,86.47593,98.92426
"40372",550.8108,93.033646,105.68435
"40373",550.8241,98.97368,112.031685
"40374",550.8374,103.62951,117.28044
"40375",550.8507,106.76677,121.15613
"40376",550.864,108.48066,123.70648
"40377",550.8773,109.00801,125.123856
"40378",550.8906,108.65888,125.68123
"40379",550.90393,107.74334,125.66128
"40380",550.91724,106.50797,125.29289
"40381",550.93054,105.08949,124.70279
"40382",550.94385,103.50744,123.904785
"40383",550.95715,101.695885,122.827835
"40384",550.97046,99.54009,121.35004
"40385",550.98376,96.97902,119.39959
"40386",550.9971,94.066376,117.01754
"40387",551.0104,90.99992,114.39066
"40388",551.0237,88.06531,111.7998
"40389",551.037,85.53353,109.520065
"40390",551.0503,83.597466,107.75692
"40391",551.0636,82.28397,106.55585
"40392",551.0769,81.48806,105.83131
"40393",551.0902,81.01198,105.401726
"40394",551.1035,80.6482,105.06957
"40395",551.1168,80.235596,104.67722
"40396",551.1301,79.67162,104.12061
"40397",551.14343,78.907455,103.34618
"40398",551.15674,77.95285,102.35744
"40399",551.17004,76.8542,101.19482
"40400",551.18335,75.6701,99.91241
"40401",551.19666,74.46891,98.57591
"40402",551.20996,73.306786,97.240944
"40403",551.22327,72.22766,95.95266
"40404",551.2366,71.27062,94.75273
"40405",551.2499,70.44785,93.657166
"40406",551.2632,69.76181,92.672615
"40407",551.2765,69.207596,91.798454
"40408",551.2898,68.7657,91.019295
"40409",551.3031,68.419014,90.32153
"40410",551.3164,68.155334,89.695946
"40411",551.3297,67.97223,89.14269
"40412",551.343,67.859924,88.65452
"40413",551.3563,67.81354,88.22875
"40414",551.3696,67.81598,87.850365
"40415",551.38293,67.85016,87.50379
"40416",551.39624,67.88922,87.16317
"40417",551.40955,67.91852,86.814
"40418",551.42285,67.9234,86.44134
"40419",551.43616,67.90875,86.04929
"40420",551.44946,67.877014,85.6397
"40421",551.46277,67.83795,85.221794
"40422",551.4761,67.78424,84.78802
"40423",551.4894,67.73052,84.352554
"40424",551.5027,67.66949,83.9081
"40425",551.516,67.60357,83.45685
"40426",551.5293,67.54742,83.013306
"40427",551.5426,67.53765,82.614395
"40428",551.5559,67.58648,82.27377
"40429",551.5692,67.70855,82.00792
"40430",551.5825,67.89899,81.81425
"40431",551.5958,68.14313,81.68023
"40432",551.60913,68.40925,81.57582
"40433",551.62244,68.665596,81.469955
"40434",551.63574,68.88777,81.33793
"40435",551.64905,69.04402,81.14692
"40436",551.66235,69.10506,80.86558
"40437",551.67566,69.1075,80.52755
"40438",551.68896,69.25155,80.33121
"40439",551.7023,69.9913,80.73507
"40440",551.7156,71.92737,82.35836
"40441",551.7289,75.494316,85.673035
"40442",551.7422,80.70435,90.74227
"40443",551.7555,87.13756,97.19749
"40444",551.7688,94.00778,104.29076
"40445",551.7821,100.39948,111.1202
"40446",551.7954,105.582664,116.940865
"40447",551.8087,109.23262,121.390274
"40448",551.822,111.38842,124.459595
"40449",551.8353,112.26246,126.31452
"40450",551.84863,112.14282,127.20309
"40451",551.86194,111.32983,127.394554
"40452",551.87524,110.08713,127.13091
"40453",551.88855,108.58564,126.56965
"40454",551.90186,106.88396,125.76127
"40455",551.91516,104.935684,124.65312
"40456",551.92847,102.63828,123.134964
"40457",551.9418,99.90143,121.10556
"40458",551.9551,96.73731,118.56336
"40459",551.9684,93.30709,115.65618
"40460",551.9817,89.89395,112.65889
"40461",551.995,86.820175,109.8943
"40462",552.0083,84.34699,107.63425
"40463",552.0216,82.58427,106.00736
"40464",552.0349,81.480736,104.98459
"40465",552.0482,80.850845,104.40097
"40466",552.0615,80.462654,104.03937
"40467",552.0748,80.1062,103.69737
"40468",552.08813,79.639885,103.234375
"40469",552.10144,78.98314,102.566376
"40470",552.11475,78.12131,101.67277
"40471",552.12805,77.07637,100.56912
"40472",552.14136,75.90936,99.31075
"40473",552.15466,74.686195,97.959755
"40474",552.16797,73.480125,96.58763
"40475",552.1813,72.35218,95.25594
"40476",552.1946,71.35363,94.0184
"40477",552.2079,70.50889,92.90346
"40478",552.2212,69.82773,91.9257
"40479",552.2345,69.28817,91.06825
"40480",552.2478,68.87068,90.31602
"40481",552.2611,68.55329,89.65083
"40482",552.2744,68.32136,89.06119
"40483",552.2877,68.16022,88.53509
"40484",552.301,68.065,88.06988
"40485",552.31433,68.0235,87.6554
"40486",552.32764,68.01373,87.27137
"40487",552.34094,68.01129,86.894356
"40488",552.35425,67.999084,86.5075
"40489",552.36755,67.97223,86.10561
"40490",552.38086,67.93805,85.695564
"40491",552.39417,67.913635,85.29421
"40492",552.4075,67.90631,84.90919
"40493",552.4208,67.913635,84.53858
"40494",552.4341,67.93561,84.18285
"40495",552.4474,67.95514,83.82537
"40496",552.4607,67.96979,83.463615
"40497",552.474,67.98688,83.10476
"40498",552.4873,68.02838,82.77085
"40499",552.5006,68.11383,82.482185
"40500",552.5139,68.24567,82.24258
"40501",552.5272,68.4239,82.05348
"40502",552.5405,68.628975,81.896805
"40503",552.55383,68.83406,81.746544
"40504",552.56714,69.00984,81.57339
"40505",552.58044,69.13435,81.354454
"40506",552.59375,69.18318,81.06373
"40507",552.60706,69.14412,80.68664
"40508",552.62036,69.0367,80.23997
"40509",552.63367,68.94881,79.80947
"40510",552.647,69.170975,79.68629
"40511",552.6603,70.240326,80.41723
"40512",552.6736,72.75014,82.62205
"40513",552.6869,77.00313,86.64848
"40514",552.7002,82.847946,92.39965
"40515",552.7135,89.69863,99.33933
"40516",552.7268,96.656746,106.60053
"40517",552.7401,102.784775,113.249084
"40518",552.7534,107.42596,118.602295
"40519",552.7667,110.380104,122.413506
"40520",552.78,111.781494,124.764275
"40521",552.79333,111.91333,125.88928
"40522",552.80664,111.12474,126.097984
"40523",552.81995,109.76242,125.70831
"40524",552.83325,108.104675,124.980644
"40525",552.84656,106.305336,124.05958
"40526",552.85986,104.37171,122.948
"40527",552.87317,102.21591,121.55382
"40528",552.8865,99.71343,119.74559
"40529",552.8998,96.8008,117.449
"40530",552.9131,93.54635,114.719574
"40531",552.9264,90.179596,111.776146
"40532",552.9397,87.00572,108.92039
"40533",552.953,84.315254,106.448845
"40534",552.9663,82.28886,104.5573
"40535",552.9796,80.94362,103.283585
"40536",552.9929,80.14038,102.509834
"40537",553.0062,79.67162,102.04546
"40538",553.01953,79.32494,101.68852
"40539",553.03284,78.93675,101.279236
"40540",553.04614,78.40696,100.71622
"40541",553.05945,77.69161,99.95109
"40542",553.07275,76.80049,98.98783
"40543",553.08606,75.76532,97.85268
"40544",553.09937,74.64225,96.597275
"40545",553.1127,73.48745,95.27505
"40546",553.126,72.35462,93.938705
"40547",553.1393,71.292595,92.63776
"40548",553.1526,70.330666,91.40372
"40549",553.1659,69.49325,90.26413
"40550",553.1792,68.79988,89.242424
"40551",553.1925,68.25788,88.35042
"40552",553.2058,67.86969,87.59528
"40553",553.2191,67.6231,86.96962
"40554",553.2324,67.50347,86.46321
"40555",553.2457,67.476616,86.04584
"40556",553.25903,67.508354,85.68622
"40557",553.27234,67.56451,85.352005
"40558",553.28564,67.62554,85.02443
"40559",553.29895,67.68902,84.7012
"40560",553.31226,67.7525,84.37997
"40561",553.32556,67.81354,84.058266
"40562",553.33887,67.862366,83.726265
"40563",553.3522,67.88922,83.37382
"40564",553.3655,67.89166,82.997795
"40565",553.3788,67.88434,82.61208
"40566",553.3921,67.88434,82.23347
"40567",553.4054,67.90143,81.87194
"40568",553.4187,67.93561,81.52804
"40569",553.432,67.97223,81.187645
"40570",553.4453,67.98688,80.82642
"40571",553.4586,67.97467,80.438805
"40572",553.4719,67.947815,80.036156
"40573",553.4852,67.92828,79.63999
"40574",553.49854,67.930725,79.26519
"40575",553.51184,67.96979,78.927086
"40576",553.52515,68.04059,78.62194
"40577",553.53845,68.14801,78.35563
"40578",553.55176,68.299385,78.13663
"40579",553.56506,68.51667,77.988266
"40580",553.57837,68.80965,77.922386
"40581",553.5917,69.170975,77.93401
"40582",553.605,69.5787,78.00333
"40583",553.6183,69.993744,78.092705
"40584",553.6316,70.37461,78.16087
"40585",553.6449,70.68955,78.17502
"40586",553.6582,70.90929,78.1038
"40587",553.6715,71.01915,77.92958
"40588",553.6848,71.01427,77.64404
"40589",553.6981,70.93858,77.28755
"40590",553.7114,70.98009,77.04588
"40591",553.72473,71.62707,77.410995
"40592",553.73804,73.54604,79.06831
"40593",553.75134,77.222855,82.54344
"40594",553.76465,82.68192,87.915726
"40595",553.77795,89.444725,94.76234
"40596",553.79126,96.65919,102.27195
"40597",553.80457,103.30724,109.440605
"40598",553.8179,108.578316,115.44003
"40599",553.8312,112.12329,119.87808
"40600",553.8445,114.02518,122.78382
"40601",553.8578,114.547646,124.369576
"40602",553.8711,114.01297,124.91451
"40603",553.8844,112.77516,124.73961
"40604",553.8977,111.14671,124.13538
"40605",553.911,109.35226,123.31426
"40606",553.9243,107.47723,122.35649
"40607",553.9376,105.497215,121.235146
"40608",553.9509,103.30236,119.83708
"40609",553.96423,100.78279,118.045715
"40610",553.97754,97.92142,115.8338
"40611",553.99084,94.83299,113.30542
"40612",554.00415,91.74456,110.68052
"40613",554.01746,88.92958,108.23256
"40614",554.03076,86.61265,106.19467
"40615",554.04407,84.89632,104.68498
"40616",554.0574,83.75128,103.692955
"40617",554.0707,83.03349,103.09239
"40618",554.084,82.55253,102.70622
"40619",554.0973,82.127716,102.361176
"40620",554.1106,81.62722,101.92717
"40621",554.1239,80.96803,101.31883
"40622",554.1372,80.11841,100.49946
"40623",554.1505,79.093,99.47775
"40624",554.1638,77.95285,98.30926
"40625",554.1771,76.76387,97.056305
"40626",554.1904,75.58709,95.7784
"40627",554.20374,74.476234,94.52964
"40628",554.21704,73.460594,93.341385
"40629",554.23035,72.56214,92.23858
"40630",554.24365,71.783325,91.227325
"40631",554.25696,71.131454,90.31868
"40632",554.27026,70.61143,89.521515
"40633",554.28357,70.21103,88.82772
"40634",554.2969,69.91562,88.2264
"40635",554.3102,69.712975,87.70862
"40636",554.3235,69.576256,87.25043
"40637",554.3368,69.49569,86.84412
"40638",554.3501,69.4493,86.46947
"40639",554.3634,69.42489,86.11534
"40640",554.3767,69.41268,85.77266
"40641",554.39,69.400475,85.429596
"40642",554.4033,69.37118,85.06906
"40643",554.4166,69.31747,84.6832
"40644",554.42993,69.24422,84.276115
"40645",554.44324,69.16121,83.85699
"40646",554.45654,69.0782,83.435265
"40647",554.46985,69.00496,83.02071
"40648",554.48315,68.94881,82.620964
"40649",554.49646,68.91707,82.24387
"40650",554.50977,68.90486,81.88532
"40651",554.5231,68.909744,81.54348
"40652",554.5364,68.93904,81.226204
"40653",554.5497,68.99519,80.9367
"40654",554.563,69.07576,80.67336
"40655",554.5763,69.170975,80.42719
"40656",554.5896,69.27352,80.19133
"40657",554.6029,69.37606,79.958664
"40658",554.6162,69.47616,79.72676
"40659",554.6295,69.5787,79.50043
"40660",554.6428,69.68612,79.28218
"40661",554.6561,69.81064,79.08439
"40662",554.66943,69.944916,78.900246
"40663",554.68274,70.084076,78.72518
"40664",554.69604,70.21835,78.54958
"40665",554.70935,70.347755,78.37331
"40666",554.72266,70.47715,78.201065
"40667",554.73596,70.61631,78.04263
"40668",554.74927,70.77989,77.91297
"40669",554.7626,70.98009,77.82504
"40670",554.7759,71.21446,77.77754
"40671",554.7892,71.47326,77.761795
"40672",554.8025,71.727165,77.74924
"40673",554.8158,71.94934,77.71289
"40674",554.8291,72.11047,77.62244
"40675",554.8424,72.19104,77.45645
"40676",554.8557,72.2301,77.25148
"40677",554.869,72.46204,77.240616
"40678",554.8823,73.411766,77.95477
"40679",554.8956,75.67986,80.01699
"40680",554.90894,79.60815,83.81027
"40681",554.92224,85.06966,89.25954
"40682",554.93555,91.50286,95.851166
"40683",554.94885,98.038605,102.746376
"40684",554.96216,103.75891,109.03039
"40685",554.97546,108.04852,114.06247
"40686",554.9888,110.77318,117.66364
"40687",555.0021,112.113525,119.96565
"40688",555.0154,112.365,121.22067
"40689",555.0287,111.84009,121.70717
"40690",555.042,110.836655,121.69874
"40691",555.0553,109.591515,121.417244
"40692",555.0686,108.24872,120.99918
"40693",555.0819,106.85222,120.48546
"40694",555.0952,105.36538,119.83775
"40695",555.1085,103.690544,118.95558
"40696",555.1218,101.730064,117.73543
"40697",555.13513,99.41314,116.097565
"40698",555.14844,96.75929,114.05038
"40699",555.16174,93.9028,111.71761
"40700",555.17505,91.053635,109.30291
"40701",555.18835,88.446175,107.04088
"40702",555.20166,86.26841,105.12706
"40703",555.21497,84.60334,103.657875
"40704",555.2283,83.407036,102.60542
"40705",555.2416,82.55497,101.859825
"40706",555.2549,81.89334,101.27804
"40707",555.2682,81.27322,100.71708
"40708",555.2815,80.59937,100.08302
"40709",555.2948,79.815674,99.318054
"40710",555.3081,78.91234,98.40896
"40711",555.3214,77.90646,97.369095
"40712",555.3347,76.84688,96.24409
"40713",555.348,75.78485,95.08353
"40714",555.3613,74.75456,93.92152
"40715",555.37463,73.78775,92.79079
"40716",555.38794,72.903946,91.71285
"40717",555.40125,72.112915,90.70007
"40718",555.41455,71.41955,89.76024
"40719",555.42786,70.83116,88.90372
"40720",555.44116,70.34043,88.126465
"40721",555.45447,69.944916,87.429085
"40722",555.4678,69.63241,86.80235
"40723",555.4811,69.39071,86.236664
"40724",555.4944,69.21004,85.72445
"40725",555.5077,69.08064,85.257866
"40726",555.521,68.99031,84.8263
"40727",555.5343,68.926834,84.41877
"40728",555.5476,68.88289,84.028786
"40729",555.5609,68.84627,83.64475
"40730",555.5742,68.81209,83.26202
"40731",555.5875,68.773026,82.87333
"40732",555.6008,68.731514,82.48097
"40733",555.61414,68.68757,82.084885
"40734",555.62744,68.646065,81.689865
"40735",555.64075,68.60944,81.29843
"40736",555.65405,68.58503,80.91806
"40737",555.66736,68.57282,80.54913
"40738",555.68066,68.56306,80.18227
"40739",555.694,68.558174,79.81998
"40740",555.7073,68.55329,79.457535
"40741",555.7206,68.560616,79.10715
"40742",555.7339,68.575264,78.76431
"40743",555.7472,68.59968,78.4317
"40744",555.7605,68.63386,78.10962
"40745",555.7738,68.680244,77.80081
"40746",555.7871,68.73884,77.50566
"40747",555.8004,68.81697,77.23188
"40748",555.8137,68.91951,76.98495
"40749",555.827,69.05867,76.77784
"40750",555.84033,69.23201,76.60926
"40751",555.85364,69.42733,76.46808
"40752",555.86694,69.62264,76.33299
"40753",555.88025,69.81308,76.199135
"40754",555.89355,69.98886,76.05657
"40755",555.90686,70.152435,75.907295
"40756",555.92017,70.3209,75.76802
"40757",555.9335,70.51133,75.655975
"40758",555.9468,70.73594,75.58406
"40759",555.9601,70.98497,75.54359
"40760",555.9734,71.24864,75.52554
"40761",555.9867,71.49035,75.493774
"40762",556,71.690544,75.42804
"40763",556.0133,71.83215,75.30998
"40764",556.0266,71.95178,75.17436
"40765",556.0399,72.254524,75.2256
"40766",556.0532,73.22377,75.952805
"40767",556.0665,75.41131,77.92859
"40768",556.07983,79.10521,81.479095
"40769",556.09314,84.11749,86.46342
"40770",556.10645,89.86954,92.34413
"40771",556.11975,95.52636,98.30938
"40772",556.13306,100.24567,103.513885
"40773",556.14636,103.49767,107.39857
"40774",556.15967,105.25796,109.89316
"40775",556.173,105.80728,111.2318
"40776",556.1863,105.480125,111.71112
"40777",556.1996,104.59632,111.623566
"40778",556.2129,103.448845,111.24472
"40779",556.2262,102.25498,110.78363
"40780",556.2395,101.13191,110.35603
"40781",556.2528,100.0943,109.97879
"40782",556.2661,99.07622,109.58865
"40783",556.2794,97.95804,109.066605
"40784",556.2927,96.63233,108.302086
"40785",556.306,95.045395,107.23491
"40786",556.31934,93.24849,105.90817
"40787",556.33264,91.37347,104.44717
"40788",556.34595,89.59609,103.025215
"40789",556.35925,88.07507,101.80408
"40790",556.37256,86.90074,100.882095
"40791",556.38586,86.06088,100.25788
"40792",556.3992,85.47982,99.86622
"40793",556.4125,85.03792,99.59556
"40794",556.4258,84.62043,99.3355
"40795",556.4391,84.139465,98.998924
"40796",556.4524,83.54864,98.53745
"40797",556.4657,82.83086,97.930565
"40798",556.479,81.99588,97.18405
"40799",556.4923,81.08278,96.33332
"40800",556.5056,80.1355,95.419876
"40801",556.5189,79.200424,94.48904
"40802",556.5322,78.314186,93.57781
"40803",556.54553,77.4963,92.707245
"40804",556.55884,76.75899,91.89169
"40805",556.57214,76.112,91.143425
"40806",556.58545,75.543144,90.45307
"40807",556.59875,75.054855,89.82551
"40808",556.61206,74.64225,89.25837
"40809",556.62537,74.29557,88.74426
"40810",556.6387,74.0148,88.28523
"40811",556.652,73.795074,87.87847
"40812",556.6653,73.62661,87.516106
"40813",556.6786,73.5021,87.19243
"40814",556.6919,73.402,86.889275
"40815",556.7052,73.31167,86.59276
"40816",556.7185,73.22621,86.298294
"40817",556.7318,73.1432,86.00361
"40818",556.7451,73.06752,85.71365
"40819",556.7584,72.99672,85.426216
"40820",556.7717,72.935684,85.14633
"40821",556.78503,72.87953,84.86942
"40822",556.79834,72.82094,84.58832
"40823",556.81165,72.75502,84.29806
"40824",556.82495,72.67689,83.99352
"40825",556.83826,72.586555,83.67435
"40826",556.85156,72.4889,83.34502
"40827",556.86487,72.396126,83.01752
"40828",556.8782,72.31556,82.699326
"40829",556.8915,72.25941,82.40303
"40830",556.9048,72.22766,82.129395
"40831",556.9181,72.215454,81.8743
"40832",556.9314,72.22034,81.63591
"40833",556.9447,72.23987,81.41232
"40834",556.958,72.28138,81.211334
"40835",556.9713,72.342415,81.03116
"40836",556.9846,72.430305,80.879745
"40837",556.9979,72.535286,80.74817
"40838",557.0112,72.64515,80.624756
"40839",557.02454,72.74769,80.49745
"40840",557.03784,72.84047,80.3636
"40841",557.05115,72.918594,80.217995
"40842",557.06445,72.99428,80.07239
"40843",557.07776,73.077286,79.93647
"40844",557.09106,73.179825,79.82268
"40845",557.1044,73.31167,79.741394
"40846",557.1177,73.46792,79.68864
"40847",557.131,73.63882,79.65541
"40848",557.1443,73.797516,79.615326
"40849",557.1576,73.917145,79.54113
"40850",557.1709,73.98062,79.41452
"40851",557.1842,73.99771,79.24351
"40852",557.1975,74.092926,79.15115
"40853",557.2108,74.6569,79.53053
"40854",557.2241,76.24628,80.95294
"40855",557.2374,79.256584,83.84595
"40856",557.25073,83.65118,88.21731
"40857",557.26404,88.97841,93.65864
"40858",557.27734,94.49119,99.451996
"40859",557.29065,99.335014,104.74867
"40860",557.30396,102.84825,108.86613
"40861",557.31726,104.850235,111.58212
"40862",557.33057,105.52651,113.03497
"40863",557.3439,105.19203,113.4982
"40864",557.3572,104.15442,113.24783
"40865",557.3705,102.71885,112.56709
"40866",557.3838,101.15633,111.71454
"40867",557.3971,99.63775,110.85709
"40868",557.4104,98.22415,110.057175
"40869",557.4237,96.886246,109.28877
"40870",557.437,95.536125,108.46635
"40871",557.4503,94.12009,107.53581
"40872",557.4636,92.65522,106.5122
"40873",557.4769,91.22453,105.47699
"40874",557.49023,89.94034,104.543564
"40875",557.50354,88.89296,103.80682
"40876",557.51685,88.111694,103.30347
"40877",557.53015,87.56725,103.01251
"40878",557.54346,87.1693,102.85103
"40879",557.55676,86.82994,102.73571
"40880",557.57007,86.48081,102.60001
"40881",557.5834,86.06821,102.38993
"40882",557.5967,85.54818,102.05953
"40883",557.61,84.90852,101.593254
"40884",557.6233,84.14679,100.98491
"40885",557.6366,83.28008,100.24779
"40886",557.6499,82.3328,99.40301
"40887",557.6632,81.34402,98.48712
"40888",557.6765,80.365,97.5501
"40889",557.6898,79.43481,96.63132
"40890",557.7031,78.58518,95.76403
"40891",557.71643,77.82834,94.962975
"40892",557.72974,77.16914,94.235916
"40893",557.74304,76.59052,93.56883
"40894",557.75635,76.0827,92.95447
"40895",557.76965,75.63592,92.38527
"40896",557.78296,75.25262,91.86559
"40897",557.79626,74.932785,91.39741
"40898",557.8096,74.686195,90.99247
"40899",557.8229,74.50309,90.64331
"40900",557.8362,74.36881,90.33726
"40901",557.8495,74.25651,90.04898
"40902",557.8628,74.15396,89.76695
"40903",557.8761,74.04898,89.47929
"40904",557.8894,73.92935,89.17369
"40905",557.9027,73.79996,88.85459
"40906",557.916,73.66323,88.52412
"40907",557.9293,73.52163,88.184494
"40908",557.9426,73.37759,87.838005
"40909",557.95593,73.23842,87.49189
"40910",557.96924,73.1017,87.143875
"40911",557.98254,72.9601,86.786705
"40912",557.99585,72.816055,86.42267
"40913",558.00916,72.672005,86.05412
"40914",558.02246,72.532845,85.68596
"40915",558.03577,72.40345,85.32321
"40916",558.0491,72.30091,84.98328
"40917",558.0624,72.22766,84.66943
"40918",558.0757,72.17639,84.375275
"40919",558.089,72.147095,84.10149
"40920",558.1023,72.13489,83.84387
"40921",558.1156,72.13977,83.60297
"40922",558.1289,72.15686,83.37442
"40923",558.1422,72.198364,83.17082
"40924",558.1555,72.26429,82.99295
"40925",558.1688,72.3473,82.83421
"40926",558.1821,72.43763,82.685394
"40927",558.19543,72.52064,82.532074
"40928",558.20874,72.601204,82.37891
"40929",558.22205,72.68177,82.22826
"40930",558.23535,72.77455,82.09235
"40931",558.24866,72.87465,81.96665
"40932",558.26196,72.97719,81.84653
"40933",558.27527,73.05287,81.70275
"40934",558.2886,73.0724,81.50519
"40935",558.3019,73.06996,81.28626
"40936",558.3152,73.31411,81.31385
"40937",558.3285,74.373695,82.164505
"40938",558.3418,76.8127,84.42769
"40939",558.3551,80.82155,88.33694
"40940",558.3684,86.09018,93.63124
"40941",558.3817,91.932556,99.66393
"40942",558.395,97.43557,105.53984
"40943",558.4083,101.74471,110.393845
"40944",558.42163,104.444954,113.773605
"40945",558.43494,105.59731,115.689865
"40946",558.44824,105.497215,116.38968
"40947",558.46155,104.43519,116.124435
"40948",558.47485,102.7042,115.15704
"40949",558.48816,100.57038,113.73273
"40950",558.50146,98.25834,112.06351
"40951",558.5148,95.92676,110.3025
"40952",558.5281,93.66598,108.53943
"40953",558.5414,91.54925,106.84976
"40954",558.5547,89.65713,105.31856
"40955",558.568,88.079956,104.043175
"40956",558.5813,86.890976,103.10669
"40957",558.5946,86.12436,102.55541
"40958",558.6079,85.73373,102.35616
"40959",558.6212,85.61654,102.41815
"40960",558.6345,85.63851,102.61564
"40961",558.6478,85.67269,102.82602
"40962",558.66113,85.62386,102.95446
"40963",558.67444,85.435875,102.942215
"40964",558.68774,85.0721,102.74831
"40965",558.70105,84.51789,102.3526
"40966",558.71436,83.78302,101.75891
"40967",558.72766,82.89433,100.98844
"40968",558.74097,81.900665,100.08522
"40969",558.7543,80.85329,99.09724
"40970",558.7676,79.80347,98.07408
"40971",558.7809,78.79271,97.05718
"40972",558.7942,77.84787,96.074615
"40973",558.8075,76.98604,95.14553
"40974",558.8208,76.209656,94.27496
"40975",558.8341,75.52117,93.46803
"40976",558.8474,74.90593,92.71283
"40977",558.8607,74.36149,92.0092
"40978",558.874,73.89517,91.366684
"40979",558.8873,73.50454,90.78528
"40980",558.90063,73.2018,90.27956
"40981",558.91394,72.989395,89.85471
"40982",558.92725,72.86244,89.50868
"40983",558.94055,72.798965,89.22216
"40984",558.95386,72.77699,88.97516
"40985",558.96716,72.77699,88.74944
"40986",558.98047,72.78676,88.53349
"40987",558.9938,72.798965,88.32029
"40988",559.0071,72.80141,88.0977
"40989",559.0204,72.779434,87.85078
"40990",559.0337,72.72083,87.566536
"40991",559.047,72.60853,87.22676
"40992",559.0603,72.44007,86.82732
"40993",559.0736,72.232544,86.383545
"40994",559.0869,72.01526,85.92352
"40995",559.1002,71.81262,85.47136
"40996",559.1135,71.6466,85.049484
"40997",559.12683,71.52209,84.663925
"40998",559.14014,71.43908,84.31598
"40999",559.15344,71.37072,83.98009
"41000",559.16675,71.309685,83.64938
"41001",559.18005,71.24132,83.30945
"41002",559.19336,71.1754,82.96982
"41003",559.20667,71.12169,82.640335
"41004",559.22,71.09972,82.34091
"41005",559.2333,71.11925,82.082306
"41006",559.2466,71.19493,81.88046
"41007",559.2599,71.31457,81.724945
"41008",559.2732,71.465935,81.60489
"41009",559.2865,71.63683,81.509094
"41010",559.2998,71.81018,81.4211
"41011",559.3131,71.95911,81.31409
"41012",559.3264,72.061646,81.165344
"41013",559.3397,72.09338,80.949005
"41014",559.353,72.06409,80.67262
"41015",559.36633,72.14221,80.50275
"41016",559.37964,72.85512,80.97009
"41017",559.39294,74.90593,82.79763
"41018",559.40625,78.73167,86.46418
"41019",559.41956,84.16876,91.86164
"41020",559.43286,90.55802,98.38117
"41021",559.44617,96.9131,105.06619
"41022",559.4595,102.19882,110.88045
"41023",559.4728,105.7145,115.08984
"41024",559.4861,107.36492,117.54384
"41025",559.4994,107.4699,118.503975
"41026",559.5127,106.390785,118.283295
"41027",559.526,104.410774,117.128
"41028",559.5393,101.79111,115.271164
"41029",559.5526,98.78813,112.94916
"41030",559.5659,95.59716,110.345314
"41031",559.5792,92.37934,107.61491
"41032",559.5925,89.28359,104.90601
"41033",559.60583,86.47593,102.388466
"41034",559.61914,84.14923,100.26414
"41035",559.63245,82.47929,98.723854
"41036",559.64575,81.57839,97.90044
"41037",559.65906,81.42214,97.79351
"41038",559.67236,81.84451,98.26032
"41039",559.68567,82.581825,99.055275
"41040",559.699,83.36553,99.91966
"41041",559.7123,83.96124,100.620544
"41042",559.7256,84.23956,101.02265
"41043",559.7389,84.15167,101.067245
"41044",559.7522,83.70489,100.7502
"41045",559.7655,82.930954,100.09204
"41046",559.7788,81.88846,99.141136
"41047",559.7921,80.65064,97.96233
"41048",559.8054,79.30297,96.634995
"41049",559.8187,77.91623,95.22647
"41050",559.83203,76.54902,93.79414
"41051",559.84534,75.245285,92.38257
"41052",559.85864,74.02945,91.01815
"41053",559.87195,72.91615,89.71828
"41054",559.88525,71.91516,88.49592
"41055",559.89856,71.05333,87.38144
"41056",559.91187,70.347755,86.396286
"41057",559.9252,69.822845,85.56974
"41058",559.9385,69.48348,84.91234
"41059",559.9518,69.32723,84.427444
"41060",559.9651,69.32723,84.09392
"41061",559.9784,69.4493,83.88246
"41062",559.9917,69.64217,83.74562
"41063",560.005,69.86435,83.64411
"41064",560.0183,70.07675,83.53977
"41065",560.0316,70.26231,83.41522
"41066",560.0449,70.40879,83.2574
"41067",560.0582,70.51377,83.06265
"41068",560.07153,70.572365,82.8248
"41069",560.08484,70.591896,82.54971
"41070",560.09814,70.56504,82.22885
"41071",560.11145,70.50645,81.87541
"41072",560.12476,70.42832,81.50061
"41073",560.13806,70.345314,81.118484
"41074",560.15137,70.27451,80.74597
"41075",560.1647,70.21835,80.38589
"41076",560.178,70.169525,80.03138
"41077",560.1913,70.12314,79.67779
"41078",560.2046,70.07187,79.31786
"41079",560.2179,70.00595,78.94169
"41080",560.2312,69.94003,78.56345
"41081",560.2445,69.89365,78.20269
"41082",560.2578,69.89609,77.889305
"41083",560.2711,69.95712,77.63459
"41084",560.2844,70.09628,77.45991
"41085",560.2977,70.29893,77.35306
"41086",560.31104,70.54307,77.29404
"41087",560.32434,70.77257,77.228004
"41088",560.33765,70.94835,77.11543
"41089",560.35095,71.03624,76.920456
"41090",560.36426,71.0338,76.63789
"41091",560.37756,71.07042,76.39432
"41092",560.39087,71.58068,76.625534
"41093",560.4042,73.3312,78.112946
"41094",560.4175,76.98848,81.56183
"41095",560.4308,82.61845,87.09769
"41096",560.4441,89.57168,94.132744
"41097",560.4574,96.75685,101.617035
"41098",560.4707,102.93858,108.32242
"41099",560.484,107.17204,113.272705
"41100",560.4973,109.1667,116.11649
"41101",560.5106,109.2839,117.14515
"41102",560.5239,108.07538,116.85175
"41103",560.53723,105.94888,115.602615
"41104",560.55054,103.15831,113.62294
"41105",560.56384,99.92584,111.11417
"41106",560.57715,96.446785,108.25779
"41107",560.59045,92.89693,105.22189
"41108",560.60376,89.444725,102.17272
"41109",560.61707,86.26841,99.29156
"41110",560.6304,83.57549,96.794525
"41111",560.6437,81.56863,94.89939
"41112",560.657,80.40162,93.7814
"41113",560.6703,80.12085,93.51318
"41114",560.6836,80.62623,94.02234
"41115",560.6969,81.67605,95.09173
"41116",560.7102,82.950485,96.41854
"41117",560.7235,84.14679,97.70705
"41118",560.7368,85.033035,98.72288
"41119",560.7501,85.4847,99.331825
"41120",560.7634,85.47982,99.49834
"41121",560.77673,85.07698,99.26674
"41122",560.79004,84.3592,98.70761
"41123",560.80334,83.4168,97.901436
"41124",560.81665,82.32792,96.91933
"41125",560.82996,81.15358,95.81773
"41126",560.84326,79.94263,94.64283
"41127",560.85657,78.751205,93.449615
"41128",560.8699,77.62325,92.28264
"41129",560.8832,76.60273,91.18784
"41130",560.8965,75.70428,90.18323
"41131",560.9098,74.932785,89.2775
"41132",560.9231,74.26627,88.45264
"41133",560.9364,73.6852,87.69239
"41134",560.9497,73.17494,86.984795
"41135",560.963,72.73548,86.332054
"41136",560.9763,72.38636,85.75592
"41137",560.9896,72.14221,85.27385
"41138",561.0029,71.99817,84.88425
"41139",561.01624,71.94934,84.58536
"41140",561.02954,71.973755,84.358185
"41141",561.04285,72.05676,84.19037
"41142",561.05615,72.183716,84.06909
"41143",561.06946,72.35462,83.99574
"41144",561.08276,72.55482,83.957016
"41145",561.09607,72.7599,83.92944
"41146",561.1094,72.938126,83.88142
"41147",561.1227,73.06508,83.78769
"41148",561.136,73.126114,83.63201
"41149",561.1493,73.13588,83.42697
"41150",561.1626,73.109024,83.185616
"41151",561.1759,73.06264,82.92389
"41152",561.1892,73.0016,82.646065
"41153",561.2025,72.921036,82.3468
"41154",561.2158,72.813614,82.018166
"41155",561.2291,72.69642,81.6764
"41156",561.24243,72.57923,81.33098
"41157",561.25574,72.464485,80.98433
"41158",561.26904,72.33753,80.62189
"41159",561.28235,72.19348,80.23839
"41160",561.29565,72.11536,79.916306
"41161",561.30896,72.55726,80.11182
"41162",561.32227,74.37614,81.698105
"41163",561.3356,78.32639,85.47262
"41164",561.3489,84.4593,91.55322
"41165",561.3622,92.06683,99.30011
"41166",561.3755,99.97711,107.58748
"41167",561.3888,106.879074,115.11372
"41168",561.4021,111.73998,120.814606
"41169",561.4154,114.29374,124.36024
"41170",561.4287,114.95537,126.093544
"41171",561.442,114.30106,126.53159
"41172",561.4553,112.706795,126.00923
"41173",561.4686,110.433815,124.75834
"41174",561.48193,107.716484,122.992065
"41175",561.49524,104.76723,120.90895
"41176",561.50854,101.75937,118.675064
"41177",561.52185,98.812546,116.40822
"41178",561.53516,96.009766,114.19333
"41179",561.54846,93.44137,112.12524
"41180",561.56177,91.20012,110.30403
"41181",561.5751,89.38125,108.83517
"41182",561.5884,88.06531,107.81239
"41183",561.6017,87.274284,107.27341
"41184",561.615,86.95201,107.17845
"41185",561.6283,86.97154,107.41523
"41186",561.6416,87.15709,107.818634
"41187",561.6549,87.31823,108.20343
"41188",561.6682,87.308464,108.42236
"41189",561.6815,87.0399,108.38219
"41190",561.6948,86.46372,108.026
"41191",561.7081,85.59457,107.35883
"41192",561.72144,84.47883,106.41792
"41193",561.73474,83.18242,105.261475
"41194",561.74805,81.76395,103.94245
"41195",561.76135,80.2942,102.527824
"41196",561.77466,78.836655,101.079475
"41197",561.78796,77.46212,99.66859
"41198",561.8013,76.21698,98.34414
"41199",561.8146,75.123215,97.13216
"41200",561.8279,74.17349,96.03004
"41201",561.8412,73.35073,95.0252
"41202",561.8545,72.62806,94.09474
"41203",561.8678,71.993286,93.2296
"41204",561.8811,71.45373,92.439835
"41205",561.8944,71.00694,91.72598
"41206",561.9077,70.657814,91.095825
"41207",561.921,70.39658,90.54265
"41208",561.9343,70.20126,90.04722
"41209",561.94763,70.05478,89.59452
"41210",561.96094,69.959564,89.188515
"41211",561.97424,69.9205,88.835686
"41212",561.98755,69.94003,88.54023
"41213",562.00085,70.01816,88.30398
"41214",562.01416,70.132904,88.10679
"41215",562.02747,70.2501,87.915634
"41216",562.0408,70.330666,87.69151
"41217",562.0541,70.35752,87.4162
"41218",562.0674,70.33311,87.090454
"41219",562.0807,70.26719,86.72244
"41220",562.094,70.186615,86.337715
"41221",562.1073,70.08896,85.93339
"41222",562.1206,69.94736,85.48206
"41223",562.1339,69.74227,84.96283
"41224",562.1472,69.505455,84.40546
"41225",562.1605,69.56893,84.140976
"41226",562.1738,70.67002,84.91609
"41227",562.18713,73.60708,87.561584
"41228",562.20044,78.643776,92.398506
"41229",562.21375,85.34554,99.05789
"41230",562.22705,92.77486,106.65425
"41231",562.24036,99.74517,114.02378
"41232",562.25366,105.17006,120.065704
"41233",562.26697,108.55634,124.238556
"41234",562.2803,110.082245,126.656845
"41235",562.2936,110.204315,127.71899
"41236",562.3069,109.28634,127.744896
"41237",562.3202,107.60906,126.98282
"41238",562.3335,105.44839,125.68493
"41239",562.3468,103.05089,124.08269
"41240",562.3601,100.61433,122.36647
"41241",562.3734,98.24368,120.64002
"41242",562.3867,95.94873,118.915184
"41243",562.4,93.70016,117.16501
"41244",562.4133,91.48577,115.37875
"41245",562.42664,89.36172,113.61363
"41246",562.43994,87.43786,111.98233
"41247",562.45325,85.8436,110.6205
"41248",562.46655,84.66926,109.62877
"41249",562.47986,83.92706,109.032486
"41250",562.49316,83.529106,108.75725
"41251",562.5065,83.32403,108.66245
"41252",562.5198,83.15312,108.59542
"41253",562.5331,82.896774,108.43761
"41254",562.5464,82.47929,108.11064
"41255",562.5597,81.864044,107.572876
"41256",562.573,81.05592,106.823006
"41257",562.5863,80.08667,105.88675
"41258",562.5996,78.98558,104.78837
"41259",562.6129,77.77951,103.5506
"41260",562.6262,76.507515,102.20921
"41261",562.6395,75.228195,100.820755
"41262",562.65283,73.99771,99.441154
"41263",562.66614,72.867325,98.1232
"41264",562.67944,71.871216,96.9042
"41265",562.69275,71.02159,95.80055
"41266",562.70605,70.30869,94.80708
"41267",562.71936,69.71053,93.90607
"41268",562.73267,69.21248,93.086464
"41269",562.746,68.80965,92.34652
"41270",562.7593,68.50202,91.68919
"41271",562.7726,68.28474,91.112595
"41272",562.7859,68.138245,90.6
"41273",562.7992,68.04059,90.13166
"41274",562.8125,67.964905,89.68224
"41275",562.8258,67.90143,89.24267
"41276",562.8391,67.8526,88.81576
"41277",562.8524,67.842834,88.426384
"41278",562.8657,67.89166,88.0953
"41279",562.879,67.9942,87.81945
"41280",562.89233,68.12848,87.578545
"41281",562.90564,68.262764,87.34184
"41282",562.91895,68.3653,87.07759
"41283",562.93225,68.4239,86.7726
"41284",562.94556,68.44831,86.43526
"41285",562.95886,68.45808,86.08403
"41286",562.97217,68.46052,85.725784
"41287",562.9855,68.438545,85.3432
"41288",562.9988,68.4239,84.967255
"41289",563.0121,68.65827,84.839874
"41290",563.0254,69.749596,85.57677
"41291",563.0387,72.376595,87.88344
"41292",563.052,76.86397,92.13258
"41293",563.0653,82.94072,98.111336
"41294",563.0786,89.85977,105.122284
"41295",563.0919,96.58106,112.151695
"41296",563.1052,102.101166,118.18996
"41297",563.1185,105.85855,122.638
"41298",563.13184,107.862976,125.4505
"41299",563.14514,108.436714,126.89496
"41300",563.15845,107.90204,127.24893
"41301",563.17175,106.54215,126.76099
"41302",563.18506,104.64271,125.69099
"41303",563.19836,102.47715,124.29552
"41304",563.2117,100.25056,122.77133
"41305",563.225,98.07034,121.223946
"41306",563.2383,95.94385,119.66215
"41307",563.2516,93.84177,118.05831
"41308",563.2649,91.76166,116.41076
"41309",563.2782,89.76456,114.78121
"41310",563.2915,87.953,113.2748
"41311",563.3048,86.44419,112.01453
"41312",563.3181,85.30404,111.07575
"41313",563.3314,84.51545,110.45291
"41314",563.3447,83.983215,110.06178
"41315",563.35803,83.577934,109.780975
"41316",563.37134,83.1873,109.50215
"41317",563.38464,82.720985,109.13544
"41318",563.39795,82.127716,108.6272
"41319",563.41125,81.38308,107.94905
"41320",563.42456,80.49439,107.103584
"41321",563.43787,79.47875,106.10339
"41322",563.4512,78.3679,104.97625
"41323",563.4645,77.19112,103.74847
"41324",563.4778,75.98749,102.45706
"41325",563.4911,74.80095,101.145134
"41326",563.5044,73.670555,99.85227
"41327",563.5177,72.64271,98.62663
"41328",563.531,71.7467,97.5007
"41329",563.5443,70.98985,96.48595
"41330",563.5576,70.36973,95.58426
"41331",563.5709,69.857025,94.77061
"41332",563.5842,69.42977,94.02638
"41333",563.59753,69.0782,93.34449
"41334",563.61084,68.80476,92.729744
"41335",563.62415,68.60212,92.177246
"41336",563.63745,68.46784,91.68678
"41337",563.65076,68.38972,91.248276
"41338",563.66406,68.33845,90.83418
"41339",563.67737,68.2945,90.42581
"41340",563.6907,68.25788,90.02339
"41341",563.704,68.2359,89.63447
"41342",563.7173,68.23102,89.261955
"41343",563.7306,68.253,88.91615
"41344",563.7439,68.2945,88.59056
"41345",563.7572,68.353096,88.283356
"41346",563.7705,68.421455,87.98775
"41347",563.7838,68.49714,87.7016
"41348",563.7971,68.58747,87.432465
"41349",563.8104,68.69489,87.18324
"41350",563.8237,68.80965,86.94471
"41351",563.83704,68.89998,86.68534
"41352",563.85034,68.926834,86.36532
"41353",563.86365,68.85359,85.94604
"41354",563.87695,68.77547,85.519585
"41355",563.89026,69.12215,85.515495
"41356",563.90356,70.63096,86.68437
"41357",563.9169,73.917145,89.67777
"41358",563.9302,79.08812,94.65866
"41359",563.9435,85.680016,101.22206
"41360",563.9568,92.81392,108.53346
"41361",563.9701,99.3814,115.50138
"41362",563.9834,104.47181,121.19746
"41363",563.9967,107.736015,125.22641
"41364",564.01,109.3254,127.68255
"41365",564.0233,109.56954,128.84311
"41366",564.0366,108.80049,128.99811
"41367",564.0499,107.36248,128.46011
"41368",564.06323,105.55581,127.50852
"41369",564.07654,103.6173,126.36864
"41370",564.08984,101.66903,125.1584
"41371",564.10315,99.71587,123.8824
"41372",564.11646,97.69924,122.48189
"41373",564.12976,95.57763,120.913376
"41374",564.14307,93.37057,119.193115
"41375",564.1564,91.18303,117.42341
"41376",564.1697,89.163956,115.75381
"41377",564.183,87.447624,114.32385
"41378",564.1963,86.099945,113.20891
"41379",564.2096,85.10628,112.40586
"41380",564.2229,84.37873,111.83788
"41381",564.2362,83.79523,111.39121
"41382",564.2495,83.245895,110.96048
"41383",564.2628,82.64286,110.45888
"41384",564.2761,81.92264,109.82124
"41385",564.2894,81.058365,109.01705
"41386",564.30273,80.05737,108.04913
"41387",564.31604,78.93919,106.93275
"41388",564.32935,77.75021,105.71062
"41389",564.34265,76.53193,104.42203
"41390",564.35596,75.335625,103.11735
"41391",564.36926,74.20279,101.83875
"41392",564.38257,73.1725,100.627304
"41393",564.3959,72.2765,99.517944
"41394",564.4092,71.52209,98.52217
"41395",564.4225,70.89708,97.63223
"41396",564.4358,70.37705,96.82774
"41397",564.4491,69.93759,96.08756
"41398",564.4624,69.556725,95.39224
"41399",564.4757,69.2198,94.728966
"41400",564.489,68.92439,94.09667
"41401",564.5023,68.66804,93.4942
"41402",564.5156,68.45808,92.930115
"41403",564.52893,68.29694,92.408295
"41404",564.54224,68.17975,91.92538
"41405",564.55554,68.09918,91.475426
"41406",564.56885,68.04547,91.04981
"41407",564.58215,68.00397,90.63473
"41408",564.59546,67.96246,90.218346
"41409",564.60876,67.930725,89.81043
"41410",564.6221,67.9234,89.42594
"41411",564.6354,67.947815,89.07296
"41412",564.6487,68.01129,88.7598
"41413",564.662,68.09674,88.470604
"41414",564.6753,68.18219,88.184074
"41415",564.6886,68.24078,87.87336
"41416",564.7019,68.243225,87.50832
"41417",564.7152,68.17731,87.075005
"41418",564.7285,68.03082,86.55906
"41419",564.7418,67.842834,85.99703
"41420",564.7551,67.84039,85.61468
"41421",564.76843,68.54841,85.9427
"41422",564.78174,70.606544,87.642975
"41423",564.79504,74.390785,91.13367
"41424",564.80835,79.80591,96.373505
"41425",564.82166,86.29282,102.854355
"41426",564.83496,92.9604,109.71858
"41427",564.84827,98.827194,115.99039
"41428",564.8616,103.20714,120.95868
"41429",564.8749,105.91226,124.38902
"41430",564.8882,107.10124,126.38776
"41431",564.9015,107.06218,127.19561
"41432",564.9148,106.12955,127.10867
"41433",564.9281,104.64759,126.44327
"41434",564.9414,102.90196,125.46788
"41435",564.9547,101.07576,124.35736
"41436",564.968,99.210495,123.15071
"41437",564.9813,97.252464,121.79301
"41438",564.9946,95.113754,120.193436
"41439",565.00793,92.77486,118.32684
"41440",565.02124,90.31144,116.26264
"41441",565.03455,87.89685,114.17029
"41442",565.04785,85.72396,112.24417
"41443",565.06116,83.949036,110.64812
"41444",565.07446,82.62577,109.44826
"41445",565.08777,81.7029,108.607445
"41446",565.1011,81.06081,108.01856
"41447",565.1144,80.56519,107.5561
"41448",565.1277,80.08667,107.09524
"41449",565.141,79.53246,106.54374
"41450",565.1543,78.839096,105.83576
"41451",565.1676,77.99191,104.9523
"41452",565.1809,76.995804,103.89344
"41453",565.1942,75.88251,102.686264
"41454",565.2075,74.71305,101.38814
"41455",565.2208,73.5436,100.053474
"41456",565.23413,72.4181,98.72621
"41457",565.24744,71.378044,97.44922
"41458",565.26074,70.450294,96.25203
"41459",565.27405,69.63485,95.13815
"41460",565.28735,68.93416,94.11355
"41461",565.30066,68.336006,93.169586
"41462",565.31396,67.83063,92.299706
"41463",565.3273,67.40337,91.49216
"41464",565.3406,67.04936,90.7445
"41465",565.3539,66.76372,90.054146
"41466",565.3672,66.54154,89.418335
"41467",565.3805,66.37797,88.83418
"41468",565.3938,66.27299,88.30351
"41469",565.4071,66.21927,87.82082
"41470",565.4204,66.20462,87.37553
"41471",565.4337,66.21683,86.95663
"41472",565.447,66.24124,86.550316
"41473",565.4603,66.26078,86.13989
"41474",565.47363,66.2559,85.70566
"41475",565.48694,66.21927,85.239525
"41476",565.50024,66.160675,84.75028
"41477",565.51355,66.0972,84.254326
"41478",565.52686,66.058136,83.7808
"41479",565.54016,66.06546,83.35244
"41480",565.55347,66.1387,82.99023
"41481",565.5668,66.28031,82.69867
"41482",565.5801,66.460976,82.45059
"41483",565.5934,66.65629,82.22281
"41484",565.6067,66.829636,81.979164
"41485",565.62,66.93706,81.67501
"41486",565.6333,66.94194,81.271675
"41487",565.6466,66.84184,80.76351
"41488",565.6599,66.76128,80.27175
"41489",565.6732,67.12993,80.22669
"41490",565.6865,68.65827,81.352844
"41491",565.6998,71.96399,84.30413
"41492",565.71313,77.196,89.28502
"41493",565.72644,83.949036,95.95043
"41494",565.73975,91.37835,103.50315
"41495",565.75305,98.40238,110.88276
"41496",565.76636,104.06897,117.12442
"41497",565.77966,107.93378,121.74138
"41498",565.79297,110.05783,124.738365
"41499",565.8063,110.71702,126.33686
"41500",565.8196,110.25559,126.83534
"41501",565.8329,109.02754,126.55278
"41502",565.8462,107.372246,125.804596
"41503",565.8595,105.51919,124.80692
"41504",565.8728,103.58556,123.67078
"41505",565.8861,101.56161,122.383865
"41506",565.8994,99.36187,120.857925
"41507",565.9127,96.91066,119.01177
"41508",565.926,94.23239,116.86196
"41509",565.93933,91.45403,114.528366
"41510",565.95264,88.78798,112.22025
"41511",565.96594,86.451515,110.15842
"41512",565.97925,84.59846,108.506966
"41513",565.99255,83.25811,107.31032
"41514",566.00586,82.35966,106.51368
"41515",566.01917,81.75906,105.986824
"41516",566.0325,81.29519,105.57792
"41517",566.0458,80.82399,105.147194
"41518",566.0591,80.24292,104.59187
"41519",566.0724,79.48852,103.84506
"41520",566.0857,78.54856,102.88912
"41521",566.099,77.44015,101.73535
"41522",566.1123,76.21942,100.43463
"41523",566.1256,74.9572,99.05427
"41524",566.1389,73.71938,97.65887
"41525",566.1522,72.56458,96.3078
"41526",566.1655,71.52453,95.035385
"41527",566.17883,70.61143,93.85742
"41528",566.19214,69.82529,92.777885
"41529",566.20544,69.15877,91.7934
"41530",566.21875,68.592354,90.8882
"41531",566.23206,68.121155,90.06051
"41532",566.24536,67.74517,89.31331
"41533",566.25867,67.45464,88.63982
"41534",566.272,67.23979,88.03292
"41535",566.2853,67.07866,87.47303
"41536",566.2986,66.96391,86.95449
"41537",566.3119,66.87846,86.46166
"41538",566.3252,66.829636,86.002785
"41539",566.3385,66.80766,85.56924
"41540",566.3518,66.80522,85.15453
"41541",566.3651,66.80522,84.742195
"41542",566.3784,66.79057,84.31521
"41543",566.3917,66.74418,83.85602
"41544",566.405,66.66605,83.36365
"41545",566.41833,66.57816,82.85907
"41546",566.43164,66.50004,82.36151
"41547",566.44495,66.45121,81.89081
"41548",566.45825,66.441444,81.45764
"41549",566.47156,66.478065,81.07056
"41550",566.48486,66.546425,80.716354
"41551",566.49817,66.648964,80.39847
"41552",566.5115,66.778366,80.11065
"41553",566.5248,66.92729,79.8464
"41554",566.5381,67.071335,79.58192
"41555",566.5514,67.17876,79.28532
"41556",566.5647,67.20073,78.906624
"41557",566.578,67.156784,78.4627
"41558",566.5913,67.2691,78.17366
"41559",566.6046,68.1358,78.642525
"41560",566.6179,70.50889,80.64485
"41561",566.6312,74.83513,84.67449
"41562",566.64453,80.987564,90.66553
"41563",566.65784,88.31922,98.028046
"41564",566.67114,95.8291,105.7979
"41565",566.68445,102.450294,112.91375
"41566",566.69775,107.45525,118.620285
"41567",566.71106,110.69749,122.7205
"41568",566.72437,112.38941,125.37172
"41569",566.7377,112.831314,126.82579
"41570",566.751,112.325935,127.34639
"41571",566.7643,111.1638,127.19444
"41572",566.7776,109.60616,126.61067
"41573",566.7909,107.81903,125.74873
"41574",566.8042,105.87076,124.66981
"41575",566.8175,103.71496,123.322464
"41576",566.8308,101.27352,121.622116
"41577",566.8441,98.48783,119.50122
"41578",566.8574,95.41894,117.01007
"41579",566.8707,92.245056,114.31803
"41580",566.88403,89.21278,111.66842
"41581",566.89734,86.571144,109.31468
"41582",566.91064,84.491035,107.43992
"41583",566.92395,83.01152,106.100746
"41584",566.93726,82.05936,105.24269
"41585",566.95056,81.47097,104.71866
"41586",566.96387,81.07057,104.36423
"41587",566.9772,80.68238,104.00949
"41588",566.9905,80.17944,103.52788
"41589",567.0038,79.48608,102.84012
"41590",567.0171,78.5803,101.91828
"41591",567.0304,77.50118,100.7948
"41592",567.0437,76.314644,99.530174
"41593",567.057,75.089035,98.1894
"41594",567.0703,73.87564,96.82254
"41595",567.0836,72.706184,95.4617
"41596",567.0969,71.605095,94.132675
"41597",567.1102,70.589455,92.85469
"41598",567.12354,69.678795,91.64995
"41599",567.13684,68.90242,90.55103
"41600",567.15015,68.27497,89.57678
"41601",567.16345,67.78668,88.722084
"41602",567.17676,67.42046,87.9742
"41603",567.19006,67.139694,87.300316
"41604",567.20337,66.915085,86.67382
"41605",567.2167,66.74418,86.09401
"41606",567.23,66.631874,85.56746
"41607",567.2433,66.57572,85.09355
"41608",567.2566,66.56107,84.65939
"41609",567.2699,66.55619,84.23454
"41610",567.2832,66.51713,83.77536
"41611",567.2965,66.409706,83.2466
"41612",567.3098,66.23392,82.64611
"41613",567.3231,66.01419,81.99619
"41614",567.3364,65.79202,81.33697
"41615",567.34973,65.61135,80.712296
"41616",567.36304,65.496605,80.1479
"41617",567.37634,65.45022,79.648285
"41618",567.38965,65.45754,79.20093
"41619",567.40295,65.49905,78.78798
"41620",567.41626,65.56008,78.39586
"41621",567.42957,65.63332,78.01785
"41622",567.4429,65.71389,77.64946
"41623",567.4562,65.7847,77.27383
"41624",567.4695,65.82132,76.86622
"41625",567.4828,65.80179,76.4036
"41626",567.4961,65.84085,75.99897
"41627",567.5094,66.40482,76.12047
"41628",567.5227,68.26765,77.55844
"41629",567.536,72.061646,80.9858
"41630",567.5493,77.86496,86.541046
"41631",567.5626,85.15755,93.766914
"41632",567.5759,92.99214,101.76268
"41633",567.58923,100.23102,109.40756
"41634",567.60254,105.96109,115.76985
"41635",567.61584,109.86496,120.485
"41636",567.62915,112.13306,123.68638
"41637",567.64246,113.112076,125.669556
"41638",567.65576,113.09743,126.68966
"41639",567.66907,112.35767,126.9842
"41640",567.6824,111.11742,126.75512
"41641",567.6957,109.557335,126.16746
"41642",567.709,107.757996,125.29179
"41643",567.7223,105.704735,124.105965
"41644",567.7356,103.3341,122.538605
"41645",567.7489,100.58259,120.51628
"41646",567.7622,97.45754,118.03444
"41647",567.7755,94.09567,115.21812
"41648",567.7888,90.72892,112.291855
"41649",567.8021,87.63317,109.53139
"41650",567.8154,85.0428,107.17955
"41651",567.82874,83.08476,105.3791
"41652",567.84204,81.75418,104.14491
"41653",567.85535,80.936295,103.38184
"41654",567.86865,80.448006,102.92281
"41655",567.88196,80.09155,102.58036
"41656",567.89526,79.69848,102.19015
"41657",567.90857,79.13695,101.619194
"41658",567.9219,78.35569,100.81097
"41659",567.9352,77.36446,99.76836
"41660",567.9485,76.22186,98.543396
"41661",567.9618,74.99626,97.19973
"41662",567.9751,73.75845,95.80556
"41663",567.9884,72.54749,94.39955
"41664",568.0017,71.395134,93.0143
"41665",568.015,70.32578,91.67604
"41666",568.0283,69.37118,90.41911
"41667",568.0416,68.558174,89.27396
"41668",568.05493,67.913635,88.27186
"41669",568.06824,67.42535,87.40587
"41670",568.08154,67.07622,86.66378
"41671",568.09485,66.829636,86.01333
"41672",568.10815,66.64652,85.41864
"41673",568.12146,66.50736,84.86218
"41674",568.13477,66.41215,84.34532
"41675",568.1481,66.36332,83.87187
"41676",568.1614,66.355995,83.4384
"41677",568.1747,66.37553,83.031555
"41678",568.188,66.390175,82.62044
"41679",568.2013,66.38285,82.187805
"41680",568.2146,66.34379,81.723206
"41681",568.2279,66.2974,81.25006
"41682",568.2412,66.27543,80.79988
"41683",568.2545,66.30961,80.40517
"41684",568.2678,66.407265,80.075
"41685",568.2811,66.55375,79.79671
"41686",568.29443,66.71244,79.5352
"41687",568.30774,66.85161,79.25913
"41688",568.32104,66.9395,78.936134
"41689",568.33435,66.95659,78.54508
"41690",568.34766,66.88335,78.06423
"41691",568.36096,66.73197,77.50296
"41692",568.37427,66.59037,76.94673
"41693",568.3876,66.81987,76.75718
"41694",568.4009,68.09918,77.62461
"41695",568.4142,71.114365,80.26789
"41696",568.4275,76.102234,84.97809
"41697",568.4408,82.69901,91.453064
"41698",568.4541,90.089264,98.92766
"41699",568.4674,97.213394,106.36708
"41700",568.4807,103.08995,112.781555
"41701",568.494,107.22087,117.63403
"41702",568.5073,109.6672,120.931015
"41703",568.5206,110.74387,122.93479
"41704",568.53394,110.75853,123.910194
"41705",568.54724,109.98947,124.10234
"41706",568.56055,108.6833,123.73334
"41707",568.57385,107.04509,122.991486
"41708",568.58716,105.18715,121.97871
"41709",568.60046,103.12657,120.70523
"41710",568.6138,100.82674,119.1281
"41711",568.6271,98.231476,117.18367
"41712",568.6404,95.34814,114.87006
"41713",568.6537,92.29145,112.29301
"41714",568.667,89.254295,109.63996
"41715",568.6803,86.47593,107.150795
"41716",568.6936,84.1712,105.04844
"41717",568.7069,82.4622,103.46978
"41718",568.7202,81.35134,102.43587
"41719",568.7335,80.73365,101.860405
"41720",568.7468,80.43824,101.58792
"41721",568.76013,80.27711,101.44048
"41722",568.77344,80.076904,101.24894
"41723",568.78674,79.72045,100.89489
"41724",568.80005,79.16136,100.327065
"41725",568.81335,78.39475,99.53425
"41726",568.82666,77.44991,98.539246
"41727",568.83997,76.37812,97.387764
"41728",568.8533,75.22575,96.122215
"41729",568.8666,74.03677,94.78404
"41730",568.8799,72.85268,93.4136
"41731",568.8932,71.72228,92.05985
"41732",568.9065,70.7042,90.7831
"41733",568.9198,69.83505,89.62345
"41734",568.9331,69.12459,88.59533
"41735",568.9464,68.5655,87.69638
"41736",568.9597,68.13092,86.90447
"41737",568.973,67.78424,86.18688
"41738",568.9863,67.49859,85.519485
"41739",568.99963,67.266655,84.89688
"41740",569.01294,67.088425,84.32073
"41741",569.02625,66.95903,83.78785
"41742",569.03955,66.87358,83.29487
"41743",569.05286,66.812546,82.82363
"41744",569.06616,66.76372,82.36269
"41745",569.07947,66.70512,81.89046
"41746",569.0928,66.64652,81.4164
"41747",569.1061,66.58793,80.940506
"41748",569.1194,66.55375,80.4872
"41749",569.1327,66.54154,80.054794
"41750",569.146,66.55131,79.64398
"41751",569.1593,66.5684,79.2408
"41752",569.1726,66.580605,78.83327
"41753",569.1859,66.58793,78.421234
"41754",569.1992,66.60746,78.02164
"41755",569.2125,66.65873,77.65439
"41756",569.2258,66.76616,77.3449
"41757",569.23914,66.92485,77.090034
"41758",569.25244,67.10063,76.857216
"41759",569.26575,67.24956,76.603035
"41760",569.27905,67.317924,76.27295
"41761",569.29236,67.28863,75.847336
"41762",569.30566,67.19585,75.35732
"41763",569.319,67.23003,74.99137
"41764",569.3323,67.91608,75.27836
"41765",569.3456,70.030365,77.01502
"41766",569.3589,74.13443,80.80753
"41767",569.3722,80.17456,86.66437
"41768",569.3855,87.535515,94.03078
"41769",569.3988,95.22362,101.95436
"41770",569.4121,102.115814,109.322296
"41771",569.4254,107.35027,115.24788
"41772",569.4387,110.67063,119.422935
"41773",569.452,112.32105,122.031815
"41774",569.46533,112.65308,123.37388
"41775",569.47864,111.98413,123.725334
"41776",569.49194,110.6096,123.3503
"41777",569.50525,108.807816,122.50507
"41778",569.51855,106.793625,121.39113
"41779",569.53186,104.689095,120.1239
"41780",569.54517,102.49912,118.70546
"41781",569.5585,100.16754,117.07698
"41782",569.5718,97.64065,115.18032
"41783",569.5851,94.93797,113.028915
"41784",569.5984,92.18402,110.741776
"41785",569.6117,89.57412,108.51263
"41786",569.625,87.310905,106.54861
"41787",569.6383,85.538414,105.00458
"41788",569.6516,84.2884,103.927635
"41789",569.6649,83.49737,103.270615
"41790",569.6782,83.03105,102.91359
"41791",569.6915,82.738075,102.71533
"41792",569.70483,82.46708,102.5299
"41793",569.71814,82.11063,102.25054
"41794",569.73145,81.58572,101.79159
"41795",569.74475,80.86305,101.11848
"41796",569.75806,79.94995,100.232346
"41797",569.77136,78.88548,99.16631
"41798",569.78467,77.738,97.984
"41799",569.798,76.56367,96.73898
"41800",569.8113,75.40887,95.4768
"41801",569.8246,74.302895,94.227356
"41802",569.8379,73.26528,93.01171
"41803",569.8512,72.308235,91.84421
"41804",569.8645,71.44396,90.73956
"41805",569.8778,70.68467,89.71289
"41806",569.8911,70.0499,88.78701
"41807",569.9044,69.54452,87.97069
"41808",569.9177,69.15144,87.25088
"41809",569.931,68.85603,86.61645
"41810",569.94434,68.648506,86.06067
"41811",569.95764,68.51423,85.571655
"41812",569.97095,68.45075,85.14925
"41813",569.98425,68.44831,84.78589
"41814",569.99756,68.48737,84.46396
"41815",570.01086,68.53864,84.15546
"41816",570.0242,68.58015,83.83879
"41817",570.0375,68.60212,83.50389
"41818",570.0508,68.62165,83.16724
"41819",570.0641,68.65583,82.84584
"41820",570.0774,68.70954,82.545044
"41821",570.0907,68.77547,82.25814
"41822",570.104,68.82674,81.95864
"41823",570.1173,68.82674,81.609474
"41824",570.1306,68.75105,81.18462
"41825",570.1439,68.607,80.68904
"41826",570.1572,68.421455,80.14746
"41827",570.17053,68.243225,79.6074
"41828",570.18384,68.11871,79.115486
"41829",570.19714,68.07233,78.69781
"41830",570.21045,68.09674,78.34948
"41831",570.22375,68.18707,78.06783
"41832",570.23706,68.316475,77.82808
"41833",570.25037,68.47761,77.6241
"41834",570.2637,68.65827,77.44469
"41835",570.277,68.860916,77.2929
"41836",570.2903,69.065994,77.14988
"41837",570.3036,69.239334,76.98153
"41838",570.3169,69.33944,76.74536
"41839",570.3302,69.35409,76.426865
"41840",570.3435,69.30526,76.04535
"41841",570.3568,69.44198,75.847855
"41842",570.3701,70.43809,76.51402
"41843",570.3834,73.145645,78.92277
"41844",570.3967,78.02365,83.58658
"41845",570.41003,84.86458,90.365746
"41846",570.42334,92.89693,98.55011
"41847",570.43665,101.00008,107.05629
"41848",570.44995,107.98505,114.69751
"41849",570.46326,113.08766,120.67466
"41850",570.47656,116.22247,124.84346
"41851",570.48987,117.70931,127.46225
"41852",570.5032,117.88754,128.8189
"41853",570.5165,117.05257,129.16791
"41854",570.5298,115.5169,128.79013
"41855",570.5431,113.58572,127.96885
"41856",570.5564,111.500725,126.93341
"41857",570.5697,109.401085,125.81817
"41858",570.583,107.31609,124.65196
"41859",570.5963,105.162735,123.352234
"41860",570.6096,102.82872,121.80455
"41861",570.6229,100.23102,119.92024
"41862",570.6362,97.37942,117.70086
"41863",570.64954,94.4033,115.267845
"41864",570.66284,91.50042,112.81507
"41865",570.67615,88.87099,110.54503
"41866",570.68945,86.6688,108.620056
"41867",570.70276,84.95247,107.11212
"41868",570.71606,83.685356,105.99977
"41869",570.7294,82.75517,105.18475
"41870",570.7427,82.02518,104.540855
"41871",570.756,81.36111,103.94007
"41872",570.7693,80.64332,103.26482
"41873",570.7826,79.79126,102.43286
"41874",570.7959,78.76341,101.39849
"41875",570.8092,77.576866,100.1733
"41876",570.8225,76.26826,98.78897
"41877",570.8358,74.90349,97.30759
"41878",570.8491,73.53872,95.783554
"41879",570.8624,72.22766,94.270584
"41880",570.87573,71.0045,92.804535
"41881",570.88904,69.89609,91.41501
"41882",570.90234,68.912186,90.11536
"41883",570.91565,68.069885,88.92656
"41884",570.92896,67.37896,87.862816
"41885",570.94226,66.84184,86.93129
"41886",570.95557,66.45609,86.134346
"41887",570.9689,66.19974,85.45474
"41888",570.9822,66.055695,84.87944
"41889",570.9955,65.99466,84.382645
"41890",571.0088,65.99466,83.94498
"41891",571.0221,66.04349,83.55614
"41892",571.0354,66.11673,83.19324
"41893",571.0487,66.20706,82.84972
"41894",571.062,66.29496,82.506584
"41895",571.0753,66.373085,82.156425
"41896",571.0886,66.426796,81.784294
"41897",571.1019,66.458534,81.39187
"41898",571.11523,66.4683,80.97846
"41899",571.12854,66.46586,80.553154
"41900",571.14185,66.44877,80.11312
"41901",571.15515,66.41703,79.657906
"41902",571.16846,66.36576,79.18217
"41903",571.18176,66.29252,78.68285
"41904",571.19507,66.20462,78.166595
"41905",571.2084,66.11673,77.6476
"41906",571.2217,66.03616,77.13318
"41907",571.235,65.97513,76.63577
"41908",571.2483,65.936066,76.15843
"41909",571.2616,65.90677,75.68964
"41910",571.2749,65.882355,75.22481
"41911",571.2882,65.87015,74.77142
"41912",571.3015,65.884796,74.34451
"41913",571.3148,65.94339,73.962006
"41914",571.3281,66.07034,73.64969
"41915",571.34143,66.26566,73.409706
"41916",571.35474,66.5098,73.22465
"41917",571.36804,66.7686,73.061874
"41918",571.38135,67.002975,72.88277
"41919",571.39465,67.19096,72.6646
"41920",571.40796,67.335014,72.40836
"41921",571.42126,67.615776,72.29334
"41922",571.4346,68.66071,72.95127
"41923",571.4479,71.41711,75.35331
"41924",571.4612,76.51484,80.18283
"41925",571.4745,83.824524,87.383606
"41926",571.4878,92.5478,96.226395
"41927",571.5011,101.48104,105.55176
"41928",571.5144,109.281456,114.02345
"41929",571.5277,114.97734,120.634384
"41930",571.541,118.383156,125.13324
"41931",571.5543,119.87488,127.82443
"41932",571.5676,119.87976,129.07541
"41933",571.58093,118.71763,129.15952
"41934",571.59424,116.72785,128.37967
"41935",571.60754,114.262,127.06157
"41936",571.62085,111.61547,125.485725
"41937",571.63416,108.98848,123.84672
"41938",571.64746,106.44938,122.21351
"41939",571.66077,103.95178,120.54246
"41940",571.6741,101.40536,118.74452
"41941",571.6874,98.75151,116.75959
"41942",571.7007,96.03174,114.6258
"41943",571.714,93.3608,112.45586
"41944",571.7273,90.90227,110.41485
"41945",571.7406,88.797745,108.651024
"41946",571.7539,87.11803,107.24623
"41947",571.7672,85.85336,106.204
"41948",571.7805,84.92561,105.45917
"41949",571.7938,84.22003,104.90751
"41950",571.8071,83.617,104.43635
"41951",571.82043,83.001755,103.934135
"41952",571.83374,82.27909,103.305275
"41953",571.84705,81.38796,102.48537
"41954",571.86035,80.31373,101.454506
"41955",571.87366,79.08324,100.23382
"41956",571.88696,77.75021,98.87215
"41957",571.90027,76.3708,97.422424
"41958",571.9136,74.9987,95.93692
"41959",571.9269,73.67544,94.45737
"41960",571.9402,72.427864,93.01215
"41961",571.9535,71.27306,91.62073
"41962",571.9668,70.22812,90.30307
"41963",571.9801,69.315025,89.0846
"41964",571.9934,68.54841,87.98408
"41965",572.0067,67.9234,87.001205
"41966",572.02,67.43267,86.13308
"41967",572.0333,67.04936,85.35704
"41968",572.04663,66.739296,84.642265
"41969",572.05994,66.478065,83.96664
"41970",572.07324,66.26078,83.32679
"41971",572.08655,66.08743,82.72409
"41972",572.09985,65.9556,82.157486
"41973",572.11316,65.865265,81.628265
"41974",572.12646,65.80179,81.12308
"41975",572.1398,65.7554,80.632996
"41976",572.1531,65.70901,80.14146
"41977",572.1664,65.66506,79.65092
"41978",572.1797,65.62112,79.159004
"41979",572.193,65.58694,78.67548
"41980",572.2063,65.56008,78.19822
"41981",572.2196,65.53811,77.725
"41982",572.2329,65.51125,77.24621
"41983",572.2462,65.47707,76.759254
"41984",572.2595,65.43069,76.259026
"41985",572.2728,65.36965,75.7427
"41986",572.28613,65.286644,75.20249
"41987",572.29944,65.196304,74.65236
"41988",572.31274,65.11818,74.11162
"41989",572.32605,65.074234,73.602615
"41990",572.33936,65.08888,73.15083
"41991",572.35266,65.17433,72.77031
"41992",572.36597,65.33059,72.463264
"41993",572.3793,65.54299,72.21725
"41994",572.3926,65.779816,72.00229
"41995",572.4059,66.01419,71.79228
"41996",572.4192,66.22171,71.562744
"41997",572.4325,66.38773,71.298195
"41998",572.4458,66.51469,70.99976
"41999",572.4591,66.736855,70.800514
"42000",572.4724,67.59869,71.24787
"42001",572.4857,70.101166,73.36281
"42002",572.499,75.0695,78.021805
"42003",572.5123,82.52323,85.32146
"42004",572.52563,91.65179,94.52886
"42005",572.53894,101.13924,104.38043
"42006",572.55225,109.48165,113.383446
"42007",572.56555,115.50225,120.32535
"42008",572.57886,118.85191,124.784454
"42009",572.59216,119.955444,127.10211
"42010",572.60547,119.39147,127.78674
"42011",572.6188,117.55306,127.17932
"42012",572.6321,114.76982,125.56961
"42013",572.6454,111.37621,123.26256
"42014",572.6587,107.684746,120.5516
"42015",572.672,103.93713,117.669136
"42016",572.6853,100.27497,114.755005
"42017",572.6986,96.78615,111.89977
"42018",572.7119,93.54635,109.18454
"42019",572.7252,90.67521,106.736725
"42020",572.7385,88.307014,104.70213
"42021",572.75183,86.55161,103.20633
"42022",572.76514,85.42855,102.288
"42023",572.77844,84.859695,101.88879
"42024",572.79175,84.67902,101.85998
"42025",572.80505,84.68391,102.01108
"42026",572.81836,84.698555,102.1721
"42027",572.83167,84.6009,102.22127
"42028",572.845,84.300606,102.06475
"42029",572.8583,83.74395,101.64249
"42030",572.8716,82.90898,100.924515
"42031",572.8849,81.81766,99.924095
"42032",572.8982,80.52125,98.68449
"42033",572.9115,79.09056,97.27009
"42034",572.9248,77.60128,95.75239
"42035",572.9381,76.11688,94.19303
"42036",572.9514,74.68864,92.64344
"42037",572.9647,73.34341,91.13223
"42038",572.978,72.10315,89.68396
"42039",572.99133,70.98497,88.319
"42040",573.00464,69.993744,87.04605
"42041",573.01794,69.12947,85.86908
"42042",573.03125,68.39704,84.79694
"42043",573.04456,67.79645,83.833755
"42044",573.05786,67.33013,82.98608
"42045",573.07117,66.97856,82.23857
"42046",573.0845,66.72709,81.58018
"42047",573.0978,66.55863,80.99694
"42048",573.1111,66.45609,80.47436
"42049",573.1244,66.40482,79.99984
"42050",573.1377,66.3975,79.567665
"42051",573.151,66.43412,79.17921
"42052",573.1643,66.5098,78.830956
"42053",573.1776,66.6099,78.50948
"42054",573.1909,66.73197,78.21311
"42055",573.2042,66.85893,77.925446
"42056",573.2175,66.99077,77.64662
"42057",573.23083,67.11284,77.36215
"42058",573.24414,67.23979,77.08638
"42059",573.25745,67.36187,76.8097
"42060",573.27075,67.474174,76.52706
"42061",573.28406,67.55718,76.218636
"42062",573.29736,67.5938,75.86642
"42063",573.31067,67.57671,75.46163
"42064",573.324,67.523,75.01969
"42065",573.3373,67.46685,74.57363
"42066",573.3506,67.46685,74.18197
"42067",573.3639,67.54986,73.873314
"42068",573.3772,67.72564,73.66003
"42069",573.3905,67.95026,73.50107
"42070",573.4038,68.16022,73.33447
"42071",573.4171,68.28474,73.089
"42072",573.4304,68.299385,72.73754
"42073",573.4437,68.30915,72.38166
"42074",573.45703,68.824295,72.53146
"42075",573.47034,70.870224,74.22815
"42076",573.48364,75.44305,78.51567
"42077",573.49695,82.73319,85.663414
"42078",573.51025,91.95209,94.96772
"42079",573.52356,101.68612,105.07526
"42080",573.53687,110.30686,114.37369
"42081",573.5502,116.47639,121.4903
"42082",573.5635,119.711296,125.8651
"42083",573.5768,120.44129,127.836075
"42084",573.5901,119.38903,128.0476
"42085",573.6034,117.04036,126.92984
"42086",573.6167,113.7029,124.74989
"42087",573.63,109.6672,121.7674
"42088",573.6433,105.21889,118.24619
"42089",573.6566,100.611885,114.42728
"42090",573.6699,96.05615,110.51566
"42091",573.6832,91.734795,106.69606
"42092",573.69653,87.85779,103.18577
"42093",573.70984,84.65217,100.22571
"42094",573.72314,82.354774,98.07369
"42095",573.73645,81.10719,96.8997
"42096",573.74976,80.88991,96.71701
"42097",573.76306,81.50515,97.36006
"42098",573.77637,82.6038,98.505745
"42099",573.7897,83.792786,99.7761
"42100",573.803,84.7425,100.84434
"42101",573.8163,85.23567,101.48571
"42102",573.8296,85.189285,101.602936
"42103",573.8429,84.62531,101.201126
"42104",573.8562,83.62188,100.34223
"42105",573.8695,82.29374,99.12727
"42106",573.8828,80.765396,97.67061
"42107",573.8961,79.13939,96.06852
"42108",573.9094,77.50118,94.40342
"42109",573.9227,75.90692,92.73107
"42110",573.93604,74.39567,91.09191
"42111",573.94934,73.0016,89.52271
"42112",573.96265,71.744255,88.04667
"42113",573.97595,70.6334,86.677826
"42114",573.98926,69.68856,85.44028
"42115",574.00256,68.89998,84.32946
"42116",574.01587,68.24811,83.33071
"42117",574.0292,67.71587,82.43123
"42118",574.0425,67.27886,81.61034
"42119",574.0558,66.92241,80.856346
"42120",574.0691,66.64408,80.16934
"42121",574.0824,66.44633,79.554214
"42122",574.0957,66.33158,79.015915
"42123",574.109,66.29496,78.552155
"42124",574.1223,66.3267,78.15561
"42125",574.1356,66.409706,77.811325
"42126",574.1489,66.52445,77.50137
"42127",574.16223,66.65629,77.2121
"42128",574.17554,66.80278,76.9416
"42129",574.18884,66.95903,76.68543
"42130",574.20215,67.12749,76.44636
"42131",574.21545,67.30816,76.22476
"42132",574.22876,67.48638,76.00636
"42133",574.24207,67.647514,75.77644
"42134",574.2554,67.7818,75.52471
"42135",574.2687,67.88678,75.24787
"42136",574.282,67.97711,74.95966
"42137",574.2953,68.065,74.67184
"42138",574.3086,68.155334,74.3892
"42139",574.3219,68.22858,74.09229
"42140",574.3352,68.25544,73.7513
"42141",574.3485,68.206604,73.33544
"42142",574.3618,68.12604,72.88633
"42143",574.3751,68.30915,72.69838
"42144",574.3884,69.573814,73.5977
"42145",574.40173,73.01869,76.71676
"42146",574.41504,79.293205,82.77311
"42147",574.42834,88.01892,91.47674
"42148",574.44165,97.94095,101.64935
"42149",574.45496,107.36736,111.63642
"42150",574.46826,114.69169,119.81598
"42151",574.48157,118.96666,125.175064
"42152",574.4949,120.272835,127.698944
"42153",574.5082,119.362175,128.04681
"42154",574.5215,116.962234,126.87694
"42155",574.5348,113.497826,124.5676
"42156",574.5481,109.23018,121.346756
"42157",574.5614,104.40589,117.43591
"42158",574.5747,99.27398,113.06668
"42159",574.588,94.066376,108.46139
"42160",574.6013,89.01503,103.84962
"42161",574.6146,84.36652,99.482834
"42162",574.6279,80.394295,95.64706
"42163",574.64124,77.36935,92.63443
"42164",574.65454,75.53094,90.71381
"42165",574.66785,74.97429,90.01751
"42166",574.68115,75.60662,90.49279
"42167",574.69446,77.1252,91.87408
"42168",574.70776,79.09056,93.7496
"42169",574.72107,81.02663,95.65725
"42170",574.7344,82.54276,97.20547
"42171",574.7477,83.39239,98.13455
"42172",574.761,83.4876,98.33578
"42173",574.7743,82.89189,97.84905
"42174",574.7876,81.74197,96.7895
"42175",574.8009,80.20386,95.305824
"42176",574.8142,78.44114,93.54948
"42177",574.8275,76.59052,91.65015
"42178",574.8408,74.75456,89.70764
"42179",574.8541,72.99916,87.78832
"42180",574.86743,71.35607,85.92646
"42181",574.88074,69.83017,84.13043
"42182",574.89404,68.41169,82.39414
"42183",574.90735,67.10307,80.72339
"42184",574.92065,65.91409,79.13138
"42185",574.93396,64.85939,77.63649
"42186",574.94727,63.956055,76.26001
"42187",574.9606,63.20653,75.00911
"42188",574.9739,62.59617,73.87395
"42189",574.9872,62.11032,72.84423
"42190",575.0005,61.74899,71.92384
"42191",575.0138,61.51461,71.11912
"42192",575.0271,61.419395,70.446236
"42193",575.0404,61.470665,69.91686
"42194",575.0537,61.673306,69.54046
"42195",575.067,62.0029,69.29734
"42196",575.0803,62.43992,69.17195
"42197",575.0936,62.959946,69.14323
"42198",575.10693,63.52636,69.17714
"42199",575.12024,64.11719,69.25317
"42200",575.13354,64.71046,69.3501
"42201",575.14685,65.29397,69.45581
"42202",575.16016,65.848175,69.55045
"42203",575.17346,66.36332,69.62335
"42204",575.18677,66.82231,69.6562
"42205",575.2001,67.21294,69.63502
"42206",575.2134,67.51812,69.5406
"42207",575.2267,67.75006,69.382484
"42208",575.24,67.930725,69.180336
"42209",575.2533,68.13336,69.005806
"42210",575.2666,68.64118,69.14279
"42211",575.2799,70.09628,70.24293
"42212",575.2932,73.392235,73.229385
"42213",575.3065,79.21507,78.84573
"42214",575.3198,87.484245,87.09038
"42215",575.3331,97.23537,97.07538
"42216",575.34644,106.8864,107.265015
"42217",575.35974,114.76982,115.98864
"42218",575.37305,119.71374,122.01911
"42219",575.38635,121.44717,124.99359
"42220",575.39966,120.480354,125.32201
"42221",575.41296,117.62386,123.73053
"42222",575.4263,113.566185,120.8486
"42223",575.4396,108.749214,117.080574
"42224",575.4529,103.46349,112.69327
"42225",575.4662,97.9263,107.88931
"42226",575.4795,92.350044,102.87325
"42227",575.4928,86.97398,97.88313
"42228",575.5061,82.07156,93.19865
"42229",575.5194,77.94064,89.13246
"42230",575.5327,74.861984,85.98945
"42231",575.546,73.04799,84.01489
"42232",575.5593,72.57191,83.32156
"42233",575.57263,73.31899,83.83652
"42234",575.58594,75.01335,85.3221
"42235",575.59924,77.264366,87.41728
"42236",575.61255,79.63744,89.70487
"42237",575.62585,81.72488,91.780975
"42238",575.63916,83.22148,93.33148
"42239",575.65247,83.97345,94.18412
"42240",575.6658,83.98566,94.320496
"42241",575.6791,83.36065,93.82004
"42242",575.6924,82.27665,92.84106
"42243",575.7057,80.92653,91.56208
"42244",575.719,79.47387,90.138374
"42245",575.7323,78.01633,88.66439
"42246",575.7456,76.6247,87.21078
"42247",575.7589,75.32342,85.804016
"42248",575.7722,74.12955,84.464005
"42249",575.7855,73.04799,83.199
"42250",575.7988,72.0885,82.02226
"42251",575.81213,71.258415,80.94495
"42252",575.82544,70.56748,79.980835
"42253",575.83875,70.00107,79.11965
"42254",575.85205,69.54696,78.35307
"42255",575.86536,69.20271,77.68217
"42256",575.87866,68.9659,77.10793
"42257",575.89197,68.83162,76.62884
"42258",575.9053,68.795,76.2432
"42259",575.9186,68.841385,75.93943
"42260",575.9319,68.95613,75.70547
"42261",575.9452,69.119705,75.52392
"42262",575.9585,69.315025,75.37923
"42263",575.9718,69.55428,75.28458
"42264",575.9851,69.84726,75.25112
"42265",575.9984,70.203705,75.29029
"42266",576.0117,70.6041,75.38455
"42267",576.025,71.01915,75.505974
"42268",576.0383,71.41711,75.623276
"42269",576.05164,71.77844,75.7164
"42270",576.06494,72.095825,75.776855
"42271",576.07825,72.42542,75.85945
"42272",576.09155,73.05287,76.2502
"42273",576.10486,74.71549,77.695724
"42274",576.11816,78.45823,81.27332
"42275",576.1315,85.01106,87.77798
"42276",576.1448,94.203094,97.1266
"42277",576.1581,104.88197,108.24933
"42278",576.1714,115.30938,119.4543
"42279",576.1847,123.71038,128.95871
"42280",576.198,128.92287,135.53714
"42281",576.2113,130.81255,138.95566
"42282",576.2246,130.05814,139.78914
"42283",576.2379,127.54101,138.83633
"42284",576.2512,123.91547,136.69644
"42285",576.2645,119.569695,133.72302
"42286",576.27783,114.76982,130.1597
"42287",576.29114,109.730675,126.20711
"42288",576.30444,104.620735,122.02625
"42289",576.31775,99.5938,117.76872
"42290",576.33105,94.820786,113.60801
"42291",576.34436,90.51652,109.76689
"42292",576.35767,86.93004,106.509056
"42293",576.371,84.300606,104.09618
"42294",576.3843,82.77959,102.70956
"42295",576.3976,82.36698,102.38381
"42296",576.4109,82.87724,102.96804
"42297",576.4242,83.9881,104.16881
"42298",576.4375,85.296715,105.60205
"42299",576.4508,86.431984,106.90284
"42300",576.4641,87.113144,107.784996
"42301",576.4774,87.19371,108.087845
"42302",576.4907,86.6688,107.787735
"42303",576.504,85.626305,106.953636
"42304",576.51733,84.20538,105.708534
"42305",576.53064,82.55741,104.19198
"42306",576.54395,80.8069,102.521385
"42307",576.55725,79.05638,100.79608
"42308",576.57056,77.37179,99.082
"42309",576.58386,75.80194,97.43002
"42310",576.59717,74.37858,95.87547
"42311",576.6105,73.12367,94.4449
"42312",576.6238,72.03967,93.14602
"42313",576.6371,71.11192,91.96951
"42314",576.6504,70.311134,90.890976
"42315",576.6637,69.607994,89.885056
"42316",576.677,68.97566,88.92797
"42317",576.6903,68.41169,88.019485
"42318",576.7036,67.91852,87.16418
"42319",576.7169,67.50103,86.36914
"42320",576.7302,67.173874,85.65139
"42321",576.7435,66.949265,85.02596
"42322",576.75684,66.83452,84.50338
"42323",576.77014,66.8394,84.09684
"42324",576.78345,66.95415,83.800316
"42325",576.79675,67.159225,83.59771
"42326",576.81006,67.40826,83.445465
"42327",576.82336,67.64263,83.28635
"42328",576.8367,67.808655,83.0662
"42329",576.85,67.91608,82.79264
"42330",576.8633,68.21881,82.71775
"42331",576.8766,69.43954,83.57031
"42332",576.8899,72.59388,86.39464
"42333",576.9032,78.34348,91.912796
"42334",576.9165,86.4564,99.973946
"42335",576.9298,95.86084,109.58015
"42336",576.9431,105.03334,119.2483
"42337",576.9564,112.462654,127.4599
"42338",576.9697,117.206375,133.21808
"42339",576.98303,119.259636,136.43404
"42340",576.99634,119.26208,137.66335
"42341",577.00964,117.90463,137.53284
"42342",577.02295,115.612114,136.42484
"42343",577.03625,112.64332,134.56891
"42344",577.04956,109.19844,132.14413
"42345",577.06287,105.44839,129.30653
"42346",577.0762,101.52987,126.18327
"42347",577.0895,97.54055,122.86676
"42348",577.1028,93.58541,119.45976
"42349",577.1161,89.82803,116.12693
"42350",577.1294,86.4979,113.10393
"42351",577.1427,83.85138,110.66046
"42352",577.156,82.07889,109.00832
"42353",577.1693,81.231705,108.226105
"42354",577.1826,81.17311,108.206
"42355",577.1959,81.61501,108.68456
"42356",577.2092,82.210724,109.33074
"42357",577.22253,82.652626,109.84173
"42358",577.23584,82.7454,110.017395
"42359",577.24915,82.39628,109.75407
"42360",577.26245,81.602806,109.03548
"42361",577.27576,80.43824,107.921
"42362",577.28906,79.012436,106.50889
"42363",577.30237,77.45724,104.92283
