"","Time..s.","PPG.trace","Preprocessed.PPG"
"96408",1323.9447,82.68192,133.04208
"96409",1323.958,84.85237,135.29634
"96410",1323.9713,86.62974,137.22534
"96411",1323.9846,87.80896,138.61174
"96412",1323.9979,88.324104,139.37091
"96413",1324.0112,88.23132,139.53825
"96414",1324.0245,87.6527,139.21686
"96415",1324.0378,86.727394,138.5307
"96416",1324.0511,85.592125,137.60567
"96417",1324.0645,84.33723,136.52553
"96418",1324.0778,83.035934,135.35977
"96419",1324.0911,81.75906,134.17778
"96420",1324.1044,80.59693,133.07062
"96421",1324.1177,79.639885,132.13223
"96422",1324.131,78.94896,131.43005
"96423",1324.1443,78.56565,131.0139
"96424",1324.1576,78.46311,130.86653
"96425",1324.1709,78.57053,130.92592
"96426",1324.1842,78.78294,131.09366
"96427",1324.1975,79.00267,131.27534
"96428",1324.2108,79.14427,131.38577
"96429",1324.2241,79.1638,131.37856
"96430",1324.2374,79.046616,131.23523
"96431",1324.2507,78.80492,130.96373
"96432",1324.264,78.470436,130.5919
"96433",1324.2773,78.07736,130.15103
"96434",1324.2906,77.65255,129.66614
"96435",1324.304,77.222855,129.16309
"96436",1324.3173,76.807816,128.66125
"96437",1324.3306,76.42451,128.17819
"96438",1324.3439,76.07782,127.71977
"96439",1324.3572,75.77997,127.299355
"96440",1324.3705,75.53338,126.92089
"96441",1324.3838,75.3283,126.57623
"96442",1324.3971,75.157394,126.25934
"96443",1324.4104,75.01579,125.96641
"96444",1324.4237,74.88884,125.6837
"96445",1324.437,74.75456,125.3897
"96446",1324.4503,74.615395,125.08662
"96447",1324.4636,74.48112,124.78407
"96448",1324.4769,74.38834,124.51884
"96449",1324.4902,74.42252,124.377655
"96450",1324.5035,74.72526,124.506096
"96451",1324.5168,75.440605,125.05661
"96452",1324.5302,76.6247,126.09823
"96453",1324.5435,78.21408,127.58213
"96454",1324.5568,80.028076,129.34032
"96455",1324.5701,81.80057,131.11368
"96456",1324.5834,83.25567,132.62505
"96457",1324.5967,84.21759,133.6887
"96458",1324.61,84.644844,134.24776
"96459",1324.6233,84.593575,134.34164
"96460",1324.6366,84.1712,134.06282
"96461",1324.6499,83.49493,133.51689
"96462",1324.6632,82.67216,132.80334
"96463",1324.6765,81.77127,131.98596
"96464",1324.6898,80.850845,131.1209
"96465",1324.7031,79.95239,130.24904
"96466",1324.7164,79.13939,129.43454
"96467",1324.7297,78.47532,128.74358
"96468",1324.743,78.013885,128.2345
"96469",1324.7563,77.77951,127.93806
"96470",1324.7697,77.74532,127.83448
"96471",1324.783,77.85031,127.86901
"96472",1324.7963,78.048065,127.99959
"96473",1324.8096,78.28489,128.17542
"96474",1324.8229,78.49729,128.33421
"96475",1324.8362,78.63889,128.42885
"96476",1324.8495,78.695045,128.44246
"96477",1324.8628,78.63157,128.3382
"96478",1324.8761,78.45335,128.1172
"96479",1324.8894,78.1799,127.795425
"96480",1324.9027,77.86008,127.418724
"96481",1324.916,77.52071,127.01249
"96482",1324.9293,77.19356,126.60786
"96483",1324.9426,76.90303,126.22963
"96484",1324.9559,76.66621,125.89603
"96485",1324.9692,76.48066,125.6063
"96486",1324.9825,76.33906,125.35472
"96487",1324.9958,76.22919,125.13045
"96488",1325.0092,76.13641,124.91984
"96489",1325.0225,76.04608,124.70877
"96490",1325.0358,75.96307,124.502205
"96491",1325.0491,75.897156,124.310135
"96492",1325.0624,75.8703,124.15507
"96493",1325.0757,75.92157,124.077286
"96494",1325.089,76.14618,124.174446
"96495",1325.1023,76.67353,124.58137
"96496",1325.1156,77.58663,125.39052
"96497",1325.1289,78.86351,126.59198
"96498",1325.1422,80.37232,128.06528
"96499",1325.1555,81.90799,129.61258
"96500",1325.1688,83.23613,131.00035
"96501",1325.1821,84.17609,132.04144
"96502",1325.1954,84.64973,132.64558
"96503",1325.2087,84.698555,132.83972
"96504",1325.222,84.40803,132.69603
"96505",1325.2354,83.88312,132.30887
"96506",1325.2487,83.211716,131.75882
"96507",1325.262,82.44755,131.09502
"96508",1325.2753,81.62722,130.35118
"96509",1325.2886,80.79225,129.56706
"96510",1325.3019,80.00366,128.80324
"96511",1325.3152,79.30785,128.10754
"96512",1325.3285,78.75609,127.53415
"96513",1325.3418,78.397194,127.13638
"96514",1325.3551,78.22873,126.91783
"96515",1325.3684,78.221405,126.855156
"96516",1325.3817,78.33372,126.91189
"96517",1325.395,78.538795,127.064896
"96518",1325.4083,78.785385,127.26582
"96519",1325.4216,79.01732,127.4598
"96520",1325.4349,79.19554,127.607315
"96521",1325.4482,79.293205,127.67984
"96522",1325.4615,79.30053,127.66508
"96523",1325.4749,79.22484,127.56753
"96524",1325.4882,79.08812,127.406586
"96525",1325.5015,78.91722,127.20719
"96526",1325.5148,78.7219,126.978035
"96527",1325.5281,78.519264,126.73546
"96528",1325.5414,78.31907,126.48899
"96529",1325.5547,78.13107,126.24847
"96530",1325.568,77.95773,126.01672
"96531",1325.5813,77.806366,125.80154
"96532",1325.5946,77.67452,125.60114
"96533",1325.6079,77.55978,125.41373
"96534",1325.6212,77.454796,125.23249
"96535",1325.6345,77.35714,125.0553
"96536",1325.6478,77.25704,124.87261
"96537",1325.6611,77.154495,124.68435
"96538",1325.6744,77.07149,124.51242
"96539",1325.6877,77.051956,124.401375
"96540",1325.701,77.18623,124.44353
"96541",1325.7144,77.60616,124.77553
"96542",1325.7277,78.41428,125.50884
"96543",1325.741,79.61547,126.66048
"96544",1325.7543,81.09743,128.13042
"96545",1325.7676,82.66239,129.72968
"96546",1325.7809,84.0589,131.20938
"96547",1325.7942,85.07454,132.35187
"96548",1325.8075,85.6141,133.05
"96549",1325.8208,85.694664,133.30602
"96550",1325.8341,85.40902,133.19833
"96551",1325.8474,84.88411,132.84245
"96552",1325.8607,84.25422,132.36519
"96553",1325.874,83.60235,131.84627
"96554",1325.8873,82.984665,131.34116
"96555",1325.9006,82.41581,130.86557
"96556",1325.914,81.89578,130.42104
"96557",1325.9272,81.42458,130.00908
"96558",1325.9406,81.0193,129.64832
"96559",1325.9539,80.71412,129.37498
"96560",1325.9672,80.5359,129.21909
"96561",1325.9805,80.50172,129.20166
"96562",1325.9938,80.58228,129.29791
"96563",1326.0071,80.743416,129.47725
"96564",1326.0204,80.92409,129.68115
"96565",1326.0337,81.08034,129.86629
"96566",1326.047,81.17311,129.99283
"96567",1326.0603,81.17799,130.03438
"96568",1326.0736,81.0901,129.9833
"96569",1326.0869,80.92897,129.85625
"96570",1326.1002,80.706795,129.6631
"96571",1326.1135,80.45289,129.43129
"96572",1326.1268,80.19165,129.1842
"96573",1326.1401,79.94507,128.9436
"96574",1326.1534,79.727776,128.7246
"96575",1326.1667,79.54223,128.53053
"96576",1326.18,79.38598,128.35997
"96577",1326.1934,79.26391,128.2187
"96578",1326.2067,79.1638,128.0956
"96579",1326.22,79.080795,127.98646
"96580",1326.2333,79.01976,127.8967
"96581",1326.2466,78.98802,127.83433
"96582",1326.2599,78.97826,127.79294
"96583",1326.2732,78.97826,127.76101
"96584",1326.2865,78.97337,127.7242
"96585",1326.2998,78.96117,127.67991
"96586",1326.3131,78.93919,127.62547
"96587",1326.3264,78.907455,127.560585
"96588",1326.3397,78.873276,127.49226
"96589",1326.353,78.84642,127.4302
"96590",1326.3663,78.82933,127.37706
"96591",1326.3796,78.78783,127.29897
"96592",1326.393,78.7219,127.19517
"96593",1326.4062,78.66331,127.096634
"96594",1326.4196,78.626686,127.01824
"96595",1326.4329,78.6096,126.95824
"96596",1326.4462,78.607155,126.912346
"96597",1326.4595,78.626686,126.88835
"96598",1326.4728,78.641335,126.860085
"96599",1326.4861,78.624245,126.80054
"96600",1326.4994,78.58518,126.71848
"96601",1326.5127,78.538795,126.627884
"96602",1326.526,78.49241,126.535835
"96603",1326.5393,78.44602,126.44234
"96604",1326.5526,78.40696,126.35471
"96605",1326.5659,78.37766,126.275635
"96606",1326.5792,78.36057,126.20785
"96607",1326.5925,78.345924,126.14197
"96608",1326.6058,78.33372,126.07807
"96609",1326.6191,78.32395,126.016235
"96610",1326.6324,78.31663,125.956535
"96611",1326.6458,78.3093,125.89661
"96612",1326.659,78.311745,125.846214
"96613",1326.6724,78.31907,125.80078
"96614",1326.6857,78.328835,125.75802
"96615",1326.699,78.34348,125.72044
"96616",1326.7123,78.35813,125.68333
"96617",1326.7256,78.37522,125.64911
"96618",1326.7389,78.38987,125.61298
"96619",1326.7522,78.399635,125.57243
"96620",1326.7655,78.43626,125.559044
"96621",1326.7788,78.6096,125.68352
"96622",1326.7921,79.10765,126.13812
"96623",1326.8054,80.093994,127.09658
"96624",1326.8187,81.57839,128.58392
"96625",1326.832,83.407036,130.4619
"96626",1326.8453,85.3016,132.46294
"96627",1326.8586,86.91051,134.23752
"96628",1326.872,87.96277,135.50574
"96629",1326.8853,88.37293,136.16473
"96630",1326.8986,88.24109,136.29454
"96631",1326.9119,87.75037,136.06136
"96632",1326.9252,87.07164,135.62483
"96633",1326.9385,86.35386,135.12804
"96634",1326.9518,85.697105,134.66985
"96635",1326.9651,85.138016,134.28879
"96636",1326.9784,84.66682,133.97815
"96637",1326.9917,84.25422,133.7114
"96638",1327.005,83.85626,133.44638
"96639",1327.0183,83.4461,133.15672
"96640",1327.0316,83.02617,132.84448
"96641",1327.0449,82.62821,132.54109
"96642",1327.0582,82.28397,132.27899
"96643",1327.0715,82.02518,132.09157
"96644",1327.0848,81.85428,131.98396
"96645",1327.0981,81.75418,131.94182
"96646",1327.1115,81.6907,131.93315
"96647",1327.1248,81.62966,131.92496
"96648",1327.1381,81.549095,131.89532
"96649",1327.1514,81.42947,131.82411
"96650",1327.1647,81.26833,131.70766
"96651",1327.178,81.06569,131.54465
"96652",1327.1913,80.82643,131.3387
"96653",1327.2046,80.56519,131.10329
"96654",1327.2179,80.291756,130.84752
"96655",1327.2312,80.02319,130.58807
"96656",1327.2445,79.764404,130.33002
"96657",1327.2578,79.53002,130.08827
"96658",1327.2711,79.32006,129.86362
"96659",1327.2844,79.13939,129.6617
"96660",1327.2977,78.98558,129.48099
"96661",1327.311,78.856186,129.31989
"96662",1327.3243,78.74387,129.17183
"96663",1327.3376,78.64866,129.03735
"96664",1327.351,78.56809,128.91455
"96665",1327.3643,78.49729,128.799
"96666",1327.3776,78.4387,128.69344
"96667",1327.3909,78.38743,128.59337
"96668",1327.4042,78.3386,128.49414
"96669",1327.4175,78.29221,128.39583
"96670",1327.4308,78.24582,128.29607
"96671",1327.4441,78.20187,128.1973
"96672",1327.4574,78.16037,128.0996
"96673",1327.4707,78.118866,128.0006
"96674",1327.484,78.082245,127.90519
"96675",1327.4973,78.0383,127.801315
"96676",1327.5106,77.996796,127.69851
"96677",1327.5239,77.95773,127.59685
"96678",1327.5372,77.91867,127.493965
"96679",1327.5505,77.88205,127.3923
"96680",1327.5638,77.84543,127.2895
"96681",1327.5771,77.81369,127.19043
"96682",1327.5905,77.79172,127.100136
"96683",1327.6038,77.78439,127.0238
"96684",1327.6171,77.78195,126.952126
"96685",1327.6304,77.786835,126.887695
"96686",1327.6437,77.79416,126.82586
"96687",1327.657,77.7966,126.75937
"96688",1327.6703,77.7966,126.69051
"96689",1327.6836,77.79416,126.61922
"96690",1327.6969,77.789276,126.5454
"96691",1327.7102,77.786835,126.47388
"96692",1327.7235,77.78439,126.402275
"96693",1327.7368,77.789276,126.33792
"96694",1327.7501,77.80881,126.28837
"96695",1327.7634,77.838104,126.24919
"96696",1327.7767,77.86984,126.21337
"96697",1327.79,77.90402,126.180984
"96698",1327.8033,77.92844,126.1399
"96699",1327.8167,77.945526,126.092255
"96700",1327.83,77.960175,126.0427
"96701",1327.8433,77.977264,125.99605
"96702",1327.8566,77.994354,125.94993
"96703",1327.8699,78.01633,125.909225
"96704",1327.8832,78.04562,125.87653
"96705",1327.8965,78.116425,125.88626
"96706",1327.9098,78.328835,126.03981
"96707",1327.9231,78.836655,126.49541
"96708",1327.9364,79.742424,127.36482
"96709",1327.9497,81.03151,128.64586
"96710",1327.963,82.562294,130.20888
"96711",1327.9763,84.085754,131.81241
"96712",1327.9896,85.32601,133.18034
"96713",1328.0029,86.07797,134.09874
"96714",1328.0162,86.29038,134.50108
"96715",1328.0295,86.056,134.46327
"96716",1328.0428,85.53109,134.12761
"96717",1328.0562,84.86214,133.6315
"96718",1328.0695,84.17853,133.09984
"96719",1328.0828,83.56817,132.62006
"96720",1328.0961,83.075,132.23839
"96721",1328.1094,82.686806,131.94629
"96722",1328.1227,82.36942,131.71288
"96723",1328.136,82.07889,131.49638
"96724",1328.1493,81.78836,131.27083
"96725",1328.1626,81.50515,131.0435
"96726",1328.1759,81.22682,130.81221
"96727",1328.1892,80.987564,130.6113
"96728",1328.2025,80.82643,130.48103
"96729",1328.2158,80.76051,130.44095
"96730",1328.2291,80.75563,130.45984
"96731",1328.2424,80.78493,130.51276
"96732",1328.2557,80.816666,130.56903
"96733",1328.269,80.816666,130.59456
"96734",1328.2823,80.75075,130.55417
"96735",1328.2957,80.621346,130.44823
"96736",1328.309,80.45045,130.29675
"96737",1328.3223,80.25269,130.11308
"96738",1328.3356,80.03784,129.90613
"96739",1328.3489,79.815674,129.68515
"96740",1328.3622,79.60082,129.46454
"96741",1328.3755,79.395744,129.24698
"96742",1328.3888,79.21263,129.04498
"96743",1328.4021,79.04906,128.8568
"96744",1328.4154,78.907455,128.68547
"96745",1328.4287,78.785385,128.52925
"96746",1328.442,78.677956,128.38387
"96747",1328.4553,78.58762,128.25221
"96748",1328.4686,78.519264,128.13971
"96749",1328.4819,78.470436,128.0446
"96750",1328.4952,78.4387,127.965065
"96751",1328.5085,78.42405,127.90163
"96752",1328.5219,78.42161,127.84994
"96753",1328.5352,78.42649,127.8055
"96754",1328.5485,78.433815,127.76365
"96755",1328.5618,78.44602,127.72691
"96756",1328.5751,78.45335,127.68568
"96757",1328.5884,78.45335,127.637344
"96758",1328.6017,78.44114,127.576805
"96759",1328.615,78.42161,127.50856
"96760",1328.6283,78.39231,127.42994
"96761",1328.6416,78.3679,127.355286
"96762",1328.6549,78.3386,127.27499
"96763",1328.6682,78.29954,127.184006
"96764",1328.6815,78.24094,127.072266
"96765",1328.6948,78.184784,126.96114
"96766",1328.7081,78.14816,126.8678
"96767",1328.7214,78.133514,126.79528
"96768",1328.7347,78.135956,126.739395
"96769",1328.748,78.153046,126.698235
"96770",1328.7614,78.167694,126.65517
"96771",1328.7747,78.167694,126.59791
"96772",1328.788,78.153046,126.526
"96773",1328.8013,78.14816,126.4634
"96774",1328.8146,78.15549,126.41286
"96775",1328.8279,78.17502,126.37475
"96776",1328.8412,78.20676,126.34946
"96777",1328.8545,78.24826,126.33492
"96778",1328.8678,78.294655,126.32658
"96779",1328.8811,78.345924,126.324554
"96780",1328.8944,78.38987,126.31681
"96781",1328.9077,78.43137,126.308
"96782",1328.921,78.46067,126.28828
"96783",1328.9343,78.47532,126.25482
"96784",1328.9476,78.47776,126.20962
"96785",1328.9609,78.467995,126.15228
"96786",1328.9742,78.45579,126.0922
"96787",1328.9875,78.47532,126.06348
"96788",1329.0009,78.61204,126.15255
"96789",1329.0142,79.00511,126.50225
"96790",1329.0275,79.7522,127.21825
"96791",1329.0408,80.85573,128.31403
"96792",1329.0541,82.193634,129.67868
"96793",1329.0674,83.54864,131.10223
"96794",1329.0807,84.66682,132.33131
"96795",1329.094,85.35287,133.16321
"96796",1329.1073,85.53353,133.51115
"96797",1329.1206,85.27474,133.4253
"96798",1329.1339,84.7132,133.0286
"96799",1329.1472,83.9881,132.45078
"96800",1329.1605,83.22392,131.81123
"96801",1329.1738,82.51591,131.20396
"96802",1329.1871,81.90311,130.66978
"96803",1329.2004,81.39529,130.22144
"96804",1329.2137,80.9778,129.84755
"96805",1329.227,80.64332,129.54362
"96806",1329.2404,80.38941,129.30983
"96807",1329.2537,80.22583,129.15842
"96808",1329.267,80.16235,129.10199
"96809",1329.2803,80.19409,129.1388
"96810",1329.2936,80.289314,129.24008
"96811",1329.3069,80.413826,129.37364
"96812",1329.3202,80.53834,129.5111
"96813",1329.3335,80.635994,129.62558
"96814",1329.3468,80.69215,129.70161
"96815",1329.3601,80.689705,129.72081
"96816",1329.3734,80.62623,129.6789
"96817",1329.3867,80.50416,129.5764
"96818",1329.4,80.32838,129.41638
"96819",1329.4133,80.12085,129.21912
"96820",1329.4266,79.90845,129.0105
"96821",1329.44,79.7058,128.805
"96822",1329.4532,79.5227,128.61269
"96823",1329.4666,79.35912,128.43419
"96824",1329.4799,79.21019,128.26523
"96825",1329.4932,79.080795,128.11115
"96826",1329.5065,78.97337,127.975
"96827",1329.5198,78.890366,127.85991
"96828",1329.5331,78.83177,127.76664
"96829",1329.5464,78.80492,127.70328
"96830",1329.5597,78.802475,127.66349
"96831",1329.573,78.819565,127.64316
"96832",1329.5863,78.836655,127.62336
"96833",1329.5996,78.856186,127.60654
"96834",1329.6129,78.870834,127.58544
"96835",1329.6262,78.88548,127.564804
"96836",1329.6395,78.89281,127.5373
"96837",1329.6528,78.905014,127.51491
"96838",1329.6661,78.91722,127.4929
"96839",1329.6794,78.91966,127.4615
"96840",1329.6927,78.905014,127.41309
"96841",1329.706,78.87572,127.34958
"96842",1329.7194,78.83177,127.2705
"96843",1329.7327,78.77562,127.17784
"96844",1329.746,78.71458,127.07854
"96845",1329.7593,78.65598,126.979774
"96846",1329.7726,78.607155,126.88895
"96847",1329.7859,78.536354,126.77462
"96848",1329.7992,78.45335,126.645874
"96849",1329.8125,78.382545,126.52674
"96850",1329.8258,78.34104,126.43469
"96851",1329.8391,78.32395,126.36576
"96852",1329.8524,78.33372,126.32315
"96853",1329.8657,78.37522,126.312584
"96854",1329.879,78.41917,126.305756
"96855",1329.8923,78.45335,126.290535
"96856",1329.9056,78.467995,126.25685
"96857",1329.919,78.48997,126.23095
"96858",1329.9323,78.5095,126.20329
"96859",1329.9456,78.52659,126.173805
"96860",1329.9589,78.53391,126.135086
"96861",1329.9722,78.53147,126.08683
"96862",1329.9855,78.519264,126.02873
"96863",1329.9988,78.50706,125.97025
"96864",1330.0121,78.49729,125.91383
"96865",1330.0254,78.51682,125.886406
"96866",1330.0387,78.61936,125.9426
"96867",1330.052,78.907455,126.187546
"96868",1330.0653,79.47387,126.71982
"96869",1330.0786,80.35279,127.5823
"96870",1330.0919,81.463646,128.70418
"96871",1330.1052,82.6453,129.93158
"96872",1330.1185,83.68047,131.04942
"96873",1330.1318,84.37873,131.8627
"96874",1330.1451,84.644844,132.26566
"96875",1330.1584,84.50324,132.26921
"96876",1330.1718,84.04913,131.95583
"96877",1330.185,83.40948,131.4427
"96878",1330.1984,82.68925,130.82903
"96879",1330.2117,81.969025,130.19284
"96880",1330.225,81.307396,129.59274
"96881",1330.2383,80.73365,129.05986
"96882",1330.2516,80.257576,128.60672
"96883",1330.2649,79.886475,128.24367
"96884",1330.2782,79.63256,127.986206
"96885",1330.2915,79.5227,127.86486
"96886",1330.3048,79.554436,127.88168
"96887",1330.3181,79.71801,128.03133
"96888",1330.3314,79.98169,128.2862
"96889",1330.3447,80.2942,128.59813
"96890",1330.358,80.59693,128.91006
"96891",1330.3713,80.8362,129.16798
"96892",1330.3846,80.99245,129.35037
"96893",1330.398,81.05592,129.44487
"96894",1330.4113,81.02907,129.45102
"96895",1330.4246,80.92897,129.38309
"96896",1330.4379,80.780045,129.2632
"96897",1330.4512,80.601814,129.10934
"96898",1330.4645,80.41627,128.94261
"96899",1330.4778,80.233154,128.7725
"96900",1330.4911,80.059814,128.60645
"96901",1330.5044,79.89868,128.44717
"96902",1330.5177,79.75952,128.30484
"96903",1330.531,79.63744,128.17525
"96904",1330.5443,79.53246,128.05893
"96905",1330.5576,79.44457,127.95643
"96906",1330.5709,79.37621,127.87071
"96907",1330.5842,79.3225,127.79751
"96908",1330.5975,79.27856,127.73239
"96909",1330.6108,79.24437,127.67566
"96910",1330.6241,79.22484,127.632515
"96911",1330.6375,79.21507,127.598526
"96912",1330.6508,79.21263,127.571556
"96913",1330.6641,79.217514,127.551834
"96914",1330.6774,79.22484,127.534706
"96915",1330.6907,79.23216,127.51781
"96916",1330.704,79.234604,127.496254
"96917",1330.7173,79.22728,127.46501
"96918",1330.7306,79.21507,127.42866
"96919",1330.7439,79.19554,127.3846
"96920",1330.7572,79.17357,127.33749
"96921",1330.7705,79.151596,127.28969
"96922",1330.7838,79.13695,127.24853
"96923",1330.7971,79.12718,127.21179
"96924",1330.8104,79.1223,127.179634
"96925",1330.8237,79.11986,127.149765
"96926",1330.837,79.11009,127.112495
"96927",1330.8503,79.093,127.0676
"96928",1330.8636,79.07103,127.01728
"96929",1330.877,79.046616,126.96384
"96930",1330.8903,79.01976,126.90719
"96931",1330.9036,78.99046,126.84726
"96932",1330.9169,78.96361,126.78886
"96933",1330.9302,78.93919,126.732056
"96934",1330.9435,78.91234,126.67205
"96935",1330.9568,78.89281,126.61853
"96936",1330.9701,78.87816,126.56928
"96937",1330.9834,78.86839,126.52446
"96938",1330.9967,78.856186,126.47689
"96939",1331.01,78.8513,126.436264
"96940",1331.0233,78.86839,126.41746
"96941",1331.0366,78.97826,126.49196
"96942",1331.0499,79.276115,126.75789
"96943",1331.0632,79.84497,127.30412
"96944",1331.0765,80.689705,128.14401
"96945",1331.0898,81.71999,129.19586
"96946",1331.1031,82.76738,130.297
"96947",1331.1165,83.63653,131.25262
"96948",1331.1298,84.16632,131.89606
"96949",1331.1431,84.30305,132.16298
"96950",1331.1564,84.088196,132.0826
"96951",1331.1697,83.61944,131.7416
"96952",1331.183,82.99687,131.23213
"96953",1331.1963,82.31571,130.64462
"96954",1331.2096,81.64187,130.04315
"96955",1331.2229,81.01686,129.46945
"96956",1331.2362,80.46021,128.94458
"96957",1331.2495,79.98169,128.48044
"96958",1331.2628,79.61059,128.10876
"96959",1331.2761,79.361565,127.84757
"96960",1331.2894,79.2517,127.71776
"96961",1331.3027,79.28832,127.730995
"96962",1331.316,79.47143,127.89186
"96963",1331.3293,79.764404,128.16832
"96964",1331.3427,80.10864,128.50519
"96965",1331.356,80.448006,128.84795
"96966",1331.3693,80.73365,129.1476
"96967",1331.3826,80.938736,129.37561
"96968",1331.3959,81.04372,129.50993
"96969",1331.4092,81.05104,129.54988
"96970",1331.4225,80.98268,129.51437
"96971",1331.4358,80.85817,129.42058
"96972",1331.4491,80.69947,129.2887
"96973",1331.4624,80.52125,129.13234
"96974",1331.4757,80.33814,128.96553
"96975",1331.489,80.15747,128.79543
"96976",1331.5023,79.991455,128.63434
"96977",1331.5156,79.84253,128.48514
"96978",1331.5289,79.71313,128.35081
"96979",1331.5422,79.60815,128.23686
"96980",1331.5555,79.5227,128.13916
"96981",1331.5688,79.4519,128.05344
"96982",1331.5822,79.37377,127.95818
"96983",1331.5955,79.28832,127.853165
"96984",1331.6088,79.21263,127.75523
"96985",1331.6221,79.17113,127.689125
"96986",1331.6354,79.166245,127.65834
"96987",1331.6487,79.18822,127.65426
"96988",1331.662,79.23216,127.67284
"96989",1331.6753,79.281,127.69768
"96990",1331.6886,79.31518,127.70939
"96991",1331.7019,79.33227,127.70508
"96992",1331.7152,79.3518,127.70374
"96993",1331.7285,79.378654,127.71034
"96994",1331.7418,79.398186,127.71046
"96995",1331.7551,79.40551,127.698975
"96996",1331.7684,79.40795,127.68284
"96997",1331.7817,79.40795,127.66434
"96998",1331.795,79.40551,127.643394
"96999",1331.8083,79.40307,127.622375
"97000",1331.8217,79.398186,127.59884
"97001",1331.835,79.398186,127.58003
"97002",1331.8483,79.3933,127.55634
"97003",1331.8616,79.38354,127.52762
"97004",1331.8749,79.37621,127.50103
"97005",1331.8882,79.36645,127.47177
"97006",1331.9015,79.34692,127.43244
"97007",1331.9148,79.31762,127.38274
"97008",1331.9281,79.27856,127.32235
"97009",1331.9414,79.234604,127.25585
"97010",1331.9547,79.20775,127.20508
"97011",1331.968,79.24925,127.221825
"97012",1331.9813,79.447014,127.396126
"97013",1331.9946,79.8938,127.82563
"97014",1332.0079,80.62623,128.55475
"97015",1332.0212,81.58083,129.52893
"97016",1332.0345,82.616005,130.61351
"97017",1332.0479,83.55596,131.63522
"97018",1332.0612,84.22247,132.41286
"97019",1332.0745,84.52033,132.84267
"97020",1332.0878,84.454414,132.91801
"97021",1332.1011,84.09796,132.70076
"97022",1332.1144,83.55108,132.28194
"97023",1332.1277,82.90898,131.75081
"97024",1332.141,82.23514,131.16788
"97025",1332.1543,81.58816,130.59074
"97026",1332.1676,80.99489,130.0471
"97027",1332.1809,80.47486,129.55817
"97028",1332.1942,80.03784,129.13599
"97029",1332.2075,79.708244,128.80757
"97030",1332.2208,79.51537,128.60558
"97031",1332.2341,79.466545,128.5416
"97032",1332.2474,79.56664,128.62502
"97033",1332.2607,79.79614,128.84097
"97034",1332.274,80.11597,129.15442
"97035",1332.2874,80.47486,129.51694
"97036",1332.3007,80.83864,129.89555
"97037",1332.314,81.17799,130.26112
"97038",1332.3273,81.46609,130.58603
"97039",1332.3406,81.68093,130.8467
"97040",1332.3539,81.80789,131.02618
"97041",1332.3672,81.83719,131.11198
"97042",1332.3805,81.76395,131.09616
"97043",1332.3938,81.59792,130.98526
"97044",1332.4071,81.375755,130.81303
"97045",1332.4204,81.1194,130.59967
"97046",1332.4337,80.850845,130.3661
"97047",1332.447,80.58961,130.13145
"97048",1332.4603,80.35279,129.91307
"97049",1332.4736,80.14526,129.71657
"97050",1332.4869,79.96216,129.538
"97051",1332.5002,79.80591,129.38055
"97052",1332.5135,79.67895,129.24753
"97053",1332.5269,79.569084,129.12762
"97054",1332.5402,79.47631,129.02138
"97055",1332.5535,79.395744,128.92444
"97056",1332.5668,79.33471,128.84451
"97057",1332.5801,79.28344,128.77245
"97058",1332.5934,79.24925,128.71587
"97059",1332.6067,79.22484,128.66798
"97060",1332.62,79.21019,128.6291
"97061",1332.6333,79.19554,128.58977
"97062",1332.6466,79.183334,128.55241
"97063",1332.6599,79.166245,128.5098
"97064",1332.6732,79.14427,128.46176
"97065",1332.6865,79.114975,128.40572
"97066",1332.6998,79.06859,128.33167
"97067",1332.7131,79.009995,128.24396
"97068",1332.7264,78.9514,128.15442
"97069",1332.7397,78.90257,128.07281
"97070",1332.753,78.86107,127.99702
"97071",1332.7664,78.82445,127.924805
"97072",1332.7797,78.78783,127.85145
"97073",1332.793,78.73411,127.75985
"97074",1332.8063,78.658424,127.64461
"97075",1332.8196,78.57053,127.51479
"97076",1332.8329,78.49973,127.39932
"97077",1332.8462,78.49485,127.34756
"97078",1332.8595,78.641335,127.44701
"97079",1332.8728,79.03441,127.79762
"97080",1332.8861,79.72045,128.45349
"97081",1332.8994,80.66041,129.3847
"97082",1332.9127,81.71999,130.46494
"97083",1332.926,82.72587,131.52457
"97084",1332.9393,83.50225,132.38614
"97085",1332.9526,83.94415,132.93748
"97086",1332.966,84.051575,133.16817
"97087",1332.9792,83.89288,133.1361
"97088",1332.9926,83.560844,132.9257
"97089",1333.0059,83.13115,132.60728
"97090",1333.0192,82.65995,132.23393
"97091",1333.0325,82.18143,131.83853
"97092",1333.0458,81.71267,131.43794
"97093",1333.0591,81.26833,131.04713
"97094",1333.0724,80.87282,130.69125
"97095",1333.0857,80.54566,130.39137
"97096",1333.099,80.31373,130.1765
"97097",1333.1123,80.201416,130.07399
"97098",1333.1256,80.22095,130.09982
"97099",1333.1389,80.35523,130.24101
"97100",1333.1522,80.57496,130.47185
"97101",1333.1655,80.8362,130.75105
"97102",1333.1788,81.08522,131.02621
"97103",1333.1921,81.26589,131.2408
"97104",1333.2054,81.35378,131.36826
"97105",1333.2188,81.36111,131.4179
"97106",1333.232,81.31228,131.4116
"97107",1333.2454,81.22682,131.36716
"97108",1333.2587,81.1194,131.29808
"97109",1333.272,81.01686,131.23053
"97110",1333.2853,80.907,131.15245
"97111",1333.2986,80.782486,131.05629
"97112",1333.3119,80.62379,130.92204
"97113",1333.3252,80.42115,130.7389
"97114",1333.3385,80.16968,130.5006
"97115",1333.3518,79.89136,130.22757
"97116",1333.3651,79.62035,129.95317
"97117",1333.3784,79.378654,129.6996
"97118",1333.3917,79.19554,129.49707
"97119",1333.405,79.078354,129.35474
"97120",1333.4183,79.00511,129.25269
"97121",1333.4316,78.94896,129.16544
"97122",1333.445,78.91722,129.10085
"97123",1333.4583,78.90013,129.04991
"97124",1333.4716,78.89281,129.00821
"97125",1333.4849,78.89525,128.97604
"97126",1333.4982,78.90013,128.9464
"97127",1333.5115,78.905014,128.9169
"97128",1333.5248,78.91966,128.89732
"97129",1333.5381,78.941635,128.88553
"97130",1333.5514,78.96849,128.8793
"97131",1333.5647,78.99779,128.87636
"97132",1333.578,79.027084,128.87433
"97133",1333.5913,79.046616,128.86345
"97134",1333.6046,79.05882,128.84586
"97135",1333.6179,79.063705,128.82132
"97136",1333.6312,79.05882,128.78717
"97137",1333.6445,79.04906,128.74799
"97138",1333.6578,79.03685,128.70605
"97139",1333.6711,79.01976,128.65886
"97140",1333.6844,78.99779,128.60625
"97141",1333.6978,78.98314,128.56027
"97142",1333.711,79.012436,128.55779
"97143",1333.7244,79.15404,128.66852
"97144",1333.7377,79.47875,128.9668
"97145",1333.751,80.02319,129.49495
"97146",1333.7643,80.765396,130.23788
"97147",1333.7776,81.60769,131.1041
"97148",1333.7909,82.408485,131.95514
"97149",1333.8042,83.02861,132.65053
"97150",1333.8175,83.387505,133.10406
"97151",1333.8308,83.47051,133.29294
"97152",1333.8441,83.3045,133.23538
"97153",1333.8574,82.95781,132.99196
"97154",1333.8707,82.48905,132.61563
"97155",1333.884,81.95438,132.15874
"97156",1333.8973,81.392845,131.65828
"97157",1333.9106,80.83864,131.1476
"97158",1333.924,80.325935,130.6611
"97159",1333.9373,79.87915,130.2245
"97160",1333.9506,79.534904,129.87648
"97161",1333.9639,79.32006,129.6471
"97162",1333.9772,79.24681,129.5526
"97163",1333.9905,79.31518,129.59743
"97164",1334.0038,79.51049,129.77133
"97165",1334.0171,79.78882,130.03436
"97166",1334.0304,80.10132,130.34027
"97167",1334.0437,80.39918,130.6413
"97168",1334.057,80.64088,130.89548
"97169",1334.0703,80.799576,131.0742
"97170",1334.0836,80.87038,131.17
"97171",1334.0969,80.86061,131.18744
"97172",1334.1102,80.79225,131.14598
"97173",1334.1235,80.68482,131.06331
"97174",1334.1368,80.550545,130.95044
"97175",1334.1501,80.40162,130.81873
"97176",1334.1635,80.24048,130.67014
"97177",1334.1768,80.08179,130.51895
"97178",1334.1901,79.92798,130.3677
"97179",1334.2034,79.781494,130.21896
"97180",1334.2167,79.639885,130.07053
"97181",1334.23,79.50805,129.92743
"97182",1334.2433,79.38842,129.79242
"97183",1334.2566,79.28832,129.6732
"97184",1334.2699,79.20775,129.57039
"97185",1334.2832,79.15404,129.49191
"97186",1334.2965,79.12474,129.43617
"97187",1334.3098,79.11009,129.39417
"97188",1334.3231,79.11009,129.36635
"97189",1334.3364,79.11986,129.3483
"97190",1334.3497,79.14183,129.34276
"97191",1334.363,79.166245,129.34035
"97192",1334.3763,79.19066,129.3387
"97193",1334.3896,79.21507,129.33781
"97194",1334.403,79.22728,129.32549
"97195",1334.4163,79.217514,129.29156
"97196",1334.4296,79.1931,129.24269
"97197",1334.4429,79.16136,129.18573
"97198",1334.4562,79.149155,129.14731
"97199",1334.4695,79.22728,129.19884
"97200",1334.4828,79.520256,129.46767
"97201",1334.4961,80.111084,130.0435
"97202",1334.5094,81.0193,130.9552
"97203",1334.5227,82.16922,132.13698
"97204",1334.536,83.407036,133.44258
"97205",1334.5493,84.52766,134.66968
"97206",1334.5626,85.350426,135.63394
"97207",1334.5759,85.77768,136.2284
"97208",1334.5892,85.81186,136.44313
"97209",1334.6025,85.521324,136.33421
"97210",1334.6158,84.99397,135.9794
"97211",1334.6292,84.33723,135.47871
"97212",1334.6425,83.63409,134.91112
"97213",1334.6558,82.94316,134.33376
"97214",1334.6691,82.30595,133.78851
"97215",1334.6824,81.74685,133.30148
"97216",1334.6957,81.270775,132.88
"97217",1334.709,80.89479,132.54373
"97218",1334.7223,80.6482,132.3251
"97219",1334.7356,80.54078,132.23795
"97220",1334.7489,80.57496,132.28903
"97221",1334.7622,80.726326,132.45837
"97222",1334.7755,80.96559,132.72034
"97223",1334.7888,81.231705,133.01663
"97224",1334.8021,81.47097,133.29439
"97225",1334.8154,81.63943,133.50882
"97226",1334.8287,81.71999,133.64062
"97227",1334.842,81.69802,133.67241
"97228",1334.8553,81.58083,133.60829
"97229",1334.8687,81.38796,133.46483
"97230",1334.882,81.146255,133.2665
"97231",1334.8953,80.88014,133.03621
"97232",1334.9086,80.6067,132.79027
"97233",1334.9219,80.34791,132.55045
"97234",1334.9352,80.1062,132.31961
"97235",1334.9485,79.89136,132.1081
"97236",1334.9618,79.70092,131.91426
"97237",1334.9751,79.53979,131.74377
"97238",1334.9884,79.38354,131.57314
"97239",1335.0017,79.22484,131.39517
"97240",1335.015,79.08324,131.22934
"97241",1335.0283,78.9807,131.09814
"97242",1335.0416,78.91966,131.00525
"97243",1335.0549,78.89525,130.94707
"97244",1335.0682,78.9099,130.92719
"97245",1335.0815,78.941635,130.92485
"97246",1335.0948,78.96605,130.91618
"97247",1335.1082,78.975815,130.89363
"97248",1335.1215,78.98314,130.86894
"97249",1335.1348,78.97826,130.83228
"97250",1335.1481,78.94896,130.77104
"97251",1335.1614,78.89769,130.68692
"97252",1335.1747,78.82201,130.57678
"97253",1335.188,78.75365,130.4716
"97254",1335.2013,78.765854,130.44485
"97255",1335.2146,78.98314,130.62357
"97256",1335.2279,79.52758,131.13623
"97257",1335.2412,80.45289,132.04677
"97258",1335.2545,81.705345,133.31339
"97259",1335.2678,83.12871,134.79004
"97260",1335.2811,84.5008,136.2599
"97261",1335.2944,85.592125,137.49188
"97262",1335.3077,86.27085,138.34537
"97263",1335.321,86.50767,138.77815
"97264",1335.3344,86.35874,138.8326
"97265",1335.3477,85.93149,138.60405
"97266",1335.361,85.33822,138.19614
"97267",1335.3743,84.68635,137.71109
"97268",1335.3876,84.04913,137.22032
"97269",1335.4009,83.46563,136.76335
"97270",1335.4142,82.948044,136.35406
"97271",1335.4275,82.49149,135.98964
"97272",1335.4408,82.09842,135.67442
"97273",1335.4541,81.78104,135.42262
"97274",1335.4674,81.56374,135.26099
"97275",1335.4807,81.461205,135.20732
"97276",1335.494,81.46853,135.26031
"97277",1335.5073,81.549095,135.38678
"97278",1335.5206,81.65896,135.54506
"97279",1335.5339,81.75174,135.68968
"97280",1335.5472,81.78348,135.77617
"97281",1335.5605,81.72976,135.77818
"97282",1335.5739,81.58572,135.6882
"97283",1335.5872,81.36111,135.51315
"97284",1335.6005,81.07057,135.26515
"97285",1335.6138,80.73609,134.96413
"97286",1335.6271,80.38697,134.63802
"97287",1335.6404,80.04761,134.31075
"97288",1335.6537,79.73754,134.00217
"97289",1335.667,79.4641,133.72052
"97290",1335.6803,79.234604,133.47427
"97291",1335.6936,79.044174,133.25992
"97292",1335.7069,78.887924,133.07379
"97293",1335.7202,78.76097,132.91208
"97294",1335.7335,78.65598,132.76837
"97295",1335.7468,78.56809,132.63847
"97296",1335.7601,78.504616,132.53024
"97297",1335.7734,78.45823,132.43712
"97298",1335.7867,78.42405,132.35475
"97299",1335.8,78.39231,132.27376
"97300",1335.8134,78.36057,132.19177
"97301",1335.8267,78.32151,132.10147
"97302",1335.84,78.27268,132.00018
"97303",1335.8533,78.21652,131.89005
"97304",1335.8666,78.153046,131.77083
"97305",1335.8799,78.07492,131.63498
"97306",1335.8932,77.99191,131.4918
"97307",1335.9065,77.91135,131.34848
"97308",1335.9198,77.86984,131.2417
"97309",1335.9331,77.97482,131.2801
"97310",1335.9464,78.35813,131.60013
"97311",1335.9597,79.11742,132.3081
"97312",1335.973,80.25025,133.41336
"97313",1335.9863,81.651634,134.82257
"97314",1335.9996,83.12138,136.34393
"97315",1336.013,84.420235,137.74033
"97316",1336.0262,85.35287,138.8111
"97317",1336.0396,85.8436,139.4691
"97318",1336.0529,85.9144,139.72252
"97319",1336.0662,85.660484,139.65343
"97320",1336.0795,85.206375,139.3762
"97321",1336.0928,84.66682,138.99934
"97322",1336.1061,84.11261,138.59097
"97323",1336.1194,83.595024,138.2019
"97324",1336.1327,83.13603,137.85526
"97325",1336.146,82.72343,137.54065
"97326",1336.1593,82.34257,137.2449
"97327",1336.1726,81.988556,136.9641
"97328",1336.1859,81.67605,136.71373
"97329",1336.1992,81.41726,136.50732
"97330",1336.2125,81.2195,136.35385
"97331",1336.2258,81.08522,136.25769
"97332",1336.2391,81.007095,136.21349
"97333",1336.2524,80.95094,136.18881
"97334",1336.2657,80.88014,136.14774
"97335",1336.279,80.76784,136.06294
"97336",1336.2924,80.59937,135.91847
"97337",1336.3057,80.377205,135.71504
"97338",1336.319,80.111084,135.46071
"97339",1336.3323,79.815674,135.16876
"97340",1336.3456,79.49828,134.84561
"97341",1336.3589,79.17845,134.5101
"97342",1336.3722,78.86839,134.17436
"97343",1336.3855,78.5803,133.8509
"97344",1336.3988,78.31663,133.54286
"97345",1336.4121,78.0798,133.25343
"97346",1336.4254,77.86984,132.98346
"97347",1336.4387,77.67696,132.72401
"97348",1336.452,77.503624,132.47807
"97349",1336.4653,77.349815,132.24625
"97350",1336.4786,77.21797,132.03159
"97351",1336.492,77.10811,131.83478
"97352",1336.5052,77.01778,131.65407
"97353",1336.5186,76.944534,131.48763
"97354",1336.5319,76.88106,131.32866
"97355",1336.5452,76.82979,131.17992
"97356",1336.5585,76.78584,131.0369
"97357",1336.5718,76.75166,130.90227
"97358",1336.5851,76.72724,130.77634
"97359",1336.5984,76.68574,130.63255
"97360",1336.6117,76.612495,130.45573
"97361",1336.625,76.52216,130.25954
"97362",1336.6383,76.42451,130.05319
"97363",1336.6516,76.32441,129.84135
"97364",1336.6649,76.23163,129.63371
"97365",1336.6782,76.192566,129.47688
"97366",1336.6915,76.29267,129.45801
"97367",1336.7048,76.646675,129.69615
"97368",1336.7181,77.37423,130.31891
"97369",1336.7314,78.52659,131.3892
"97370",1336.7448,80.01587,132.83244
"97371",1336.758,81.64675,134.46382
"97372",1336.7714,83.16289,136.03142
"97373",1336.7847,84.33723,137.3046
"97374",1336.798,85.05745,138.16035
"97375",1336.8113,85.32845,138.5894
"97376",1336.8246,85.24788,138.67534
"97377",1336.8379,84.947586,138.53905
"97378",1336.8512,84.55451,138.30058
"97379",1336.8645,84.159,138.0474
"97380",1336.8778,83.79523,137.8136
"97381",1336.8911,83.44854,137.58551
"97382",1336.9044,83.07744,137.32217
"97383",1336.9177,82.64774,136.98865
"97384",1336.931,82.161896,136.58554
"97385",1336.9443,81.64919,136.1404
"97386",1336.9576,81.17067,135.71341
"97387",1336.971,80.782486,135.36182
"97388",1336.9843,80.51881,135.12259
"97389",1336.9976,80.37232,134.99232
"97390",1337.0109,80.306404,134.93805
"97391",1337.0242,80.272224,134.91345
"97392",1337.0375,80.22095,134.87068
"97393",1337.0508,80.11597,134.77261
"97394",1337.0641,79.94751,134.60779
"97395",1337.0774,79.71557,134.3742
"97396",1337.0907,79.43725,134.08699
"97397",1337.104,79.132065,133.76422
"97398",1337.1173,78.81712,133.42215
"97399",1337.1306,78.5095,133.07756
"97400",1337.1439,78.21896,132.74045
"97401",1337.1572,77.95773,132.42355
"97402",1337.1705,77.72823,132.13023
"97403",1337.1838,77.53536,131.86636
"97404",1337.1971,77.36935,131.62332
"97405",1337.2104,77.22041,131.39218
"97406",1337.2238,77.08125,131.16615
"97407",1337.237,76.9543,130.94798
"97408",1337.2504,76.83467,130.73317
"97409",1337.2637,76.72724,130.52682
"97410",1337.277,76.63935,130.33665
"97411",1337.2903,76.57099,130.16327
"97412",1337.3036,76.51728,130.0024
"97413",1337.3169,76.47578,129.85205
"97414",1337.3302,76.44892,129.71506
"97415",1337.3435,76.42695,129.5821
"97416",1337.3568,76.40742,129.45091
"97417",1337.3701,76.385445,129.31667
"97418",1337.3834,76.36103,129.17929
"97419",1337.3967,76.33906,129.0436
"97420",1337.41,76.314644,128.90477
"97421",1337.4233,76.297554,128.7725
"97422",1337.4366,76.28535,128.64459
"97423",1337.45,76.280464,128.52362
"97424",1337.4633,76.27314,128.40005
"97425",1337.4766,76.265816,128.27626
"97426",1337.4899,76.25361,128.14735
"97427",1337.5032,76.23163,128.0083
"97428",1337.5165,76.19745,127.85636
"97429",1337.5298,76.173035,127.71312
"97430",1337.5431,76.21698,127.637474
"97431",1337.5564,76.453804,127.75608
"97432",1337.5697,77.02754,128.219
"97433",1337.583,78.05051,129.14906
"97434",1337.5963,79.50317,130.5408
"97435",1337.6096,81.23903,132.26114
"97436",1337.6229,82.99931,134.06015
"97437",1337.6362,84.5301,135.68466
"97438",1337.6495,85.643394,136.93953
"97439",1337.6628,86.27329,137.74579
"97440",1337.6761,86.48325,138.1518
"97441",1337.6895,86.40513,138.27628
"97442",1337.7028,86.16586,138.23717
"97443",1337.7161,85.855804,138.1198
"97444",1337.7294,85.540855,137.98784
"97445",1337.7427,85.22591,137.84604
"97446",1337.756,84.87923,137.66267
"97447",1337.7693,84.46418,137.4001
"97448",1337.7826,83.95636,137.03178
"97449",1337.7959,83.370415,136.56947
"97450",1337.8092,82.76738,136.07176
"97451",1337.8225,82.21561,135.60648
"97452",1337.8358,81.77127,135.23138
"97453",1337.8491,81.45388,134.96935
"97454",1337.8624,81.25124,134.81215
"97455",1337.8757,81.10719,134.7072
"97456",1337.889,80.96803,134.60265
"97457",1337.9023,80.78981,134.45468
"97458",1337.9156,80.55543,134.24498
"97459",1337.929,80.26734,133.97426
"97460",1337.9423,79.94507,133.66034
"97461",1337.9556,79.60082,133.31438
"97462",1337.9689,79.256584,132.95766
"97463",1337.9822,78.92943,132.60727
"97464",1337.9955,78.61936,132.26375
"97465",1338.0088,78.32395,131.92519
"97466",1338.0221,78.05539,131.60425
"97467",1338.0354,77.81369,131.30177
"97468",1338.0487,77.60128,131.02104
"97469",1338.062,77.41085,130.75565
"97470",1338.0753,77.24971,130.5136
"97471",1338.0886,77.11543,130.29337
"97472",1338.1019,76.998245,130.08603
"97473",1338.1152,76.88594,129.87991
"97474",1338.1285,76.77852,129.67517
"97475",1338.1418,76.67109,129.46707
"97476",1338.1552,76.57099,129.26294
"97477",1338.1685,76.47822,129.063
"97478",1338.1818,76.39765,128.87238
"97479",1338.1951,76.32929,128.69144
"97480",1338.2084,76.265816,128.51324
"97481",1338.2217,76.20477,128.33551
"97482",1338.235,76.1413,128.15343
"97483",1338.2483,76.085144,127.97669
"97484",1338.2616,76.036316,127.80553
"97485",1338.2749,75.999695,127.64504
"97486",1338.2882,75.97772,127.49806
"97487",1338.3015,75.965515,127.36016
"97488",1338.3148,75.965515,127.234085
"97489",1338.3281,75.98016,127.12266
"97490",1338.3414,76.01434,127.03122
"97491",1338.3547,76.06073,126.95306
"97492",1338.368,76.11932,126.88855
"97493",1338.3813,76.1828,126.83076
"97494",1338.3947,76.21698,126.74565
"97495",1338.408,76.21454,126.62499
"97496",1338.4213,76.19501,126.48717
"97497",1338.4346,76.175476,126.34873
"97498",1338.4479,76.17059,126.224335
"97499",1338.4612,76.20477,126.13885
"97500",1338.4745,76.36591,126.18139
"97501",1338.4878,76.76143,126.46334
"97502",1338.5011,77.4963,127.09701
"97503",1338.5144,78.61692,128.13939
"97504",1338.5277,80.08911,129.56836
"97505",1338.541,81.73708,131.21912
"97506",1338.5543,83.33379,132.87012
"97507",1338.5676,84.65949,134.3
"97508",1338.5809,85.57748,135.3636
"97509",1338.5942,86.07065,136.03107
"97510",1338.6075,86.202484,136.35262
"97511",1338.6208,86.09262,136.43658
"97512",1338.6342,85.85336,136.38773
"97513",1338.6475,85.57015,136.28743
"97514",1338.6608,85.28451,136.17586
"97515",1338.6741,84.99153,136.04802
"97516",1338.6874,84.64973,135.8622
"97517",1338.7007,84.23224,135.59001
"97518",1338.714,83.75372,135.24376
"97519",1338.7273,83.25811,134.86545
"97520",1338.7406,82.80644,134.5156
"97521",1338.7539,82.44999,134.24684
"97522",1338.7672,82.21561,134.08902
"97523",1338.7805,82.07645,134.0191
"97524",1338.7938,81.986115,133.99367
"97525",1338.8071,81.90311,133.97273
"97526",1338.8204,81.78348,133.91258
"97527",1338.8337,81.61013,133.79497
"97528",1338.847,81.38308,133.61824
"97529",1338.8604,81.10475,133.38313
"97530",1338.8737,80.782486,133.0954
"97531",1338.887,80.43336,132.77072
"97532",1338.9003,80.07446,132.42537
"97533",1338.9136,79.72289,132.07613
"97534",1338.9269,79.39086,131.73543
"97535",1338.9402,79.08812,131.41365
"97536",1338.9535,78.81712,131.11415
"97537",1338.9668,78.57786,130.83792
"97538",1338.9801,78.35813,130.57375
"97539",1338.9934,78.15549,130.3198
"97540",1339.0067,77.97238,130.07904
"97541",1339.02,77.806366,129.84966
"97542",1339.0333,77.65255,129.62729
"97543",1339.0466,77.51339,129.41476
"97544",1339.0599,77.39376,129.21742
"97545",1339.0732,77.2839,129.02611
"97546",1339.0865,77.17891,128.83624
"97547",1339.0999,77.086136,128.6553
"97548",1339.1132,77.01045,128.48856
"97549",1339.1265,76.94209,128.32677
"97550",1339.1398,76.8835,128.1726
"97551",1339.1531,76.82979,128.0215
"97552",1339.1664,76.7834,127.876045
"97553",1339.1797,76.734566,127.72669
"97554",1339.193,76.68574,127.57582
"97555",1339.2063,76.63935,127.425865
"97556",1339.2196,76.60273,127.284225
"97557",1339.2329,76.56855,127.14388
"97558",1339.2462,76.53193,127.00003
"97559",1339.2595,76.50263,126.86236
"97560",1339.2728,76.47578,126.72621
"97561",1339.2861,76.453804,126.59411
"97562",1339.2994,76.43427,126.46376
"97563",1339.3127,76.4123,126.33036
"97564",1339.326,76.383,126.18895
"97565",1339.3394,76.36347,126.05639
"97566",1339.3527,76.4123,125.99158
"97567",1339.366,76.64179,126.108955
"97568",1339.3793,77.188675,126.550896
"97569",1339.3926,78.13107,127.40544
"97570",1339.4059,79.44213,128.6581
"97571",1339.4192,80.99489,130.19342
"97572",1339.4325,82.58427,131.81389
"97573",1339.4458,83.97833,133.28871
"97574",1339.4591,85.00374,134.43845
"97575",1339.4724,85.60677,135.19785
"97576",1339.4857,85.824066,135.59035
"97577",1339.499,85.75571,135.704
"97578",1339.5123,85.50179,135.62994
"97579",1339.5256,85.16487,135.46495
"97580",1339.539,84.83284,135.29433
"97581",1339.5522,84.53742,135.14993
"97582",1339.5656,84.244446,134.99875
"97583",1339.5789,83.90997,134.79692
"97584",1339.5922,83.50225,134.51138
"97585",1339.6055,83.0164,134.13498
"97586",1339.6188,82.48905,133.70189
"97587",1339.6321,81.991,133.28162
"97588",1339.6454,81.600365,132.9532
"97589",1339.6587,81.341576,132.74443
"97590",1339.672,81.19264,132.63742
"97591",1339.6853,81.109634,132.59169
"97592",1339.6986,81.04616,132.5629
"97593",1339.7119,80.96315,132.51259
"97594",1339.7252,80.84596,132.4255
"97595",1339.7385,80.67994,132.28592
"97596",1339.7518,80.46754,132.09477
"97597",1339.7651,80.2063,131.84814
"97598",1339.7784,79.91089,131.55917
"97599",1339.7917,79.5935,131.239
"97600",1339.805,79.273674,130.90646
"97601",1339.8184,78.97093,130.58102
"97602",1339.8317,78.68528,130.26321
"97603",1339.845,78.42161,129.95845
"97604",1339.8583,78.18234,129.66986
"97605",1339.8716,77.96994,129.40065
"97606",1339.8849,77.78195,129.14922
"97607",1339.8982,77.61593,128.91388
"97608",1339.9115,77.47677,128.70021
"97609",1339.9248,77.36446,128.50905
"97610",1339.9381,77.2839,128.34612
"97611",1339.9514,77.23018,128.20752
"97612",1339.9647,77.19844,128.08922
"97613",1339.978,77.18135,127.98458
"97614",1339.9913,77.15938,127.87453
"97615",1340.0046,77.10567,127.73205
"97616",1340.018,77.0251,127.561035
"97617",1340.0312,76.93477,127.37774
"97618",1340.0446,76.859085,127.20627
"97619",1340.0579,76.805374,127.054405
"97620",1340.0712,76.773636,126.92284
"97621",1340.0845,76.75899,126.807365
"97622",1340.0978,76.74677,126.69387
"97623",1340.1111,76.71992,126.56535
"97624",1340.1244,76.68574,126.42867
"97625",1340.1377,76.66132,126.30069
"97626",1340.151,76.64423,126.17927
"97627",1340.1643,76.63935,126.06952
"97628",1340.1776,76.64423,125.96938
"97629",1340.1909,76.66132,125.88161
"97630",1340.2042,76.69062,125.80657
"97631",1340.2175,76.7248,125.737335
"97632",1340.2308,76.756546,125.66673
"97633",1340.2441,76.788284,125.597115
"97634",1340.2574,76.83711,125.54558
"97635",1340.2708,76.97627,125.5859
"97636",1340.284,77.332726,125.84786
"97637",1340.2974,78.030975,126.46276
"97638",1340.3107,79.11253,127.48279
"97639",1340.324,80.52369,128.86621
"97640",1340.3373,82.10086,130.45975
"97641",1340.3506,83.63409,132.05862
"97642",1340.3639,84.90852,133.44662
"97643",1340.3772,85.79233,134.48383
"97644",1340.3905,86.26353,135.13603
"97645",1340.4038,86.39048,135.45872
"97646",1340.4171,86.26597,135.53392
"97647",1340.4304,85.99985,135.46361
"97648",1340.4437,85.68734,135.3386
"97649",1340.457,85.38705,135.21603
"97650",1340.4703,85.101395,135.09872
"97651",1340.4836,84.79378,134.95053
"97652",1340.497,84.41535,134.72191
"97653",1340.5103,83.95148,134.39601
"97654",1340.5236,83.421684,133.9897
"97655",1340.5369,82.882126,133.55707
"97656",1340.5502,82.408485,133.1735
"97657",1340.5635,82.05203,132.8923
"97658",1340.5768,81.82254,132.72694
"97659",1340.5901,81.69558,132.65694
"97660",1340.6034,81.62478,132.63913
"97661",1340.6167,81.57351,132.63864
"97662",1340.63,81.497826,132.61214
"97663",1340.6433,81.38308,132.5442
"97664",1340.6566,81.21706,132.4214
"97665",1340.6699,80.99489,132.23727
"97666",1340.6832,80.723885,131.99736
"97667",1340.6965,80.41871,131.71481
"97668",1340.7098,80.096436,131.40562
"97669",1340.7231,79.77417,131.08636
"97670",1340.7365,79.47387,130.779
"97671",1340.7498,79.200424,130.48912
"97672",1340.7631,78.95628,130.21999
"97673",1340.7764,78.746315,129.9774
"97674",1340.7897,78.56077,129.75267
"97675",1340.803,78.39475,129.54167
"97676",1340.8163,78.25071,129.34746
"97677",1340.8296,78.12375,129.16583
"97678",1340.8429,78.01633,128.99977
"97679",1340.8562,77.925995,128.84744
"97680",1340.8695,77.85031,128.70694
"97681",1340.8828,77.77951,128.56895
"97682",1340.8961,77.713585,128.43364
"97683",1340.9094,77.64034,128.28894
"97684",1340.9227,77.56466,128.13951
"97685",1340.936,77.49142,127.990166
"97686",1340.9493,77.41329,127.83365
"97687",1340.9626,77.33517,127.67469
"97688",1340.976,77.26681,127.523056
"97689",1340.9893,77.21797,127.38881
"97690",1341.0026,77.18379,127.26769
"97691",1341.0159,77.16426,127.16016
"97692",1341.0292,77.154495,127.061775
"97693",1341.0425,77.14961,126.96797
"97694",1341.0558,77.14961,126.8789
"97695",1341.0691,77.14717,126.787384
"97696",1341.0824,77.152054,126.70312
"97697",1341.0957,77.16426,126.62633
"97698",1341.109,77.18135,126.5548
"97699",1341.1223,77.19844,126.48381
"97700",1341.1356,77.21553,126.41335
"97701",1341.1489,77.23262,126.34343
"97702",1341.1622,77.24971,126.27404
"97703",1341.1755,77.27169,126.210075
"97704",1341.1888,77.29122,126.14435
"97705",1341.2021,77.30831,126.07679
"97706",1341.2155,77.330284,126.01465
"97707",1341.2288,77.34493,125.94587
"97708",1341.2421,77.3547,125.872665
"97709",1341.2554,77.36446,125.79977
"97710",1341.2687,77.37911,125.732056
"97711",1341.282,77.401085,125.67213
"97712",1341.2953,77.42794,125.61777
"97713",1341.3086,77.46212,125.57157
"97714",1341.3219,77.56222,125.59236
"97715",1341.3352,77.857635,125.8116
"97716",1341.3485,78.502174,126.38919
"97717",1341.3618,79.57885,127.41906
"97718",1341.3751,81.06325,128.89029
"97719",1341.3884,82.80644,130.66672
"97720",1341.4017,84.56428,132.51225
"97721",1341.415,86.065765,134.15637
"97722",1341.4283,87.13512,135.41528
"97723",1341.4417,87.74059,136.24373
"97724",1341.455,87.92859,136.67361
"97725",1341.4683,87.80652,136.79932
"97726",1341.4816,87.51598,136.75273
"97727",1341.4949,87.1693,136.64091
"97728",1341.5082,86.83482,136.53049
"97729",1341.5215,86.539406,136.44865
"97730",1341.5348,86.2562,136.36981
"97731",1341.5481,85.943695,136.2528
"97732",1341.5614,85.56039,136.05524
"97733",1341.5747,85.101395,135.77
"97734",1341.588,84.6009,135.42892
"97735",1341.6013,84.12482,135.09662
"97736",1341.6146,83.7293,134.83
"97737",1341.6279,83.455864,134.67311
"97738",1341.6412,83.30694,134.63219
"97739",1341.6545,83.24834,134.67693
"97740",1341.6678,83.226364,134.75647
"97741",1341.6812,83.194626,134.82556
"97742",1341.6945,83.11162,134.84239
"97743",1341.7078,82.95293,134.78094
"97744",1341.7211,82.720985,134.64128
"97745",1341.7344,82.425575,134.43091
"97746",1341.7477,82.091095,134.17223
"97747",1341.761,81.74441,133.89088
"97748",1341.7743,81.40505,133.60605
"97749",1341.7876,81.08766,133.33257
"97750",1341.8009,80.77272,133.05162
"97751",1341.8142,80.465096,132.76814
"97752",1341.8275,80.18677,132.50435
"97753",1341.8408,79.954834,132.27826
"97754",1341.8541,79.766846,132.08887
"97755",1341.8674,79.622795,131.93753
"97756",1341.8807,79.520256,131.8232
"97757",1341.894,79.43725,131.72519
"97758",1341.9073,79.34692,131.61726
"97759",1341.9207,79.24437,131.49431
"97760",1341.934,79.149155,131.37547
"97761",1341.9473,79.04906,131.24878
"97762",1341.9606,78.93919,131.10919
"97763",1341.9739,78.82201,130.95885
"97764",1341.9872,78.70725,130.80728
"97765",1342.0005,78.58762,130.64725
"97766",1342.0138,78.467995,130.48347
"97767",1342.0271,78.35325,130.32085
"97768",1342.0404,78.24582,130.16196
"97769",1342.0537,78.14084,130.00215
"97770",1342.067,78.04074,129.84395
"97771",1342.0803,77.94797,129.68994
"97772",1342.0936,77.86252,129.54036
"97773",1342.1069,77.78439,129.39543
"97774",1342.1202,77.71603,129.25783
"97775",1342.1335,77.662315,129.13274
"97776",1342.1469,77.61837,129.01573
"97777",1342.1602,77.58419,128.90712
"97778",1342.1735,77.55001,128.79744
"97779",1342.1868,77.51095,128.68181
"97780",1342.2001,77.471886,128.56496
"97781",1342.2134,77.435265,128.44933
"97782",1342.2267,77.41085,128.34476
"97783",1342.24,77.39864,128.25163
"97784",1342.2533,77.401085,128.17278
"97785",1342.2666,77.41573,128.1062
"97786",1342.2799,77.43038,128.04008
"97787",1342.2932,77.44503,127.974434
"97788",1342.3065,77.454796,127.90436
"97789",1342.3198,77.467,127.83703
"97790",1342.3331,77.47433,127.7652
"97791",1342.3464,77.486534,127.69848
"97792",1342.3597,77.4963,127.6297
"97793",1342.373,77.506065,127.561226
"97794",1342.3864,77.51583,127.49306
"97795",1342.3997,77.5256,127.42519
"97796",1342.413,77.54757,127.36984
"97797",1342.4263,77.625694,127.37133
"97798",1342.4396,77.86496,127.5364
"97799",1342.4529,78.41428,128.019
"97800",1342.4662,79.3933,128.94846
"97801",1342.4795,80.81178,130.34798
"97802",1342.4928,82.55985,132.12141
"97803",1342.5061,84.41779,134.05936
"97804",1342.5194,86.10483,135.88445
"97805",1342.5327,87.38659,137.35698
"97806",1342.546,88.1532,138.35442
"97807",1342.5593,88.44129,138.8973
"97808",1342.5726,88.36561,139.0854
"97809",1342.5859,88.077515,139.05873
"97810",1342.5992,87.71862,138.95226
"97811",1342.6125,87.39391,138.86876
"97812",1342.6259,87.149765,138.85567
"97813",1342.6392,86.9691,138.89844
"97814",1342.6525,86.81041,138.95753
"97815",1342.6658,86.60532,138.96527
"97816",1342.6791,86.295265,138.86163
"97817",1342.6924,85.86313,138.62622
"97818",1342.7057,85.32357,138.26988
"97819",1342.719,84.735176,137.84785
"97820",1342.7323,84.16388,137.42453
"97821",1342.7456,83.67315,137.06392
"97822",1342.7589,83.284966,136.79053
"97823",1342.7722,82.99931,136.60753
"97824",1342.7855,82.791794,136.49374
"97825",1342.7988,82.62821,136.4174
"97826",1342.8121,82.45243,136.32376
"97827",1342.8254,82.2327,136.18066
"97828",1342.8387,81.951935,135.96968
"97829",1342.852,81.60525,135.68399
"97830",1342.8654,81.20729,135.3362
"97831",1342.8787,80.78981,134.95645
"97832",1342.892,80.37965,134.57097
"97833",1342.9053,79.991455,134.19464
"97834",1342.9186,79.605705,133.80862
"97835",1342.9319,79.22484,133.41544
"97836",1342.9452,78.873276,133.03964
"97837",1342.9585,78.56809,132.69925
"97838",1342.9718,78.31663,132.40303
"97839",1342.9851,78.10666,132.14046
"97840",1342.9984,77.94064,131.91527
"97841",1343.0117,77.789276,131.69954
"97842",1343.025,77.63302,131.4742
"97843",1343.0383,77.469444,131.23665
"97844",1343.0516,77.3254,131.01352
"97845",1343.065,77.19844,130.80298
"97846",1343.0782,77.086136,130.60312
"97847",1343.0916,76.9836,130.40952
"97848",1343.1049,76.89082,130.22247
"97849",1343.1182,76.80293,130.03741
"97850",1343.1315,76.71992,129.85449
"97851",1343.1448,76.63935,129.67142
"97852",1343.1581,76.561226,129.48827
"97853",1343.1714,76.4831,129.30267
"97854",1343.1847,76.40742,129.11708
"97855",1343.198,76.334175,128.93156
"97856",1343.2113,76.265816,128.74864
"97857",1343.2246,76.20233,128.56847
"97858",1343.2379,76.15106,128.39851
"97859",1343.2512,76.10956,128.23672
"97860",1343.2645,76.07782,128.0834
"97861",1343.2778,76.06073,127.94375
"97862",1343.2911,76.05585,127.815765
"97863",1343.3044,76.05585,127.69251
"97864",1343.3177,76.06073,127.57414
"97865",1343.331,76.06561,127.455925
"97866",1343.3444,76.07294,127.3403
"97867",1343.3577,76.087585,127.23223
"97868",1343.371,76.11444,127.136826
"97869",1343.3843,76.15106,127.052025
"97870",1343.3976,76.19989,126.980576
"97871",1343.4109,76.22919,126.89112
"97872",1343.4242,76.24872,126.792816
"97873",1343.4375,76.26826,126.69513
"97874",1343.4508,76.30488,126.615135
"97875",1343.4641,76.36347,126.55826
"97876",1343.4774,76.436714,126.51786
"97877",1343.4907,76.51972,126.48952
"97878",1343.504,76.5832,126.44424
"97879",1343.5173,76.61738,126.37164
"97880",1343.5306,76.62226,126.27082
"97881",1343.544,76.63447,126.177475
"97882",1343.5573,76.6955,126.13334
"97883",1343.5706,76.92256,126.25713
"97884",1343.5839,77.46456,126.702965
"97885",1343.5972,78.433815,127.59299
"97886",1343.6105,79.823,128.93323
"97887",1343.6238,81.50759,130.61229
"97888",1343.6371,83.24834,132.40015
"97889",1343.6504,84.76204,134.01537
"97890",1343.6637,85.83139,135.23354
"97891",1343.677,86.380714,135.96509
"97892",1343.6903,86.45884,136.24261
"97893",1343.7036,86.1976,136.18321
"97894",1343.7169,85.75571,135.935
"97895",1343.7302,85.27474,135.6339
"97896",1343.7435,84.84993,135.37392
"97897",1343.7568,84.52277,135.19832
"97898",1343.7701,84.283516,135.1004
"97899",1343.7834,84.08331,135.03406
"97900",1343.7968,83.85626,134.93462
"97901",1343.81,83.55596,134.75482
"97902",1343.8234,83.177536,134.48752
"97903",1343.8367,82.74784,134.15712
"97904",1343.85,82.32304,133.81819
"97905",1343.8633,81.94949,133.51724
"97906",1343.8766,81.6614,133.29007
"97907",1343.8899,81.46609,133.14668
"97908",1343.9032,81.33669,133.06311
"97909",1343.9165,81.24147,133.00966
"97910",1343.9298,81.1487,132.95569
"97911",1343.9431,81.03639,132.87929
"97912",1343.9564,80.88258,132.75787
"97913",1343.9697,80.68238,132.58525
"97914",1343.983,80.4358,132.36
"97915",1343.9963,80.15991,132.09773
"97916",1344.0096,79.8645,131.80731
"97917",1344.023,79.55932,131.4979
"97918",1344.0363,79.26879,131.19359
"97919",1344.0496,78.995346,130.8973
"97920",1344.0629,78.751205,130.62175
"97921",1344.0762,78.538795,130.37032
"97922",1344.0895,78.363014,130.14886
"97923",1344.1028,78.21896,129.95366
"97924",1344.1161,78.10422,129.78325
"97925",1344.1294,78.009,129.62878
"97926",1344.1427,77.92844,129.486
"97927",1344.156,77.86008,129.35289
"97928",1344.1693,77.7966,129.22253
"97929",1344.1826,77.74288,129.09996
"97930",1344.1959,77.696495,128.98303
"97931",1344.2092,77.65499,128.86954
"97932",1344.2225,77.611046,128.7523
"97933",1344.2358,77.55978,128.62637
"97934",1344.2491,77.50118,128.49152
"97935",1344.2625,77.437706,128.34995
"97936",1344.2758,77.37667,128.20883
"97937",1344.2891,77.32784,128.07802
"97938",1344.3024,77.2839,127.95057
"97939",1344.3157,77.24727,127.82906
"97940",1344.329,77.208206,127.70398
"97941",1344.3423,77.16914,127.577675
"97942",1344.3556,77.13008,127.45015
"97943",1344.3689,77.103226,127.33361
"97944",1344.3822,77.086136,127.226
"97945",1344.3955,77.08858,127.13738
"97946",1344.4088,77.10811,127.06593
"97947",1344.4221,77.12764,126.995094
"97948",1344.4354,77.134964,126.91266
"97949",1344.4487,77.134964,126.82313
"97950",1344.462,77.1252,126.72383
"97951",1344.4753,77.10567,126.61446
"97952",1344.4886,77.09102,126.50937
"97953",1344.502,77.103226,126.43067
"97954",1344.5153,77.14717,126.384094
"97955",1344.5286,77.23018,126.37795
"97956",1344.5419,77.3547,126.41592
"97957",1344.5552,77.51095,126.4895
"97958",1344.5685,77.67696,126.577736
"97959",1344.5818,77.83566,126.66384
"97960",1344.5951,77.962616,126.72316
"97961",1344.6084,78.05051,126.74738
"97962",1344.6217,78.099335,126.73529
"97963",1344.635,78.11398,126.690544
"97964",1344.6483,78.1091,126.626724
"97965",1344.6616,78.101776,126.56031
"97966",1344.6749,78.14084,126.540054
"97967",1344.6882,78.34348,126.6846
"97968",1344.7015,78.84886,127.138214
"97969",1344.7148,79.73266,127.98604
"97970",1344.7281,80.98268,129.2277
"97971",1344.7415,82.4744,130.75014
"97972",1344.7548,83.99298,132.34604
"97973",1344.7681,85.26742,133.74525
"97974",1344.7814,86.10483,134.74727
"97975",1344.7947,86.44419,135.2774
"97976",1344.808,86.33189,135.36649
"97977",1344.8213,85.88022,135.11269
"97978",1344.8346,85.23567,134.6519
"97979",1344.8479,84.55695,134.1368
"97980",1344.8612,83.93683,133.65907
"97981",1344.8745,83.421684,133.26695
"97982",1344.8878,83.00664,132.95883
"97983",1344.9011,82.667274,132.71342
"97984",1344.9144,82.374306,132.50381
"97985",1344.9277,82.11795,132.32166
"97986",1344.941,81.90311,132.173
"97987",1344.9543,81.74441,132.07378
"97988",1344.9677,81.6614,132.04529
"97989",1344.981,81.64675,132.08257
"97990",1344.9943,81.67605,132.16333
"97991",1345.0076,81.71511,132.25478
"97992",1345.0209,81.73708,132.33035
"97993",1345.0342,81.71511,132.36267
"97994",1345.0475,81.636986,132.33815
"97995",1345.0608,81.50027,132.2526
"97996",1345.0741,81.31228,132.1115
"97997",1345.0874,81.077896,131.91812
"97998",1345.1007,80.816666,131.69058
"97999",1345.114,80.54322,131.44266
"98000",1345.1273,80.26978,131.1862
"98001",1345.1406,80.00366,130.92851
"98002",1345.1539,79.764404,130.68936
"98003",1345.1672,79.554436,130.47203
"98004",1345.1805,79.378654,130.28232
"98005",1345.1938,79.237045,130.12129
"98006",1345.2072,79.10765,129.96805
"98007",1345.2205,78.97826,129.81076
"98008",1345.2338,78.86595,129.66652
"98009",1345.2471,78.78783,129.55295
"98010",1345.2604,78.73411,129.46135
"98011",1345.2737,78.70725,129.39493
"98012",1345.287,78.70237,129.34964
"98013",1345.3003,78.69993,129.30664
"98014",1345.3136,78.67063,129.23671
"98015",1345.3269,78.61692,129.14145
"98016",1345.3402,78.555885,129.03719
"98017",1345.3535,78.49241,128.92857
"98018",1345.3668,78.42893,128.81798
"98019",1345.3801,78.3679,128.70784
"98020",1345.3934,78.3093,128.59824
"98021",1345.4067,78.25315,128.48924
"98022",1345.42,78.20187,128.38338
"98023",1345.4333,78.150604,128.27591
"98024",1345.4467,78.099335,128.16684
"98025",1345.46,78.05539,128.06349
"98026",1345.4733,78.011444,127.95878
"98027",1345.4866,77.96994,127.85513
"98028",1345.4999,77.93332,127.75507
"98029",1345.5132,77.89914,127.65631
"98030",1345.5265,77.86252,127.55404
"98031",1345.5398,77.83322,127.45795
"98032",1345.5531,77.806366,127.36338
"98033",1345.5664,77.78439,127.27286
"98034",1345.5797,77.77219,127.191414
"98035",1345.593,77.769745,127.119354
"98036",1345.6063,77.78195,127.06187
"98037",1345.6196,77.803925,127.01453
"98038",1345.6329,77.838104,126.98008
"98039",1345.6462,77.86984,126.94426
"98040",1345.6595,77.90402,126.91187
"98041",1345.6729,77.9382,126.880554
"98042",1345.6862,77.96506,126.84298
"98043",1345.6995,77.977264,126.791595
"98044",1345.7128,77.97482,126.725945
"98045",1345.7261,77.9675,126.655334
"98046",1345.7394,77.97238,126.5967
"98047",1345.7527,78.04318,126.60414
"98048",1345.766,78.29221,126.79202
"98049",1345.7793,78.84886,127.2953
"98050",1345.7926,79.783936,128.1944
"98051",1345.8059,81.05104,129.45474
"98052",1345.8192,82.5037,130.94025
"98053",1345.8325,83.91974,132.43452
"98054",1345.8458,85.067215,133.7045
"98055",1345.8591,85.785,134.58064
"98056",1345.8724,86.04135,135.01778
"98057",1345.8857,85.90219,135.06741
"98058",1345.899,85.48226,134.83192
"98059",1345.9124,84.9012,134.42218
"98060",1345.9257,84.25666,133.9308
"98061",1345.939,83.62188,133.42905
"98062",1345.9523,83.038376,132.95872
"98063",1345.9656,82.52079,132.53609
"98064",1345.9789,82.074005,132.16808
"98065",1345.9922,81.71511,131.874
"98066",1346.0055,81.46609,131.67857
"98067",1346.0188,81.34402,131.60233
"98068",1346.0321,81.35378,131.6541
"98069",1346.0454,81.47585,131.81848
"98070",1346.0587,81.668724,132.05748
"98071",1346.072,81.87625,132.31715
"98072",1346.0853,82.05203,132.55157
"98073",1346.0986,82.161896,132.72557
"98074",1346.1119,82.18631,132.81755
"98075",1346.1252,82.12039,132.81996
"98076",1346.1385,81.97391,132.73975
"98077",1346.1519,81.761505,132.58904
"98078",1346.1652,81.497826,132.3804
"98079",1346.1785,81.20973,132.13911
"98080",1346.1918,80.92653,131.89372
"98081",1346.2051,80.66041,131.65656
"98082",1346.2184,80.4065,131.4233
"98083",1346.2317,80.15991,131.1894
"98084",1346.245,79.923096,130.95758
"98085",1346.2583,79.70092,130.733
"98086",1346.2716,79.49584,130.51857
"98087",1346.2849,79.3225,130.32947
"98088",1346.2982,79.1931,130.1789
"98089",1346.3115,79.10033,130.0609
"98090",1346.3248,79.01976,129.95221
"98091",1346.3381,78.941635,129.84344
"98092",1346.3514,78.8806,129.74933
"98093",1346.3647,78.84886,129.6826
"98094",1346.378,78.84154,129.6393
"98095",1346.3914,78.84886,129.61041
"98096",1346.4047,78.86351,129.58908
"98097",1346.418,78.86839,129.55844
"98098",1346.4313,78.84398,129.49866
"98099",1346.4446,78.79027,129.40881
"98100",1346.4579,78.73167,129.31241
"98101",1346.4712,78.66819,129.20929
"98102",1346.4845,78.59983,129.0993
"98103",1346.4978,78.53147,128.98718
"98104",1346.5111,78.45823,128.86804
"98105",1346.5244,78.38499,128.74661
"98106",1346.5377,78.311745,128.6229
"98107",1346.551,78.24582,128.50421
"98108",1346.5643,78.1799,128.38347
"98109",1346.5776,78.12619,128.27287
"98110",1346.591,78.082245,128.17036
"98111",1346.6042,78.04562,128.0738
"98112",1346.6176,78.02365,127.99076
"98113",1346.6309,78.011444,127.916794
"98114",1346.6442,78.00168,127.84489
"98115",1346.6575,77.98459,127.76535
"98116",1346.6708,77.960175,127.677956
"98117",1346.6841,77.93576,127.5898
"98118",1346.6974,77.91379,127.50332
"98119",1346.7107,77.891815,127.41615
"98120",1346.724,77.86252,127.32098
"98121",1346.7373,77.8259,127.21756
"98122",1346.7506,77.789276,127.113
"98123",1346.7639,77.789276,127.043915
"98124",1346.7772,77.91135,127.0969
"98125",1346.7905,78.28977,127.41006
"98126",1346.8038,79.027084,128.09392
"98127",1346.8171,80.12085,129.15727
"98128",1346.8304,81.478294,130.5185
"98129",1346.8438,82.92363,132.01003
"98130",1346.857,84.23468,133.41245
"98131",1346.8704,85.206375,134.51648
"98132",1346.8837,85.73617,135.20897
"98133",1346.897,85.83627,135.48833
"98134",1346.9103,85.58236,135.4168
"98135",1346.9236,85.07454,135.08342
"98136",1346.9369,84.41779,134.58525
"98137",1346.9502,83.719536,134.02505
"98138",1346.9635,83.03105,133.4528
"98139",1346.9768,82.388954,132.90543
"98140",1346.9901,81.812775,132.4039
"98141",1347.0034,81.324486,131.97226
"98142",1347.0167,80.95827,131.64743
"98143",1347.03,80.73853,131.45764
"98144",1347.0433,80.67506,131.41725
"98145",1347.0566,80.75807,131.52136
"98146",1347.07,80.953384,131.74037
"98147",1347.0833,81.20729,132.02408
"98148",1347.0966,81.461205,132.31572
"98149",1347.1099,81.6614,132.56158
"98150",1347.1232,81.77615,132.72826
"98151",1347.1365,81.78836,132.79597
"98152",1347.1498,81.69802,132.76152
"98153",1347.1631,81.5198,132.63637
"98154",1347.1764,81.28054,132.44461
"98155",1347.1897,81.00221,132.2063
"98156",1347.203,80.70435,131.93976
"98157",1347.2163,80.40162,131.65904
"98158",1347.2296,80.10376,131.37373
"98159",1347.2429,79.82544,131.09866
"98160",1347.2562,79.5642,130.83197
"98161",1347.2695,79.33471,130.58885
"98162",1347.2828,79.13451,130.36786
"98163",1347.2961,78.97093,130.17723
"98164",1347.3094,78.83421,130.00835
"98165",1347.3228,78.72678,129.86449
"98166",1347.336,78.643776,129.74168
"98167",1347.3494,78.5803,129.63582
"98168",1347.3627,78.53391,129.54506
"98169",1347.376,78.502174,129.4675
"98170",1347.3893,78.48264,129.40115
"98171",1347.4026,78.47288,129.34396
"98172",1347.4159,78.46311,129.28647
"98173",1347.4292,78.450905,129.22623
"98174",1347.4425,78.433815,129.16072
"98175",1347.4558,78.40696,129.08492
"98176",1347.4691,78.3679,128.99606
"98177",1347.4824,78.31663,128.89378
"98178",1347.4957,78.25803,128.78258
"98179",1347.509,78.184784,128.65489
"98180",1347.5223,78.10422,128.5176
"98181",1347.5356,78.02121,128.37534
"98182",1347.549,77.945526,128.23781
"98183",1347.5623,77.874725,128.1028
"98184",1347.5756,77.81369,127.97535
"98185",1347.5889,77.76242,127.85576
"98186",1347.6022,77.71847,127.74188
"98187",1347.6155,77.67208,127.6242
"98188",1347.6288,77.62081,127.50018
"98189",1347.6421,77.56466,127.36968
"98190",1347.6554,77.506065,127.234985
"98191",1347.6687,77.44015,127.09113
"98192",1347.682,77.37911,126.9501
"98193",1347.6953,77.330284,126.819374
"98194",1347.7086,77.31075,126.716415
"98195",1347.7219,77.35958,126.681206
"98196",1347.7352,77.574425,126.81354
"98197",1347.7485,78.065155,127.22847
"98198",1347.7618,78.922104,128.02495
"98199",1347.7751,80.1355,129.20465
"98200",1347.7885,81.602806,130.6762
"98201",1347.8018,83.13115,132.25462
"98202",1347.8151,84.49836,133.71968
"98203",1347.8284,85.51156,134.87346
"98204",1347.8417,86.082855,135.61699
"98205",1347.855,86.23178,135.95601
"98206",1347.8683,86.046234,135.96521
"98207",1347.8816,85.61654,135.72446
"98208",1347.8949,85.04036,135.32379
"98209",1347.9082,84.39338,134.83432
"98210",1347.9215,83.719536,134.29778
"98211",1347.9348,83.04326,133.73773
"98212",1347.9481,82.39628,133.18585
"98213",1347.9614,81.815216,132.67967
"98214",1347.9747,81.34402,132.2652
"98215",1347.988,81.01686,131.98004
"98216",1348.0013,80.86061,131.85558
"98217",1348.0146,80.87038,131.89224
"98218",1348.028,81.01442,132.06349
"98219",1348.0413,81.23903,132.31981
"98220",1348.0546,81.49294,132.61244
"98221",1348.0679,81.71999,132.88615
"98222",1348.0812,81.87869,133.0986
"98223",1348.0945,81.94705,133.22568
"98224",1348.1078,81.92752,133.267
"98225",1348.1211,81.81033,133.21005
"98226",1348.1344,81.61501,133.0713
"98227",1348.1477,81.38064,132.8874
"98228",1348.161,81.15114,132.70105
"98229",1348.1743,80.92897,132.51486
"98230",1348.1876,80.71412,132.32904
"98231",1348.2009,80.50904,132.14629
"98232",1348.2142,80.29908,131.95224
"98233",1348.2275,80.06958,131.73209
"98234",1348.2408,79.82788,131.49255
"98235",1348.2542,79.59594,131.25523
"98236",1348.2675,79.38598,131.03264
"98237",1348.2808,79.20775,130.83522
"98238",1348.2941,79.063705,130.66641
"98239",1348.3074,78.9514,130.52484
"98240",1348.3207,78.870834,130.4115
"98241",1348.334,78.81712,130.3225
"98242",1348.3473,78.7805,130.2489
"98243",1348.3606,78.76341,130.1937
"98244",1348.3739,78.75853,130.15016
"98245",1348.3872,78.765854,130.11868
"98246",1348.4005,78.77806,130.09232
"98247",1348.4138,78.785385,130.06145
"98248",1348.4271,78.77806,130.01616
"98249",1348.4404,78.76341,129.96332
"98250",1348.4537,78.73411,129.89537
"98251",1348.467,78.69016,129.81186
"98252",1348.4803,78.63645,129.71721
"98253",1348.4937,78.57542,129.61356
"98254",1348.507,78.50706,129.50067
"98255",1348.5203,78.44114,129.38809
"98256",1348.5336,78.382545,129.28078
"98257",1348.5469,78.331276,129.17896
"98258",1348.5602,78.28001,129.07553
"98259",1348.5735,78.22629,128.96806
"98260",1348.5868,78.16525,128.8516
"98261",1348.6001,78.09445,128.72345
"98262",1348.6134,77.99191,128.56136
"98263",1348.6267,77.874725,128.38141
"98264",1348.64,77.78439,128.22466
"98265",1348.6533,77.80148,128.1725
"98266",1348.6666,78.02365,128.32596
"98267",1348.6799,78.56565,128.8062
"98268",1348.6932,79.483635,129.67935
"98269",1348.7065,80.73121,130.91078
"98270",1348.7198,82.14725,132.34967
"98271",1348.7332,83.53399,133.80351
"98272",1348.7465,84.68879,135.06876
"98273",1348.7598,85.45785,135.98434
"98274",1348.7731,85.79233,136.48938
"98275",1348.7864,85.73373,136.61179
"98276",1348.7997,85.367516,136.42476
"98277",1348.813,84.791336,136.01631
"98278",1348.8263,84.08331,135.45802
"98279",1348.8396,83.319145,134.82146
"98280",1348.8529,82.547646,134.15369
"98281",1348.8662,81.812775,133.49843
"98282",1348.8795,81.15114,132.89345
"98283",1348.8928,80.59937,132.37766
"98284",1348.9061,80.19165,131.98866
"98285",1348.9194,79.954834,131.75784
"98286",1348.9327,79.89136,131.69296
"98287",1348.946,79.9939,131.79211
"98288",1348.9594,80.216064,132.0141
"98289",1348.9727,80.50172,132.3065
"98290",1348.986,80.78981,132.61028
"98291",1348.9993,81.02663,132.87178
"98292",1349.0126,81.17067,133.04791
"98293",1349.0259,81.20729,133.12112
"98294",1349.0392,81.13405,133.08562
"98295",1349.0525,80.970474,132.95749
"98296",1349.0658,80.74586,132.7632
"98297",1349.0791,80.48463,132.52528
"98298",1349.0924,80.21118,132.26698
"98299",1349.1057,79.9353,131.99771
"98300",1349.119,79.6643,131.72469
"98301",1349.1323,79.398186,131.44807
"98302",1349.1456,79.13939,131.17047
"98303",1349.1589,78.905014,130.9092
"98304",1349.1722,78.70237,130.67233
"98305",1349.1855,78.52903,130.45844
"98306",1349.1989,78.38743,130.27086
"98307",1349.2122,78.26536,130.09839
"98308",1349.2255,78.16281,129.94164
"98309",1349.2388,78.07492,129.79633
"98310",1349.2521,78.00656,129.6678
"98311",1349.2654,77.95285,129.55179
"98312",1349.2787,77.91867,129.45363
"98313",1349.292,77.90402,129.37393
"98314",1349.3053,77.89914,129.30354
"98315",1349.3186,77.90646,129.24521
"98316",1349.3319,77.925995,129.19931
"98317",1349.3452,77.95041,129.1589
"98318",1349.3585,77.97482,129.11926
"98319",1349.3718,77.994354,129.0755
"98320",1349.3851,77.99924,129.0177
"98321",1349.3984,77.98215,128.93808
"98322",1349.4117,77.93576,128.82863
"98323",1349.425,77.86984,128.6982
"98324",1349.4384,77.78195,128.54373
"98325",1349.4517,77.68917,128.38164
"98326",1349.465,77.6379,128.25815
"98327",1349.4783,77.733116,128.27954
"98328",1349.4916,78.12375,128.59933
"98329",1349.5049,78.92699,129.34393
"98330",1349.5182,80.15747,130.54088
"98331",1349.5315,81.71267,132.101
"98332",1349.5448,83.38262,133.82448
"98333",1349.5581,84.89876,135.44632
"98334",1349.5714,86.031586,136.73224
"98335",1349.5847,86.67368,137.56282
"98336",1349.598,86.837265,137.93495
"98337",1349.6113,86.607765,137.91911
"98338",1349.6246,86.082855,137.6007
"98339",1349.638,85.36996,137.07788
"98340",1349.6512,84.56916,136.4449
"98341",1349.6646,83.74883,135.76736
"98342",1349.6779,82.95781,135.09349
"98343",1349.6912,82.22781,134.45593
"98344",1349.7045,81.59304,133.89078
"98345",1349.7178,81.077896,133.42542
"98346",1349.7311,80.6775,133.0587
"98347",1349.7444,80.40162,132.804
"98348",1349.7577,80.274666,132.6896
"98349",1349.771,80.291756,132.71529
"98350",1349.7843,80.40406,132.83672
"98351",1349.7976,80.5481,132.9934
"98352",1349.8109,80.68238,133.1448
"98353",1349.8242,80.76051,133.24426
"98354",1349.8375,80.73853,133.24605
"98355",1349.8508,80.61646,133.14706
"98356",1349.8641,80.428474,132.97835
"98357",1349.8774,80.17212,132.73538
"98358",1349.8907,79.86694,132.43558
"98359",1349.904,79.534904,132.09938
"98360",1349.9174,79.19798,131.74792
"98361",1349.9307,78.87572,131.40059
"98362",1349.944,78.5803,131.07004
"98363",1349.9573,78.314186,130.75955
"98364",1349.9706,78.0798,130.47249
"98365",1349.9839,77.872284,130.20496
"98366",1349.9972,77.68429,129.95047
"98367",1350.0105,77.52071,129.71452
"98368",1350.0238,77.38644,129.50276
"98369",1350.0371,77.279015,129.31366
"98370",1350.0504,77.196,129.14561
"98371",1350.0637,77.13985,129.00183
"98372",1350.077,77.100784,128.87338
"98373",1350.0903,77.07149,128.75348
"98374",1350.1036,77.04463,128.6351
"98375",1350.117,77.015335,128.51344
"98376",1350.1302,76.978714,128.38354
"98377",1350.1436,76.93965,128.25006
"98378",1350.1569,76.893265,128.10803
"98379",1350.1702,76.83223,127.94991
"98380",1350.1835,76.75899,127.77768
"98381",1350.1968,76.66865,127.58606
"98382",1350.2101,76.57343,127.38674
"98383",1350.2234,76.50019,127.20642
"98384",1350.2367,76.544136,127.141
"98385",1350.25,76.84932,127.33819
"98386",1350.2633,77.540245,127.93066
"98387",1350.2766,78.66575,128.9793
"98388",1350.2899,80.15259,130.42444
"98389",1350.3032,81.79813,132.07474
"98390",1350.3165,83.34112,133.67392
"98391",1350.3298,84.53498,134.9722
"98392",1350.3431,85.240555,135.81949
"98393",1350.3564,85.452965,136.19566
"98394",1350.3698,85.25521,136.16832
"98395",1350.383,84.77425,135.85158
"98396",1350.3964,84.14679,135.37332
"98397",1350.4097,83.48028,134.8364
"98398",1350.423,82.85039,134.31526
"98399",1350.4363,82.27909,133.83304
"98400",1350.4496,81.77371,133.39888
"98401",1350.4629,81.324486,133.00508
"98402",1350.4762,80.93141,132.6534
"98403",1350.4895,80.60914,132.36023
"98404",1350.5028,80.37965,132.14978
"98405",1350.5161,80.25269,132.0347
"98406",1350.5294,80.218506,132.0084
"98407",1350.5427,80.25025,132.04698
"98408",1350.556,80.308846,132.1134
"98409",1350.5693,80.35279,132.167
"98410",1350.5826,80.34791,132.17316
"98411",1350.596,80.28199,132.11812
"98412",1350.6093,80.1355,131.98044
"98413",1350.6226,79.923096,131.77228
"98414",1350.6359,79.64965,131.49643
"98415",1350.6492,79.33959,131.17542
"98416",1350.6625,79.012436,130.82762
"98417",1350.6758,78.69016,130.47449
"98418",1350.6891,78.38499,130.12837
"98419",1350.7024,78.11154,129.80446
"98420",1350.7157,77.874725,129.50862
"98421",1350.729,77.67452,129.242
"98422",1350.7423,77.51095,129.00575
"98423",1350.7556,77.37667,128.79369
"98424",1350.7689,77.26681,128.60184
"98425",1350.7822,77.17891,128.42853
"98426",1350.7955,77.11543,128.27689
"98427",1350.8088,77.066605,128.13791
"98428",1350.8221,77.02754,128.00717
"98429",1350.8354,76.99336,127.880104
"98430",1350.8488,76.961624,127.75441
"98431",1350.862,76.927444,127.62528
"98432",1350.8754,76.893265,127.49509
"98433",1350.8887,76.86153,127.366264
"98434",1350.902,76.82979,127.23645
"98435",1350.9153,76.79805,127.105644
"98436",1350.9286,76.76143,126.96896
"98437",1350.9419,76.715034,126.821365
"98438",1350.9552,76.66132,126.665
"98439",1350.9685,76.60761,126.50696
"98440",1350.9818,76.610054,126.40339
"98441",1350.9951,76.77852,126.46592
"98442",1351.0084,77.25704,126.84377
"98443",1351.0217,78.14816,127.64918
"98444",1351.035,79.447014,128.89015
"98445",1351.0483,81.02174,130.4476
"98446",1351.0616,82.64286,132.10065
"98447",1351.075,84.04913,133.58951
"98448",1351.0883,85.030594,134.69751
"98449",1351.1016,85.514,135.33812
"98450",1351.1149,85.53353,135.52997
"98451",1351.1282,85.20882,135.37817
"98452",1351.1415,84.681465,135.0136
"98453",1351.1548,84.085754,134.56418
"98454",1351.1681,83.5169,134.123
"98455",1351.1814,83.021286,133.73729
"98456",1351.1947,82.6038,133.41422
"98457",1351.208,82.247345,133.13913
"98458",1351.2213,81.92752,132.88954
"98459",1351.2346,81.64187,132.66412
"98460",1351.2479,81.40749,132.48106
"98461",1351.2612,81.24635,132.3639
"98462",1351.2745,81.17311,132.32962
"98463",1351.2878,81.17555,132.36873
"98464",1351.3011,81.22438,132.4543
"98465",1351.3145,81.27566,132.54384
"98466",1351.3278,81.29763,132.60568
"98467",1351.3411,81.25857,132.60718
"98468",1351.3544,81.15358,132.54152
"98469",1351.3677,80.98512,132.40912
"98470",1351.381,80.762955,132.21774
"98471",1351.3943,80.50416,131.98279
"98472",1351.4076,80.23071,131.7251
"98473",1351.4209,79.957275,131.45886
"98474",1351.4342,79.69604,131.19629
"98475",1351.4475,79.45922,130.94997
"98476",1351.4608,79.2517,130.72554
"98477",1351.4741,79.07591,130.52637
"98478",1351.4874,78.92943,130.351
"98479",1351.5007,78.80736,130.19547
"98480",1351.514,78.712135,130.06297
"98481",1351.5273,78.61448,129.92506
"98482",1351.5406,78.5095,129.77678
"98483",1351.554,78.41184,129.63254
"98484",1351.5673,78.348366,129.51942
"98485",1351.5806,78.314186,129.43362
"98486",1351.5939,78.311745,129.3785
"98487",1351.6072,78.33372,129.3477
"98488",1351.6205,78.365456,129.32736
"98489",1351.6338,78.37522,129.28604
"98490",1351.6471,78.365456,129.2255
"98491",1351.6604,78.35569,129.16464
"98492",1351.6737,78.34348,129.10104
"98493",1351.687,78.32639,129.03218
"98494",1351.7003,78.29954,128.95302
"98495",1351.7136,78.26292,128.86325
"98496",1351.7269,78.2092,128.75525
"98497",1351.7402,78.14328,128.63336
"98498",1351.7535,78.101776,128.53383
"98499",1351.7668,78.18234,128.55507
"98500",1351.7802,78.52659,128.84251
"98501",1351.7935,79.26879,129.53867
"98502",1351.8068,80.43824,130.68526
"98503",1351.8201,81.94217,132.20288
"98504",1351.8334,83.5584,133.8798
"98505",1351.8467,85.02083,135.45343
"98506",1351.86,86.09262,136.68213
"98507",1351.8733,86.661476,137.44138
"98508",1351.8866,86.75914,137.74721
"98509",1351.8999,86.4979,137.69719
"98510",1351.9132,86.02182,137.42416
"98511",1351.9265,85.470055,137.06058
"98512",1351.9398,84.93782,136.69928
"98513",1351.9531,84.46418,136.37994
"98514",1351.9664,84.03937,136.09464
"98515",1351.9797,83.64141,135.8229
"98516",1351.993,83.250786,135.54608
"98517",1352.0063,82.87724,135.27412
"98518",1352.0197,82.52079,135.00758
"98519",1352.033,82.22049,134.78606
"98520",1352.0463,82.01297,134.64793
"98521",1352.0596,81.91287,134.61075
"98522",1352.0729,81.881134,134.6388
"98523",1352.0862,81.883575,134.70003
"98524",1352.0995,81.883575,134.7589
"98525",1352.1128,81.83475,134.76894
"98526",1352.1261,81.71023,134.70175
"98527",1352.1394,81.51736,134.56233
"98528",1352.1527,81.28298,134.37538
"98529",1352.166,81.01442,134.14691
"98530",1352.1793,80.72877,133.89296
"98531",1352.1926,80.44068,133.62766
"98532",1352.2059,80.16235,133.3631
"98533",1352.2192,79.89624,133.10205
"98534",1352.2325,79.65453,132.8571
"98535",1352.2458,79.43969,132.63145
"98536",1352.2592,79.24925,132.42351
"98537",1352.2725,79.08812,132.2389
"98538",1352.2858,78.95628,132.07857
"98539",1352.2991,78.84886,131.93852
"98540",1352.3124,78.76341,131.8171
"98541",1352.3257,78.695045,131.71008
"98542",1352.339,78.63157,131.60582
"98543",1352.3523,78.57542,131.5069
"98544",1352.3656,78.51438,131.40134
"98545",1352.3789,78.45335,131.29387
"98546",1352.3922,78.397194,131.18938
"98547",1352.4055,78.345924,131.08801
"98548",1352.4188,78.29954,130.98993
"98549",1352.4321,78.25071,130.88795
"98550",1352.4454,78.20676,130.78934
"98551",1352.4587,78.15793,130.68446
"98552",1352.472,78.099335,130.5683
"98553",1352.4854,78.03586,130.44542
"98554",1352.4987,77.960175,130.30835
"98555",1352.512,77.87717,130.16159
"98556",1352.5253,77.78439,130.00247
"98557",1352.5386,77.679405,129.82825
"98558",1352.5519,77.57198,129.6483
"98559",1352.5652,77.4963,129.49673
"98560",1352.5785,77.53292,129.45511
"98561",1352.5918,77.821014,129.6661
"98562",1352.6051,78.48264,130.25964
"98563",1352.6184,79.554436,131.28401
"98564",1352.6317,80.95094,132.6666
"98565",1352.645,82.46464,134.21
"98566",1352.6583,83.83429,135.65668
"98567",1352.6716,84.83772,136.77994
"98568",1352.6849,85.365074,137.45847
"98569",1352.6982,85.4432,137.70425
"98570",1352.7115,85.19173,137.62288
"98571",1352.7249,84.75227,137.34567
"98572",1352.7382,84.25666,136.99857
"98573",1352.7515,83.79767,136.67259
"98574",1352.7648,83.404594,136.3982
"98575",1352.7781,83.06279,136.16278
"98576",1352.7914,82.72343,135.91913
"98577",1352.8047,82.357216,135.63803
"98578",1352.818,81.9617,135.31618
"98579",1352.8313,81.55886,134.97464
"98580",1352.8446,81.20241,134.6669
"98581",1352.8579,80.92897,134.43105
"98582",1352.8712,80.74586,134.27696
"98583",1352.8845,80.62867,134.18309
"98584",1352.8978,80.54078,134.11485
"98585",1352.9111,80.448006,134.03899
"98586",1352.9244,80.323494,133.92848
"98587",1352.9377,80.15259,133.76768
"98588",1352.951,79.92798,133.54785
"98589",1352.9644,79.65453,133.27216
"98590",1352.9777,79.344475,132.9513
"98591",1352.991,79.0222,132.60854
"98592",1353.0043,78.70725,132.26303
"98593",1353.0176,78.42161,131.93698
"98594",1353.0309,78.153046,131.6191
"98595",1353.0442,77.89914,131.30746
"98596",1353.0575,77.65743,131.0001
"98597",1353.0708,77.42794,130.6974
"98598",1353.0841,77.21309,130.40218
"98599",1353.0974,77.0251,130.12709
"98600",1353.1107,76.86641,129.87543
"98601",1353.124,76.73701,129.6481
"98602",1353.1373,76.612495,129.42162
"98603",1353.1506,76.4831,129.18636
"98604",1353.164,76.368355,128.9617
"98605",1353.1772,76.29023,128.77008
"98606",1353.1906,76.24628,128.6102
"98607",1353.2039,76.226746,128.47336
"98608",1353.2172,76.23163,128.36032
"98609",1353.2305,76.23407,128.245
"98610",1353.2438,76.21698,128.11021
"98611",1353.2571,76.17792,127.952934
"98612",1353.2704,76.14374,127.79932
"98613",1353.2837,76.11932,127.654396
"98614",1353.297,76.104675,127.51848
"98615",1353.3103,76.09979,127.39187
"98616",1353.3236,76.10712,127.27731
"98617",1353.3369,76.12421,127.17275
"98618",1353.3502,76.14862,127.07605
"98619",1353.3635,76.17059,126.97767
"98620",1353.3768,76.192566,126.879974
"98621",1353.3901,76.20477,126.7732
"98622",1353.4034,76.19989,126.64972
"98623",1353.4167,76.17792,126.508995
"98624",1353.43,76.14618,126.35782
"98625",1353.4434,76.13153,126.22274
"98626",1353.4567,76.21698,126.1873
"98627",1353.47,76.53193,126.38403
"98628",1353.4833,77.21553,126.95926
"98629",1353.4966,78.3386,127.995316
"98630",1353.5099,79.84253,129.44733
"98631",1353.5232,81.55642,131.1563
"98632",1353.5365,83.228806,132.87732
"98633",1353.5498,84.610664,134.36008
"98634",1353.5631,85.540855,135.43436
"98635",1353.5764,85.98764,136.05429
"98636",1353.5897,86.01938,136.27315
"98637",1353.603,85.76547,136.20735
"98638",1353.6163,85.36263,135.98468
"98639",1353.6296,84.910965,135.70059
"98640",1353.643,84.47883,135.42192
"98641",1353.6562,84.085754,135.16881
"98642",1353.6696,83.70489,134.91562
"98643",1353.6829,83.32159,134.6481
"98644",1353.6962,82.930954,134.36127
"98645",1353.7095,82.564735,134.08664
"98646",1353.7228,82.26444,133.8665
"98647",1353.7361,82.07156,133.74438
"98648",1353.7494,81.99344,133.731
"98649",1353.7627,82.00076,133.80063
"98650",1353.776,82.04715,133.90955
"98651",1353.7893,82.08377,134.01015
"98652",1353.8026,82.07156,134.06306
"98653",1353.8159,81.98123,134.03748
"98654",1353.8292,81.812775,133.93094
"98655",1353.8425,81.57595,133.75076
"98656",1353.8558,81.28298,133.50705
"98657",1353.8958,80.31129,132.62535
"98658",1353.909,80.00122,132.32501
"98659",1353.9224,79.710686,132.03452
"98660",1353.9357,79.44213,131.75691
"98661",1353.949,79.202866,131.50021
"98662",1353.9623,78.995346,131.26778
"98663",1353.9756,78.81224,131.05327
"98664",1353.9889,78.660866,130.86478
"98665",1354.0022,78.53147,130.69353
"98666",1354.0155,78.416725,130.53288
"98667",1354.0288,78.3093,130.37598
"98668",1354.0421,78.21652,130.23036
"98669",1354.0554,78.13107,130.08917
"98670",1354.0687,78.05783,129.95752
"98671",1354.082,77.996796,129.83578
"98672",1354.0953,77.94797,129.72435
"98673",1354.1086,77.8967,129.60895
"98674",1354.122,77.84543,129.49194
"98675",1354.1353,77.79172,129.3709
"98676",1354.1486,77.730675,129.24084
"98677",1354.1619,77.66476,129.104
"98678",1354.1752,77.59884,128.9651
"98679",1354.1885,77.5256,128.81682
"98680",1354.2018,77.454796,128.66869
"98681",1354.2151,77.383995,128.51834
"98682",1354.2284,77.30831,128.3609
"98683",1354.2417,77.23018,128.19865
"98684",1354.255,77.15938,128.04129
"98685",1354.2683,77.13985,127.93299
"98686",1354.2816,77.27657,127.98034
"98687",1354.2949,77.71603,128.33469
"98688",1354.3082,78.572975,129.12025
"98689",1354.3215,79.871826,130.37451
"98690",1354.3348,81.512474,132.01115
"98691",1354.3481,83.28985,133.8358
"98692",1354.3615,84.93538,135.58414
"98693",1354.3748,86.22934,137.03233
"98694",1354.3881,87.064316,138.06198
"98695",1354.4014,87.4403,138.65872
"98696",1354.4147,87.450066,138.901
"98697",1354.428,87.218124,138.90187
"98698",1354.4413,86.86168,138.771
"98699",1354.4546,86.47349,138.59723
"98700",1354.4679,86.0975,138.42354
"98701",1354.4812,85.71908,138.23566
"98702",1354.4945,85.30648,138.00179
"98703",1354.5078,84.8304,137.69153
"98704",1354.5211,84.29084,137.30292
"98705",1354.5344,83.719536,136.8657
"98706",1354.5477,83.18242,136.44482
"98707",1354.561,82.735634,136.09749
"98708",1354.5743,82.41337,135.86072
"98709",1354.5876,82.20584,135.7286
"98710",1354.601,82.07889,135.6706
"98711",1354.6143,81.98367,135.64035
"98712",1354.6276,81.87137,135.59004
"98713",1354.6409,81.71511,135.49226
"98714",1354.6542,81.49294,135.3237
"98715",1354.6675,81.19997,135.07738
"98716",1354.6808,80.848404,134.76332
"98717",1354.6941,80.45289,134.39432
"98718",1354.7074,80.03052,133.9861
"98719",1354.7207,79.61059,133.56712
"98720",1354.734,79.21019,133.15456
"98721",1354.7473,78.83421,132.75389
"98722",1354.7606,78.48997,132.37321
"98723",1354.7739,78.18234,132.0184
"98724",1354.7872,77.90646,131.68571
"98725",1354.8005,77.662315,131.37614
"98726",1354.8138,77.44259,131.08336
"98727",1354.8271,77.24727,130.80812
"98728",1354.8405,77.07393,130.54875
"98729",1354.8538,76.925,130.30838
"98730",1354.8671,76.80049,130.08777
"98731",1354.8804,76.700386,129.88768
"98732",1354.8937,76.62226,129.70644
"98733",1354.907,76.561226,129.53984
"98734",1354.9203,76.507515,129.37866
"98735",1354.9336,76.439156,129.20116
"98736",1354.9469,76.351265,129.00198
"98737",1354.9602,76.25849,128.79518
"98738",1354.9735,76.18036,128.60013
"98739",1354.9868,76.112,128.4124
"98740",1355.0001,76.050964,128.22986
"98741",1355.0134,75.99237,128.04785
"98742",1355.0267,75.92645,127.8567
"98743",1355.04,75.85077,127.65372
"98744",1355.0533,75.83612,127.50941
"98745",1355.0667,76.02899,127.57216
"98746",1355.08,76.57343,127.99251
"98747",1355.0933,77.557335,128.86932
"98748",1355.1066,78.97337,130.20903
"98749",1355.1199,80.69459,131.89816
"98750",1355.1332,82.48417,133.70946
"98751",1355.1465,84.09552,135.39844
"98752",1355.1598,85.33822,136.76912
"98753",1355.1731,86.14145,137.73917
"98754",1355.1864,86.52964,138.31927
"98755",1355.1997,86.60288,138.59657
"98756",1355.213,86.46616,138.6662
"98757",1355.2263,86.219574,138.62167
"98758",1355.2396,85.92905,138.52551
"98759",1355.2529,85.61166,138.3934
"98760",1355.2662,85.25277,138.20988
"98761",1355.2795,84.81819,137.93945
"98762",1355.2928,84.281075,137.5529
"98763",1355.3062,83.65606,137.06168
"98764",1355.3195,82.99199,136.51186
"98765",1355.3328,82.357216,135.97058
"98766",1355.3461,81.812775,135.4998
"98767",1355.3594,81.39773,135.1414
"98768",1355.3727,81.11696,134.90431
"98769",1355.386,80.94118,134.76344
"98770",1355.3993,80.82643,134.67812
"98771",1355.4126,80.723885,134.6014
"98772",1355.4259,80.587166,134.4873
"98773",1355.4392,80.37476,134.29326
"98774",1355.4525,80.08667,134.01688
"98775",1355.4658,79.73754,133.67046
"98776",1355.4791,79.34936,133.27406
"98777",1355.4924,78.941635,132.84601
"98778",1355.5057,78.54368,132.41498
"98779",1355.519,78.16281,131.9886
"98780",1355.5323,77.803925,131.5723
"98781",1355.5457,77.471886,131.17163
"98782",1355.559,77.17647,130.79721
"98783",1355.5723,76.92012,130.45262
"98784",1355.5856,76.6955,130.13176
"98785",1355.5989,76.49775,129.83073
"98786",1355.6122,76.32197,129.5455
"98787",1355.6255,76.17059,129.27919
"98788",1355.6388,76.04364,129.03256
"98789",1355.6521,75.9411,128.80638
"98790",1355.6654,75.85321,128.59164
"98791",1355.6787,75.775085,128.38393
"98792",1355.692,75.70672,128.18353
"98793",1355.7053,75.64568,127.988335
"98794",1355.7186,75.59197,127.79855
"98795",1355.7319,75.55779,127.626625
"98796",1355.7452,75.543144,127.47316
"98797",1355.7585,75.5407,127.33144
"98798",1355.7719,75.543144,127.194534
"98799",1355.7852,75.545586,127.0577
"98800",1355.7985,75.543144,126.91606
"98801",1355.8118,75.53094,126.76458
"98802",1355.8251,75.50652,126.60051
"98803",1355.8384,75.474785,126.42835
"98804",1355.8517,75.43328,126.24544
"98805",1355.865,75.38201,126.05146
"98806",1355.8783,75.32586,125.851
"98807",1355.8916,75.26971,125.64878
"98808",1355.9049,75.22575,125.45701
"98809",1355.9182,75.24284,125.324905
"98810",1355.9315,75.440605,125.37401
"98811",1355.9448,75.97284,125.76376
"98812",1355.9581,76.95674,126.62182
"98813",1355.9714,78.41917,127.98914
"98814",1355.9847,80.26246,129.78304
"98815",1355.998,82.26444,131.79323
"98816",1356.0114,84.159,133.75854
"98817",1356.0247,85.70931,135.43883
"98818",1356.038,86.79088,136.6988
"98819",1356.0513,87.38415,137.50429
"98820",1356.0646,87.56725,137.91815
"98821",1356.0779,87.45983,138.04721
"98822",1356.0912,87.19859,138.01909
"98823",1356.1045,86.88365,137.92911
"98824",1356.1178,86.56382,137.82439
"98825",1356.1311,86.236664,137.70235
"98826",1356.1444,85.85092,137.5115
"98827",1356.1577,85.36019,137.20361
"98828",1356.171,84.7596,136.77052
"98829",1356.1843,84.09064,136.2503
"98830",1356.1976,83.4168,135.7043
"98831",1356.2109,82.82597,135.22025
"98832",1356.2242,82.354774,134.83736
"98833",1356.2375,82.01785,134.57402
"98834",1356.2509,81.78348,134.40271
"98835",1356.2642,81.61257,134.28754
"98836",1356.2775,81.45632,134.18169
"98837",1356.2908,81.290306,134.06119
"98838",1356.3041,81.092545,133.90375
"98839",1356.3174,80.84596,133.69131
"98840",1356.3307,80.5481,133.41989
"98841",1356.344,80.201416,133.09033
"98842",1356.3573,79.81323,132.70844
"98843",1356.3706,79.40551,132.29488
"98844",1356.3839,78.995346,131.86613
"98845",1356.3972,78.59983,131.43922
"98846",1356.4105,78.23361,131.02925
"98847",1356.4238,77.908905,130.64934
"98848",1356.4371,77.62081,130.2959
"98849",1356.4504,77.35958,129.96031
"98850",1356.4637,77.13008,129.6483
"98851",1356.477,76.927444,129.35597
"98852",1356.4904,76.75166,129.08417
"98853",1356.5037,76.60517,128.83617
"98854",1356.517,76.49287,128.61777
"98855",1356.5303,76.404976,128.42027
"98856",1356.5436,76.314644,128.21759
"98857",1356.5569,76.21454,128.00232
"98858",1356.5702,76.12909,127.79858
"98859",1356.5835,76.087585,127.63611
"98860",1356.5968,76.085144,127.511406
"98861",1356.6101,76.10956,127.41348
"98862",1356.6234,76.1535,127.33585
"98863",1356.6367,76.18524,127.24739
"98864",1356.65,76.18524,127.12818
"98865",1356.6633,76.16083,126.98456
"98866",1356.6766,76.1413,126.845055
"98867",1356.69,76.13153,126.71471
"98868",1356.7032,76.1413,126.603584
"98869",1356.7166,76.15839,126.50009
"98870",1356.7299,76.1828,126.40446
"98871",1356.7432,76.21698,126.31935
"98872",1356.7565,76.263374,126.24753
"98873",1356.7698,76.30976,126.17715
"98874",1356.7831,76.36591,126.11798
"98875",1356.7964,76.419624,126.05813
"98876",1356.8097,76.47578,126.002396
"98877",1356.823,76.524605,125.94109
"98878",1356.8363,76.57099,125.878876
"98879",1356.8496,76.612495,125.813225
"98880",1356.8629,76.654,125.74887
"98881",1356.8762,76.700386,125.6907
"98882",1356.8895,76.754105,125.641304
"98883",1356.9028,76.82002,125.60579
"98884",1356.9161,76.89082,125.57722
"98885",1356.9294,76.96895,125.55818
"98886",1356.9427,77.04463,125.53915
"98887",1356.956,77.11299,125.51515
"98888",1356.9694,77.16914,125.48109
"98889",1356.9827,77.21065,125.43413
"98890",1356.996,77.2375,125.37382
"98891",1357.0093,77.24971,125.2997
"98892",1357.0226,77.279015,125.24306
"98893",1357.0359,77.40597,125.28498
"98894",1357.0492,77.77951,125.57746
"98895",1357.0625,78.56565,126.29421
"98896",1357.0758,79.86206,127.5458
"98897",1357.0891,81.636986,129.3164
"98898",1357.1024,83.72198,131.45256
"98899",1357.1157,85.841156,133.68805
"98900",1357.129,87.69665,135.72607
"98901",1357.1423,89.07362,137.34357
"98902",1357.1556,89.898834,138.45233
"98903",1357.169,90.2211,139.08394
"98904",1357.1823,90.16495,139.3472
"98905",1357.1956,89.8793,139.37921
"98906",1357.2089,89.495995,139.30463
"98907",1357.2222,89.10536,139.21074
"98908",1357.2355,88.74647,139.13638
"98909",1357.2488,88.40467,139.06792
"98910",1357.2621,88.03357,138.95946
"98911",1357.2754,87.58434,138.76128
"98912",1357.2887,87.03746,138.4514
"98913",1357.302,86.41245,138.04631
"98914",1357.3153,85.75815,137.59239
"98915",1357.3286,85.14046,137.15465
"98916",1357.3419,84.61555,136.79037
"98917",1357.3552,84.207825,136.52689
"98918",1357.3685,83.90509,136.35565
"98919",1357.3818,83.66827,136.24086
"98920",1357.3951,83.458305,136.14554
"98921",1357.4084,83.23857,136.03387
"98922",1357.4218,82.9749,135.87141
"98923",1357.435,82.652626,135.6421
"98924",1357.4484,82.27665,135.34903
"98925",1357.4617,81.849396,134.99292
"98926",1357.475,81.38552,134.58684
"98927",1357.4883,80.90944,134.15405
"98928",1357.5016,80.44068,133.71371
"98929",1357.5149,79.98657,133.27338
"98930",1357.5282,79.569084,132.85547
"98931",1357.5415,79.200424,132.47334
"98932",1357.5548,78.873276,132.1212
"98933",1357.5681,78.5803,131.79301
"98934",1357.5814,78.31907,131.48741
"98935",1357.5947,78.08713,131.20294
"98936",1357.608,77.86984,130.92587
"98937",1357.6213,77.67452,130.66399
"98938",1357.6346,77.50118,130.41797
"98939",1357.648,77.35226,130.19095
"98940",1357.6613,77.21797,129.97392
"98941",1357.6746,77.09834,129.76735
"98942",1357.6879,76.98604,129.56436
"98943",1357.7012,76.88106,129.36519
"98944",1357.7145,76.77852,129.16518
"98945",1357.7278,76.67597,128.96196
"98946",1357.7411,76.57099,128.7531
"98947",1357.7544,76.470894,128.54584
"98948",1357.7677,76.37324,128.33789
"98949",1357.781,76.28535,128.13666
"98950",1357.7943,76.19989,127.93512
"98951",1357.8076,76.12421,127.740685
"98952",1357.8209,76.06073,127.55609
"98953",1357.8342,76.00946,127.38172
"98954",1357.8475,75.9704,127.21796
"98955",1357.8608,75.945984,127.06762
"98956",1357.8741,75.931335,126.926285
"98957",1357.8875,75.92157,126.789375
"98958",1357.9008,75.911804,126.65216
"98959",1357.9141,75.90204,126.51464
"98960",1357.9274,75.89227,126.376816
"98961",1357.9407,75.88495,126.24113
"98962",1357.954,75.88739,126.114975
"98963",1357.9673,75.8996,125.998665
"98964",1357.9806,75.91913,125.89006
"98965",1357.9939,75.948425,125.79183
"98966",1358.0072,75.98505,125.70184
"98967",1358.0205,76.02411,125.61544
"98968",1358.0338,76.068054,125.53514
"98969",1358.0471,76.11444,125.45866
"98970",1358.0604,76.16327,125.38606
"98971",1358.0737,76.21942,125.32232
"98972",1358.087,76.2707,125.255455
"98973",1358.1003,76.3122,125.18042
"98974",1358.1136,76.34394,125.09692
"98975",1358.127,76.368355,125.00708
"98976",1358.1403,76.39765,124.92289
"98977",1358.1536,76.50996,124.92262
"98978",1358.1669,76.86153,125.16513
"98979",1358.1802,77.625694,125.83122
"98980",1358.1935,78.905014,127.03635
"98981",1358.2068,80.6775,128.77461
"98982",1358.2201,82.774704,130.89299
"98983",1358.2334,84.90852,133.11353
"98984",1358.2467,86.766464,135.12486
"98985",1358.26,88.1239,136.69376
"98986",1358.2733,88.90028,137.72401
"98987",1358.2866,89.15663,138.2585
"98988",1358.2999,89.022354,138.41037
"98989",1358.3132,88.65858,138.32854
"98990",1358.3265,88.21423,138.15477
"98991",1358.3398,87.77234,137.96957
"98992",1358.3531,87.379265,137.81938
"98993",1358.3665,87.05455,137.72527
"98994",1358.3798,86.77379,137.66496
"98995",1358.3931,86.47105,137.5739
"98996",1358.4064,86.099945,137.40501
"98997",1358.4197,85.64828,137.14397
"98998",1358.433,85.12337,136.79556
"98999",1358.4463,84.56184,136.39413
"99000",1358.4596,84.0296,136.00446
"99001",1358.4729,83.59258,135.69336
"99002",1358.4862,83.265434,135.47849
"99003",1358.4995,83.02373,135.33882
"99004",1358.5128,82.82597,135.23557
"99005",1358.5261,82.64286,135.14076
"99006",1358.5394,82.44022,135.02072
"99007",1358.5527,82.19119,134.84795
"99008",1358.566,81.883575,134.60881
"99009",1358.5793,81.5198,134.3039
"99010",1358.5927,81.11452,133.9461
"99011",1358.606,80.689705,133.55612
"99012",1358.6193,80.26978,133.15776
"99013",1358.6326,79.87427,132.77068
"99014",1358.6459,79.50805,132.40053
"99015",1358.6592,79.17845,132.05556
"99016",1358.6725,78.87572,131.72714
"99017",1358.6858,78.60471,131.421
"99018",1358.6991,78.365456,131.13814
"99019",1358.7124,78.150604,130.87221
"99020",1358.7257,77.95529,130.6191
"99021",1358.739,77.77951,130.37941
"99022",1358.7523,77.62081,130.15132
"99023",1358.7656,77.486534,129.94269
"99024",1358.7789,77.366905,129.7445
"99025",1358.7922,77.261925,129.55724
"99026",1358.8055,77.17403,129.38377
"99027",1358.8188,77.100784,129.22221
"99028",1358.8322,77.03487,129.06569
"99029",1358.8455,76.97383,128.91199
"99030",1358.8588,76.91524,128.75882
"99031",1358.8721,76.84932,128.5965
"99032",1358.8854,76.78096,128.42967
"99033",1358.8987,76.70527,128.25339
"99034",1358.912,76.63447,128.07962
"99035",1358.9253,76.57343,127.913414
"99036",1358.9386,76.524605,127.75751
"99037",1358.9519,76.48554,127.60984
"99038",1358.9652,76.45869,127.47316
"99039",1358.9785,76.4416,127.345406
"99040",1358.9918,76.42695,127.21956
"99041",1359.0051,76.41718,127.09814
"99042",1359.0184,76.40986,126.97885
"99043",1359.0317,76.404976,126.86178
"99044",1359.045,76.40009,126.74455
"99045",1359.0583,76.40009,126.63206
"99046",1359.0717,76.40986,126.52933
"99047",1359.085,76.42939,126.43667
"99048",1359.0983,76.456245,126.351944
"99049",1359.1116,76.49531,126.280266
"99050",1359.1249,76.544136,126.219574
"99051",1359.1382,76.595406,126.16285
"99052",1359.1515,76.64912,126.11017
"99053",1359.1648,76.700386,126.056725
"99054",1359.1781,76.74189,125.99512
"99055",1359.1914,76.76631,125.917725
"99056",1359.2047,76.77852,125.82888
"99057",1359.218,76.7834,125.73309
"99058",1359.2313,76.82979,125.67896
"99059",1359.2446,77.03487,125.78497
"99060",1359.2579,77.56222,126.219666
"99061",1359.2712,78.54612,127.12739
"99062",1359.2845,80.01343,128.54926
"99063",1359.2979,81.85184,130.38809
"99064",1359.3112,83.82941,132.42354
"99065",1359.3245,85.643394,134.3572
"99066",1359.3378,87.030136,135.92029
"99067",1359.3511,87.86511,136.97496
"99068",1359.3644,88.15808,137.51372
"99069",1359.3777,88.006714,137.6173
"99070",1359.391,87.55993,137.42072
"99071",1359.4043,86.96422,137.06125
"99072",1359.4176,86.34165,136.65631
"99073",1359.4309,85.767914,136.28075
"99074",1359.4442,85.2723,135.96538
"99075",1359.4575,84.82063,135.67847
"99076",1359.4708,84.37873,135.3872
"99077",1359.4841,83.931946,135.07726
"99078",1359.4974,83.49737,134.76555
"99079",1359.5107,83.09697,134.47444
"99080",1359.524,82.760056,134.23431
"99081",1359.5374,82.52079,134.0813
"99082",1359.5507,82.36698,134.00627
"99083",1359.564,82.266884,133.98015
"99084",1359.5773,82.18631,133.97041
"99085",1359.5906,82.108185,133.96062
"99086",1359.6039,82.003204,133.92152
"99087",1359.6172,81.85184,133.83276
"99088",1359.6305,81.64187,133.68066
"99089",1359.6438,81.36843,133.45854
"99090",1359.6571,81.04372,133.17659
"99091",1359.6704,80.689705,132.8552
"99092",1359.6837,80.31861,132.50566
"99093",1359.697,79.957275,132.15428
"99094",1359.7103,79.61303,131.8087
"99095",1359.7236,79.29565,131.47922
"99096",1359.7369,79.012436,131.174
"99097",1359.7502,78.765854,130.89655
"99098",1359.7635,78.551,130.64313
"99099",1359.7769,78.3679,130.41473
"99100",1359.7902,78.21652,130.21236
"99101",1359.8035,78.08957,130.02966
"99102",1359.8168,77.98215,129.86253
"99103",1359.8301,77.88449,129.70181
"99104",1359.8434,77.79904,129.55025
"99105",1359.8567,77.72335,129.40578
"99106",1359.87,77.65255,129.26382
"99107",1359.8833,77.58663,129.12454
"99108",1359.8966,77.52804,128.99052
"99109",1359.9099,77.469444,128.85468
"99110",1359.9232,77.41329,128.71944
"99111",1359.9365,77.347374,128.57268
"99112",1359.9498,77.2546,128.397
"99113",1359.9631,77.137405,128.19402
"99114",1359.9764,77.02754,127.9947
"99115",1359.9897,76.944534,127.8188
"99116",1360.003,76.88838,127.66717
"99117",1360.0164,76.86397,127.54552
"99118",1360.0297,76.86397,127.44752
"99119",1360.043,76.86885,127.3544
"99120",1360.0563,76.85664,127.24435
"99121",1360.0696,76.83467,127.124146
"99122",1360.0829,76.824905,127.015465
"99123",1360.0962,76.822464,126.9138
"99124",1360.1095,76.82735,126.81939
"99125",1360.1228,76.839554,126.73245
"99126",1360.1361,76.85176,126.6459
"99127",1360.1494,76.86397,126.55972
"99128",1360.1627,76.8835,126.481255
"99129",1360.176,76.90059,126.400955
"99130",1360.1893,76.925,126.328514
"99131",1360.2026,76.946976,126.254395
"99132",1360.216,76.964066,126.17608
"99133",1360.2292,76.96651,126.08365
"99134",1360.2426,76.95674,125.97909
"99135",1360.2559,76.946976,125.87422
"99136",1360.2692,76.995804,125.827644
"99137",1360.2825,77.22041,125.958374
"99138",1360.2958,77.76486,126.41596
"99139",1360.3091,78.74143,127.322685
"99140",1360.3224,80.14526,128.68718
"99141",1360.3357,81.846954,130.3934
"99142",1360.349,83.60967,132.21384
"99143",1360.3623,85.15999,133.87695
"99144",1360.3756,86.27329,135.1515
"99145",1360.3889,86.85191,135.92616
"99146",1360.4022,86.91783,136.2062
"99147",1360.4155,86.58579,136.09035
"99148",1360.4288,85.9852,135.69556
"99149",1360.4421,85.25521,135.1526
"99150",1360.4554,84.49348,134.5551
"99151",1360.4688,83.77081,133.97285
"99152",1360.482,83.10918,133.42906
"99153",1360.4954,82.51591,132.93295
"99154",1360.5087,82.003204,132.49887
"99155",1360.522,81.58816,132.14642
"99156",1360.5353,81.30007,131.90797
"99157",1360.5486,81.1487,131.79723
"99158",1360.5619,81.13405,131.81848
"99159",1360.5752,81.22926,131.94914
"99160",1360.5885,81.38308,132.14137
"99161",1360.6018,81.54665,132.34818
"99162",1360.6151,81.67605,132.52591
"99163",1360.6284,81.73464,132.63689
"99164",1360.6417,81.71267,132.66913
"99165",1360.655,81.59792,132.60791
"99166",1360.6683,81.39529,132.45522
"99167",1360.6816,81.12184,132.22537
"99168",1360.695,80.797134,131.93573
"99169",1360.7083,80.448006,131.61151
"99170",1360.7216,80.093994,131.2715
"99171",1360.7349,79.75464,130.93509
"99172",1360.7482,79.43969,130.61247
"99173",1360.7615,79.15892,130.3142
"99174",1360.7748,78.91478,130.04376
"99175",1360.7881,78.70725,129.80232
"99176",1360.8014,78.536354,129.59102
"99177",1360.8147,78.38987,129.39879
"99178",1360.828,78.27268,129.23128
"99179",1360.8413,78.17502,129.07964
"99180",1360.8546,78.09201,128.93959
"99181",1360.8679,78.02609,128.81404
"99182",1360.8812,77.97238,128.69864
"99183",1360.8945,77.93332,128.5962
"99184",1360.9078,77.908905,128.5072
"99185",1360.9211,77.88937,128.42232
"99186",1360.9344,77.87717,128.34415
"99187",1360.9478,77.86984,128.27048
"99188",1360.961,77.85275,128.18681
"99189",1360.9744,77.81125,128.0782
"99190",1360.9877,77.752655,127.95121
"99191",1361.001,77.68429,127.812614
"99192",1361.0143,77.60372,127.65968
"99193",1361.0276,77.5256,127.506676
"99194",1361.0409,77.46212,127.365875
"99195",1361.0542,77.41085,127.2353
"99196",1361.0675,77.36935,127.112885
"99197",1361.0808,77.34005,127.00138
"99198",1361.0941,77.32296,126.90117
"99199",1361.1074,77.31808,126.81263
"99200",1361.1207,77.32052,126.73126
"99201",1361.134,77.330284,126.657295
"99202",1361.1473,77.34005,126.58363
"99203",1361.1606,77.349815,126.51028
"99204",1361.174,77.35958,126.437225
"99205",1361.1873,77.366905,126.36204
"99206",1361.2006,77.37179,126.28464
"99207",1361.2139,77.36935,126.200066
"99208",1361.2272,77.36202,126.110535
"99209",1361.2405,77.35226,126.01833
"99210",1361.2538,77.37667,125.96001
"99211",1361.2671,77.53048,126.03184
"99212",1361.2804,77.962616,126.3868
"99213",1361.2937,78.79271,127.15323
"99214",1361.307,80.0354,128.35818
"99215",1361.3203,81.583275,129.90717
"99216",1361.3336,83.22148,131.59485
"99217",1361.3469,84.68391,133.15794
"99218",1361.3602,85.748375,134.36879
"99219",1361.3735,86.30747,135.10753
"99220",1361.3868,86.38804,135.38521
"99221",1361.4001,86.07797,135.27477
"99222",1361.4135,85.49691,134.88364
"99223",1361.4268,84.754715,134.31322
"99224",1361.4401,83.946594,133.65369
"99225",1361.4534,83.13847,132.9689
"99226",1361.4667,82.36454,132.29305
"99227",1361.48,81.654076,131.65648
"99228",1361.4933,81.04372,131.09781
"99229",1361.5066,80.56519,130.6519
"99230",1361.5199,80.25025,130.35463
"99231",1361.5332,80.12085,130.23305
"99232",1361.5465,80.177,130.29297
"99233",1361.5598,80.37232,130.49382
"99234",1361.5731,80.6482,130.78134
"99235",1361.5864,80.94118,131.09457
"99236",1361.5997,81.1902,131.37302
"99237",1361.613,81.3489,131.56891
"99238",1361.6263,81.40749,131.66966
"99239",1361.6396,81.36355,131.66971
"99240",1361.653,81.231705,131.58047
"99241",1361.6663,81.02907,131.41634
"99242",1361.6796,80.78493,131.20436
"99243",1361.6929,80.51148,130.95544
"99244",1361.7062,80.22583,130.68578
"99245",1361.7195,79.940186,130.4072
"99246",1361.7328,79.66674,130.13188
"99247",1361.7461,79.38598,129.8407
"99248",1361.7594,79.11009,129.54562
"99249",1361.7727,78.86107,129.26878
"99250",1361.786,78.66575,129.03787
"99251",1361.7993,78.521706,128.85213
"99252",1361.8126,78.42405,128.70827
"99253",1361.8259,78.3679,128.60286
"99254",1361.8392,78.32639,128.51035
"99255",1361.8525,78.277565,128.40921
"99256",1361.8658,78.21896,128.29678
"99257",1361.8792,78.17258,128.19473
"99258",1361.8925,78.1384,128.10344
"99259",1361.9058,78.11154,128.0184
"99260",1361.9191,78.099335,127.94718
"99261",1361.9324,78.09201,127.88046
"99262",1361.9457,78.09201,127.82084
"99263",1361.959,78.099335,127.76854
"99264",1361.9723,78.10666,127.71647
"99265",1361.9856,78.11154,127.662186
"99266",1361.9989,78.10666,127.59829
"99267",1362.0122,78.082245,127.51471
"99268",1362.0255,78.048065,127.4206
"99269",1362.0388,78.011444,127.32298
"99270",1362.0521,77.97482,127.22422
"99271",1362.0654,77.94064,127.126755
"99272",1362.0787,77.91379,127.035545
"99273",1362.092,77.88937,126.94594
"99274",1362.1053,77.86252,126.85313
"99275",1362.1187,77.83078,126.75459
"99276",1362.132,77.7966,126.652626
"99277",1362.1453,77.7551,126.54227
"99278",1362.1586,77.713585,126.4306
"99279",1362.1719,77.68917,126.33474
"99280",1362.1852,77.747765,126.32112
"99281",1362.1985,77.99924,126.50221
"99282",1362.2118,78.572975,127.01343
"99283",1362.2251,79.52514,127.921
"99284",1362.2384,80.81178,129.1928
"99285",1362.2517,82.28397,130.69035
"99286",1362.265,83.719536,132.1973
"99287",1362.2783,84.89143,133.48543
"99288",1362.2916,85.64828,134.39513
"99289",1362.3049,85.95102,134.87437
"99290",1362.3182,85.85092,134.96025
"99291",1362.3315,85.43832,134.73048
"99292",1362.3448,84.81331,134.27542
"99293",1362.3582,84.06622,133.67876
"99294",1362.3715,83.267876,133.00748
"99295",1362.3848,82.47196,132.31369
"99296",1362.3981,81.71023,131.62921
"99297",1362.4114,81.02174,130.99417
"99298",1362.4247,80.43336,130.43771
"99299",1362.438,79.98657,130.00447
"99300",1362.4513,79.70092,129.7184
"99301",1362.4646,79.5935,129.60162
"99302",1362.4779,79.64965,129.64507
"99303",1362.4912,79.82788,129.81235
"99304",1362.5045,80.07202,130.05112
"99305",1362.5178,80.325935,130.30728
"99306",1362.5311,80.53834,130.52988
"99307",1362.5444,80.67017,130.67854
"99308",1362.5577,80.709236,130.73856
"99309",1362.571,80.66041,130.7119
"99310",1362.5844,80.5359,130.60803
"99311",1362.5977,80.35035,130.43924
"99312",1362.611,80.12573,130.22557
"99313",1362.6243,79.88159,129.98535
"99314",1362.6376,79.62768,129.72774
"99315",1362.6509,79.37621,129.46463
"99316",1362.6642,79.13451,129.20343
"99317",1362.6775,78.91234,128.95421
"99318",1362.6908,78.71458,128.72246
"99319",1362.7041,78.54124,128.50894
"99320",1362.7174,78.40452,128.32663
"99321",1362.7307,78.30442,128.17667
"99322",1362.744,78.22873,128.04799
"99323",1362.7573,78.187225,127.95113
"99324",1362.7706,78.17502,127.88228
"99325",1362.7839,78.18967,127.8399
"99326",1362.7972,78.23117,127.82483
"99327",1362.8105,78.28977,127.828156
"99328",1362.8239,78.36057,127.84551
"99329",1362.8372,78.43137,127.86508
"99330",1362.8505,78.49241,127.8771
"99331",1362.8638,78.52659,127.86417
"99332",1362.8771,78.536354,127.82789
"99333",1362.8904,78.538795,127.78459
"99334",1362.9037,78.555885,127.75602
"99335",1362.917,78.58762,127.74263
"99336",1362.9303,78.62913,127.74
"99337",1362.9436,78.68284,127.75087
"99338",1362.9569,78.72434,127.75121
"99339",1362.9702,78.73167,127.71867
"99340",1362.9835,78.69749,127.64486
"99341",1362.9968,78.64622,127.55289
"99342",1363.0101,78.57786,127.44222
"99343",1363.0234,78.50706,127.32698
"99344",1363.0367,78.45335,127.226616
"99345",1363.05,78.44846,127.1734
"99346",1363.0634,78.57053,127.24699
"99347",1363.0767,78.91478,127.54656
"99348",1363.09,79.56176,128.15962
"99349",1363.1033,80.51881,129.10297
"99350",1363.1166,81.70779,130.30817
"99351",1363.1299,82.9749,131.62865
"99352",1363.1432,84.12726,132.87398
"99353",1363.1565,85.0013,133.877
"99354",1363.1698,85.506676,134.53867
"99355",1363.1831,85.64095,134.84503
"99356",1363.1964,85.46029,134.84065
"99357",1363.2097,85.03548,134.58647
"99358",1363.223,84.44709,134.15544
"99359",1363.2363,83.75372,133.60104
"99360",1363.2496,83.01152,132.97615
"99361",1363.263,82.25712,132.31586
"99362",1363.2762,81.529564,131.65884
"99363",1363.2896,80.86549,131.04257
"99364",1363.3029,80.31129,130.51541
"99365",1363.3162,79.91333,130.12718
"99366",1363.3295,79.7058,129.91695
"99367",1363.3428,79.68627,129.88821
"99368",1363.3561,79.81323,130.00537
"99369",1363.3694,80.03296,130.21927
"99370",1363.3827,80.29908,130.48642
"99371",1363.396,80.57496,130.77165
"99372",1363.4093,80.814224,131.02888
"99373",1363.4226,80.99489,131.235
"99374",1363.4359,81.10475,131.37596
"99375",1363.4492,81.13161,131.43735
"99376",1363.4625,81.06569,131.4068
"99377",1363.4758,80.93385,131.30827
"99378",1363.4891,80.76051,131.16412
"99379",1363.5024,80.56275,130.99013
"99380",1363.5157,80.35035,130.79532
"99381",1363.529,80.128174,130.58409
"99382",1363.5424,79.90845,130.36838
"99383",1363.5557,79.693596,130.15067
"99384",1363.569,79.48852,129.936
"99385",1363.5823,79.30297,129.73447
"99386",1363.5956,79.14183,129.55154
"99387",1363.6089,79.00267,129.38556
"99388",1363.6222,78.887924,129.23964
"99389",1363.6355,78.79271,129.10966
"99390",1363.6488,78.71458,128.9938
"99391",1363.6621,78.641335,128.88039
"99392",1363.6754,78.572975,128.76956
"99393",1363.6887,78.5095,128.66148
"99394",1363.702,78.45335,128.55875
"99395",1363.7153,78.40452,128.46158
"99396",1363.7286,78.365456,128.37265
"99397",1363.742,78.3386,128.29471
"99398",1363.7552,78.32151,128.2257
"99399",1363.7686,78.3093,128.16103
"99400",1363.7819,78.30198,128.10086
"99401",1363.7952,78.30686,128.05267
"99402",1363.8085,78.3093,128.0022
"99403",1363.8218,78.30442,127.94448
"99404",1363.8351,78.29221,127.87929
"99405",1363.8484,78.27024,127.80395
"99406",1363.8617,78.277565,127.75722
"99407",1363.875,78.416725,127.84255
"99408",1363.8883,78.82445,128.20079
"99409",1363.9016,79.62035,128.95996
"99410",1363.9149,80.833755,130.1615
"99411",1363.9282,82.36454,131.71834
"99412",1363.9415,84.01007,133.43776
"99413",1363.9548,85.521324,135.07433
"99414",1363.9681,86.6688,136.39435
"99415",1363.9814,87.33532,137.26927
"99416",1363.9948,87.51598,137.67917
"99417",1364.008,87.28405,137.68211
"99418",1364.0214,86.74204,137.36774
"99419",1364.0347,85.997406,136.83379
"99420",1364.048,85.15022,136.17403
"99421",1364.0613,84.27131,135.45605
"99422",1364.0746,83.41192,134.73015
"99423",1364.0879,82.60624,134.0311
"99424",1364.1012,81.883575,133.38988
"99425",1364.1145,81.26833,132.8335
"99426",1364.1278,80.79225,132.39705
"99427",1364.1411,80.482185,132.11174
"99428",1364.1544,80.35767,132.0023
"99429",1364.1677,80.40894,132.06476
"99430",1364.181,80.59449,132.26309
"99431",1364.1943,80.85573,132.54291
"99432",1364.2076,81.12428,132.83821
"99433",1364.221,81.3489,133.09796
"99434",1364.2343,81.49294,133.28416
"99435",1364.2476,81.532005,133.36989
"99436",1364.2609,81.46609,133.35185
"99437",1364.2742,81.304955,133.23654
"99438",1364.2875,81.058365,133.03073
"99439",1364.3008,80.75563,132.76108
"99440",1364.3141,80.42603,132.4551
"99441",1364.3274,80.08423,132.1266
"99442",1364.3407,79.77173,131.81674
"99443",1364.354,79.50317,131.54105
"99444",1364.3673,79.26147,131.28381
"99445",1364.3806,79.03685,131.03612
"99446",1364.3939,78.82445,130.79361
"99447",1364.4072,78.624245,130.55667
"99448",1364.4205,78.42893,130.31836
"99449",1364.4338,78.25559,130.09592
"99450",1364.4471,78.118866,129.90468
"99451",1364.4604,78.02365,129.75067
"99452",1364.4738,77.95041,129.61566
"99453",1364.487,77.8967,129.4979
"99454",1364.5004,77.86008,129.39554
"99455",1364.5137,77.83566,129.30424
"99456",1364.527,77.8259,129.22684
"99457",1364.5403,77.8259,129.15889
"99458",1364.5536,77.82834,129.09338
"99459",1364.5669,77.8259,129.02307
"99460",1364.5802,77.81857,128.9478
"99461",1364.5935,77.7966,128.85765
"99462",1364.6068,77.76242,128.75461
"99463",1364.6201,77.730675,128.65294
"99464",1364.6334,77.7551,128.60645
"99465",1364.6467,77.96994,128.75113
"99466",1364.66,78.51682,129.23457
"99467",1364.6733,79.50561,130.177
"99468",1364.6866,80.94118,131.59712
"99469",1364.7,82.69901,133.38437
"99470",1364.7133,84.525215,135.29492
"99471",1364.7266,86.14633,137.05745
"99472",1364.7399,87.33532,138.4385
"99473",1364.7532,87.989624,139.32204
"99474",1364.7665,88.11902,139.70111
"99475",1364.7798,87.82117,139.65698
"99476",1364.7931,87.22789,139.30812
"99477",1364.8064,86.44907,138.75517
"99478",1364.8197,85.592125,138.09976
"99479",1364.833,84.735176,137.41757
"99480",1364.8463,83.9173,136.74767
"99481",1364.8596,83.160446,136.11324
"99482",1364.8729,82.48417,135.53572
"99483",1364.8862,81.91531,135.0445
"99484",1364.8995,81.48562,134.67465
"99485",1364.9128,81.2195,134.45496
"99486",1364.9261,81.1194,134.39297
"99487",1364.9395,81.16579,134.47435
"99488",1364.9528,81.307396,134.65239
"99489",1364.9661,81.478294,134.86415
"99490",1364.9794,81.619896,135.05196
"99491",1364.9927,81.6907,135.17339
"99492",1365.006,81.67361,135.20914
"99493",1365.0193,81.55398,135.14182
"99494",1365.0326,81.3489,134.9853
"99495",1365.0459,81.07057,134.74913
"99496",1365.0592,80.740974,134.45299
"99497",1365.0725,80.38209,134.11726
"99498",1365.0858,80.01099,133.7581
"99499",1365.0991,79.64721,133.39467
"99500",1365.1124,79.30785,133.04428
"99501",1365.1257,79.00023,132.71503
"99502",1365.139,78.729225,132.41278
"99503",1365.1523,78.47288,132.11671
"99504",1365.1656,78.22873,131.82484
"99505",1365.179,78.00656,131.54732
"99506",1365.1923,77.83078,131.30923
"99507",1365.2056,77.696495,131.10716
"99508",1365.2189,77.59884,130.93752
"99509",1365.2322,77.540245,130.80388
"99510",1365.2455,77.4963,130.68306
"99511",1365.2588,77.44503,130.55354
"99512",1365.2721,77.38644,130.4151
"99513",1365.2854,77.34493,130.29192
"99514",1365.2987,77.313194,130.1772
"99515",1365.312,77.27657,130.05661
"99516",1365.3253,77.23018,129.92511
"99517",1365.3386,77.1667,129.77507
"99518",1365.3519,77.0959,129.61572
"99519",1365.3652,77.05928,129.48834
"99520",1365.3785,77.17647,129.51363
"99521",1365.3918,77.62081,129.86974
"99522",1365.4052,78.519264,130.69383
"99523",1365.4185,79.91089,132.03918
"99524",1365.4318,81.6907,133.81621
"99525",1365.4451,83.63409,135.81244
"99526",1365.4584,85.44564,137.73756
"99527",1365.4717,86.85924,139.32133
"99528",1365.485,87.73571,140.41216
"99529",1365.4983,88.06531,140.98349
"99530",1365.5116,87.92615,141.09637
"99531",1365.5249,87.450066,140.86798
"99532",1365.5382,86.77623,140.42696
"99533",1365.5515,86.014496,139.87698
"99534",1365.5648,85.240555,139.291
"99535",1365.5781,84.49592,138.71013
"99536",1365.5914,83.792786,138.14749
"99537",1365.6047,83.13603,137.60927
"99538",1365.618,82.55253,137.12376
"99539",1365.6313,82.06912,136.72012
"99540",1365.6447,81.71267,136.42833
"99541",1365.658,81.497826,136.26701
"99542",1365.6713,81.409935,136.22594
"99543",1365.6846,81.41238,136.27245
"99544",1365.6979,81.45144,136.35565
"99545",1365.7112,81.47341,136.42299
"99546",1365.7245,81.44167,136.4373
"99547",1365.7378,81.33669,136.37738
"99548",1365.7511,81.146255,136.22871
"99549",1365.7644,80.87526,135.99355
"99550",1365.7777,80.53834,135.68398
"99551",1365.791,80.15259,135.31505
"99552",1365.8043,79.742424,134.90965
"99553",1365.8176,79.32983,134.489
"99554",1365.8309,78.93675,134.07498
"99555",1365.8442,78.57542,133.68042
"99556",1365.8575,78.25071,133.31119
"99557",1365.8708,77.96506,132.97087
"99558",1365.8842,77.72091,132.66313
"99559",1365.8975,77.51095,132.38194
"99560",1365.9108,77.330284,132.12349
"99561",1365.9241,77.171585,131.88136
"99562",1365.9374,77.03487,131.65625
"99563",1365.9507,76.910355,131.43907
"99564",1365.964,76.79805,131.23021
"99565",1365.9773,76.70527,131.03737
"99566",1365.9906,76.63447,130.8636
"99567",1366.0039,76.58808,130.71204
"99568",1366.0172,76.5539,130.57123
"99569",1366.0305,76.51728,130.42691
"99570",1366.0438,76.46845,130.26924
"99571",1366.0571,76.40009,130.09052
