"","Time..s.","PPG.trace","Preprocessed.PPG"
"4294",57.31372,79.37377,78.35696
"4295",57.327026,79.38354,78.34715
"4296",57.340393,79.3933,78.337654
"4297",57.3537,79.40307,78.32846
"4298",57.367065,79.44457,78.35131
"4299",57.38037,79.537346,78.42673
"4300",57.393738,79.708244,78.58317
"4301",57.407043,79.9646,78.83041
"4302",57.42041,80.29908,79.16378
"4303",57.433716,80.68238,79.55643
"4304",57.447083,81.075455,79.970825
"4305",57.46039,81.4197,80.34868
"4306",57.473755,81.671165,80.64451
"4307",57.48706,81.795685,80.82125
"4308",57.500427,81.7908,80.87248
"4309",57.513733,81.68337,80.821014
"4310",57.5271,81.512474,80.70272
"4311",57.540405,81.31472,80.55223
"4312",57.553772,81.13161,80.4102
"4313",57.567078,80.98512,80.29908
"4314",57.580444,80.87526,80.22
"4315",57.59375,80.797134,80.16923
"4316",57.607117,80.75075,80.14775
"4317",57.620422,80.719,80.139465
"4318",57.63379,80.6775,80.12043
"4319",57.647095,80.62379,80.08789
"4320",57.66046,80.550545,80.03414
"4321",57.673767,80.47242,79.97322
"4322",57.687134,80.39918,79.91474
"4323",57.70044,80.33814,79.86618
"4324",57.713806,80.2942,79.8328
"4325",57.72711,80.272224,79.82002
"4326",57.74048,80.27711,79.83341
"4327",57.753784,80.291756,79.85672
"4328",57.76715,80.30396,79.878044
"4329",57.780457,80.291756,79.875336
"4330",57.793823,80.255135,79.84783
"4331",57.80713,80.19409,79.79476
"4332",57.820496,80.11597,79.7227
"4333",57.8338,80.01343,79.62379
"4334",57.847168,79.8938,79.50458
"4335",57.860474,79.77905,79.38651
"4336",57.87384,79.68871,79.28927
"4337",57.887146,79.62524,79.216064
"4338",57.900513,79.5935,79.172615
"4339",57.91382,79.5935,79.15991
"4340",57.927185,79.605705,79.15942
"4341",57.94049,79.61059,79.15198
"4342",57.953857,79.60082,79.13004
"4343",57.967163,79.5935,79.110245
"4344",57.98053,79.58373,79.087776
"4345",57.993835,79.571526,79.06256
"4346",58.007202,79.551994,79.02964
"4347",58.020508,79.53246,78.99611
"4348",58.033875,79.51049,78.959526
"4349",58.04718,79.4934,78.92714
"4350",58.060547,79.49096,78.90887
"4351",58.073853,79.51537,78.91737
"4352",58.08722,79.5642,78.95106
"4353",58.100525,79.61059,78.983826
"4354",58.11389,79.63744,78.99851
"4355",58.127197,79.64965,78.99939
"4356",58.140564,79.63256,78.97135
"4357",58.15387,79.58129,78.9086
"4358",58.167236,79.52758,78.841805
"4359",58.180542,79.48852,78.78798
"4360",58.19391,79.4519,78.735374
"4361",58.207214,79.37621,78.64256
"4362",58.22058,79.281,78.527855
"4363",58.233887,79.200424,78.42481
"4364",58.247253,79.168686,78.36809
"4365",58.26056,79.19066,78.36408
"4366",58.273926,79.2517,78.39983
"4367",58.28723,79.33959,78.46434
"4368",58.3006,79.41039,78.5145
"4369",58.313904,79.432365,78.51805
"4370",58.32727,79.40551,78.47346
"4371",58.340576,79.38842,78.43779
"4372",58.353943,79.40307,78.43333
"4373",58.36725,79.48852,78.50012
"4374",58.380615,79.67162,78.667244
"4375",58.39392,79.95239,78.93775
"4376",58.407288,80.30152,79.28539
"4377",58.420593,80.68726,79.68056
"4378",58.43396,81.0486,80.06337
"4379",58.447266,81.32693,80.374466
"4380",58.460632,81.4905,80.579506
"4381",58.473938,81.53689,80.67247
"4382",58.487305,81.497826,80.681435
"4383",58.50061,81.39529,80.6257
"4384",58.513977,81.26101,80.53503
"4385",58.527283,81.109634,80.42306
"4386",58.54065,80.96803,80.31613
"4387",58.553955,80.83864,80.21699
"4388",58.56732,80.73609,80.14065
"4389",58.580627,80.638435,80.065994
"4390",58.593994,80.52613,79.97364
"4391",58.6073,80.42603,79.889984
"4392",58.620667,80.34791,79.82517
"4393",58.633972,80.28443,79.77257
"4394",58.64734,80.22339,79.72041
"4395",58.660645,80.19165,79.695656
"4396",58.67401,80.17212,79.68211
"4397",58.687317,80.14038,79.655754
"4398",58.700684,80.09888,79.61864
"4399",58.71399,80.08667,79.60952
"4400",58.727356,80.08667,79.61223
"4401",58.74066,80.08179,79.610054
"4402",58.75403,80.0647,79.59552
"4403",58.767334,80.028076,79.56092
"4404",58.7807,79.96704,79.50076
"4405",58.794006,79.90112,79.433815
"4406",58.807373,79.82788,79.35748
"4407",58.82068,79.75952,79.283745
"4408",58.834045,79.69848,79.21519
"4409",58.84735,79.65453,79.16182
"4410",58.860718,79.622795,79.119286
"4411",58.874023,79.61059,79.09529
"4412",58.88739,79.56664,79.03918
"4413",58.900696,79.48608,78.94507
"4414",58.914062,79.3933,78.836235
"4415",58.92737,79.33471,78.75868
"4416",58.940735,79.310295,78.71348
"4417",58.95404,79.30785,78.68948
"4418",58.967407,79.34203,78.702034
"4419",58.980713,79.3933,78.73274
"4420",58.99408,79.42504,78.74552
"4421",59.007385,79.43725,78.73976
"4422",59.020752,79.46166,78.74659
"4423",59.034058,79.49828,78.76639
"4424",59.047424,79.5227,78.77512
"4425",59.06073,79.534904,78.772415
"4426",59.074097,79.54467,78.76765
"4427",59.087402,79.56176,78.77051
"4428",59.10077,79.571526,78.76658
"4429",59.114075,79.569084,78.75075
"4430",59.12744,79.55932,78.727516
"4431",59.140747,79.53979,78.694214
"4432",59.154114,79.51537,78.65542
"4433",59.16742,79.49584,78.62074
"4434",59.180786,79.48608,78.59522
"4435",59.19409,79.47143,78.564514
"4436",59.20746,79.45678,78.53335
"4437",59.220764,79.449455,78.50905
"4438",59.23413,79.45434,78.49673
"4439",59.247437,79.47143,78.496765
"4440",59.260803,79.4934,78.50222
"4441",59.27411,79.51293,78.50592
"4442",59.287476,79.537346,78.515114
"4443",59.30078,79.551994,78.515305
"4444",59.314148,79.55688,78.50619
"4445",59.327454,79.569084,78.50455
"4446",59.34082,79.603264,78.52526
"4447",59.354126,79.68383,78.59343
"4448",59.367493,79.84497,78.74469
"4449",59.3808,80.0647,78.95957
"4450",59.394165,80.34058,79.23748
"4451",59.40747,80.66041,79.56795
"4452",59.420837,80.99977,79.92795
"4453",59.434143,81.29275,80.25217
"4454",59.44751,81.51003,80.50985
"4455",59.460815,81.62966,80.67667
"4456",59.474182,81.64675,80.74468
"4457",59.487488,81.55642,80.70581
"4458",59.500854,81.38796,80.58599
"4459",59.51416,81.20485,80.44625
"4460",59.527527,81.02663,80.30568
"4461",59.540833,80.88258,80.19372
"4462",59.5542,80.782486,80.1212
"4463",59.567505,80.719,80.08217
"4464",59.58087,80.68238,80.068016
"4465",59.594177,80.655525,80.062485
"4466",59.607544,80.61402,80.041466
"4467",59.62085,80.550545,79.99718
"4468",59.634216,80.47486,79.9387
"4469",59.647522,80.40162,79.880295
"4470",59.66089,80.33814,79.82937
"4471",59.674194,80.28443,79.786224
"4472",59.68756,80.24048,79.75116
"4473",59.700867,80.21118,79.72938
"4474",59.714233,80.18921,79.714005
"4475",59.72754,80.164795,79.6955
"4476",59.740906,80.128174,79.66403
"4477",59.75421,80.08179,79.62165
"4478",59.76758,80.025635,79.568054
"4479",59.780884,79.9646,79.50782
"4480",59.79425,79.89868,79.440796
"4481",59.807556,79.84253,79.38148
"4482",59.820923,79.78882,79.322845
"4483",59.83423,79.7351,79.26253
"4484",59.847595,79.691154,79.210304
"4485",59.8609,79.656975,79.16647
"4486",59.874268,79.63256,79.13134
"4487",59.887573,79.61059,79.097885
"4488",59.90094,79.58129,79.05642
"4489",59.914246,79.54467,79.006714
"4490",59.927612,79.50317,78.95098
"4491",59.940918,79.466545,78.898834
"4492",59.954285,79.43969,78.85531
"4493",59.96759,79.432365,78.830475
"4494",59.980957,79.447014,78.827385
"4495",59.994263,79.46899,78.83208
"4496",60.00763,79.45922,78.80572
"4497",60.020935,79.41772,78.747314
"4498",60.0343,79.37377,78.68517
"4499",60.047607,79.34203,78.633865
"4500",60.060974,79.32983,78.6011
"4501",60.07428,79.38354,78.633865
"4502",60.087646,79.50317,78.73423
"4503",60.100952,79.61791,78.83345
"4504",60.11432,79.66674,78.87034
"4505",60.127625,79.656975,78.85016
"4506",60.14099,79.62524,78.8077
"4507",60.154297,79.55688,78.72763
"4508",60.167664,79.49584,78.65275
"4509",60.18097,79.46899,78.61014
"4510",60.194336,79.46899,78.593544
"4511",60.20764,79.45922,78.567184
"4512",60.22101,79.44213,78.533195
"4513",60.234314,79.42748,78.501114
"4514",60.24768,79.429924,78.485664
"4515",60.260986,79.447014,78.48494
"4516",60.274353,79.4934,78.514046
"4517",60.28766,79.59594,78.60075
"4518",60.301025,79.781494,78.77368
"4519",60.31433,80.03784,79.0232
"4520",60.327698,80.35035,79.33689
"4521",60.341003,80.68726,79.68475
"4522",60.35437,81.01442,80.03339
"4523",60.367676,81.30251,80.35318
"4524",60.381042,81.51736,80.60873
"4525",60.39435,81.62478,80.763565
"4526",60.407715,81.602806,80.792366
"4527",60.42102,81.46609,80.705734
"4528",60.434387,81.25124,80.536705
"4529",60.447693,81.02663,80.35119
"4530",60.46106,80.86061,80.217255
"4531",60.474365,80.77028,80.15382
"4532",60.487732,80.726326,80.133934
"4533",60.501038,80.67994,80.110245
"4534",60.514404,80.61402,80.065575
"4535",60.52771,80.52125,79.99199
"4536",60.541077,80.42603,79.91306
"4537",60.554382,80.34547,79.84581
"4538",60.56775,80.2942,79.805336
"4539",60.581055,80.25025,79.770584
"4540",60.59442,80.218506,79.74666
"4541",60.607727,80.18921,79.72419
"4542",60.621094,80.16724,79.70813
"4543",60.6344,80.147705,79.693825
"4544",60.647766,80.128174,79.67891
"4545",60.66107,80.10132,79.65606
"4546",60.67444,80.06714,79.625046
"4547",60.687744,79.9939,79.5539
"4548",60.70111,79.88159,79.44141
"4549",60.714417,79.77173,79.32784
"4550",60.727783,79.69848,79.24746
"4551",60.74109,79.66918,79.20874
"4552",60.754456,79.674065,79.203285
"4553",60.76776,79.708244,79.22728
"4554",60.781128,79.742424,79.25234
"4555",60.794434,79.7522,79.25407
"4556",60.8078,79.73266,79.22678
"4557",60.821106,79.7351,79.22087
"4558",60.834473,79.76196,79.239456
"4559",60.84778,79.78638,79.25643
"4560",60.861145,79.801025,79.264404
"4561",60.87445,79.815674,79.272835
"4562",60.887817,79.81323,79.26463
"4563",60.901123,79.79126,79.236824
"4564",60.91449,79.76196,79.201004
"4565",60.927795,79.73266,79.16426
"4566",60.941162,79.7058,79.12905
"4567",60.954468,79.68139,79.09544
"4568",60.967834,79.66918,79.07328
"4569",60.98114,79.66918,79.06294
"4570",60.994507,79.68383,79.06725
"4571",61.007812,79.70336,79.076904
"4572",61.02118,79.71557,79.07984
"4573",61.034485,79.71313,79.06851
"4574",61.04785,79.69604,79.04246
"4575",61.061157,79.62524,78.96216
"4576",61.074524,79.50805,78.83326
"4577",61.08783,79.412834,78.72267
"4578",61.101196,79.40307,78.69456
"4579",61.114502,79.48119,78.75403
"4580",61.12787,79.6643,78.92092
"4581",61.141174,79.95239,79.198524
"4582",61.15454,80.291756,79.5364
"4583",61.167847,80.61158,79.86534
"4584",61.181213,80.8777,80.15057
"4585",61.19452,81.09987,80.40017
"4586",61.207886,81.248795,80.583466
"4587",61.22119,81.30007,80.67377
"4588",61.23456,81.25857,80.67289
"4589",61.247864,81.15358,80.60723
"4590",61.26123,81.01442,80.50412
"4591",61.274536,80.86305,80.38445
"4592",61.287903,80.73121,80.27958
"4593",61.30121,80.63355,80.20477
"4594",61.314575,80.567635,80.15865
"4595",61.32788,80.51148,80.12024
"4596",61.341248,80.46021,80.08495
"4597",61.354553,80.41871,80.05783
"4598",61.36792,80.38453,80.036736
"4599",61.381226,80.35035,80.01457
"4600",61.394592,80.31861,79.99378
"4601",61.407898,80.28199,79.96712
"4602",61.421265,80.25025,79.94419
"4603",61.43457,80.19165,79.89341
"4604",61.447937,80.10376,79.81151
"4605",61.461243,80.03296,79.74395
"4606",61.47461,80.00366,79.71568
"4607",61.487915,80.01587,79.728004
"4608",61.50128,80.05249,79.76512
"4609",61.514587,80.10376,79.81803
"4610",61.527954,80.11841,79.83592
"4611",61.54126,80.08423,79.80544
"4612",61.554626,80.008545,79.73239
"4613",61.567932,79.93286,79.656975
"4614",61.5813,79.87671,79.598724
"4615",61.594604,79.83765,79.55581
"4616",61.60797,79.80591,79.519
"4617",61.621277,79.766846,79.47387
"4618",61.634644,79.727776,79.42751
"4619",61.64795,79.693596,79.38483
"4620",61.661316,79.676506,79.35816
"4621",61.67462,79.67162,79.34317
"4622",61.68799,79.674065,79.33535
"4623",61.701294,79.674065,79.325165
"4624",61.71466,79.674065,79.31498
"4625",61.727966,79.6643,79.29503
"4626",61.741333,79.65209,79.27233
"4627",61.75464,79.639885,79.24925
"4628",61.768005,79.63012,79.22823
"4629",61.78131,79.62035,79.20691
"4630",61.794678,79.61303,79.18772
"4631",61.807983,79.61303,79.17563
"4632",61.82135,79.64233,79.19283
"4633",61.834656,79.73022,79.26955
"4634",61.848022,79.90112,79.43202
"4635",61.86133,80.147705,79.675514
"4636",61.874695,80.4358,79.96822
"4637",61.888,80.71168,80.25772
"4638",61.901367,80.921646,80.48993
"4639",61.914673,81.02907,80.62615
"4640",61.92804,81.02907,80.65831
"4641",61.941345,80.9485,80.6099
"4642",61.954712,80.82643,80.51747
"4643",61.968018,80.69215,80.40901
"4644",61.981384,80.57984,80.31834
"4645",61.99469,80.49439,80.25101
"4646",62.008057,80.43824,80.210304
"4647",62.021362,80.38697,80.17273
"4648",62.03473,80.34058,80.138435
"4649",62.048035,80.291756,80.10025
"4650",62.0614,80.22583,80.04344
"4651",62.074707,80.14282,79.96749
"4652",62.088074,80.062256,79.89139
"4653",62.10138,80.00122,79.8323
"4654",62.114746,79.954834,79.78595
"4655",62.12805,79.93042,79.760124
"4656",62.14142,79.92798,79.75551
"4657",62.154724,79.937744,79.76302
"4658",62.16809,79.94263,79.76596
"4659",62.181396,79.93286,79.7544
"4660",62.194763,79.91089,79.73033
"4661",62.20807,79.88159,79.69825
"4662",62.221436,79.84741,79.66037
"4663",62.23474,79.81323,79.62142
"4664",62.248108,79.783936,79.58629
"4665",62.261414,79.764404,79.560005
"4666",62.27478,79.744865,79.533104
"4667",62.288086,79.725334,79.5056
"4668",62.301453,79.67162,79.443306
"4669",62.31476,79.57885,79.34027
"4670",62.328125,79.49096,79.23922
"4671",62.34143,79.449455,79.18181
"4672",62.354797,79.45678,79.17193
"4673",62.368103,79.500725,79.1989
"4674",62.38147,79.571526,79.2541
"4675",62.394775,79.635,79.304184
"4676",62.408142,79.656975,79.31475
"4677",62.421448,79.639885,79.28694
"4678",62.434814,79.62035,79.25616
"4679",62.44812,79.60815,79.232086
"4680",62.461487,79.60082,79.21252
"4681",62.474792,79.603264,79.202484
"4682",62.48816,79.63256,79.21938
"4683",62.501465,79.708244,79.283585
"4684",62.51483,79.84497,79.411194
"4685",62.528137,80.05249,79.61387
"4686",62.541504,80.31373,79.87675
"4687",62.55481,80.60914,80.18196
"4688",62.568176,80.88747,80.479324
"4689",62.581482,81.0901,80.709694
"4690",62.59485,81.16823,80.821884
"4691",62.608154,81.13161,80.82177
"4692",62.62152,81.01442,80.739944
"4693",62.634827,80.86061,80.617836
"4694",62.648193,80.71168,80.4958
"4695",62.6615,80.59937,80.40573
"4696",62.674866,80.533455,80.35854
"4697",62.68817,80.49439,80.33615
"4698",62.701538,80.46754,80.324745
"4699",62.714844,80.44312,80.31494
"4700",62.72821,80.41627,80.30193
"4701",62.741516,80.37476,80.27344
"4702",62.754883,80.30396,80.21435
"4703",62.76819,80.21118,80.131065
"4704",62.781555,80.12085,80.04733
"4705",62.79486,80.04028,79.97054
"4706",62.808228,79.974365,79.90588
"4707",62.821533,79.940186,79.8709
"4708",62.8349,79.93286,79.86171
"4709",62.848206,79.94507,79.87182
"4710",62.861572,79.96704,79.892075
"4711",62.874878,79.98169,79.90569
"4712",62.888245,79.97681,79.90024
"4713",62.90155,79.940186,79.86289
"4714",62.914917,79.88159,79.80243
"4715",62.928223,79.82056,79.73769
"4716",62.94159,79.76929,79.68082
"4717",62.954895,79.727776,79.632095
"4718",62.96826,79.70092,79.59673
"4719",62.981567,79.676506,79.56297
"4720",62.994934,79.639885,79.51624
"4721",63.00824,79.59594,79.461044
"4722",63.021606,79.5642,79.41668
"4723",63.034912,79.54467,79.38353
"4724",63.04828,79.54223,79.36686
"4725",63.061584,79.551994,79.36232
"4726",63.07495,79.56664,79.36297
"4727",63.088257,79.57641,79.35919
"4728",63.101624,79.57885,79.3484
"4729",63.11493,79.57397,79.33035
"4730",63.128296,79.56176,79.30483
"4731",63.1416,79.551994,79.28137
"4732",63.15497,79.54467,79.26005
"4733",63.168274,79.54711,79.24826
"4734",63.18164,79.571526,79.25852
"4735",63.194946,79.65453,79.32814
"4736",63.208313,79.81079,79.4736
"4737",63.22162,80.045166,79.702065
"4738",63.234985,80.325935,79.984245
"4739",63.24829,80.618904,80.2874
"4740",63.261658,80.87282,80.56065
"4741",63.274963,81.03151,80.74662
"4742",63.28833,81.077896,80.82524
"4743",63.301636,81.04616,80.82719
"4744",63.315002,80.96803,80.78175
"4745",63.32831,80.867935,80.71191
"4746",63.341675,80.76784,80.63893
"4747",63.35498,80.68238,80.57747
"4748",63.368347,80.61158,80.52799
"4749",63.381653,80.550545,80.48607
"4750",63.39502,80.49195,80.44468
"4751",63.408325,80.43336,80.40146
"4752",63.42169,80.343025,80.32467
"4753",63.434998,80.20386,80.19622
"4754",63.448364,80.05493,80.053665
"4755",63.46167,79.937744,79.938194
"4756",63.475037,79.869385,79.86789
"4757",63.488342,79.85474,79.84916
"4758",63.50171,79.89624,79.88612
"4759",63.515015,79.957275,79.94392
"4760",63.52838,79.9939,79.9792
"4761",63.541687,79.99878,79.983894
"4762",63.555054,79.9939,79.97897
"4763",63.56836,79.971924,79.95681
"4764",63.581726,79.9353,79.91931
"4765",63.59503,79.87427,79.856255
"4766",63.6084,79.80347,79.781525
"4767",63.621704,79.73266,79.704575
"4768",63.63507,79.66186,79.62542
"4769",63.648376,79.59594,79.548935
"4770",63.661743,79.54711,79.48748
"4771",63.67505,79.52514,79.451355
"4772",63.688416,79.53002,79.4414
"4773",63.70172,79.54467,79.44136
"4774",63.715088,79.54955,79.432014
"4775",63.728394,79.537346,79.40573
"4776",63.74176,79.50805,79.36198
"4777",63.755066,79.46166,79.30022
"4778",63.768433,79.40795,79.22968
"4779",63.78174,79.398186,79.201416
"4780",63.795105,79.44213,79.226555
"4781",63.80841,79.50805,79.27504
"4782",63.821777,79.55932,79.310936
"4783",63.835083,79.58129,79.31914
"4784",63.84845,79.57885,79.30361
"4785",63.861755,79.54223,79.25383
"4786",63.875122,79.49096,79.188255
"4787",63.888428,79.45434,79.13573
"4788",63.901794,79.45922,79.12356
"4789",63.9151,79.49096,79.1384
"4790",63.928467,79.5642,79.19573
"4791",63.941772,79.70336,79.32127
"4792",63.95514,79.920654,79.5293
"4793",63.968445,80.19653,79.8027
"4794",63.98181,80.49195,80.104256
"4795",63.995117,80.76051,80.38819
"4796",64.008484,80.9485,80.599945
"4797",64.02179,81.03395,80.715034
"4798",64.03516,81.02663,80.74002
"4799",64.04846,80.96315,80.708626
"4800",64.06183,80.88014,80.655716
"4801",64.075134,80.79469,80.59777
"4802",64.0885,80.71412,80.54203
"4803",64.10181,80.64088,80.491104
"4804",64.11517,80.58228,80.45254
"4805",64.12848,80.52369,80.41214
"4806",64.141846,80.428474,80.33329
"4807",64.15515,80.29664,80.21484
"4808",64.16852,80.15747,80.084946
"4809",64.18182,80.03784,79.97024
"4810",64.19519,79.94507,79.87865
"4811",64.208496,79.89136,79.82322
"4812",64.22186,79.888916,79.81738
"4813",64.23517,79.91089,79.835884
"4814",64.248535,79.920654,79.842865
"4815",64.26184,79.91333,79.83306
"4816",64.27521,79.93286,79.849884
"4817",64.28851,79.971924,79.88685
"4818",64.30188,79.99878,79.91283
"4819",64.315186,79.9939,79.907906
"4820",64.32855,79.957275,79.87109
"4821",64.34186,79.89624,79.80872
"4822",64.355225,79.81323,79.72247
"4823",64.36853,79.7351,79.638504
"4824",64.3819,79.67162,79.56675
"4825",64.3952,79.62524,79.5101
"4826",64.40857,79.603264,79.47642
"4827",64.421875,79.61303,79.473785
"4828",64.43524,79.63256,79.481224
"4829",64.44855,79.639885,79.477066
"4830",64.461914,79.62768,79.453606
"4831",64.47522,79.603264,79.41756
"4832",64.48859,79.554436,79.35633
"4833",64.50189,79.50561,79.29358
"4834",64.51526,79.43969,79.21221
"4835",64.528564,79.364006,79.11902
"4836",64.54193,79.293205,79.02834
"4837",64.55524,79.26635,78.9794
"4838",64.5686,79.27856,78.96868
"4839",64.58191,79.32494,78.99252
"4840",64.595276,79.412834,79.05932
"4841",64.60858,79.50317,79.1313
"4842",64.62195,79.554436,79.167046
"4843",64.635254,79.56176,79.160446
"4844",64.64862,79.571526,79.15652
"4845",64.66193,79.57641,79.14801
"4846",64.67529,79.57641,79.13477
"4847",64.6886,79.57397,79.119095
"4848",64.701965,79.57641,79.10822
"4849",64.71527,79.57641,79.094986
"4850",64.72864,79.57885,79.08419
"4851",64.74194,79.5935,79.08568
"4852",64.75531,79.65209,79.13157
"4853",64.768616,79.79614,79.26475
"4854",64.78198,80.0354,79.497635
"4855",64.79529,80.35767,79.821014
"4856",64.808655,80.709236,80.183754
"4857",64.82196,81.02663,80.52331
"4858",64.83533,81.25124,80.78001
"4859",64.84863,81.35134,80.919205
"4860",64.862,81.339134,80.94923
"4861",64.875305,81.24147,80.89341
"4862",64.88867,81.08034,80.77107
"4863",64.90198,80.89479,80.619286
"4864",64.915344,80.7483,80.500755
"4865",64.92865,80.67506,80.4509
"4866",64.94202,80.65308,80.45002
"4867",64.95532,80.66773,80.48508
"4868",64.96869,80.69215,80.53036
"4869",64.981995,80.68238,80.54222
"4870",64.99536,80.60914,80.4903
"4871",65.00867,80.48707,80.38727
"4872",65.02203,80.36256,80.27798
"4873",65.03534,80.23804,80.16479
"4874",65.048706,80.1355,80.06969
"4875",65.06201,80.06958,80.008
"4876",65.07538,80.042725,79.98332
"4877",65.088684,80.045166,79.9871
"4878",65.10205,80.05737,80.00072
"4879",65.11536,80.062256,80.00739
"4880",65.12872,80.04761,79.99469
"4881",65.14203,80.008545,79.957115
"4882",65.155396,79.9646,79.91344
"4883",65.1687,79.92554,79.87327
"4884",65.18207,79.89624,79.841644
"4885",65.19537,79.8645,79.80666
"4886",65.20874,79.823,79.760925
"4887",65.222046,79.76929,79.70168
"4888",65.23541,79.69604,79.62122
"4889",65.24872,79.61303,79.52872
"4890",65.262085,79.554436,79.45803
"4891",65.27539,79.53002,79.41969
"4892",65.28876,79.5227,79.39768
"4893",65.30206,79.52514,79.38521
"4894",65.31543,79.52758,79.37281
"4895",65.328735,79.52514,79.355606
"4896",65.3421,79.51293,79.32856
"4897",65.35541,79.51293,79.31334
"4898",65.368774,79.5227,79.307884
"4899",65.38208,79.54223,79.3125
"4900",65.39545,79.5642,79.32017
"4901",65.40875,79.58373,79.32608
"4902",65.42212,79.603264,79.3326
"4903",65.435425,79.61303,79.32997
"4904",65.44879,79.61791,79.32276
"4905",65.4621,79.61547,79.30838
"4906",65.475464,79.60082,79.281715
"4907",65.48877,79.58129,79.24971
"4908",65.50214,79.56664,79.22198
"4909",65.51544,79.55688,79.19867
"4910",65.52881,79.54223,79.17017
"4911",65.542114,79.53979,79.15343
"4912",65.55548,79.54467,79.14393
"4913",65.56879,79.54467,79.1297
"4914",65.58215,79.534904,79.105705
"4915",65.59546,79.520256,79.07652
"4916",65.608826,79.50561,79.04688
"4917",65.62213,79.48852,79.01434
"4918",65.6355,79.48608,78.99592
"4919",65.6488,79.49828,78.992065
"4920",65.66217,79.53979,79.01789
"4921",65.675476,79.63012,79.09384
"4922",65.68884,79.79614,79.24831
"4923",65.70215,80.04761,79.4934
"4924",65.715515,80.33082,79.7781
"4925",65.72882,80.61402,80.07164
"4926",65.74219,80.86061,80.33742
"4927",65.75549,81.05348,80.55718
"4928",65.76886,81.16579,80.70241
"4929",65.782166,81.20485,80.7779
"4930",65.79553,81.19264,80.803345
"4931",65.80884,81.13161,80.77958
"4932",65.822205,81.024185,80.70752
"4933",65.83551,80.89479,80.61013
"4934",65.84888,80.80202,80.54532
"4935",65.86218,80.74586,80.51422
"4936",65.87555,80.71168,80.50335
"4937",65.888855,80.68482,80.49873
"4938",65.90222,80.64576,80.48107
"4939",65.91553,80.584724,80.440216
"4940",65.928894,80.499275,80.37304
"4941",65.9422,80.396736,80.2861
"4942",65.95557,80.29664,80.1984
"4943",65.96887,80.20386,80.11489
"4944",65.98224,80.12085,80.03825
"4945",65.995544,80.05737,79.97855
"4946",66.00891,80.045166,79.96814
"4947",66.02222,80.07202,79.99641
"4948",66.03558,80.093994,80.02063
"4949",66.04889,80.08179,80.01136
"4950",66.062256,80.03296,79.96509
"4951",66.07556,79.954834,79.88799
"4952",66.08893,79.84497,79.77672
"4953",66.102234,79.7351,79.662
"4954",66.1156,79.66186,79.58048
"4955",66.12891,79.61547,79.52353
"4956",66.14227,79.5642,79.46024
"4957",66.15558,79.5227,79.40512
"4958",66.168945,79.49096,79.35847
"4959",66.18225,79.46899,79.32059
"4960",66.19562,79.4519,79.2869
"4961",66.20892,79.44457,79.26245
"4962",66.22229,79.432365,79.23289
"4963",66.235596,79.42504,79.207825
"4964",66.24896,79.41772,79.18253
"4965",66.26227,79.41772,79.16434
"4966",66.275635,79.415276,79.1437
"4967",66.28894,79.4226,79.13275
"4968",66.30231,79.43725,79.12936
"4969",66.31561,79.447014,79.12154
"4970",66.32898,79.4519,79.10914
"4971",66.342285,79.429924,79.07004
"4972",66.35565,79.378654,79.00095
"4973",66.36896,79.3225,78.925385
"4974",66.382324,79.32006,78.90177
"4975",66.39563,79.36645,78.92691
"4976",66.409,79.43481,78.97547
"4977",66.4223,79.50317,79.02617
"4978",66.43567,79.54467,79.05215
"4979",66.448975,79.53002,79.02327
"4980",66.46234,79.466545,78.94511
"4981",66.47565,79.40795,78.86984
"4982",66.48901,79.37377,78.81716
"4983",66.50232,79.36645,78.79027
"4984",66.515686,79.37377,78.777794
"4985",66.52899,79.395744,78.7802
"4986",66.54236,79.42016,78.78573
"4987",66.555664,79.43969,78.78714
"4988",66.56903,79.4641,78.794044
"4989",66.58234,79.50805,78.82124
"4990",66.5957,79.5935,78.89132
"4991",66.60901,79.76196,79.04708
"4992",66.622375,79.9939,79.271576
"4993",66.63568,80.26246,79.53995
"4994",66.64905,80.55543,79.84112
"4995",66.66235,80.848404,80.15145
"4996",66.67572,81.07301,80.40257
"4997",66.689026,81.20485,80.56794
"4998",66.70239,81.253685,80.65443
"4999",66.7157,81.22682,80.66674
"5000",66.729065,81.129166,80.60742
"5001",66.74237,80.990005,80.50355
"5002",66.75574,80.87038,80.414856
"5003",66.76904,80.78737,80.35905
"5004",66.78241,80.73121,80.32749
"5005",66.795715,80.689705,80.30884
"5006",66.80908,80.65797,80.29865
"5007",66.82239,80.62379,80.285034
"5008",66.835754,80.53834,80.21908
"5009",66.84906,80.40162,80.09918
"5010",66.86243,80.2478,79.95792
"5011",66.87573,80.11841,79.836266
"5012",66.8891,80.02075,79.74231
"5013",66.902405,79.9646,79.686806
"5014",66.91577,79.957275,79.678375
"5015",66.92908,79.971924,79.69169
"5016",66.942444,79.98169,79.70058
"5017",66.95575,79.97681,79.69512
"5018",66.96912,79.974365,79.691956
"5019",66.98242,79.96704,79.68383
"5020",66.99579,79.903564,79.61932
"5021",67.009094,79.79126,79.504005
"5022",67.02246,79.66918,79.375404
"5023",67.03577,79.58373,79.27962
"5024",67.04913,79.54223,79.225105
"5025",67.06244,79.53979,79.20836
"5026",67.075806,79.571526,79.225716
"5027",67.08911,79.60082,79.24162
"5028",67.10248,79.5935,79.221825
"5029",67.11578,79.551994,79.16762
"5030",67.12915,79.534904,79.13653
"5031",67.142456,79.53979,79.12688
"5032",67.15582,79.551994,79.1247
"5033",67.16913,79.551994,79.1107
"5034",67.182495,79.54711,79.09182
"5035",67.1958,79.54467,79.075226
"5036",67.20917,79.54223,79.058556
"5037",67.22247,79.54711,79.04913
"5038",67.23584,79.551994,79.03986
"5039",67.249146,79.55932,79.03319
"5040",67.26251,79.55688,79.016975
"5041",67.27582,79.54223,78.98848
"5042",67.289185,79.5227,78.95464
"5043",67.30249,79.50805,78.92508
"5044",67.31586,79.500725,78.90238
"5045",67.32916,79.49096,78.877014
"5046",67.34253,79.48852,78.858665
"5047",67.355835,79.4934,78.847565
"5048",67.3692,79.466545,78.80488
"5049",67.38251,79.40551,78.72717
"5050",67.395874,79.34692,78.65
"5051",67.40918,79.3225,78.60518
"5052",67.42255,79.33471,78.596214
"5053",67.43585,79.38598,78.62669
"5054",67.44922,79.47143,78.692955
"5055",67.462524,79.5642,78.76921
"5056",67.47589,79.622795,78.814186
"5057",67.4892,79.63256,78.812164
"5058",67.50256,79.63744,78.805565
"5059",67.51587,79.64721,78.804
"5060",67.529236,79.65453,78.8003
"5061",67.54254,79.656975,78.79195
"5062",67.55591,79.64965,78.7739
"5063",67.569214,79.639885,78.75319
"5064",67.58258,79.64233,78.74438
"5065",67.59589,79.691154,78.78203
"5066",67.60925,79.818115,78.89934
"5067",67.62256,80.04761,79.123146
"5068",67.635925,80.37476,79.45179
"5069",67.64923,80.743416,79.83215
"5070",67.6626,81.0901,80.20207
"5071",67.6759,81.36355,80.50958
"5072",67.68927,81.53689,80.72553
"5073",67.702576,81.59548,80.83215
"5074",67.71594,81.55398,80.84051
"5075",67.72925,81.43923,80.77432
"5076",67.742615,81.28298,80.66305
"5077",67.75592,81.129166,80.549324
"5078",67.76929,80.99245,80.44789
"5079",67.78259,80.88991,80.376366
"5080",67.79596,80.831314,80.34558
"5081",67.809265,80.80202,80.34226
"5082",67.82263,80.8069,80.37221
"5083",67.83594,80.82155,80.41207
"5084",67.849304,80.8069,80.423096
"5085",67.86261,80.73365,80.37506
"5086",67.87598,80.63355,80.29789
"5087",67.88928,80.499275,80.18341
"5088",67.90265,80.34058,80.04032
"5089",67.915955,80.2063,79.91668
"5090",67.92932,80.12085,79.83768
"5091",67.94263,80.076904,79.79751
"5092",67.95599,80.04028,79.76329
"5093",67.9693,80.01587,79.740135
"5094",67.982666,79.99878,79.72354
"5095",67.99597,79.97925,79.70397
"5096",68.00934,79.95239,79.67647
"5097",68.022644,79.920654,79.64324
"5098",68.03601,79.87671,79.59682
"5099",68.04932,79.82788,79.544136
"5100",68.06268,79.766846,79.47772
"5101",68.07599,79.70336,79.40695
"5102",68.089355,79.64477,79.33909
"5103",68.10266,79.5935,79.27672
"5104",68.11603,79.54711,79.21763
"5105",68.12933,79.51293,79.1693
"5106",68.1427,79.483635,79.12478
"5107",68.156006,79.45678,79.08179
"5108",68.16937,79.432365,79.0404
"5109",68.18268,79.42016,79.01045
"5110",68.196045,79.42016,78.99233
"5111",68.20935,79.42016,78.97421
"5112",68.22272,79.42016,78.95609
"5113",68.23602,79.4226,78.940414
"5114",68.24939,79.42016,78.91993
"5115",68.262695,79.41772,78.89937
"5116",68.27606,79.412834,78.87629
"5117",68.28937,79.41772,78.86282
"5118",68.302734,79.4226,78.84951
"5119",68.31604,79.429924,78.83879
"5120",68.32941,79.43969,78.83074
"5121",68.34271,79.449455,78.823
"5122",68.35608,79.45434,78.81068
"5123",68.369385,79.45434,78.793625
"5124",68.38275,79.447014,78.76925
"5125",68.39606,79.432365,78.73732
"5126",68.409424,79.42016,78.707375
"5127",68.42273,79.412834,78.68193
"5128",68.4361,79.40795,78.6587
"5129",68.4494,79.40551,78.63776
"5130",68.46277,79.41039,78.62406
"5131",68.476074,79.4226,78.61784
"5132",68.48944,79.4519,78.6291
"5133",68.50275,79.49584,78.655914
"5134",68.51611,79.54223,78.68655
"5135",68.52942,79.56664,78.696655
"5136",68.542786,79.56664,78.68311
"5137",68.55609,79.54711,78.65004
"5138",68.56946,79.51537,78.60415
"5139",68.58276,79.48608,78.55971
"5140",68.59613,79.49584,78.55341
"5141",68.609436,79.58373,78.62555
"5142",68.6228,79.77173,78.80054
"5143",68.63611,80.04028,79.06196
"5144",68.649475,80.35767,79.38061
"5145",68.66278,80.689705,79.723816
"5146",68.67615,80.99977,80.055435
"5147",68.68945,81.22438,80.31129
"5148",68.70282,81.339134,80.4643
"5149",68.716125,81.36355,80.53056
"5150",68.72949,81.304955,80.51458
"5151",68.7428,81.18288,80.43328
"5152",68.756165,81.02907,80.31644
"5153",68.76947,80.89723,80.21676
"5154",68.78284,80.79225,80.13982
"5155",68.79614,80.71168,80.084
"5156",68.80951,80.66041,80.05497
"5157",68.822815,80.63111,80.04631
"5158",68.83618,80.601814,80.036736
"5159",68.84949,80.56031,80.01404
"5160",68.862854,80.533455,80.00469
"5161",68.87616,80.51392,80.00183
"5162",68.88953,80.46998,79.973946
"5163",68.90283,80.38697,79.905624
"5164",68.9162,80.28687,79.81762
"5165",68.929504,80.184326,79.72404
"5166",68.94287,80.06714,79.61261
"5167",68.95618,79.96704,79.51461
"5168",68.96954,79.906006,79.452545
"5169",68.98285,79.88403,79.427635
"5170",68.996216,79.869385,79.40936
"5171",69.00952,79.85718,79.393074
"5172",69.02289,79.84253,79.37396
"5173",69.036194,79.815674,79.342186
"5174",69.04956,79.77905,79.299805
"5175",69.06287,79.73022,79.244064
"5176",69.07623,79.676506,79.18192
"5177",69.08954,79.622795,79.1181
"5178",69.102905,79.57885,79.06237
"5179",69.11621,79.54223,79.01259
"5180",69.12958,79.47631,78.932365
"5181",69.14288,79.38842,78.82811
"5182",69.15625,79.32006,78.74064
"5183",69.169556,79.29809,78.69742
"5184",69.18292,79.31762,78.695015
"5185",69.19623,79.36645,78.72252
"5186",69.209595,79.43725,78.77352
"5187",69.2229,79.4934,78.81209
"5188",69.23627,79.52514,78.827995
"5189",69.24957,79.537346,78.82536
"5190",69.26294,79.5642,78.83776
"5191",69.276245,79.59106,78.851
"5192",69.28961,79.61791,78.865074
"5193",69.30292,79.62524,78.86046
"5194",69.316284,79.61547,78.83898
"5195",69.32959,79.59594,78.807434
"5196",69.34296,79.57641,78.775276
"5197",69.35626,79.569084,78.754715
"5198",69.36963,79.56176,78.733925
"5199",69.382935,79.55932,78.71779
"5200",69.3963,79.554436,78.699135
"5201",69.40961,79.54955,78.68033
"5202",69.42297,79.54223,78.65893
"5203",69.43628,79.53002,78.632416
"5204",69.449646,79.517815,78.60552
"5205",69.46295,79.520256,78.592896
"5206",69.47632,79.53246,78.59011
"5207",69.489624,79.54711,78.59015
"5208",69.50299,79.55932,78.5882
"5209",69.5163,79.57397,78.58908
"5210",69.52966,79.58373,78.58553
"5211",69.54297,79.586174,78.57497
"5212",69.556335,79.59106,78.56692
"5213",69.56964,79.59838,78.56146
"5214",69.58301,79.61791,78.56844
"5215",69.59631,79.65942,78.59801
"5216",69.60968,79.764404,78.69235
"5217",69.622986,79.96216,78.882744
"5218",69.63635,80.25269,79.1721
"5219",69.64966,80.59449,79.52179
"5220",69.663025,80.94118,79.887054
"5221",69.67633,81.248795,80.22408
"5222",69.6897,81.46853,80.48284
"5223",69.703,81.57351,80.63371
"5224",69.71637,81.57839,80.68777
"5225",69.729675,81.514915,80.673615
"5226",69.74304,81.392845,80.598885
"5227",69.75635,81.2195,80.46906
"5228",69.769714,81.01686,80.304535
"5229",69.78302,80.833755,80.153206
"5230",69.79639,80.69947,80.044975
"5231",69.80969,80.61646,79.983826
"5232",69.82306,80.58228,79.96891
"5233",69.836365,80.59449,79.99931
"5234",69.84973,80.60914,80.03254
"5235",69.86304,80.58961,80.03204
"5236",69.8764,80.53101,79.991875
"5237",69.88971,80.45289,79.93034
"5238",69.903076,80.365,79.856606
"5239",69.91638,80.27711,79.78012
"5240",69.92975,80.19653,79.708206
"5241",69.943054,80.14038,79.658195
"5242",69.95642,80.10132,79.62352
"5243",69.96973,80.07446,79.59983
"5244",69.98309,80.0647,79.59239
"5245",69.9964,80.06714,79.596855
"5246",70.009766,80.0647,79.59651
"5247",70.02307,80.04761,79.58144
"5248",70.03644,80.02075,79.556076
"5249",70.04974,79.98413,79.5201
"5250",70.06311,79.93042,79.4659
"5251",70.076416,79.83765,79.37095
"5252",70.08978,79.71801,79.24624
"5253",70.10309,79.605705,79.12512
"5254",70.116455,79.54467,79.051765
"5255",70.12976,79.54223,79.035095
"5256",70.14313,79.57641,79.05497
"5257",70.15643,79.62768,79.093
"5258",70.1698,79.67162,79.12531
"5259",70.183105,79.674065,79.11749
"5260",70.19647,79.63012,79.06336
"5261",70.20978,79.59106,79.01274
"5262",70.223145,79.57397,78.98287
"5263",70.23645,79.57885,78.97444
"5264",70.24982,79.569084,78.951515
"5265",70.26312,79.554436,78.9234
"5266",70.27649,79.537346,78.89239
"5267",70.289795,79.53002,78.870605
"5268",70.30316,79.534904,78.8608
"5269",70.31647,79.54711,78.858475
"5270",70.329834,79.5642,78.86141
"5271",70.34314,79.57641,78.86
"5272",70.35651,79.588615,78.85897
"5273",70.36981,79.588615,78.846115
"5274",70.38318,79.586174,78.83082
"5275",70.396484,79.57885,78.81056
"5276",70.40985,79.56664,78.785194
"5277",70.42316,79.55932,78.76433
"5278",70.43652,79.551994,78.74323
"5279",70.44983,79.517815,78.69505
"5280",70.463196,79.45678,78.61895
"5281",70.4765,79.40063,78.54582
"5282",70.48987,79.378654,78.50512
"5283",70.503174,79.38598,78.49303
"5284",70.51654,79.4226,78.51046
"5285",70.52985,79.49096,78.560776
"5286",70.54321,79.56176,78.61567
"5287",70.55652,79.5935,78.63371
"5288",70.569885,79.605705,78.63322
"5289",70.58319,79.66674,78.68193
"5290",70.59656,79.80591,78.810684
"5291",70.60986,80.05005,79.04876
"5292",70.62323,80.38697,79.387245
"5293",70.636536,80.77028,79.782646
"5294",70.6499,81.129166,80.1656
"5295",70.66321,81.41238,80.4841
"5296",70.676575,81.57839,80.69425
"5297",70.68988,81.619896,80.78508
"5298",70.70325,81.566185,80.78199
"5299",70.71655,81.45144,80.71619
"5300",70.72992,81.31228,80.62238
"5301",70.743225,81.16823,80.51934
"5302",70.75659,81.03639,80.42401
"5303",70.7699,80.91432,80.33433
"5304",70.783264,80.81178,80.26036
"5305",70.79657,80.726326,80.20027
"5306",70.80994,80.6482,80.144844
"5307",70.82324,80.53834,80.05524
"5308",70.83661,80.40406,79.93778
"5309",70.849915,80.27711,79.823456
"5310",70.86328,80.177,79.73201
"5311",70.87659,80.111084,79.67162
"5312",70.88995,80.08179,79.6458
"5313",70.90326,80.096436,79.663
"5314",70.916626,80.12085,79.69043
"5315",70.92993,80.130615,79.70397
"5316",70.9433,80.113525,79.69096
"5317",70.956604,80.10132,79.682304
"5318",70.96997,80.079346,79.6635
"5319",70.98328,80.05493,79.64156
"5320",70.99664,80.025635,79.61398
"5321",71.00995,79.98901,79.57816
"5322",71.023315,79.94751,79.536316
"5323",71.03662,79.89868,79.48585
"5324",71.04999,79.83276,79.41676
"5325",71.06329,79.75464,79.33341
"5326",71.07666,79.676506,79.24761
"5327",71.089966,79.60815,79.16914
"5328",71.10333,79.57397,79.12272
"5329",71.11664,79.571526,79.106964
"5330",71.130005,79.57885,79.1009
"5331",71.14331,79.57641,79.0853
"5332",71.15668,79.56664,79.062294
"5333",71.16998,79.537346,79.019455
"5334",71.18335,79.500725,78.968376
"5335",71.196655,79.47875,78.9308
"5336",71.21002,79.47631,78.91207
"5337",71.22333,79.483635,78.90303
"5338",71.236694,79.51049,78.91375
"5339",71.25,79.55932,78.94728
"5340",71.26337,79.5935,78.96769
"5341",71.27667,79.603264,78.96475
"5342",71.29004,79.59594,78.94503
"5343",71.303345,79.56664,78.90311
"5344",71.31671,79.517815,78.84074
"5345",71.33002,79.47387,78.78172
"5346",71.34338,79.4519,78.74331
"5347",71.35669,79.45434,78.72862
"5348",71.370056,79.46166,78.718895
"5349",71.38336,79.4641,78.70451
"5350",71.39673,79.4641,78.68777
"5351",71.410034,79.466545,78.67346
"5352",71.4234,79.466545,78.65679
"5353",71.43671,79.45922,78.6328
"5354",71.45007,79.45922,78.6159
"5355",71.46338,79.4641,78.60388
"5356",71.476746,79.47631,78.59934
"5357",71.49005,79.500725,78.60739
"5358",71.50342,79.56176,78.652824
"5359",71.51672,79.69604,78.77341
"5360",71.53009,79.92554,78.99341
"5361",71.543396,80.24048,79.30602
"5362",71.55676,80.601814,79.67487
"5363",71.57007,80.95094,80.04281
"5364",71.583435,81.22438,80.34596
"5365",71.59674,81.38552,80.545364
"5366",71.61011,81.427025,80.630165
"5367",71.62341,81.37087,80.61861
"5368",71.63678,81.248795,80.53937
"5369",71.650085,81.09987,80.42947
"5370",71.66345,80.94118,80.305145
"5371",71.67676,80.78981,80.18319
"5372",71.690125,80.66529,80.08335
"5373",71.70343,80.570076,80.00893
"5374",71.7168,80.49439,79.95106
"5375",71.7301,80.448006,79.92012
"5376",71.74347,80.41627,79.90238
"5377",71.756775,80.38209,79.88121
"5378",71.77014,80.32838,79.83944
"5379",71.78345,80.2649,79.786224
"5380",71.796814,80.19409,79.723694
"5381",71.81012,80.128174,79.66384
"5382",71.82349,80.076904,79.61658
"5383",71.83679,80.05249,79.59457
"5384",71.85016,80.04761,79.591324
"5385",71.863464,80.04028,79.58549
"5386",71.87683,80.03296,79.57942
"5387",71.89014,80.01099,79.55848
"5388",71.9035,79.98413,79.53197
"5389",71.91681,79.95239,79.49973
"5390",71.930176,79.91333,79.45918
"5391",71.94348,79.87427,79.41741
"5392",71.95685,79.84741,79.38663
"5393",71.97015,79.81079,79.34524
"5394",71.98352,79.76196,79.2905
"5395",71.996826,79.7058,79.2269
"5396",72.01019,79.65453,79.166435
"5397",72.0235,79.59838,79.09949
"5398",72.036865,79.554436,79.04299
"5399",72.05017,79.50561,78.98024
"5400",72.06354,79.44457,78.903755
"5401",72.07684,79.38842,78.830246
"5402",72.09021,79.37133,78.794044
"5403",72.103516,79.3933,78.79637
"5404",72.11688,79.44457,78.82868
"5405",72.13019,79.52514,78.89189
"5406",72.143555,79.59594,78.94785
"5407",72.15686,79.62768,78.966965
"5408",72.17023,79.62035,78.948006
"5409",72.18353,79.61303,78.92882
"5410",72.1969,79.60082,78.90452
"5411",72.210205,79.588615,78.87984
"5412",72.22357,79.586174,78.86454
"5413",72.23688,79.60082,78.86626
"5414",72.250244,79.61791,78.87087
"5415",72.26355,79.635,78.87602
"5416",72.27692,79.64233,78.87194
"5417",72.29022,79.64233,78.86076
"5418",72.30359,79.62768,78.83494
"5419",72.316895,79.64233,78.83795
"5420",72.33026,79.68139,78.86584
"5421",72.34357,79.71801,78.8925
"5422",72.35693,79.725334,78.891014
"5423",72.37024,79.72045,78.87755
"5424",72.383606,79.71801,78.86637
"5425",72.39691,79.75708,78.89663
"5426",72.41028,79.8938,79.02576
"5427",72.423584,80.147705,79.276344
"5428",72.43695,80.482185,79.61544
"5429",72.45026,80.82399,79.97231
"5430",72.46362,81.11452,80.28859
"5431",72.47693,81.3196,80.5285
"5432",72.490295,81.41482,80.664955
"5433",72.5036,81.40505,80.6994
"5434",72.51697,81.31472,80.65298
"5435",72.53027,81.180435,80.55978
"5436",72.54364,81.00221,80.41844
"5437",72.556946,80.780045,80.22759
"5438",72.57031,80.56275,80.034676
"5439",72.58362,80.411385,79.900894
"5440",72.596985,80.34547,79.84783
"5441",72.61029,80.34547,79.85863
"5442",72.62366,80.40162,79.925575
"5443",72.63696,80.47242,80.00893
"5444",72.65033,80.499275,80.050545
"5445",72.663635,80.45777,80.02464
"5446",72.677,80.38941,79.97059
"5447",72.69031,80.33814,79.93149
"5448",72.703674,80.31373,79.91764
"5449",72.71698,80.31373,79.927444
"5450",72.73035,80.325935,79.949455
"5451",72.74365,80.3357,79.969406
"5452",72.75702,80.33082,79.97501
"5453",72.770325,80.306404,79.96094
"5454",72.78369,80.257576,79.921684
"5455",72.797,80.19409,79.86625
"5456",72.81036,80.12329,79.80151
"5457",72.82367,80.05249,79.734566
"5458",72.837036,79.98413,79.66785
"5459",72.85034,79.92798,79.6112
"5460",72.86371,79.88403,79.565
"5461",72.877014,79.84741,79.52476
"5462",72.89038,79.81079,79.48337
"5463",72.90369,79.77661,79.443275
"5464",72.91705,79.74975,79.40943
"5465",72.93036,79.68383,79.33569
"5466",72.943726,79.586174,79.22816
"5467",72.95703,79.50317,79.13222
"5468",72.9704,79.466545,79.08007
"5469",72.9837,79.47387,79.070724
"5470",72.99707,79.5227,79.10311
"5471",73.010376,79.622795,79.18829
"5472",73.02374,79.725334,79.279045
"5473",73.03705,79.78638,79.331505
"5474",73.050415,79.79614,79.334595
"5475",73.06372,79.80347,79.33555
"5476",73.07709,79.81323,79.33917
"5477",73.09039,79.80591,79.32601
"5478",73.10376,79.78638,79.300415
"5479",73.117065,79.75464,79.262
"5480",73.13043,79.73266,79.23235
"5481",73.14374,79.73022,79.22156
"5482",73.157104,79.783936,79.266846
"5483",73.17041,79.89868,79.37484
"5484",73.18378,80.06714,79.54013
"5485",73.19708,80.28443,79.75952
"5486",73.21045,80.54078,80.02476
"5487",73.223755,80.79225,80.29313
"5488",73.23712,80.990005,80.51564
"5489",73.25043,81.1194,80.67597
"5490",73.263794,81.15846,80.750015
"5491",73.2771,81.0901,80.71786
"5492",73.29047,80.94362,80.60544
"5493",73.30377,80.740974,80.43228
"5494",73.31714,80.51392,80.228386
"5495",73.330444,80.323494,80.054016
"5496",73.34381,80.218506,79.95914
"5497",73.35712,80.184326,79.931786
"5498",73.37048,80.198975,79.952194
"5499",73.38379,80.23804,79.997475
"5500",73.397156,80.257576,80.02445
"5501",73.41046,80.22583,80.000755
"5502",73.42383,80.16235,79.944336
"5503",73.43713,80.128174,79.91523
"5504",73.4505,80.12329,79.91435
"5505",73.463806,80.14038,79.935295
"5506",73.47717,80.15503,79.95433
"5507",73.49048,80.15259,79.95673
"5508",73.503845,80.1355,79.94441
"5509",73.51715,80.10376,79.91691
"5510",73.53052,80.093994,79.910385
"5511",73.54382,80.1062,79.92553
"5512",73.55719,80.113525,79.93617
"5513",73.570496,80.08667,79.912865
"5514",73.58386,80.025635,79.85454
"5515",73.59717,79.92798,79.75768
"5516",73.610535,79.80347,79.63092
"5517",73.62384,79.68627,79.50758
"5518",73.63721,79.603264,79.41477
"5519",73.65051,79.56176,79.36087
"5520",73.66388,79.53246,79.31788
"5521",73.677185,79.51049,79.281296
"5522",73.69055,79.4934,79.24891
"5523",73.70386,79.483635,79.22331
"5524",73.717224,79.48608,79.20962
"5525",73.73053,79.500725,79.208206
"5526",73.7439,79.52514,79.21702
"5527",73.7572,79.551994,79.229034
"5528",73.77057,79.571526,79.234566
"5529",73.783875,79.57641,79.22606
"5530",73.79724,79.56664,79.20306
"5531",73.81055,79.57397,79.19684
"5532",73.82391,79.61303,79.22259
"5533",73.83722,79.708244,79.30571
"5534",73.850586,79.87427,79.462616
"5535",73.86389,80.1062,79.69062
"5536",73.87726,80.37476,79.9625
"5537",73.890564,80.64576,80.24521
"5538",73.90393,80.87038,80.490005
"5539",73.91724,81.01686,80.66369
"5540",73.9306,81.07301,80.75162
"5541",73.94391,81.04616,80.75829
"5542",73.957275,80.96559,80.71042
"5543",73.97058,80.85817,80.63317
"5544",73.98395,80.743416,80.545235
"5545",73.99725,80.638435,80.463486
"5546",74.01062,80.552986,80.39799
"5547",74.023926,80.499275,80.36156
"5548",74.03729,80.46754,80.34542
"5549",74.0506,80.4358,80.32829
"5550",74.063965,80.38453,80.29064
"5551",74.07727,80.31129,80.229416
"5552",74.09064,80.22339,80.151245
"5553",74.10394,80.12573,80.06057
"5554",74.11731,80.045166,79.98393
"5555",74.130615,79.9939,79.934074
"5556",74.14398,79.974365,79.91435
"5557",74.15729,79.96948,79.90867
"5558",74.170654,79.97681,79.91504
"5559",74.18396,79.98657,79.92408
"5560",74.19733,79.98901,79.9261
"5561",74.21063,79.97681,79.91355
"5562",74.224,79.94507,79.88109
"5563",74.237305,79.8938,79.8281
"5564",74.25067,79.835205,79.76619
"5565",74.26398,79.77173,79.69756
"5566",74.27734,79.71313,79.63183
"5567",74.29065,79.6643,79.574036
"5568",74.304016,79.635,79.53425
"5569",74.31732,79.61059,79.49843
"5570",74.33069,79.59838,79.47405
"5571",74.343994,79.5935,79.45662
"5572",74.35736,79.59106,79.441475
"5573",74.37067,79.57641,79.41405
"5574",74.38403,79.5642,79.3886
"5575",74.39734,79.55932,79.3701
"5576",74.410706,79.554436,79.35145
"5577",74.42401,79.54955,79.33264
"5578",74.43738,79.554436,79.32345
"5579",74.45068,79.56176,79.31685
"5580",74.46405,79.569084,79.31048
"5581",74.477356,79.603264,79.33119
"5582",74.49072,79.67895,79.39448
"5583",74.50403,79.815674,79.52117
"5584",74.517395,80.02319,79.72293
"5585",74.5307,80.29664,79.9971
"5586",74.54407,80.587166,80.2969
"5587",74.55737,80.83864,80.56672
"5588",74.57074,81.00954,80.763824
"5589",74.584045,81.08522,80.871056
"5590",74.59741,81.06569,80.88544
"5591",74.61072,80.98024,80.83329
"5592",74.624084,80.86549,80.749176
"5593",74.63739,80.75075,80.661476
"5594",74.65076,80.66529,80.59948
"5595",74.66406,80.61646,80.57144
"5596",74.67743,80.587166,80.56141
"5597",74.690735,80.55787,80.55046
"5598",74.7041,80.52857,80.5386
"5599",74.71741,80.47242,80.49896
"5600",74.730774,80.38697,80.428276
"5601",74.74408,80.289314,80.34271
"5602",74.75745,80.201416,80.263855
"5603",74.77075,80.12085,80.18958
"5604",74.78412,80.062256,80.134766
"5605",74.797424,80.062256,80.13671
"5606",74.81079,80.111084,80.187485
"5607",74.8241,80.17212,80.25199
"5608",74.83746,80.19409,80.27934
"5609",74.85077,80.17456,80.26588
"5610",74.864136,80.111084,80.207855
"5611",74.87744,80.00366,80.103905
"5612",74.89081,79.888916,79.98927
"5613",74.90411,79.80347,79.90035
"5614",74.91748,79.74975,79.84049
"5615",74.930786,79.69848,79.7814
"5616",74.94415,79.656975,79.73048
"5617",74.95746,79.62524,79.68802
"5618",74.970825,79.59594,79.64701
"5619",74.98413,79.57397,79.61241
"5620",74.9975,79.554436,79.57957
"5621",75.0108,79.54711,79.55832
"5622",75.02417,79.54955,79.54661
"5623",75.037476,79.56664,79.54962
"5624",75.05084,79.58373,79.55317
"5625",75.06415,79.586174,79.5426
"5626",75.077515,79.58129,79.52479
"5627",75.09082,79.5642,79.49461
"5628",75.10419,79.54711,79.463905
"5629",75.11749,79.55932,79.46196
"5630",75.13086,79.62768,79.51655
"5631",75.144165,79.77417,79.651405
"5632",75.15753,80.0061,79.87628
"5633",75.17084,80.308846,80.179214
"5634",75.184204,80.62867,80.50869
"5635",75.19751,80.90456,80.80422
"5636",75.21088,81.08034,81.00827
"5637",75.22418,81.14137,81.103065
"5638",75.23755,81.112076,81.109436
"5639",75.250854,81.024185,81.0563
"5640",75.26422,80.91676,80.98088
"5641",75.27753,80.816666,80.90943
"5642",75.29089,80.743416,80.8617
"5643",75.3042,80.68238,80.8239
"5644",75.317566,80.64332,80.80616
"5645",75.33087,80.621346,80.80429
"5646",75.34424,80.59937,80.801735
"5647",75.357544,80.56275,80.783844
"5648",75.37091,80.499275,80.73795
"5649",75.38422,80.41627,80.67055
"5650",75.39758,80.325935,80.59322
"5651",75.41089,80.25269,80.53017
"5652",75.424255,80.2063,80.49167
"5653",75.43756,80.19409,80.48591
"5654",75.45093,80.201416,80.4993
"5655",75.46423,80.181885,80.48606
"5656",75.4776,80.11597,80.42583
"5657",75.490906,80.03296,80.34644
"5658",75.50427,79.95972,80.27423
"5659",75.51758,79.91089,80.224144
"5660",75.530945,79.888916,80.19939
"5661",75.54425,79.91089,80.21789
"5662",75.55762,79.954834,80.25905
"5663",75.57092,79.95972,80.26252
"5664",75.58429,79.91821,80.21976
"5665",75.597595,79.8645,80.16349
"5666",75.61096,79.81079,80.105545
"5667",75.62427,79.75708,80.04592
"5668",75.637634,79.71313,79.99438
"5669",75.65094,79.68871,79.961
"5670",75.66431,79.68139,79.94395
"5671",75.67761,79.6643,79.9169
"5672",75.69098,79.639885,79.881996
"5673",75.704285,79.61547,79.84633
"5674",75.71765,79.5935,79.81234
"5675",75.73096,79.57885,79.78499
"5676",75.74432,79.57641,79.76939
"5677",75.75763,79.59106,79.7708
"5678",75.770996,79.62768,79.79464
"5679",75.7843,79.69848,79.853806
"5680",75.79767,79.80347,79.94937
"5681",75.810974,79.95972,80.09948
"5682",75.82434,80.16724,80.30574
"5683",75.83765,80.41871,80.56244
"5684",75.85101,80.68238,80.839195
"5685",75.86432,80.91432,81.09246
"5686",75.877686,81.08278,81.28949
"5687",75.89099,81.17311,81.41366
"5688",75.90436,81.18532,81.462524
"5689",75.91766,81.15114,81.465385
"5690",75.93103,81.10475,81.45497
"5691",75.944336,81.05592,81.44067
"5692",75.9577,80.990005,81.407745
"5693",75.97101,80.919205,81.36788
"5694",75.984375,80.85573,81.33313
"5695",75.99768,80.799576,81.30372
"5696",76.01105,80.719,81.24813
"5697",76.02435,80.61402,81.16562
"5698",76.03772,80.50172,81.0725
"5699",76.051025,80.396736,80.9832
"5700",76.06439,80.29908,80.89794
"5701",76.0777,80.22339,80.8316
"5702",76.091064,80.17944,80.79463
"5703",76.10437,80.15015,80.77094
"5704",76.11774,80.11841,80.7439
"5705",76.13104,80.09888,80.728065
"5706",76.14441,80.111084,80.74336
"5707",76.157715,80.14038,80.77613
"5708",76.17108,80.17212,80.812256
"5709",76.18439,80.18921,80.834724
"5710",76.197754,80.16235,80.81378
"5711",76.21106,80.09888,80.75538
"5712",76.22443,80.025635,80.68523
"5713",76.23773,79.95239,80.612785
"5714",76.2511,79.871826,80.53073
"5715",76.264404,79.79614,80.45104
"5716",76.27777,79.727776,80.376305
"5717",76.29108,79.68627,80.326294
"5718",76.30444,79.66186,80.292076
"5719",76.31775,79.64721,80.26686
"5720",76.331116,79.63012,80.23875
"5721",76.34442,79.60815,80.205215
"5722",76.35779,79.57885,80.16367
"5723",76.37109,79.551994,80.12366
"5724",76.38446,79.50317,80.06083
"5725",76.397766,79.43481,79.976944
"5726",76.41113,79.37621,79.90069
"5727",76.42444,79.34692,79.8519
"5728",76.437805,79.33959,79.824165
"5729",76.45111,79.35668,79.82062
"5730",76.46448,79.41039,79.854225
"5731",76.47778,79.47143,79.896835
"5732",76.49115,79.50317,79.912056
"5733",76.504456,79.51293,79.906296
"5734",76.51782,79.56176,79.9399
"5735",76.53113,79.66918,80.03363
"5736",76.544495,79.84009,80.1942
"5737",76.5578,80.07446,80.42358
"5738",76.57117,80.35035,80.70179
"5739",76.58447,80.59937,80.96176
"5740",76.59784,80.7776,81.15872
"5741",76.611145,80.89235,81.29777
"5742",76.62451,80.970474,81.40378
"5743",76.63782,81.01198,81.47561
"5744",76.651184,81.02663,81.52188
"5745",76.66449,81.05104,81.57838
"5746",76.67786,81.07301,81.633194
"5747",76.69116,81.07301,81.666725
"5748",76.70453,81.05592,81.68317
"5749",76.717834,81.04616,81.7064
"5750",76.7312,81.01198,81.70491
"5751",76.74451,80.9485,81.67306
"5752",76.75787,80.814224,81.56842
"5753",76.77118,80.62379,81.40343
"5754",76.784546,80.42359,81.222725
"5755",76.79785,80.26734,81.07971
"5756",76.81122,80.16968,80.9904
"5757",76.824524,80.13306,80.95908
"5758",76.83789,80.15015,80.98033
"5759",76.8512,80.184326,81.0192
"5760",76.86456,80.19409,81.03473
"5761",76.87787,80.16968,81.01638
"5762",76.891235,80.14282,80.99483
"5763",76.90454,80.10376,80.96023
"5764",76.91791,80.059814,80.919525
"5765",76.93121,80.008545,80.870125
"5766",76.94458,79.97681,80.83865
"5767",76.957886,79.957275,80.8184
"5768",76.97125,79.93286,80.79265
"5769",76.98456,79.87671,80.7344
"5770",76.997925,79.79126,80.645096
"5771",77.01123,79.68627,80.533585
"5772",77.0246,79.569084,80.40659
"5773",77.0379,79.47631,80.300354
"5774",77.05127,79.43481,80.242485
"5775",77.064575,79.432365,80.22238
"5776",77.07794,79.43725,80.209526
"5777",77.09125,79.43969,80.19438
"5778",77.104614,79.44213,80.17931
"5779",77.11792,79.43725,80.157
"5780",77.13129,79.42504,80.127205
"5781",77.14459,79.412834,80.09703
"5782",77.15796,79.40063,80.066475
"5783",77.171265,79.38842,80.03554
"5784",77.18463,79.37377,80.00178
"5785",77.19794,79.35912,79.96756
"5786",77.2113,79.34692,79.935326
"5787",77.22461,79.33715,79.90515
"5788",77.237976,79.327385,79.87467
"5789",77.25128,79.31274,79.839005
"5790",77.26465,79.29809,79.80288
"5791",77.277954,79.28344,79.7663
"5792",77.29132,79.273674,79.73414
"5793",77.30463,79.276115,79.71388
"5794",77.31799,79.281,79.696144
"5795",77.3313,79.281,79.673676
"5796",77.344666,79.28344,79.65365
"5797",77.35797,79.30785,79.65567
"5798",77.37134,79.37621,79.7024
"5799",77.38464,79.517815,79.82451
"5800",77.39801,79.75708,80.048706
"5801",77.411316,80.079346,80.36338
"5802",77.42468,80.42603,80.71255
"5803",77.43799,80.75075,81.050575
"5804",77.451355,81.01442,81.33771
"5805",77.46466,81.17311,81.5281
"5806",77.47803,81.21706,81.6087
"5807",77.49133,81.180435,81.610115
"5808",77.5047,81.10719,81.57376
"5809",77.518005,81.03151,81.53268
"5810",77.53137,80.9778,81.5112
"5811",77.54468,80.96559,81.52955
"5812",77.558044,80.98512,81.579254
"5813",77.57135,81.02174,81.64666
"5814",77.58472,81.05104,81.707886
"5815",77.59802,81.04616,81.73585
"5816",77.61139,80.990005,81.71239
"5817",77.624695,80.87526,81.62858
"5818",77.63806,80.71656,81.49723
"5819",77.65137,80.53834,81.3414
"5820",77.664734,80.37965,81.19953
"5821",77.67804,80.2649,81.09665
"5822",77.69141,80.20874,81.04877
"5823",77.70471,80.18921,81.03576
"5824",77.71808,80.19165,81.04411
"5825",77.731384,80.201416,81.05987
"5826",77.74475,80.21362,81.07837
"5827",77.75806,80.198975,81.0704
"5828",77.77142,80.15015,81.02779
"5829",77.78473,80.08423,80.96656
"5830",77.798096,80.00366,80.888626
"5831",77.8114,79.91821,80.80329
"5832",77.82477,79.835205,80.71773
"5833",77.83807,79.76196,80.639336
"5834",77.85144,79.693596,80.56353
"5835",77.864746,79.63256,80.49292
"5836",77.87811,79.586174,80.43505
"5837",77.89142,79.55688,80.39282
"5838",77.904785,79.53246,80.35456
"5839",77.91809,79.51049,80.31798
"5840",77.93146,79.49096,80.28315
"5841",77.94476,79.47631,80.252594
"5842",77.95813,79.45678,80.2167
"5843",77.971436,79.44213,80.185074
"5844",77.9848,79.43481,80.16032
"5845",77.99811,79.4226,80.13045
"5846",78.011475,79.398186,80.08799
"5847",78.02478,79.37133,80.04233
"5848",78.03815,79.344475,79.99583
"5849",78.05145,79.31274,79.9436
"5850",78.06482,79.29565,79.90504
"5851",78.078125,79.290764,79.87814
"5852",78.09149,79.293205,79.85842
"5853",78.1048,79.29565,79.838776
"5854",78.118164,79.29565,79.816765
"5855",78.13147,79.290764,79.78987
"5856",78.14484,79.281,79.75794
"5857",78.15814,79.26879,79.72327
"5858",78.17151,79.26391,79.69553
"5859",78.184814,79.259026,79.66765
"5860",78.19818,79.24681,79.63228
"5861",78.21149,79.22728,79.58921
"5862",78.22485,79.21263,79.550415
"5863",78.23816,79.20531,79.518486
"5864",78.251526,79.24925,79.5376
"5865",78.26483,79.33959,79.60448
"5866",78.2782,79.447014,79.69126
"5867",78.291504,79.551994,79.77896
"5868",78.30487,79.68627,79.89924
"5869",78.31818,79.86694,80.07011
"5870",78.33154,80.08423,80.28323
"5871",78.34485,80.343025,80.54466
"5872",78.358215,80.63355,80.84591
"5873",78.37152,80.89723,81.12939
"5874",78.38489,81.06081,81.321
"5875",78.39819,81.12184,81.415184
"5876",78.41156,81.109634,81.438034
"5877",78.424866,81.06081,81.42388
"5878",78.43823,81.00221,81.39844
"5879",78.45154,80.953384,81.38093
"5880",78.464905,80.93385,81.39119
"5881",78.47821,80.94118,81.4277
"5882",78.49158,80.936295,81.452225
"5883",78.50488,80.89967,81.44486
"5884",78.51825,80.850845,81.42415
"5885",78.531555,80.78981,81.3897
"5886",78.54492,80.71168,81.33625
"5887",78.55823,80.621346,81.26816
"5888",78.571594,80.53834,81.20457
"5889",78.5849,80.46021,81.143265
"5890",78.59827,80.37965,81.07708
"5891",78.61157,80.30152,81.01082
"5892",78.62494,80.26246,80.98118
"5893",78.638245,80.257576,80.9845
"5894",78.65161,80.257576,80.992546
"5895",78.66492,80.24536,80.98838
"5896",78.67828,80.218506,80.96919
"5897",78.69159,80.16724,80.92475
"5898",78.704956,80.08911,80.85185
"5899",78.71826,80.008545,80.77407
"5900",78.73163,79.94751,80.7133
"5901",78.744934,79.89624,80.66039
"5902",78.7583,79.84009,80.601
"5903",78.77161,79.77905,80.534966
"5904",78.78497,79.71801,80.46702
"5905",78.79828,79.65209,80.39229
"5906",78.811646,79.59106,80.32038
"5907",78.82495,79.54467,80.261215
"5908",78.83832,79.50805,80.210365
"5909",78.85162,79.47143,80.15837
"5910",78.86499,79.398186,80.06861
"5911",78.878296,79.26635,79.91797
"5912",78.89166,79.11009,79.738785
"5913",78.90497,79.00511,79.605995
"5914",78.918335,78.97826,79.54805
"5915",78.93164,79.02464,79.56251
"5916",78.94501,79.13939,79.646774
"5917",78.95831,79.27856,79.75905
"5918",78.97168,79.36889,79.826836
"5919",78.984985,79.38354,79.82176
"5920",78.99835,79.37377,79.79273
"5921",79.01166,79.364006,79.7634
"5922",79.025024,79.34936,79.728874
"5923",79.03833,79.32494,79.68413
"5924",79.0517,79.30297,79.64106
"5925",79.065,79.27856,79.594864
"5926",79.07837,79.24925,79.543015
"5927",79.091675,79.217514,79.487816
"5928",79.10504,79.18822,79.43407
"5929",79.11835,79.1638,79.384285
"5930",79.131714,79.13451,79.32886
"5931",79.14502,79.10765,79.274956
"5932",79.15839,79.09544,79.23486
"5933",79.17169,79.10277,79.21392
"5934",79.18506,79.11253,79.19565
"5935",79.198364,79.12962,79.185005
"5936",79.21173,79.14427,79.172455
"5937",79.22504,79.15648,79.15792
"5938",79.2384,79.12474,79.09982
"5939",79.25171,79.044174,78.991905
"5940",79.265076,78.96605,78.88391
"5941",79.27838,78.941635,78.82719
"5942",79.29175,78.98314,78.83562
"5943",79.30505,79.114975,78.93568
"5944",79.31842,79.36645,79.15949
"5945",79.331726,79.69848,79.471725
"5946",79.34509,80.059814,79.82364
"5947",79.3584,80.42115,80.186844
"5948",79.371765,80.77272,80.551575
"5949",79.38507,81.06325,80.86625
"5950",79.39844,81.26345,81.09968
"5951",79.41174,81.36355,81.23926
"5952",79.42511,81.36843,81.28675
"5953",79.438416,81.307396,81.26848
"5954",79.45178,81.21217,81.21411
"5955",79.46509,81.10475,81.14457
"5956",79.478455,81.01198,81.08632
"5957",79.49176,80.955826,81.06179
"5958",79.50513,80.90456,81.04039
"5959",79.51843,80.848404,81.012505
"5960",79.5318,80.799576,80.99019
"5961",79.545105,80.76051,80.97611
"5962",79.55847,80.71168,80.95104
"5963",79.57178,80.655525,80.91713
"5964",79.585144,80.601814,80.8839
"5965",79.59845,80.533455,80.83435
"5966",79.61182,80.42603,80.7436
"5967",79.62512,80.2942,80.62508
"5968",79.63849,80.18677,80.52684
"5969",79.651794,80.128174,80.47408
"5970",79.66516,80.10376,80.453674
"5971",79.67847,80.10376,80.45692
"5972",79.69183,80.111084,80.46748
"5973",79.70514,80.1062,80.46607
"5974",79.718506,80.0647,80.42789
"5975",79.73181,79.99634,80.36155
"5976",79.74518,79.93286,80.29796
"5977",79.758484,79.87671,80.23971
"5978",79.77185,79.823,80.182144
"5979",79.78516,79.764404,80.11802
"5980",79.79852,79.693596,80.03985
"5981",79.81183,79.61547,79.95215
"5982",79.825195,79.54223,79.86689
"5983",79.8385,79.47631,79.78667
"5984",79.85187,79.429924,79.723915
"5985",79.86517,79.40795,79.68413
"5986",79.87854,79.40307,79.66074
"5987",79.891846,79.3933,79.632324
"5988",79.90521,79.37377,79.593834
"5989",79.91852,79.34692,79.54741
"5990",79.931885,79.32006,79.500145
"5991",79.94519,79.28832,79.44716
"5992",79.95856,79.26635,79.40295
"5993",79.97186,79.26147,79.37514
"5994",79.98523,79.26147,79.35206
"5995",79.998535,79.24193,79.30944
"5996",80.0119,79.19554,79.239365
"5997",80.02521,79.149155,79.16784
"5998",80.038574,79.1223,79.114395
"5999",80.05188,79.11253,79.0772
"6000",80.06525,79.1223,79.059235
"6001",80.07855,79.151596,79.061104
"6002",80.09192,79.183334,79.06633
"6003",80.105225,79.1931,79.050575
"6004",80.11859,79.18089,79.01315
"6005",80.1319,79.17357,78.98023
"6006",80.14526,79.17845,78.95929
"6007",80.15857,79.185776,78.94094
"6008",80.171936,79.19066,78.92038
"6009",80.18524,79.19798,78.90241
"6010",80.19861,79.202866,78.88223
"6011",80.211914,79.19798,78.85244
"6012",80.22528,79.18822,78.81761
"6013",80.23859,79.17601,78.78004
"6014",80.25195,79.168686,78.74696
"6015",80.26526,79.1638,78.7161
"6016",80.278625,79.15892,78.68509
"6017",80.29193,79.16136,78.66125
"6018",80.3053,79.17357,78.64725
"6019",80.3186,79.20775,78.6556
"6020",80.33197,79.310295,78.73339
"6021",80.345276,79.49828,78.899826
"6022",80.35864,79.801025,79.18689
"6023",80.37195,80.18921,79.568855
"6024",80.385315,80.604256,79.989815
"6025",80.39862,80.955826,80.36027
"6026",80.41199,81.20485,80.63916
"6027",80.42529,81.33181,80.80377
"6028",80.43866,81.341576,80.855156
"6029",80.451965,81.27566,80.83116
"6030",80.46533,81.18288,80.778244
"6031",80.47864,81.08766,80.71999
"6032",80.492004,81.00221,80.66853
"6033",80.50531,80.94362,80.64126
"6034",80.51868,80.91432,80.64145
"6035",80.53198,80.902115,80.657814
"6036",80.54535,80.89967,80.68356
"6037",80.558655,80.8777,80.689705
"6038",80.57202,80.82155,80.66098
"6039",80.58533,80.73121,80.59631
"6040",80.598694,80.621346,80.5093
"6041",80.612,80.50416,80.41153
"6042",80.62537,80.396736,80.31986
"6043",80.63867,80.31373,80.24925
"6044",80.65204,80.257576,80.2029
"6045",80.665344,80.218506,80.17188
"6046",80.67871,80.18677,80.14697
"6047",80.69202,80.15991,80.12595
"6048",80.70538,80.1355,80.10654
"6049",80.71869,80.111084,80.08636
"6050",80.732056,80.12085,80.099594
"6051",80.74536,80.15503,80.13755
"6052",80.75873,80.17456,80.16193
"6053",80.77203,80.14282,80.13564
"6054",80.7854,80.07202,80.069305
"6055",80.798706,79.96948,79.96902
"6056",80.81207,79.84009,79.83867
"6057",80.82538,79.710686,79.70427
"6058",80.838745,79.62035,79.6049
"6059",80.85205,79.58373,79.55641
"6060",80.86542,79.56664,79.52631
"6061",80.87872,79.551994,79.49812
"6062",80.89209,79.54467,79.4768
"6063",80.905396,79.53002,79.44792
"6064",80.91876,79.49828,79.4015
"6065",80.93207,79.447014,79.33455
"6066",80.945435,79.395744,79.266
"6067",80.95874,79.35912,79.210495
"6068",80.97211,79.33959,79.17094
"6069",80.98541,79.35668,79.16739
"6070",80.99878,79.40307,79.19367
"6071",81.012085,79.447014,79.21896
"6072",81.02545,79.45434,79.20901
"6073",81.03876,79.429924,79.16754
"6074",81.052124,79.37621,79.096016
"6075",81.06543,79.30297,79.00328
"6076",81.0788,79.24193,78.920456
"6077",81.0921,79.21263,78.86747
"6078",81.10547,79.23949,78.86972
"6079",81.118774,79.28832,78.89479
"6080",81.13214,79.33227,78.9165
"6081",81.14545,79.34936,78.91272
"6082",81.15881,79.33959,78.88262
"6083",81.17212,79.30785,78.830246
"6084",81.185486,79.25414,78.754906
"6085",81.19879,79.20775,78.6852
"6086",81.21216,79.1931,78.6458
"6087",81.225464,79.20775,78.63523
"6088",81.23883,79.217514,78.62024
"6089",81.25214,79.22728,78.60555
"6090",81.2655,79.23216,78.58629
"6091",81.27881,79.234604,78.564735
"6092",81.292175,79.23949,78.5457
"6093",81.30548,79.259026,78.54147
"6094",81.31885,79.28832,78.547615
"6095",81.33215,79.34692,78.58397
"6096",81.34552,79.466545,78.68319
"6097",81.358826,79.676506,78.87648
"6098",81.37219,79.96948,79.15935
"6099",81.3855,80.33326,79.52217
"6100",81.398865,80.723885,79.92321
"6101",81.41217,81.077896,80.29984
"6102",81.42554,81.33425,80.58988
"6103",81.43884,81.478294,80.77562
"6104",81.45221,81.512474,80.855995
"6105",81.465515,81.461205,80.85199
"6106",81.47888,81.38064,80.817085
"6107",81.49219,81.31228,80.79187
"6108",81.505554,81.25124,80.77184
"6109",81.51886,81.180435,80.740135
"6110",81.53223,81.10231,80.6989
"6111",81.54553,81.01686,80.647896
"6112",81.5589,80.91676,80.579575
"6113",81.572205,80.81911,80.51057
"6114",81.58557,80.74586,80.46291
"6115",81.59888,80.68726,80.42763
"6116",81.61224,80.621346,80.38319
"6117",81.62555,80.54078,80.32204
"6118",81.638916,80.448006,80.24616
"6119",81.65222,80.35767,80.16983
"6120",81.66559,80.27711,80.10044
"6121",81.678894,80.216064,80.04806
"6122",81.69226,80.16724,80.00598
"6123",81.70557,80.14282,79.98679
"6124",81.71893,80.128174,79.97661
"6125",81.73224,80.111084,79.963524
"6126",81.745605,80.08423,79.94014
"6127",81.75891,80.05005,79.90859
"6128",81.77228,80.00122,79.86133
"6129",81.78558,79.9353,79.79545
"6130",81.79895,79.84009,79.69821
"6131",81.812256,79.72289,79.57602
"6132",81.82562,79.61303,79.4575
"6133",81.83893,79.53002,79.3624
"6134",81.852295,79.49096,79.30865
"6135",81.8656,79.49828,79.300064
"6136",81.87897,79.53979,79.32589
"6137",81.89227,79.569084,79.340805
"6138",81.90564,79.56176,79.320015
"6139",81.918945,79.5227,79.26726
"6140",81.93231,79.47143,79.20107
"6141",81.94562,79.40307,79.116196
"6142",81.958984,79.33227,79.02674
"6143",81.97229,79.290764,78.96437
"6144",81.98566,79.28588,78.937325
"6145",81.99896,79.30541,78.93454
"6146",82.01233,79.33959,78.947014
"6147",82.025635,79.378654,78.96544
"6148",82.039,79.40063,78.967995
"6149",82.05231,79.38842,78.93706
"6150",82.065674,79.35668,78.88621
"6151",82.07898,79.33471,78.84413
"6152",82.09235,79.3225,78.811134
"6153",82.10565,79.32006,78.78752
"6154",82.11902,79.32006,78.76627
"6155",82.132324,79.32006,78.745026
"6156",82.14569,79.31274,78.71645
"6157",82.159,79.30053,78.68277
"6158",82.17236,79.28344,78.64382
"6159",82.18567,79.273674,78.611664
"6160",82.199036,79.26879,78.58408
"6161",82.21234,79.27123,78.563675
"6162",82.22571,79.27856,78.548225
"6163",82.23901,79.290764,78.53789
"6164",82.25238,79.29809,78.52305
"6165",82.265686,79.29809,78.501114
"6166",82.27905,79.293205,78.4743
"6167",82.29236,79.26147,78.42047
"6168",82.305725,79.20531,78.34123
"6169",82.31903,79.114975,78.22607
"6170",82.3324,79.04173,78.12517
"6171",82.3457,79.05638,78.10987
"6172",82.35907,79.217514,78.241516
"6173",82.372375,79.537346,78.536896
"6174",82.38574,79.971924,78.957016
"6175",82.39905,80.45289,79.4371
"6176",82.412415,80.88991,79.888275
"6177",82.42572,81.22194,80.248116
"6178",82.43909,81.41726,80.48162
"6179",82.45239,81.514915,80.623566
"6180",82.46576,81.529564,80.685555
"6181",82.479065,81.480736,80.684525
"6182",82.49243,81.39529,80.64535
"6183",82.50574,81.29275,80.58641
"6184",82.519104,81.18776,80.52182
"6185",82.53241,81.08522,80.4564
"6186",82.54578,81.004654,80.409744
"6187",82.55908,80.938736,80.37522
"6188",82.57245,80.88258,80.348404
"6189",82.585754,80.831314,80.324715
"6190",82.59912,80.780045,80.29942
"6191",82.61243,80.71168,80.25543
"6192",82.62579,80.62867,80.194664
"6193",82.6391,80.533455,80.119095
"6194",82.652466,80.43336,80.03567
"6195",82.66577,80.34058,79.956436
"6196",82.67914,80.2649,79.891396
"6197",82.692444,80.16968,79.80445
"6198",82.70581,80.0647,79.70477
"6199",82.71912,79.98901,79.63111
"6200",82.73248,79.96216,79.60391
"6201",82.74579,79.96948,79.610054
"6202",82.759155,80.008545,79.64816
"6203",82.77246,80.059814,79.6997
"6204",82.78583,80.093994,79.73575
"6205",82.79913,80.07202,79.71671
"6206",82.8125,80.008545,79.65549
"6207",82.825806,79.937744,79.58495
"6208",82.83917,79.87671,79.52197
"6209",82.85248,79.82544,79.46685
"6210",82.865845,79.77905,79.41501
"6211",82.87915,79.74731,79.37636
"6212",82.89252,79.725334,79.34649
"6213",82.90582,79.70336,79.31593
"6214",82.91919,79.64721,79.25051
"6215",82.932495,79.5642,79.15648
"6216",82.94586,79.47875,79.05741
"6217",82.95917,79.42504,78.98741
"6218",82.972534,79.40795,78.952354
"6219",82.98584,79.4226,78.9485
"6220",82.99921,79.466545,78.9744
"6221",83.01251,79.50317,78.994354
"6222",83.02588,79.50805,78.98371
"6223",83.039185,79.483635,78.943924
"6224",83.05255,79.4641,78.90826
"6225",83.06586,79.44213,78.86954
"6226",83.07922,79.432365,78.84234
"6227",83.09253,79.4226,78.814835
"6228",83.105896,79.42016,78.79435
"6229",83.1192,79.42748,78.783554
"6230",83.13257,79.43481,78.77299
"6231",83.145874,79.43481,78.755325
"6232",83.15924,79.429924,78.73278
"6233",83.17255,79.415276,78.70032
"6234",83.18591,79.3933,78.66007
"6235",83.19922,79.38354,78.63135
"6236",83.212585,79.38842,78.61697
"6237",83.22589,79.40551,78.614944
"6238",83.23926,79.42504,78.6159
"6239",83.25256,79.43969,78.61258
"6240",83.26593,79.43725,78.59263
"6241",83.279236,79.44213,78.579926
"6242",83.2926,79.46166,78.58202
"6243",83.30591,79.48119,78.58473
"6244",83.319275,79.49828,78.58561
"6245",83.33258,79.53246,78.60411
"6246",83.34595,79.622795,78.67983
"6247",83.35925,79.7937,78.83895
"6248",83.37262,80.0647,79.1035
"6249",83.385925,80.40894,79.44977
"6250",83.39929,80.7776,79.83121
"6251",83.4126,81.08522,80.163124
"6252",83.425964,81.28542,80.39724
"6253",83.43927,81.38064,80.53262
"6254",83.45264,81.40749,80.60262
"6255",83.46594,81.38064,80.61975
"6256",83.47931,81.31716,80.59942
"6257",83.492615,81.23659,80.560005
"6258",83.50598,81.14137,80.50343
"6259",83.51929,81.03639,80.43412
"6260",83.53265,80.938736,80.36885
"6261",83.54596,80.867935,80.327385
"6262",83.559326,80.82399,80.31056
"6263",83.57263,80.78981,80.30213
"6264",83.586,80.73853,80.275536
"6265",83.599304,80.66041,80.22049
"6266",83.61267,80.567635,80.14835
"6267",83.62598,80.46021,80.05867
"6268",83.63934,80.36744,79.98028
"6269",83.65265,80.30396,79.92828
"6270",83.666016,80.26734,79.90116
"6271",83.67932,80.24536,79.887535
"6272",83.69269,80.23071,79.880554
"6273",83.70599,80.20874,79.86579
"6274",83.71936,80.18921,79.85278
"6275",83.732666,80.16235,79.83184
"6276",83.74603,80.128174,79.802734
"6277",83.75934,80.08423,79.762794
"6278",83.772705,80.03784,79.71904
"6279",83.78601,79.99634,79.67872
"6280",83.79938,79.94751,79.629776
"6281",83.81268,79.888916,79.56954
"6282",83.82605,79.823,79.50015
"6283",83.839355,79.7522,79.42382
"6284",83.85272,79.68139,79.34527
"6285",83.86603,79.61303,79.26695
"6286",83.879395,79.5642,79.20603
"6287",83.8927,79.534904,79.16312
"6288",83.90607,79.51293,79.12661
"6289",83.91937,79.4934,79.09186
"6290",83.93274,79.483635,79.06626
"6291",83.946045,79.47387,79.04036
"6292",83.95941,79.4641,79.01415
"6293",83.97272,79.45434,78.98764
"6294",83.986084,79.44457,78.96082
"6295",83.99939,79.43481,78.9337
"6296",84.01276,79.429924,78.911156
"6297",84.02606,79.432365,78.89578
"6298",84.03943,79.43969,78.88537
"6299",84.052734,79.45434,78.88251
"6300",84.0661,79.46899,78.880104
"6301",84.07941,79.47631,78.870834
"6302",84.09277,79.48119,78.85935
"6303",84.10608,79.483635,78.84558
"6304",84.119446,79.483635,78.829445
"6305",84.13275,79.47875,78.808426
"6306",84.14612,79.47143,78.78481
"6307",84.159424,79.45678,78.75365
"6308",84.17279,79.43725,78.71714
"6309",84.1861,79.45434,78.716644
"6310",84.19946,79.50805,78.7533
"6311",84.21277,79.56664,78.796524
"6312",84.226135,79.5935,78.80984
"6313",84.23944,79.58129,78.78493
"6314",84.25281,79.534904,78.72546
"6315",84.26611,79.48119,78.65721
"6316",84.27948,79.47875,78.63856
"6317",84.292786,79.588615,78.73213
"6318",84.30615,79.82056,78.95122
"6319",84.31946,80.13794,79.26299
"6320",84.332825,80.50416,79.63352
"6321",84.34613,80.85573,80.00085
"6322",84.3595,81.13893,80.31079
"6323",84.3728,81.33425,80.5417
"6324",84.38617,81.427025,80.67617
"6325",84.399475,81.444115,80.737854
"6326",84.41284,81.42214,80.76101
"6327",84.42615,81.35378,80.73709
"6328",84.439514,81.22682,80.652435
"6329",84.45282,81.06813,80.53208
"6330",84.46619,80.91432,80.41165
"6331",84.47949,80.77272,80.29862
"6332",84.49286,80.66529,80.21534
"6333",84.506165,80.618904,80.18974
"6334",84.51953,80.601814,80.19199
"6335",84.53284,80.56275,80.17174
"6336",84.5462,80.50172,80.12829
"6337",84.55951,80.44312,80.08537
"6338",84.572876,80.39918,80.055275
"6339",84.58618,80.360115,80.02869
"6340",84.59955,80.323494,80.00332
"6341",84.612854,80.29664,79.98657
"6342",84.62622,80.27711,79.97631
"6343",84.63953,80.25025,79.958115
"6344",84.65289,80.22827,79.943954
"6345",84.6662,80.20874,79.93156
"6346",84.679565,80.18677,79.91611
"6347",84.69287,80.14038,79.87556
"6348",84.70624,80.08179,79.82135
"6349",84.71954,80.01831,79.76043
"6350",84.73291,79.95972,79.70241
"6351",84.746216,79.903564,79.645
"6352",84.75958,79.84741,79.58583
"6353",84.77289,79.79126,79.52491
"6354",84.786255,79.73754,79.46467
"6355",84.79956,79.64965,79.368576
"6356",84.81293,79.53246,79.24044
"6357",84.82623,79.432365,79.12573
"6358",84.8396,79.38598,79.06161
"6359",84.852905,79.381096,79.03754
"6360",84.86627,79.41039,79.04749
"6361",84.87958,79.46899,79.08766
"6362",84.892944,79.52758,79.12966
"6363",84.90625,79.554436,79.141754
"6364",84.91962,79.534904,79.1083
"6365",84.93292,79.52758,79.08644
"6366",84.94629,79.53246,79.07656
"6367",84.959595,79.53246,79.06195
"6368",84.97296,79.50561,79.020485
"6369",84.98627,79.47143,78.970856
"6370",84.99963,79.43969,78.9226
"6371",85.01294,79.41772,78.88312
"6372",85.026306,79.40063,78.84783
"6373",85.03961,79.40551,78.833984
"6374",85.05298,79.4226,78.8325
"6375",85.066284,79.432365,78.82422
"6376",85.07965,79.42504,78.79916
"6377",85.09296,79.40307,78.75922
"6378",85.10632,79.37377,78.711266
"6379",85.11963,79.34203,78.65996
"6380",85.132996,79.32006,78.617424
"6381",85.1463,79.32494,78.60106
"6382",85.15967,79.361565,78.616585
"6383",85.17297,79.40795,78.64302
"6384",85.18634,79.49096,78.70753
"6385",85.199646,79.66186,78.86252
"6386",85.21301,79.92554,79.11563
"6387",85.22632,80.2478,79.43557
"6388",85.239685,80.601814,79.797325
"6389",85.25299,80.96071,80.175026
"6390",85.26636,81.24391,80.48825
"6391",85.27966,81.39529,80.6785
"6392",85.29303,81.43679,80.7636
"6393",85.306335,81.41238,80.78409
"6394",85.3197,81.31228,80.72813
"6395",85.33301,81.15602,80.61288
"6396",85.346375,80.99733,80.49031
"6397",85.35968,80.85573,80.379875
"6398",85.37305,80.73853,80.28942
"6399",85.38635,80.6482,80.22217
"6400",85.39972,80.57984,80.174065
"6401",85.413025,80.52125,80.13359
"6402",85.42639,80.465096,80.09373
"6403",85.4397,80.40162,80.044785
"6404",85.453064,80.34058,79.9963
"6405",85.46637,80.28443,79.95079
"6406",85.47974,80.24292,79.91817
"6407",85.49304,80.20386,79.886696
"6408",85.50641,80.181885,79.87109
"6409",85.519714,80.177,79.871895
"6410",85.53308,80.177,79.877426
"6411",85.54639,80.14282,79.84878
"6412",85.55975,80.06714,79.77756
"6413",85.57306,79.98169,79.69421
"6414",85.586426,79.90845,79.62039
"6415",85.59973,79.85474,79.56382
"6416",85.6131,79.83276,79.53731
"6417",85.6264,79.84741,79.54673
"6418",85.63977,79.86206,79.55661
"6419",85.653076,79.84741,79.53765
"6420",85.66644,79.80347,79.48894
"6421",85.67975,79.75952,79.43885
"6422",85.693115,79.71557,79.38738
"6423",85.70642,79.64721,79.310135
"6424",85.71979,79.54711,79.19901
"6425",85.73309,79.45922,79.09697
"6426",85.74646,79.412834,79.03368
"6427",85.759766,79.40063,79.00313
"6428",85.77313,79.42504,79.00881
"6429",85.78644,79.48852,79.05432
"6430",85.799805,79.55688,79.1067
"6431",85.81311,79.59106,79.12703
"6432",85.82648,79.5935,79.11669
"6433",85.83978,79.59106,79.10155
"6434",85.85315,79.58129,79.079
"6435",85.866455,79.571526,79.05615
"6436",85.87982,79.56176,79.033
"6437",85.89313,79.55688,79.01442
"6438",85.906494,79.54467,78.988365
"6439",85.9198,79.52514,78.954605
"6440",85.93317,79.49828,78.91291
"6441",85.94647,79.47387,78.87282
"6442",85.95984,79.45678,78.83929
"6443",85.973145,79.47143,78.83696
"6444",85.98651,79.537346,78.88636
"6445",85.99982,79.66674,79.0013
"6446",86.01318,79.86206,79.1862
"6447",86.02649,80.11597,79.4358
"6448",86.039856,80.413826,79.73728
"6449",86.05316,80.71656,80.05295
"6450",86.06653,80.98268,80.34146
"6451",86.079834,81.17311,80.5626
"6452",86.0932,81.26589,80.69204
"6453",86.10651,81.25857,80.72427
"6454",86.11987,81.17799,80.68303
"6455",86.13318,81.05104,80.59289
"6456",86.146545,80.91188,80.48657
"6457",86.15985,80.78493,80.388115
"6458",86.17322,80.68482,80.31254
"6459",86.18652,80.604256,80.25337
"6460",86.19989,80.54078,80.20878
"6461",86.213196,80.48463,80.169525
"6462",86.22656,80.428474,80.12852
"6463",86.23987,80.36988,80.08331
"6464",86.253235,80.31861,80.0436
"6465",86.26654,80.28199,80.01694
"6466",86.27991,80.255135,79.99889
"6467",86.29321,80.235596,79.98733
"6468",86.30658,80.22339,79.98248
"6469",86.319885,80.21118,79.97726
"6470",86.33325,80.16235,79.93503
"6471",86.34656,80.079346,79.85709
"6472",86.359924,80.00366,79.78389
"6473",86.37323,79.9646,79.74494
"6474",86.3866,79.94751,79.726746
"6475",86.3999,79.94263,79.72022
"6476",86.41327,79.96948,79.745285
"6477",86.426575,79.99634,79.77119
"6478",86.43994,79.98169,79.756424
"6479",86.45325,79.92798,79.70214
"6480",86.46661,79.869385,79.6413
"6481",86.47992,79.80835,79.57618
"6482",86.493286,79.75708,79.51892
"6483",86.50659,79.71557,79.46982
"6484",86.51996,79.68871,79.434074
"6485",86.533264,79.67162,79.40726
"6486",86.54663,79.656975,79.38235
"6487",86.55994,79.63744,79.3521
"6488",86.5733,79.61547,79.318794
"6489",86.58661,79.588615,79.27992
"6490",86.599976,79.56664,79.245094
"6491",86.61328,79.551994,79.2169
"6492",86.62665,79.534904,79.185814
"6493",86.63995,79.5227,79.15907
"6494",86.65332,79.520256,79.141716
"6495",86.666626,79.55688,79.163345
"6496",86.67999,79.622795,79.215416
"6497",86.6933,79.73022,79.31105
"6498",86.706665,79.871826,79.44423
"6499",86.71997,80.04761,79.616005
"6500",86.73334,80.23804,79.80792
"6501",86.74664,80.44068,80.018005
"6502",86.76001,80.65308,80.24418
"6503",86.773315,80.848404,80.45991
"6504",86.78668,81.02174,80.65976
"6505",86.79999,81.14137,80.81132
"6506",86.813354,81.20485,80.91046
"6507",86.82666,81.19997,80.94323
"6508",86.84003,81.146255,80.92702
"6509",86.85333,81.05592,80.872505
"6510",86.8667,80.9485,80.79808
"6511",86.880005,80.84352,80.72274
"6512",86.89337,80.74586,80.651436
"6513",86.90668,80.66285,80.591736
"6514",86.920044,80.59937,80.54897
"6515",86.93335,80.54566,80.51399
"6516",86.94672,80.49195,80.47733
"6517",86.96002,80.430916,80.43167
"6518",86.97339,80.36744,80.38166
"6519",86.986694,80.31129,80.33699
"6520",87.00006,80.26002,80.29545
"6521",87.01337,80.22095,80.2645
"6522",87.02673,80.198975,80.249435
"6523",87.04004,80.21118,80.26786
"6524",87.053406,80.2478,80.31108
"6525",87.06671,80.27955,80.35057
"6526",87.08008,80.27955,80.35931
"6527",87.09338,80.24292,80.33141
"6528",87.10675,80.16968,80.26576
"6529",87.120056,80.059814,80.1612
"6530",87.13342,79.940186,80.04344
"6531",87.14673,79.835205,79.93659
"6532",87.160095,79.7522,79.848434
"6533",87.1734,79.68383,79.77232
"6534",87.18677,79.65453,79.73315
"6535",87.20007,79.65453,79.72235
"6536",87.21344,79.66674,79.72376
"6537",87.226746,79.676506,79.723114
"6538",87.24011,79.676506,79.713005
"6539",87.25342,79.656975,79.683365
"6540",87.266785,79.622795,79.638466
"6541",87.28009,79.59106,79.59494
"6542",87.29346,79.5642,79.555305
"6543",87.30676,79.54223,79.519714
"6544",87.32013,79.52758,79.49076
"6545",87.333435,79.5227,79.471115
"6546",87.3468,79.52758,79.46108
"6547",87.36011,79.54467,79.46341
"6548",87.373474,79.586174,79.490685
"6549",87.38678,79.67162,79.5632
"6550",87.40015,79.815674,79.69699
"6551",87.41345,80.05005,79.925606
"6552",87.42682,80.365,80.24212
"6553",87.440125,80.70191,80.59044
"6554",87.45349,80.98024,80.8907
"6555",87.4668,81.16823,81.10932
"6556",87.48016,81.24391,81.22151
"6557",87.49347,81.20729,81.22376
"6558",87.506836,81.09987,81.15407
"6559",87.52014,80.97536,81.06393
"6560",87.53351,80.86061,80.97966
"6561",87.546814,80.76051,80.906456
"6562",87.56018,80.68726,80.85697
"6563",87.57349,80.638435,80.82962
"6564",87.58685,80.6067,80.81783
"6565",87.60016,80.56519,80.79529
"6566",87.613525,80.50416,80.751915
"6567",87.62683,80.42359,80.6871
"6568",87.6402,80.3357,80.61245
"6569",87.6535,80.2478,80.53504
"6570",87.66687,80.17456,80.46954
"6571",87.680176,80.13306,80.433495
"6572",87.69354,80.11841,80.423004
"6573",87.70685,80.11841,80.426704
"6574",87.720215,80.113525,80.42552
"6575",87.73352,80.10864,80.42419
"6576",87.74689,80.09155,80.41049
"6577",87.76019,80.05737,80.37917
"6578",87.77356,80.01343,80.33702
"6579",87.786865,79.98413,80.30814
"6580",87.80023,79.96704,80.29056
"6581",87.81354,79.94263,80.265114
"6582",87.826904,79.906006,80.2267
"6583",87.84021,79.84497,80.16273
"6584",87.85358,79.75952,80.07243
"6585",87.86688,79.65453,79.95993
"6586",87.88025,79.54711,79.84171
"6587",87.893555,79.45434,79.73479
"6588",87.90692,79.398186,79.66158
"6589",87.92023,79.378654,79.623245
"6590",87.93359,79.38842,79.613594
"6591",87.9469,79.40551,79.61157
"6592",87.960266,79.429924,79.61741
"6593",87.97357,79.43969,79.60936
"6594",87.98694,79.41772,79.56988
"6595",88.000244,79.381096,79.51506
"6596",88.01361,79.361565,79.47619
"6597",88.02692,79.37621,79.47089
"6598",88.04028,79.447014,79.522194
"6599",88.05359,79.58373,79.64163
"6600",88.066956,79.79126,79.83615
"6601",88.08026,80.05737,80.09574
"6602",88.09363,80.35035,80.39051
"6603",88.10693,80.62867,80.67978
"6604",88.1203,80.867935,80.93869
"6605",88.133606,81.03639,81.13427
"6606",88.14697,81.109634,81.2399
"6607",88.16028,81.109634,81.274574
"6608",88.173645,81.075455,81.27507
"6609",88.18695,81.01198,81.2452
"6610",88.20032,80.92653,81.191376
"6611",88.21362,80.84352,81.13732
"6612",88.22699,80.765396,81.085556
"6613",88.240295,80.68726,81.03134
"6614",88.25366,80.5774,80.942955
"6615",88.26697,80.445564,80.82916
"6616",88.280334,80.31861,80.71613
"6617",88.29364,80.22339,80.63087
"6618",88.30701,80.16724,80.581696
"6619",88.32031,80.15747,80.577156
"6620",88.33368,80.184326,80.60893
"6621",88.346985,80.20386,80.634224
"6622",88.36035,80.181885,80.61862
"6623",88.37366,80.12329,80.56571
"6624",88.387024,80.0647,80.51097
"6625",88.40033,80.02075,80.46905
"6626",88.4137,79.99878,80.44772
"6627",88.427,79.98413,80.43304
"6628",88.44037,79.957275,80.405685
"6629",88.453674,79.906006,80.35308
"6630",88.46704,79.83032,80.27446
"6631",88.48035,79.74975,80.18858
"6632",88.49371,79.67895,80.10996
"6633",88.50702,79.62524,80.04622
"6634",88.520386,79.586174,79.995445
"6635",88.53369,79.55932,79.95566
"6636",88.54706,79.53246,79.91503
"6637",88.56036,79.50561,79.873566
"6638",88.57373,79.47631,79.82882
"6639",88.587036,79.45678,79.79292
"6640",88.6004,79.447014,79.76618
"6641",88.61371,79.43481,79.736694
"6642",88.627075,79.34203,79.62626
"6643",88.64038,79.18822,79.45188
"6644",88.65375,79.0515,79.289795
"6645",88.66705,79.00023,79.208885
"6646",88.68042,79.027084,79.2045
"6647",88.693726,79.12962,79.276634
"6648",88.70709,79.30297,79.42278
"6649",88.7204,79.49584,79.59387
"6650",88.733765,79.66918,79.75146
"6651",88.74707,79.84741,79.91935
"6652",88.76044,80.10864,80.17581
"6653",88.77374,80.42603,80.4966
"6654",88.78711,80.740974,80.82485
"6655",88.800415,81.004654,81.11169
"6656",88.81378,81.18288,81.321304
"6657",88.82709,81.26589,81.441284
"6658",88.840454,81.26345,81.4784
"6659",88.85376,81.19997,81.4544
"6660",88.86713,81.10475,81.39668
"6661",88.88043,81.004654,81.33111
"6662",88.8938,80.921646,81.279495
"6663",88.907104,80.87038,81.25703
"6664",88.92047,80.850845,81.264694
"6665",88.93378,80.84108,81.28152
"6666",88.94714,80.82887,81.29559
"6667",88.96045,80.79469,81.287315
"6668",88.973816,80.72877,81.24622
"6669",88.98712,80.62867,81.1689
"6670",89.00049,80.49195,81.05183
"6671",89.013794,80.343025,80.918274
"6672",89.02716,80.216064,80.80203
"6673",89.04047,80.13794,80.73066
"6674",89.05383,80.10376,80.70079
"6675",89.06714,80.10376,80.70403
"6676",89.080505,80.12329,80.72681
"6677",89.09381,80.13794,80.74531
"6678",89.10718,80.12085,80.73253
"6679",89.12048,80.05737,80.67283
"6680",89.13385,79.971924,80.58917
"6681",89.147156,79.88403,80.500404
"6682",89.16052,79.80347,80.416214
"6683",89.17383,79.727776,80.33438
"6684",89.187195,79.66918,80.26728
"6685",89.2005,79.62524,80.213
"6686",89.21387,79.588615,80.164665
"6687",89.22717,79.54711,80.110306
"6688",89.24054,79.500725,80.04977
"6689",89.253845,79.44457,79.97801
"6690",89.26721,79.38598,79.90206
"6691",89.28052,79.33715,79.834045
"6692",89.293884,79.31762,79.7938
"6693",89.30719,79.31762,79.77248
"6694",89.32056,79.33959,79.773125
"6695",89.33386,79.37377,79.78667
"6696",89.34723,79.395744,79.78907
"6697",89.360535,79.38354,79.75798
"6698",89.3739,79.3518,79.70698
"6699",89.38721,79.32494,79.65987
"6700",89.40057,79.30053,79.61436
"6701",89.41388,79.281,79.57297
"6702",89.427246,79.256584,79.526085
"6703",89.44055,79.23216,79.47843
"6704",89.45392,79.21019,79.432465
"6705",89.467224,79.21507,79.41267
"6706",89.48059,79.27856,79.45162
"6707",89.4939,79.43481,79.58533
"6708",89.50726,79.68871,79.82157
"6709",89.52057,80.02075,80.14388
"6710",89.533936,80.377205,80.500984
"6711",89.54724,80.706795,80.84236
"6712",89.56061,80.96315,81.120804
"6713",89.57391,81.129166,81.31692
"6714",89.58728,81.19997,81.423004
"6715",89.600586,81.20241,81.462944
"6716",89.61395,81.16579,81.4639
"6717",89.62726,81.11452,81.44906
"6718",89.640625,81.058365,81.427734
"6719",89.65393,81.0193,81.421745
"6720",89.6673,81.00221,81.43651
"6721",89.6806,80.99245,81.45806
"6722",89.69397,80.970474,81.4671
"6723",89.707275,80.93141,81.45837
"6724",89.72064,80.86305,81.41911
"6725",89.73395,80.762955,81.345985
"6726",89.747314,80.61646,81.223335
"6727",89.76062,80.445564,81.0717
"6728",89.77399,80.291756,80.931816
"6729",89.78729,80.198975,80.84815
"6730",89.80066,80.15747,80.81287
"6731",89.813965,80.15747,80.81779
"6732",89.82733,80.19165,80.85689
"6733",89.84064,80.22339,80.894615
"6734",89.854004,80.20874,80.88695
"6735",89.86731,80.15015,80.83488
"6736",89.88068,80.08423,80.77365
"6737",89.89398,80.01099,80.70304
"6738",89.90735,79.92798,80.62038
"6739",89.920654,79.84009,80.530235
"6740",89.93402,79.75464,80.43979
"6741",89.94733,79.67895,80.35643
"6742",89.96069,79.61059,80.27804
"6743",89.974,79.54955,80.204834
"6744",89.987366,79.50317,80.14437
"6745",90.00067,79.46899,80.094666
"6746",90.01404,79.43969,80.048775
"6747",90.02734,79.415276,80.00685
"6748",90.04071,79.40063,79.97393
"6749",90.054016,79.38354,79.93811
"6750",90.06738,79.361565,79.89687
"6751",90.08069,79.33471,79.85007
"6752",90.094055,79.30785,79.80242
"6753",90.10736,79.31274,79.785675
"6754",90.12073,79.37621,79.827675
"6755",90.13403,79.47143,79.9034
"6756",90.1474,79.537346,79.9528
"6757",90.160706,79.54711,79.948105
"6758",90.17407,79.500725,79.887566
"6759",90.18738,79.398186,79.769424
"6760",90.200745,79.259026,79.61146
"6761",90.21405,79.13451,79.46378
"6762",90.22742,79.061264,79.363495
"6763",90.24072,79.01976,79.292656
"6764",90.25409,78.99046,79.23273
"6765",90.267395,78.9807,79.191414
"6766",90.28076,78.995346,79.17421
"6767",90.29407,79.0222,79.16967
"6768",90.307434,79.04906,79.16597
"6769",90.32074,79.063705,79.1509
"6770",90.33411,79.06859,79.126526
"6771",90.34741,79.07103,79.09986
"6772",90.36078,79.061264,79.061066
"6773",90.374084,79.03929,79.00976
"6774",90.38745,79.01732,78.95776
"6775",90.40076,79.01976,78.9295
"6776",90.41412,79.044174,78.92328
"6777",90.42743,79.11986,78.96909
"6778",90.440796,79.281,79.10273
"6779",90.4541,79.537346,79.33661
"6780",90.46747,79.87427,79.65907
"6781",90.480774,80.2649,80.04578
"6782",90.49414,80.689705,80.47886
"6783",90.50745,81.08522,80.89593
"6784",90.52081,81.3782,81.22282
"6785",90.53412,81.54177,81.42946
"6786",90.547485,81.58083,81.5167
"6787",90.56079,81.52468,81.50995
"6788",90.57416,81.40505,81.437965
"6789",90.58746,81.28542,81.36224
"6790",90.60083,81.214615,81.331604
"6791",90.614136,81.19264,81.34759
"6792",90.6275,81.18776,81.379974
"6793",90.64081,81.17799,81.407326
"6794",90.654175,81.15602,81.422165
"6795",90.66748,81.11452,81.41679
"6796",90.68085,81.04372,81.38081
"6797",90.69415,80.94606,81.31577
"6798",90.70752,80.84108,81.24036
"6799",90.720825,80.73365,81.15921
"6800",90.73419,80.6067,81.05518
"6801",90.7475,80.4773,80.94475
"6802",90.760864,80.377205,80.859566
"6803",90.77417,80.32105,80.8152
"6804",90.78754,80.29908,80.80326
"6805",90.80084,80.291756,80.80528
"6806",90.81421,80.291756,80.8144
"6807",90.827515,80.28199,80.81375
"6808",90.84088,80.235596,80.77617
"6809",90.85419,80.15503,80.702965
"6810",90.86755,80.07202,80.6248
"6811",90.88086,79.9939,80.54893
"6812",90.894226,79.91577,80.47061
"6813",90.90753,79.83765,80.389854
"6814",90.9209,79.76196,80.3091
"6815",90.934204,79.69604,80.23573
"6816",90.94757,79.63256,80.16276
"6817",90.96088,79.57397,80.09268
"6818",90.97424,79.520256,80.02566
"6819",90.98755,79.47631,79.96672
"6820",91.000916,79.42748,79.90153
"6821",91.01422,79.38598,79.84213
"6822",91.02759,79.34936,79.78632
"6823",91.04089,79.32983,79.74646
"6824",91.05426,79.31762,79.71331
"6825",91.067566,79.30785,79.68222
"6826",91.08093,79.29565,79.648384
"6827",91.09424,79.28832,79.61905
"6828",91.107605,79.237045,79.54553
"6829",91.12091,79.14427,79.42892
"6830",91.13428,79.05394,79.311844
"6831",91.14758,79.012436,79.240776
"6832",91.16095,79.01488,79.21236
"6833",91.174255,79.046616,79.21331
"6834",91.18762,79.11253,79.249435
"6835",91.20093,79.17113,79.2803
"6836",91.214294,79.183334,79.2666
"6837",91.2276,79.1638,79.22155
"6838",91.24097,79.17113,79.20274
"6839",91.25427,79.200424,79.20614
"6840",91.26764,79.22728,79.20801
"6841",91.280945,79.234604,79.191185
"6842",91.29431,79.217514,79.15018
"6843",91.30762,79.183334,79.091545
"6844",91.320984,79.14671,79.0294
"6845",91.33429,79.12962,78.98565
"6846",91.34766,79.132065,78.96089
"6847",91.36096,79.13939,78.94109
"6848",91.37433,79.13451,78.90932
"6849",91.387634,79.1223,78.87006
"6850",91.401,79.11009,78.83043
"6851",91.41431,79.10277,78.795296
"6852",91.42767,79.1223,78.78679
"6853",91.44098,79.183334,78.8204
"6854",91.454346,79.31274,78.92428
"6855",91.46765,79.53002,79.12009
"6856",91.48102,79.798584,79.37396
"6857",91.49432,80.1062,79.675285
"6858",91.50769,80.448006,80.02041
"6859",91.520996,80.799576,80.38598
"6860",91.53436,81.09743,80.70882
"6861",91.54767,81.31716,80.962845
"6862",91.561035,81.463646,81.15049
"6863",91.57434,81.51736,81.24994
"6864",91.58771,81.48318,81.263176
"6865",91.60101,81.40505,81.2314
"6866",91.61438,81.35134,81.221596
"6867",91.627686,81.32693,81.23941
"6868",91.64105,81.322044,81.27599
"6869",91.65436,81.32693,81.32219
"6870",91.667725,81.324486,81.36121
"6871",91.68103,81.30251,81.38063
"6872",91.6944,81.24635,81.36517
"6873",91.7077,81.15358,81.31135
"6874",91.72107,81.041275,81.23509
"6875",91.734375,80.92409,81.150444
"6876",91.74774,80.8069,81.06213
"6877",91.76105,80.70191,80.98236
"6878",91.774414,80.61646,80.918846
"6879",91.78772,80.550545,80.87219
"6880",91.80109,80.50416,80.84301
"6881",91.81439,80.46998,80.824585
"6882",91.82776,80.44068,80.809975
"6883",91.841064,80.40894,80.79201
"6884",91.85443,80.360115,80.75596
"6885",91.86774,80.28443,80.69153
"6886",91.8811,80.19409,80.61008
"6887",91.89441,80.09888,80.52093
"6888",91.907776,80.0061,80.431244
"6889",91.92108,79.91333,80.33866
"6890",91.93445,79.82788,80.2505
"6891",91.947754,79.7522,80.16944
"6892",91.96112,79.68383,80.09333
"6893",91.97443,79.62524,80.02486
"6894",91.98779,79.58373,79.97164
"6895",92.0011,79.554436,79.92934
"6896",92.014465,79.52758,79.88856
"6897",92.02777,79.500725,79.84694
"6898",92.04114,79.43725,79.76786
"6899",92.05444,79.33959,79.65262
"6900",92.06781,79.24437,79.53676
"6901",92.081116,79.1931,79.461876
"6902",92.09448,79.17845,79.42201
"6903",92.10779,79.200424,79.41831
"6904",92.121155,79.24925,79.442154
"6905",92.13446,79.293205,79.46265
"6906",92.14783,79.29565,79.443
"6907",92.16113,79.26391,79.38925
"6908",92.1745,79.234604,79.336945
"6909",92.187805,79.20775,79.28617
"6910",92.20117,79.18089,79.23456
"6911",92.21448,79.1638,79.19187
"6912",92.227844,79.149155,79.15109
"6913",92.24115,79.13695,79.1123
"6914",92.25452,79.1223,79.07068
"6915",92.26782,79.11253,79.033485
"6916",92.28119,79.10277,78.99599
"6917",92.294495,79.08812,78.9533
"6918",92.30786,79.078354,78.91504
"6919",92.32117,79.07347,78.881355
"6920",92.33453,79.06859,78.84752
"6921",92.34784,79.061264,78.81109
"6922",92.361206,79.05394,78.77443
"6923",92.37451,79.04906,78.73998
"6924",92.38788,79.046616,78.707825
"6925",92.401184,79.05394,78.685356
"6926",92.41455,79.07591,78.677765
"6927",92.42786,79.10277,78.67574
"6928",92.44122,79.1223,78.66724
"6929",92.45453,79.13695,78.65446
"6930",92.467896,79.13939,78.62993
"6931",92.4812,79.132065,78.59571
"6932",92.49457,79.1223,78.55882
"6933",92.50787,79.1223,78.531395
"6934",92.52124,79.151596,78.533264
"6935",92.534546,79.23216,78.58732
"6936",92.54791,79.39086,78.72202
"6937",92.56122,79.65453,78.96666
"6938",92.574585,80.01343,79.31476
"6939",92.58789,80.430916,79.732666
"6940",92.60126,80.86549,80.18071
"6941",92.61456,81.253685,80.59595
"6942",92.62793,81.53933,80.92077
"6943",92.641235,81.6907,81.12024
"6944",92.6546,81.71511,81.19749
"6945",92.66791,81.62234,81.15831
"6946",92.681274,81.446556,81.033226
"6947",92.69458,81.25613,80.888
"6948",92.70795,81.11452,80.785645
"6949",92.72125,81.04372,80.74967
"6950",92.73462,81.03151,80.77008
"6951",92.747925,81.06081,80.83161
"6952",92.76129,81.09743,80.90138
"6953",92.7746,81.10231,80.94056
"6954",92.787964,81.058365,80.93106
"6955",92.80127,80.987564,80.89333
"6956",92.81464,80.89723,80.83386
"6957",92.82794,80.799576,80.764244
"6958",92.84131,80.70191,80.69157
"6959",92.854614,80.601814,80.6134
"6960",92.86798,80.51392,80.54432
"6961",92.88129,80.44312,80.48958
"6962",92.89465,80.396736,80.45704
"6963",92.90796,80.36744,80.44014
"6964",92.921326,80.34791,80.43209
"6965",92.93463,80.33082,80.42587
"6966",92.948,80.29664,80.40203
"6967",92.9613,80.233154,80.34782
"6968",92.97467,80.18677,80.308716
"6969",92.987976,80.16968,80.29746
"6970",93.00134,80.13794,80.27103
"6971",93.01465,80.06958,80.20698
"6972",93.028015,79.971924,80.111496
"6973",93.04132,79.852295,79.99099
"6974",93.05469,79.708244,79.84232
"6975",93.06799,79.57885,79.70381
"6976",93.08136,79.4934,79.6052
"6977",93.094666,79.4519,79.54787
"6978",93.10803,79.415276,79.49412
"6979",93.12134,79.38598,79.44655
"6980",93.134705,79.36645,79.40783
"6981",93.14801,79.35424,79.375824
"6982",93.16138,79.31274,79.31414
"6983",93.17468,79.24193,79.221855
"6984",93.18805,79.17357,79.12981
"6985",93.201355,79.13695,79.06736
"6986",93.21472,79.132065,79.03551
"6987",93.22803,79.15404,79.03036
"6988",93.241394,79.19066,79.04054
"6989",93.2547,79.219955,79.04455
"6990",93.26807,79.219955,79.02017
"6991",93.28137,79.19798,78.97382
"6992",93.29474,79.183334,78.93411
"6993",93.308044,79.17601,78.90127
"6994",93.32141,79.17601,78.87552
"6995",93.33472,79.166245,78.840004
"6996",93.34808,79.15892,78.806625
"6997",93.36139,79.17113,78.79255
"6998",93.374756,79.1931,78.78862
"6999",93.38806,79.20531,78.77561
"7000",93.40143,79.20775,78.75322
"7001",93.414734,79.19554,78.716255
"7002",93.4281,79.16136,78.65694
"7003",93.44141,79.11742,78.586784
"7004",93.45477,79.08812,78.52991
"7005",93.46808,79.07347,78.48676
"7006",93.481445,79.06859,78.45293
"7007",93.49475,79.07591,78.431145
"7008",93.50812,79.09056,78.416916
"7009",93.52142,79.1223,78.420235
"7010",93.53479,79.168686,78.43919
"7011",93.548096,79.20531,78.44984
"7012",93.56146,79.22484,78.444534
"7013",93.57477,79.237045,78.43252
"7014",93.588135,79.26391,78.43554
"7015",93.60144,79.33959,78.48822
"7016",93.61481,79.500725,78.628716
"7017",93.62811,79.77173,78.88412
"7018",93.64148,80.1355,79.24075
"7019",93.654785,80.54322,79.65271
"7020",93.66815,80.938736,80.0652
"7021",93.68146,81.26833,80.42413
"7022",93.694824,81.495384,80.69082
"7023",93.70813,81.62234,80.8645
"7024",93.7215,81.67361,80.96647
"7025",93.7348,81.671165,81.01633
"7026",93.74817,81.619896,81.01728
"7027",93.761475,81.532005,80.98001
"7028",93.77484,81.42458,80.92046
"7029",93.78815,81.307396,80.84779
"7030",93.80151,81.18532,80.76657
"7031",93.81482,81.08522,80.703514
"7032",93.828186,81.01442,80.666626
"7033",93.84149,80.96315,80.64706
"7034",93.85486,80.90944,80.62344
"7035",93.868164,80.84596,80.58839
"7036",93.88153,80.77272,80.54158
"7037",93.89484,80.69703,80.490036
"7038",93.9082,80.621346,80.436134
"7039",93.92151,80.5481,80.38231
"7040",93.934875,80.479744,80.33108
"7041",93.94818,80.42115,80.287476
"7042",93.96155,80.36988,80.24937
"7043",93.97485,80.32105,80.2121
"7044",93.98822,80.272224,80.1733
"7045",94.001526,80.23071,80.1403
"7046",94.01489,80.201416,80.11821
"7047",94.0282,80.16968,80.092766
"7048",94.041565,80.130615,80.059006
"7049",94.05487,80.07446,80.006935
"7050",94.06824,79.99634,79.93114
"7051",94.08154,79.8938,79.82848
"7052",94.09491,79.79614,79.72751
"7053",94.108215,79.71313,79.63812
"7054",94.12158,79.64965,79.56568
"7055",94.13489,79.59594,79.50102
"7056",94.148254,79.57397,79.46642
"7057",94.16156,79.57397,79.45311
"7058",94.17493,79.56176,79.42759
"7059",94.18823,79.49096,79.343094
"7060",94.2016,79.381096,79.21732
"7061",94.214905,79.26147,79.078354
"7062",94.22827,79.15648,78.95029
"7063",94.24158,79.10277,78.87022
"7064",94.254944,79.1223,78.86171
"7065",94.26825,79.21019,78.92217
"7066",94.28162,79.28832,78.975624
"7067",94.29492,79.32494,78.990005
"7068",94.30829,79.32006,78.96403
"7069",94.321594,79.30297,78.92569
"7070",94.33496,79.28344,78.88438
"7071",94.34827,79.26635,78.844894
"7072",94.36163,79.2517,78.80732
"7073",94.37494,79.237045,78.76928
"7074",94.388306,79.2224,78.73079
"7075",94.40161,79.20531,78.6894
"7076",94.41498,79.19066,78.64992
"7077",94.42828,79.18089,78.61486
"7078",94.44165,79.17357,78.58194
"7079",94.454956,79.17601,78.558556
"7080",94.46832,79.185776,78.54257
"7081",94.48163,79.19798,78.529335
"7082",94.494995,79.20531,78.5116
"7083",94.5083,79.21019,78.491646
"7084",94.52167,79.21507,78.47185
"7085",94.53497,79.2224,78.45464
"7086",94.54834,79.23216,78.44011
"7087",94.561646,79.20531,78.38926
"7088",94.57501,79.14183,78.30095
"7089",94.58832,79.078354,78.210655
"7090",94.601685,79.06859,78.17209
"7091",94.61499,79.14671,78.22111
"7092",94.62836,79.35424,78.40197
"7093",94.64166,79.7058,78.73335
"7094",94.65503,80.16235,79.18071
"7095",94.668335,80.63111,79.65454
"7096",94.6817,81.041275,80.08443
"7097",94.69501,81.37087,80.44656
"7098",94.708374,81.59304,80.71157
"7099",94.72168,81.69314,80.86145
"7100",94.73505,81.705345,80.92657
"7101",94.74835,81.65896,80.93347
"7102",94.76172,81.57107,80.89742
"7103",94.775024,81.45388,80.82933
"7104",94.8017,81.1902,80.6524
"7105",94.81506,81.075455,80.574844
"7106",94.82837,80.990005,80.523
"7107",94.841736,80.938736,80.50267
"7108",94.85504,80.90456,80.497826
"7109",94.86841,80.86061,80.48215
"7110",94.881714,80.78737,80.4358
"7111",94.89508,80.69459,80.36762
"7112",94.90839,80.58961,80.28435
"7113",94.92175,80.482185,80.19535
"7114",94.93506,80.36256,80.09079
"7115",94.948425,80.24048,79.98004
"7116",94.96173,80.12573,79.87281
"7117",94.9751,80.04028,79.79129
"7118",94.9884,79.991455,79.74372
"7119",95.00177,79.991455,79.743454
"7120",95.015076,80.03296,79.78469
"7121",95.02844,80.08179,79.83455
"7122",95.04175,80.10132,79.856636
"7123",95.055115,80.079346,79.83783
"7124",95.06842,80.03296,79.79392
"7125",95.08179,79.9646,79.72659
"7126",95.09509,79.89868,79.65957
"7127",95.10846,79.82788,79.5856
"7128",95.121765,79.75464,79.50698
"7129",95.13513,79.68627,79.43095
"7130",95.14844,79.63012,79.36499
"7131",95.161804,79.58129,79.3046
"7132",95.17511,79.53246,79.24269
"7133",95.18848,79.48852,79.184135
"7134",95.20178,79.447014,79.12665
"7135",95.21515,79.40795,79.070305
"7136",95.228455,79.38354,79.02739
"7137",95.24182,79.36645,78.991035
"7138",95.25513,79.35912,78.96391
"7139",95.26849,79.35668,78.941444
"7140",95.2818,79.34936,78.91402
"7141",95.295166,79.327385,78.87171
"7142",95.30847,79.31274,78.836044
"7143",95.32184,79.310295,78.812126
"7144",95.335144,79.310295,78.79057
"7145",95.34851,79.30541,78.76414
"7146",95.36182,79.310295,78.747314
"7147",95.37518,79.31518,78.730644
"7148",95.38849,79.31518,78.70924
"7149",95.401855,79.31274,78.6854
"7150",95.41516,79.31518,78.66637
"7151",95.42853,79.3225,78.65229
"7152",95.44183,79.32983,78.63844
"7153",95.4552,79.30297,78.590645
"7154",95.468506,79.2517,78.51759
"7155",95.48187,79.202866,78.44537
"7156",95.49518,79.18089,78.39849
"7157",95.508545,79.18822,78.38022
"7158",95.52185,79.219955,78.38659
"7159",95.53522,79.27123,78.41349
"7160",95.54852,79.31762,78.4371
"7161",95.56189,79.33227,78.43043
"7162",95.575195,79.31762,78.39491
"7163",95.58856,79.32006,78.37603
"7164",95.60187,79.378654,78.413376
"7165",95.615234,79.51293,78.52824
"7166",95.62854,79.74975,78.74983
"7167",95.64191,80.08667,79.07893
"7168",95.65521,80.49195,79.48692
"7169",95.66858,80.90456,79.9149
"7170",95.681885,81.26345,80.30206
"7171",95.69525,81.52224,80.600334
"7172",95.70856,81.6614,80.78706
"7173",95.721924,81.688255,80.86584
"7174",95.73523,81.64187,80.87221
"7175",95.7486,81.549095,80.83074
"7176",95.7619,81.42458,80.75464
"7177",95.77527,81.28542,80.659996
"7178",95.788574,81.143814,80.558556
"7179",95.80194,81.01198,80.46246
"7180",95.81525,80.885025,80.367134
"7181",95.82861,80.7776,80.28737
"7182",95.84192,80.69947,80.233536
"7183",95.855286,80.64088,80.1968
"7184",95.86859,80.584724,80.160675
"7185",95.88196,80.52369,80.11791
"7186",95.89526,80.46021,80.0708
"7187",95.90863,80.40406,80.02903
"7188",95.921936,80.35523,79.99283
"7189",95.9353,80.31617,79.96487
"7190",95.94861,80.291756,79.95033
"7191",95.961975,80.27955,79.94724
"7192",95.97528,80.26246,79.93889
"7193",95.98865,80.24292,79.92755
"7194",96.00195,80.22095,79.91317
"7195",96.01532,80.19409,79.89322
"7196",96.028625,80.147705,79.8529
"7197",96.04199,80.08423,79.79404
"7198",96.0553,80.025635,79.738075
"7199",96.068665,79.97681,79.69005
"7200",96.08197,79.89624,79.60876
"7201",96.09534,79.781494,79.49077
"7202",96.10864,79.6643,79.366745
"7203",96.12201,79.57885,79.270805
"7204",96.135315,79.517815,79.19661
"7205",96.14868,79.4934,79.15713
"7206",96.16199,79.520256,79.16815
"7207",96.175354,79.55688,79.18978
"7208",96.18866,79.56176,79.18082
"7209",96.20203,79.537346,79.14271
"7210",96.21533,79.51537,79.10628
"7211",96.2287,79.4934,79.06916
"7212",96.242004,79.47875,79.03868
"7213",96.25537,79.466545,79.010185
"7214",96.26868,79.45678,78.98375
"7215",96.28204,79.447014,78.95701
"7216",96.29535,79.43725,78.92996
"7217",96.308716,79.429924,78.90505
"7218",96.32202,79.42748,78.884796
"7219",96.33539,79.42016,78.85958
"7220",96.348694,79.41772,78.83902
"7221",96.36206,79.42504,78.82815
"7222",96.37537,79.432365,78.817505
"7223",96.38873,79.43481,78.80221
"7224",96.40204,79.42748,78.77722
"7225",96.415405,79.41772,78.749565
"7226",96.42871,79.43481,78.74846
"7227",96.44208,79.49096,78.78695
"7228",96.45538,79.5642,78.844284
"7229",96.46875,79.60815,78.87461
"7230",96.482056,79.60082,78.85504
"7231",96.49542,79.54955,78.7913
"7232",96.50873,79.45922,78.68689
"7233",96.522095,79.37621,78.58698
"7234",96.5354,79.37621,78.56749
"7235",96.54877,79.50317,78.67495
"7236",96.56207,79.73266,78.888916
"7237",96.57544,80.025635,79.17354
"7238",96.588745,80.35767,79.50638
"7239",96.60211,80.70191,79.86179
"7240",96.61542,81.01442,80.196236
"7241",96.628784,81.25613,80.46964
"7242",96.64209,81.41726,80.67003
"7243",96.65546,81.49294,80.79
"7244",96.66876,81.45388,80.79759
"7245",96.68213,81.304955,80.6941
"7246",96.695435,81.10475,80.534676
"7247",96.7088,80.92409,80.388535
"7248",96.72211,80.782486,80.27581
"7249",96.73547,80.689705,80.20748
"7250",96.74878,80.64332,80.18265
"7251",96.762146,80.60914,80.16857
"7252",96.77545,80.550545,80.12901
"7253",96.78882,80.46998,80.06565
"7254",96.802124,80.4065,80.01686
"7255",96.81549,80.36988,79.99294
"7256",96.8288,80.34791,79.98253
"7257",96.84216,80.32838,79.97387
"7258",96.85547,80.308846,79.9646
"7259",96.868835,80.29664,79.96204
"7260",96.88214,80.289314,79.96399
"7261",96.89551,80.28199,79.965706
"7262",96.90881,80.28199,79.97452
"7263",96.92218,80.27955,79.98089
"7264",96.935486,80.2649,79.974976
"7265",96.94885,80.235596,79.95395
"7266",96.96216,80.18677,79.91248
"7267",96.975525,80.113525,79.84508
"7268",96.98883,80.02075,79.75585
"7269",97.0022,79.91089,79.64664
"7270",97.0155,79.79614,79.529106
"7271",97.02887,79.69604,79.42263
"7272",97.042175,79.58373,79.30083
"7273",97.05554,79.46166,79.16575
"7274",97.06885,79.35668,79.043945
"7275",97.082214,79.30785,78.97501
"7276",97.09552,79.30541,78.95094
"7277",97.10889,79.344475,78.9683
"7278",97.12219,79.4226,79.02594
"7279",97.13556,79.483635,79.06893
"7280",97.148865,79.50317,79.07233
"7281",97.16223,79.483635,79.03727
"7282",97.17554,79.483635,79.02113
"7283",97.1889,79.500725,79.02209
"7284",97.20221,79.53002,79.03578
"7285",97.215576,79.551994,79.04307
"7286",97.22888,79.55688,79.03395
"7287",97.24225,79.53979,79.00301
"7288",97.255554,79.51293,78.96178
"7289",97.26892,79.49096,78.92458
"7290",97.28223,79.48119,78.89891
"7291",97.29559,79.48119,78.8827
"7292",97.3089,79.48119,78.866486
"7293",97.322266,79.51049,78.87957
"7294",97.33557,79.5935,78.94728
"7295",97.34894,79.7522,79.09328
"7296",97.36224,79.99878,79.332115
"7297",97.37561,80.33082,79.664116
"7298",97.388916,80.69703,80.040665
"7299",97.40228,81.03151,80.39693
"7300",97.41559,81.24391,80.64156
"7301",97.428955,81.3196,80.75613
"7302",97.44226,81.29763,80.77539
"7303",97.45563,81.23903,80.75734
"7304",97.46893,81.163345,80.720375
"7305",97.4823,81.09743,80.69081
"7306",97.495605,81.05104,80.67872
"7307",97.50897,80.99489,80.65541
"7308",97.52228,80.91188,80.60349
"7309",97.535645,80.80446,80.52457
"7310",97.54895,80.719,80.46425
"7311",97.56232,80.66773,80.43545
"7312",97.57562,80.64332,80.4319
"7313",97.58899,80.6067,80.41538
"7314",97.602295,80.54078,80.36842
"7315",97.61566,80.45777,80.302315
"7316",97.62897,80.365,80.22385
"7317",97.642334,80.272224,80.14248
"7318",97.65564,80.2063,80.08506
"7319",97.66901,80.17944,80.06465
"7320",97.68231,80.18921,80.080025
"7321",97.69568,80.201416,80.098145
"7322",97.708984,80.20386,80.10688
"7323",97.72235,80.18677,80.09616
"7324",97.73566,80.15259,80.06782
"7325",97.74902,80.09155,80.01155
"7326",97.76233,80.01343,79.93629
"7327",97.775696,79.93042,79.8537
"7328",97.789,79.84497,79.766075
"7329",97.80237,79.75708,79.67334
"7330",97.815674,79.68627,79.59494
"7331",97.82904,79.635,79.53387
"7332",97.84235,79.59106,79.478516
"7333",97.85571,79.55688,79.43156
"7334",97.86902,79.53246,79.393295
"7335",97.882385,79.51049,79.35671
"7336",97.89569,79.48852,79.31944
"7337",97.90906,79.46899,79.28393
"7338",97.92236,79.48119,79.27954
"7339",97.93573,79.50805,79.290184
"7340",97.949036,79.53002,79.29678
"7341",97.9624,79.537346,79.28942
"7342",97.97571,79.53002,79.26764
"7343",97.989075,79.50561,79.22854
"7344",98.00238,79.47387,79.18135
"7345",98.01575,79.45922,79.15026
"7346",98.02905,79.48608,79.16022
"7347",98.04242,79.57641,79.23449
"7348",98.055725,79.75708,79.401924
"7349",98.06909,80.025635,79.66289
"7350",98.0824,80.36256,80.00061
"7351",98.095764,80.71168,80.36106
"7352",98.10907,81.02174,80.69337
"7353",98.12244,81.24391,80.947464
"7354",98.13574,81.36111,81.10353
"7355",98.14911,81.375755,81.16071
"7356",98.162415,81.324486,81.152435
"7357",98.17578,81.231705,81.10104
"7358",98.18909,81.109634,81.01746
"7359",98.20245,80.972916,80.91542
"7360",98.21576,80.833755,80.80666
"7361",98.229126,80.71656,80.71552
"7362",98.24243,80.618904,80.64026
"7363",98.2558,80.5359,80.57659
"7364",98.269104,80.462654,80.520096
"7365",98.28247,80.396736,80.468636
"7366",98.29578,80.32838,80.412674
"7367",98.30914,80.257576,80.352135
"7368",98.32245,80.19409,80.2967
"7369",98.335815,80.15259,80.26126
"7370",98.34912,80.130615,80.24406
"7371",98.36249,80.12085,80.23837
"7372",98.37579,80.09155,80.21285
"7373",98.38916,80.0354,80.15956
"7374",98.402466,79.98413,80.1094
"7375",98.41583,79.95972,80.08449
"7376",98.42914,79.957275,80.08079
"7377",98.442505,79.96704,80.08922
"7378",98.45581,79.98657,80.10772
"7379",98.46918,79.974365,80.09509
"7380",98.48248,79.91333,80.03326
"7381",98.49585,79.82544,79.94266
"7382",98.509155,79.74731,79.85907
"7383",98.52252,79.67895,79.782814
"7384",98.53583,79.639885,79.73372
"7385",98.549194,79.622795,79.705376
"7386",98.5625,79.61303,79.68382
"7387",98.57587,79.59838,79.65708
"7388",98.58917,79.571526,79.617676
"7389",98.60254,79.53979,79.57255
"7390",98.615845,79.49828,79.51666
"7391",98.62921,79.4519,79.4546
"7392",98.64252,79.42016,79.40573
"7393",98.65588,79.412834,79.38029
"7394",98.66919,79.41039,79.3595
"7395",98.682556,79.415276,79.345955
"7396",98.69586,79.429924,79.34233
"7397",98.70923,79.46166,79.356255
"7398",98.722534,79.53002,79.40779
"7399",98.7359,79.65942,79.5225
"7400",98.74921,79.87427,79.72671
"7401",98.76257,80.15991,80.00842
"7402",98.77588,80.48463,80.338135
"7403",98.789246,80.80202,80.67067
"7404",98.80255,81.06325,80.95696
"7405",98.81592,81.231705,81.158646
"7406",98.82922,81.307396,81.27283
"7407",98.84259,81.30007,81.30636
"7408",98.855896,81.22438,81.27129
"7409",98.86926,81.08278,81.16795
"7410",98.88257,80.89967,81.018684
"7411",98.895935,80.723885,80.87101
"7412",98.90924,80.638435,80.80818
"7413",98.92261,80.638435,80.82813
"7414",98.93591,80.67994,80.88959
"7415",98.94928,80.706795,80.93769
"7416",98.962585,80.67506,80.92804
"7417",98.97595,80.56519,80.83927
"7418",98.98926,80.39185,80.68359
"7419",99.002625,80.22827,80.53226
"7420",99.01593,80.128174,80.43929
"7421",99.0293,80.08911,80.404236
"7422",99.0426,80.07202,80.38993
"7423",99.05597,80.06958,80.38974
"7424",99.069275,80.07446,80.3968
"7425",99.08264,80.07446,80.399124
"7426",99.09595,80.0647,80.391685
"7427",99.109314,80.03784,80.36685
"7428",99.12262,80.00366,80.333855
"7429",99.13599,79.9646,80.29491
"7430",99.14929,79.91577,80.24497
"7431",99.16266,79.86206,80.18863
"7432",99.175964,79.80591,80.12817
"7433",99.18933,79.742424,80.05862
"7434",99.20264,79.66674,79.974884
"7435",99.216,79.59594,79.89367
"7436",99.22931,79.534904,79.82001
"7437",99.242676,79.483635,79.7542
"7438",99.25598,79.44213,79.69656
"7439",99.26935,79.415276,79.652275
"7440",99.28265,79.412834,79.63156
"7441",99.29602,79.42504,79.62542
"7442",99.309326,79.44213,79.62454
"7443",99.32269,79.449455,79.61443
"7444",99.336,79.43725,79.58502
"7445",99.349365,79.412834,79.54302
"7446",99.36267,79.37621,79.48805
"7447",99.37604,79.33715,79.4295
"7448",99.38934,79.31274,79.38437
"7449",99.40271,79.30785,79.35801
"7450",99.416016,79.32494,79.35347
"7451",99.42938,79.40551,79.41294
"7452",99.44269,79.569084,79.55794
"7453",99.456055,79.81323,79.78862
"7454",99.46936,80.12573,80.09528
"7455",99.48273,80.462654,80.436134
"7456",99.49603,80.7483,80.73624
"7457",99.5094,80.938736,80.95006
"7458",99.522705,81.041275,81.08193
"7459",99.53607,81.08522,81.15842
"7460",99.54938,81.08522,81.19233
"7461",99.562744,81.05348,81.1945
"7462",99.57605,81.01442,81.18836
"7463",99.58942,80.96559,81.171234
"7464",99.60272,80.89967,81.13549
"7465",99.61609,80.82399,81.08792
"7466",99.629395,80.77028,81.05996
"7467",99.64276,80.73609,81.04984
"7468",99.65607,80.71656,81.053314
"7469",99.66943,80.69703,81.056175
"7470",99.68274,80.65064,81.03157
"7471",99.696106,80.567635,80.968895
"7472",99.70941,80.46021,80.87921
"7473",99.72278,80.35279,80.78617
"7474",99.736084,80.25269,80.6971
"7475",99.74945,80.18677,80.63907
"7476",99.76276,80.15991,80.61805
"7477",99.77612,80.15991,80.62305
"7478",99.78943,80.15259,80.62072
"7479",99.802795,80.130615,80.603516
"7480",99.8161,80.09888,80.57586
"7481",99.82947,80.05249,80.53256
"7482",99.84277,80.00122,80.48293
"7483",99.85614,79.974365,80.456116
"7484",99.869446,79.96948,80.45043
"7485",99.88281,79.954834,80.43483
"7486",99.89612,79.903564,80.38215
"7487",99.909485,79.815674,80.291245
"7488",99.92279,79.70336,80.17317
"7489",99.93616,79.56664,80.02718
"7490",99.94946,79.449455,79.896454
"7491",99.96283,79.37621,79.80601
"7492",99.976135,79.34203,79.752335
"7493",99.9895,79.31274,79.70248
"7494",100.00281,79.290764,79.65903
"7495",100.016174,79.26635,79.61245
"7496",100.02948,79.259026,79.5822
"7497",100.04285,79.26879,79.56881
"7498",100.05615,79.28832,79.56549
"7499",100.06952,79.30297,79.5579
"7500",100.082825,79.29809,79.531235
"7501",100.09619,79.28344,79.49465
"7502",100.1095,79.259026,79.447845
"7503",100.12286,79.19554,79.361206
"7504",100.13617,79.11742,79.25794
"7505",100.149536,79.063705,79.17665
"7506",100.16284,79.03685,79.12054
"7507",100.17621,79.03685,79.09044
"7508",100.189514,79.06859,79.09208
"7509",100.20288,79.15404,79.14842
"7510",100.21619,79.29565,79.263596
"7511",100.22955,79.49584,79.44178
"7512",100.24286,79.76196,79.69215
"7513",100.256226,80.10864,80.03139
"7514",100.26953,80.49195,80.41809
"7515",100.2829,80.850845,80.79236
"7516",100.2962,81.129166,81.09727
"7517",100.30957,81.30984,81.313225
"7518",100.322876,81.38796,81.43228
"7519",100.33624,81.3782,81.46589
"7520",100.34955,81.324486,81.455246
"7521",100.362915,81.26101,81.43316
"7522",100.37622,81.197525,81.40908
"7523",100.38959,81.13649,81.38547
"7524",100.40289,81.08034,81.36483
"7525",100.41626,81.03883,81.357086
"7526",100.429565,80.98268,81.3334
"7527",100.44293,80.907,81.28842
"7528",100.45624,80.814224,81.22399
"7529",100.469604,80.71656,81.15177
"7530",100.48291,80.59937,81.05698
"7531",100.49628,80.45289,80.92922
"7532",100.50958,80.291756,80.78224
"7533",100.52295,80.15991,80.659515
"7534",100.536255,80.08667,80.59127
"7535",100.54962,80.06958,80.57689
"7536",100.56293,80.09155,80.601036
"7537",100.576294,80.15259,80.66493
"7538",100.5896,80.2063,80.72341
"7539",100.60297,80.21118,80.73474
"7540",100.61627,80.16724,80.697395
"7541",100.62964,80.11597,80.65135
"7542",100.642944,80.05249,80.5915
"7543",100.65631,79.97925,80.5199
"7544",100.66962,79.906006,80.44601
"7545",100.68298,79.82544,80.3625
"7546",100.69629,79.742424,80.27403
"7547",100.709656,79.6643,80.18786
"7548",100.72296,79.59594,80.10901
"7549",100.73633,79.53246,80.032906
"7550",100.74963,79.48119,79.967026
"7551",100.763,79.43725,79.90687
"7552",100.776306,79.40795,79.859985
"7553",100.78967,79.38598,79.81951
"7554",100.80298,79.37133,79.785675
"7555",100.816345,79.34936,79.74406
"7556",100.82965,79.33227,79.706635
"7557",100.84302,79.32494,79.678444
"7558",100.85632,79.3225,79.65491
"7559",100.86969,79.27856,79.58979
"7560",100.882996,79.200424,79.48911
"7561",100.89636,79.114975,79.37868
"7562",100.90967,79.05638,79.29243
"7563",100.923035,79.03197,79.238525
"7564",100.93634,79.04906,79.225365
"7565",100.94971,79.10521,79.2518
"7566",100.96301,79.16136,79.27999
"7567",100.97638,79.19554,79.287964
"7568",100.989685,79.200424,79.26771
"7569",101.00305,79.200424,79.24272
"7570",101.01636,79.19066,79.20797
"7571",101.029724,79.17113,79.16315
"7572",101.04303,79.151596,79.117714
"7573",101.0564,79.132065,79.07167
"7574",101.0697,79.12474,79.037224
"7575",101.08307,79.13695,79.02208
"7576",101.096375,79.151596,79.00976
"7577",101.10974,79.149155,78.980804
"7578",101.12305,79.132065,78.937126
"7579",101.13641,79.10765,78.88559
"7580",101.14972,79.09056,78.840614
"7581",101.163086,79.097885,78.81952
"7582",101.17639,79.132065,78.82551
"7583",101.18976,79.217514,78.883835
"7584",101.203064,79.39086,79.03273
"7585",101.21643,79.65942,79.28225
"7586",101.22974,80.01343,79.62562
"7587",101.2431,80.42359,80.0362
"7588",101.25641,80.84352,80.46937
"7589",101.269775,81.20241,80.854614
"7590",101.28308,81.463646,81.15343
"7591",101.29645,81.61257,81.34809
"7592",101.30975,81.65652,81.44243
"7593",101.32312,81.62234,81.460014
"7594",101.336426,81.54177,81.430145
"7595",101.34979,81.45632,81.392876
"7596",101.3631,81.3782,81.36026
"7597",101.376465,81.31472,81.33985
"7598",101.38977,81.27322,81.33943
"7599",101.40314,81.24147,81.34747
"7600",101.41644,81.20241,81.347206
"7601",101.42981,81.14137,81.323746
"7602",101.443115,81.05592,81.273964
"7603",101.45648,80.955826,81.20686
"7604",101.46979,80.848404,81.12931
"7605",101.483154,80.740974,81.04839
"7606",101.49646,80.64088,80.97145
"7607",101.50983,80.55787,80.90847
"7608",101.52313,80.49439,80.86243
"7609",101.5365,80.445564,80.82905
"7610",101.549805,80.40162,80.79903
"7611",101.56317,80.36988,80.77984
"7612",101.57648,80.3357,80.75722
"7613",101.58984,80.291756,80.72376
"7614",101.60315,80.23071,80.67184
"7615",101.616516,80.16235,80.61069
"7616",101.62982,80.08179,80.535194
"7617",101.64319,79.99878,80.45474
"7618",101.656494,79.91333,80.369255
"7619",101.66986,79.82544,80.278656
"7620",101.68317,79.73754,80.1853
"7621",101.69653,79.66186,80.10142
"7622",101.70984,79.588615,80.01761
"7623",101.723206,79.52514,79.94128
"7624",101.73651,79.47387,79.87517
"7625",101.74988,79.432365,79.81722
"7626",101.76318,79.39086,79.75798
"7627",101.77655,79.35912,79.70721
"7628",101.789856,79.30541,79.63347
"7629",101.80322,79.22972,79.53607
"7630",101.81653,79.15892,79.4412
"7631",101.829895,79.132065,79.38806
"7632",101.8432,79.14671,79.37559
"7633",101.85657,79.185776,79.387985
"7634",101.86987,79.234604,79.41137
"7635",101.88324,79.276115,79.42896
"7636",101.896545,79.281,79.411224
"7637",101.90991,79.25414,79.3619
"7638",101.92322,79.234604,79.31905
"7639",101.936584,79.219955,79.28049
"7640",101.94989,79.19798,79.23414
"7641",101.96326,79.17601,79.1871
"7642",101.97656,79.16136,79.146706
"7643",101.98993,79.149155,79.10829
"7644",102.003235,79.14671,79.07926
"7645",102.0166,79.15648,79.06236
"7646",102.02991,79.1638,79.04333
"7647",102.043274,79.15892,79.012314
"7648",102.05658,79.14183,78.96894
"7649",102.06995,79.12962,78.92992
"7650",102.08325,79.11986,78.89295
"7651",102.09662,79.11009,78.85568
"7652",102.109924,79.09544,78.813225
"7653",102.12329,79.09056,78.780075
"7654",102.1366,79.093,78.7541
"7655",102.14996,79.10521,78.73796
"7656",102.16327,79.12962,78.73441
"7657",102.176636,79.1931,78.77069
"7658",102.18994,79.31762,78.869995
"7659",102.20331,79.53246,79.063515
"7660",102.21661,79.84741,79.36385
"7661",102.22998,80.24048,79.75215
"7662",102.243286,80.66529,80.18448
"7663",102.25665,81.058365,80.59834
"7664",102.26996,81.36599,80.93904
"7665",102.283325,81.54665,81.16239
"7666",102.29663,81.59792,81.26199
