"","Time..s.","PPG.trace","Preprocessed.PPG"
"34656",461.83057,79.21019,105.390434
"34657",461.84387,79.15648,105.31204
"34658",461.85718,79.10521,105.23441
"34659",461.87048,79.04173,105.142975
"34660",461.8838,78.97093,105.04223
"34661",461.8971,78.907455,104.946594
"34662",461.9104,78.84886,104.85386
"34663",461.9237,78.78783,104.75685
"34664",461.937,78.74876,104.6799
"34665",461.95032,78.729225,104.62127
"34666",461.96362,78.73411,104.58644
"34667",461.97693,78.75853,104.571304
"34668",461.99023,78.77806,104.55204
"34669",462.00354,78.768295,104.50409
"34670",462.01685,78.74143,104.438736
"34671",462.03015,78.68528,104.343254
"34672",462.04346,78.58762,104.20451
"34673",462.05676,78.49241,104.06516
"34674",462.07007,78.42161,103.94725
"34675",462.08337,78.397194,103.87351
"34676",462.09668,78.470436,103.89667
"34677",462.11,78.69016,104.068596
"34678",462.1233,79.1223,104.4598
"34679",462.1366,79.781494,105.09157
"34680",462.1499,80.58961,105.89285
"34681",462.1632,81.427025,106.748695
"34682",462.1765,82.193634,107.5599
"34683",462.18982,82.760056,108.19487
"34684",462.20312,83.075,108.59606
"34685",462.21643,83.158005,108.77516
"34686",462.22974,83.07988,108.79572
"34687",462.24304,82.90898,108.72107
"34688",462.25635,82.69657,108.59956
"34689",462.26965,82.493935,108.48119
"34690",462.28296,82.320595,108.38579
"34691",462.29626,82.15701,108.29472
"34692",462.30957,81.97879,108.18391
"34693",462.32288,81.77371,108.040665
"34694",462.33618,81.53445,107.85683
"34695",462.3495,81.270775,107.641106
"34696",462.3628,81.02663,107.43667
"34697",462.3761,80.82399,107.26611
"34698",462.3894,80.68238,107.15025
"34699",462.4027,80.6067,107.095894
"34700",462.41602,80.57496,107.083115
"34701",462.42932,80.5774,107.10352
"34702",462.44263,80.6067,107.15086
"34703",462.45593,80.62379,107.18691
"34704",462.46924,80.61158,107.1942
"34705",462.48254,80.567635,107.169365
"34706",462.49585,80.4773,107.09677
"34707",462.50916,80.34058,106.97497
"34708",462.52246,80.184326,106.82935
"34709",462.53577,80.03296,106.68375
"34710",462.54907,79.88403,106.53585
"34711",462.56238,79.73754,106.385735
"34712",462.57568,79.61791,106.257904
"34713",462.589,79.52514,106.15319
"34714",462.6023,79.429924,106.04314
"34715",462.6156,79.344475,105.93987
"34716",462.6289,79.28832,105.863235
"34717",462.6422,79.24437,105.79704
"34718",462.65552,79.200424,105.729485
"34719",462.66882,79.166245,105.67032
"34720",462.68213,79.13695,105.61497
"34721",462.69543,79.11009,105.56114
"34722",462.70874,79.093,105.51624
"34723",462.72205,79.09056,105.48546
"34724",462.73535,79.09056,105.45704
"34725",462.74866,79.10765,105.44571
"34726",462.76196,79.11009,105.420265
"34727",462.77527,79.08568,105.36804
"34728",462.78857,79.044174,105.297966
"34729",462.80188,79.00511,105.229034
"34730",462.8152,78.96849,105.16132
"34731",462.8285,78.93675,105.09735
"34732",462.8418,78.91234,105.03971
"34733",462.8551,78.87816,104.97154
"34734",462.8684,78.82689,104.885216
"34735",462.8817,78.75365,104.775314
"34736",462.89502,78.677956,104.660675
"34737",462.90833,78.61692,104.55833
"34738",462.92163,78.60471,104.5029
"34739",462.93494,78.70481,104.559395
"34740",462.94824,78.9807,104.79481
"34741",462.96155,79.46899,105.25124
"34742",462.97485,80.15259,105.91825
"34743",462.98816,80.96071,106.73114
"34744",463.00146,81.76883,107.56928
"34745",463.01477,82.45731,108.31304
"34746",463.02808,82.92607,108.85859
"34747",463.04138,83.13847,109.16243
"34748",463.0547,83.12138,109.243416
"34749",463.068,82.95781,109.17738
"34750",463.0813,82.735634,109.04764
"34751",463.0946,82.50614,108.90363
"34752",463.1079,82.303505,108.77931
"34753",463.12122,82.15213,108.69992
"34754",463.13452,82.03494,108.64999
"34755",463.14783,81.898224,108.57686
"34756",463.16113,81.72976,108.46771
"34757",463.17444,81.55154,108.343544
"34758",463.18774,81.35134,108.19183
"34759",463.20105,81.13649,108.01921
"34760",463.21436,80.94362,107.861855
"34761",463.22766,80.780045,107.72777
"34762",463.24097,80.66041,107.63251
"34763",463.25427,80.601814,107.59455
"34764",463.26758,80.584724,107.59627
"34765",463.28088,80.59449,107.624306
"34766",463.2942,80.604256,107.65265
"34767",463.3075,80.57984,107.64712
"34768",463.3208,80.52125,107.60664
"34769",463.3341,80.41627,107.51795
"34770",463.3474,80.26002,107.37471
"34771",463.36072,80.093994,107.21681
"34772",463.37402,79.9353,107.06106
"34773",463.38733,79.781494,106.90523
"34774",463.40063,79.64721,106.764114
"34775",463.41394,79.517815,106.623695
"34776",463.42725,79.381096,106.47191
"34777",463.44055,79.24681,106.31828
"34778",463.45386,79.11742,106.16535
"34779",463.46716,79.00755,106.02791
"34780",463.48047,78.924545,105.91389
"34781",463.49377,78.86351,105.819244
"34782",463.50708,78.81712,105.73734
"34783",463.5204,78.77806,105.661316
"34784",463.5337,78.74876,105.59383
"34785",463.547,78.75853,105.5645
"34786",463.5603,78.79271,105.55988
"34787",463.5736,78.82445,105.553894
"34788",463.5869,78.84398,105.53669
"34789",463.60022,78.836655,105.49324
"34790",463.61353,78.785385,105.40562
"34791",463.62683,78.71946,105.301735
"34792",463.64014,78.65598,105.19824
"34793",463.65344,78.59983,105.10009
"34794",463.66675,78.555885,105.01239
"34795",463.68005,78.53147,104.94285
"34796",463.69336,78.51438,104.87987
"34797",463.70667,78.51682,104.835884
"34798",463.71997,78.53391,104.806625
"34799",463.73328,78.54612,104.77302
"34800",463.74658,78.538795,104.72026
"34801",463.7599,78.51682,104.652626
"34802",463.7732,78.485085,104.57454
"34803",463.7865,78.44358,104.485695
"34804",463.7998,78.433815,104.42729
"34805",463.8131,78.538795,104.48333
"34806",463.82642,78.836655,104.73553
"34807",463.83972,79.344475,105.20699
"34808",463.85303,80.062256,105.90429
"34809",463.86633,80.92897,106.77295
"34810",463.87964,81.80789,107.6809
"34811",463.89294,82.55497,108.484474
"34812",463.90625,83.06035,109.069695
"34813",463.91956,83.302055,109.407036
"34814",463.93286,83.33868,109.546844
"34815",463.94617,83.2166,109.5291
"34816",463.95947,82.99199,109.40501
"34817",463.97278,82.7454,109.251915
"34818",463.98608,82.511024,109.10333
"34819",463.9994,82.28397,108.95475
"34820",464.0127,82.07156,108.81371
"34821",464.026,81.90311,108.70999
"34822",464.0393,81.74929,108.61565
"34823",464.0526,81.57839,108.49941
"34824",464.06592,81.3904,108.36075
"34825",464.07922,81.19508,108.20888
"34826",464.09253,81.00221,108.05335
"34827",464.10583,80.82887,107.91133
"34828",464.11914,80.706795,107.815155
"34829",464.13245,80.6482,107.77865
"34830",464.14575,80.63111,107.781815
"34831",464.15906,80.62867,107.799095
"34832",464.17236,80.62867,107.81874
"34833",464.18567,80.6067,107.816414
"34834",464.19897,80.54566,107.77434
"34835",464.21228,80.45777,107.7035
"34836",464.2256,80.34791,107.60794
"34837",464.2389,80.218506,107.48941
"34838",464.2522,80.06958,107.34731
"34839",464.2655,79.923096,107.203
"34840",464.2788,79.77417,107.051674
"34841",464.2921,79.62524,106.89568
"34842",464.30542,79.48119,106.73993
"34843",464.31873,79.35424,106.59676
"34844",464.33203,79.23216,106.454506
"34845",464.34534,79.114975,106.313324
"34846",464.35864,79.01976,106.19045
"34847",464.37195,78.93919,106.079254
"34848",464.38525,78.86595,105.97286
"34849",464.39856,78.81468,105.886154
"34850",464.41187,78.79271,105.82714
"34851",464.42517,78.77318,105.76988
"34852",464.43848,78.77074,105.7291
"34853",464.45178,78.77074,105.69069
"34854",464.4651,78.75365,105.635185
"34855",464.4784,78.72434,105.56693
"34856",464.4917,78.68772,105.49045
"34857",464.505,78.63645,105.39817
"34858",464.5183,78.59983,105.31894
"34859",464.53162,78.57053,105.24589
"34860",464.54492,78.54612,105.1768
"34861",464.55823,78.54368,105.12893
"34862",464.57153,78.54368,105.08342
"34863",464.58484,78.54612,105.04035
"34864",464.59814,78.55833,105.007126
"34865",464.61145,78.57053,104.97428
"34866",464.62476,78.55833,104.917404
"34867",464.63806,78.536354,104.85038
"34868",464.65137,78.502174,104.77046
"34869",464.66467,78.48997,104.71145
"34870",464.67798,78.49485,104.66914
"34871",464.69128,78.52659,104.65385
"34872",464.7046,78.62913,104.71034
"34873",464.7179,78.84398,104.882355
"34874",464.7312,79.21507,105.21732
"34875",464.7445,79.79126,105.76898
"34876",464.7578,80.54566,106.51686
"34877",464.77112,81.39529,107.38354
"34878",464.78442,82.2327,108.26455
"34879",464.79773,82.92119,109.02281
"34880",464.81104,83.372856,109.565765
"34881",464.82434,83.595024,109.89333
"34882",464.83765,83.60235,110.013
"34883",464.85095,83.44854,109.97176
"34884",464.86426,83.20439,109.83538
"34885",464.87756,82.92607,109.657196
"34886",464.89087,82.65507,109.47763
"34887",464.90417,82.41825,109.323784
"34888",464.91748,82.21561,109.19671
"34889",464.9308,82.03494,109.08528
"34890",464.9441,81.85428,108.96821
"34891",464.9574,81.64675,108.81863
"34892",464.9707,81.4197,108.643036
"34893",464.984,81.19264,108.46034
"34894",464.9973,80.99977,108.30474
"34895",465.01062,80.86061,108.19682
"34896",465.02393,80.7776,108.14071
"34897",465.03723,80.75075,108.13815
"34898",465.05054,80.765396,108.17626
"34899",465.06384,80.77516,108.209946
"34900",465.07715,80.7483,108.207306
"34901",465.09045,80.68238,108.16477
"34902",465.10376,80.584724,108.08844
"34903",465.11707,80.46021,107.9822
"34904",465.13037,80.32105,107.85742
"34905",465.14368,80.17456,107.72096
"34906",465.15698,80.04028,107.59214
"34907",465.1703,79.91333,107.466446
"34908",465.1836,79.77417,107.32458
"34909",465.1969,79.62524,107.16859
"34910",465.2102,79.48852,107.02016
"34911",465.2235,79.34936,106.86501
"34912",465.23682,79.20775,106.70307
"34913",465.25012,79.08324,106.5538
"34914",465.26343,78.99046,106.43238
"34915",465.27673,78.91966,106.33003
"34916",465.29004,78.870834,106.247444
"34917",465.30334,78.84642,106.187744
"34918",465.31665,78.82933,106.134605
"34919",465.32996,78.802475,106.07117
"34920",465.34326,78.76097,105.99224
"34921",465.35657,78.70725,105.8998
"34922",465.36987,78.66575,105.8179
"34923",465.38318,78.643776,105.754234
"34924",465.39648,78.63401,105.70209
"34925",465.4098,78.624245,105.649635
"34926",465.4231,78.61936,105.60176
"34927",465.4364,78.60471,105.54397
"34928",465.4497,78.57786,105.47351
"34929",465.463,78.54368,105.39489
"34930",465.47632,78.519264,105.32497
"34931",465.48962,78.51194,105.27137
"34932",465.50293,78.502174,105.2151
"34933",465.51624,78.48264,105.148766
"34934",465.52954,78.46555,105.08426
"34935",465.54285,78.46067,105.031425
"34936",465.55615,78.467995,104.99065
"34937",465.56946,78.485085,104.95986
"34938",465.58276,78.519264,104.9467
"34939",465.59607,78.57053,104.9517
"34940",465.60938,78.60471,104.94121
"34941",465.62268,78.626686,104.91958
"34942",465.636,78.6511,104.90108
"34943",465.6493,78.68528,104.893105
"34944",465.6626,78.77074,104.93748
"34945",465.6759,78.9807,105.109024
"34946",465.6892,79.361565,105.45804
"34947",465.7025,79.94507,106.02159
"34948",465.71582,80.72144,106.79625
"34949",465.72913,81.59792,107.695274
"34950",465.74243,82.47929,108.62657
"34951",465.75574,83.25323,109.47799
"34952",465.76904,83.8172,110.14362
"34953",465.78235,84.13214,110.57785
"34954",465.79565,84.210266,110.7851
"34955",465.80896,84.07355,110.77995
"34956",465.82227,83.79523,110.62893
"34957",465.83557,83.43389,110.38619
"34958",465.84888,83.053024,110.11263
"34959",465.86218,82.703896,109.85891
"34960",465.8755,82.40116,109.64067
"34961",465.8888,82.142365,109.45691
"34962",465.9021,81.92996,109.311455
"34963",465.9154,81.74197,109.18377
"34964",465.9287,81.549095,109.045334
"34965",465.94202,81.36111,108.905754
"34966",465.95532,81.17311,108.76029
"34967",465.96863,81.00221,108.62605
"34968",465.98193,80.86305,108.51821
"34969",465.99524,80.765396,108.447525
"34970",466.00854,80.719,108.42505
"34971",466.02185,80.73609,108.46461
"34972",466.03516,80.780045,108.53156
"34973",466.04846,80.82643,108.602325
"34974",466.06177,80.82887,108.63059
"34975",466.07507,80.75563,108.58325
"34976",466.08838,80.6067,108.45793
"34977",466.10168,80.396736,108.26693
"34978",466.115,80.15991,108.0425
"34979",466.1283,79.94263,107.830215
"34980",466.1416,79.75708,107.642876
"34981",466.1549,79.586174,107.46438
"34982",466.1682,79.43969,107.30496
"34983",466.18152,79.310295,107.15806
"34984",466.19482,79.18822,107.01443
"34985",466.20813,79.09056,106.8914
"34986",466.22144,79.01976,106.79218
"34987",466.23474,78.96361,106.7054
"34988",466.24805,78.91234,106.62174
"34989",466.26135,78.873276,106.54869
"34990",466.27466,78.84154,106.48174
"34991",466.28796,78.802475,106.40648
"34992",466.30127,78.75609,106.32267
"34993",466.31458,78.72434,106.25205
"34994",466.32788,78.71458,106.20242
"34995",466.3412,78.709694,106.15737
"34996",466.3545,78.71458,106.12193
"34997",466.3678,78.71702,106.084206
"34998",466.3811,78.70481,106.031906
"34999",466.3944,78.695045,105.98167
"35000",466.4077,78.68284,105.92868
"35001",466.42102,78.660866,105.86555
"35002",466.43433,78.63889,105.80173
"35003",466.44763,78.60471,105.72501
"35004",466.46094,78.54124,105.617935
"35005",466.47424,78.47532,105.50643
"35006",466.48755,78.44358,105.42705
"35007",466.50085,78.43626,105.371086
"35008",466.51416,78.44846,105.33443
"35009",466.52747,78.49241,105.32989
"35010",466.54077,78.58274,105.37311
"35011",466.55408,78.76341,105.50949
"35012",466.56738,79.10521,105.812645
"35013",466.5807,79.66674,106.346214
"35014",466.594,80.43336,107.10242
"35015",466.6073,81.33425,108.01685
"35016",466.6206,82.25468,108.97897
"35017",466.6339,83.070114,109.86487
"35018",466.64722,83.682915,110.57361
"35019",466.66052,84.04181,111.04759
"35020",466.67383,84.15167,111.28376
"35021",466.68713,84.054016,111.31584
"35022",466.70044,83.807434,111.195946
"35023",466.71375,83.46807,110.97556
"35024",466.72705,83.09453,110.710396
"35025",466.74036,82.72831,110.44088
"35026",466.75366,82.4036,110.20143
"35027",466.76697,82.127716,110.000656
"35028",466.78027,81.900665,109.840096
"35029",466.79358,81.69314,109.69196
"35030",466.8069,81.49294,109.54468
"35031",466.8202,81.27566,109.37405
"35032",466.8335,81.05592,109.194176
"35033",466.8468,80.85573,109.02698
"35034",466.8601,80.72144,108.91943
"35035",466.8734,80.66041,108.88094
"35036",466.88672,80.66041,108.90158
"35037",466.90002,80.69459,108.9564
"35038",466.91333,80.73121,109.014725
"35039",466.92664,80.72144,109.02781
"35040",466.93994,80.66773,108.99664
"35041",466.95325,80.57496,108.924736
"35042",466.96655,80.4358,108.80354
"35043",466.97986,80.27955,108.66091
"35044",466.99316,80.113525,108.503624
"35045",467.00647,79.906006,108.29965
"35046",467.01978,79.676506,108.067215
"35047",467.03308,79.44457,107.82517
"35048",467.0464,79.23216,107.595406
"35049",467.0597,79.05882,107.39807
"35050",467.073,78.92699,107.236824
"35051",467.0863,78.84154,107.11784
"35052",467.0996,78.79759,107.0377
"35053",467.1129,78.751205,106.953735
"35054",467.12622,78.692604,106.85611
"35055",467.13953,78.6511,106.77375
"35056",467.15283,78.6218,106.7023
"35057",467.16614,78.59495,106.63238
"35058",467.17944,78.58274,106.57626
"35059",467.19275,78.572975,106.52221
"35060",467.20605,78.57053,106.475174
"35061",467.21936,78.57786,106.43783
"35062",467.23267,78.590065,106.405594
"35063",467.24597,78.6096,106.381065
"35064",467.25928,78.61936,106.34738
"35065",467.27258,78.624245,106.30912
"35066",467.2859,78.626686,106.26857
"35067",467.2992,78.61448,106.21345
"35068",467.3125,78.58762,106.143295
"35069",467.3258,78.56565,106.07719
"35070",467.3391,78.536354,106.00307
"35071",467.35242,78.50706,105.92803
"35072",467.36572,78.485085,105.859406
"35073",467.37903,78.46311,105.79009
"35074",467.39233,78.45335,105.7323
"35075",467.40564,78.4802,105.71082
"35076",467.41895,78.59251,105.775635
"35077",467.43225,78.890366,106.02951
"35078",467.44556,79.44213,106.5466
"35079",467.45886,80.22339,107.310425
"35080",467.47217,81.15602,108.25004
"35081",467.48547,82.13748,109.267624
"35082",467.49878,83.018845,110.21578
"35083",467.5121,83.682915,110.97419
"35084",467.5254,84.102844,111.50921
"35085",467.5387,84.29084,111.82542
"35086",467.552,84.26887,111.93753
"35087",467.5653,84.071106,111.87317
"35088",467.5786,83.76349,111.69277
"35089",467.59192,83.407036,111.453926
"35090",467.60522,83.02861,111.18197
"35091",467.61853,82.652626,110.90063
"35092",467.63184,82.31327,110.644165
"35093",467.64514,81.99588,110.39906
"35094",467.65845,81.70046,110.166016
"35095",467.67175,81.43435,109.95304
"35096",467.68506,81.19997,109.76348
"35097",467.69836,81.01198,109.61299
"35098",467.71167,80.89235,109.52499
"35099",467.72498,80.82887,109.489395
"35100",467.73828,80.80934,109.495766
"35101",467.7516,80.8362,109.54791
"35102",467.7649,80.8777,109.61555
"35103",467.7782,80.89967,109.66495
"35104",467.7915,80.88747,109.680855
"35105",467.8048,80.8362,109.65732
"35106",467.8181,80.743416,109.59067
"35107",467.83142,80.61402,109.484505
"35108",467.84473,80.45533,109.345
"35109",467.85803,80.26978,109.17368
"35110",467.87134,80.062256,108.97459
"35111",467.88464,79.84009,108.754364
"35112",467.89795,79.61547,108.52475
"35113",467.91125,79.40063,108.29789
"35114",467.92456,79.21263,108.09116
"35115",467.93787,79.04906,107.902985
"35116",467.95117,78.907455,107.73167
"35117",467.96448,78.78783,107.577896
"35118",467.97778,78.68772,107.43991
"35119",467.9911,78.6096,107.32078
"35120",468.0044,78.54368,107.21141
"35121",468.0177,78.49485,107.11707
"35122",468.031,78.45823,107.03342
"35123",468.0443,78.42893,106.95594
"35124",468.05762,78.399635,106.87755
"35125",468.07092,78.380104,106.80801
"35126",468.08423,78.37278,106.75006
"35127",468.09753,78.37034,106.69677
"35128",468.11084,78.380104,106.65561
"35129",468.12415,78.40452,106.6294
"35130",468.13745,78.44358,106.61861
"35131",468.15076,78.47532,106.60171
"35132",468.16406,78.502174,106.58092
"35133",468.17737,78.52659,106.558525
"35134",468.19067,78.53391,106.519806
"35135",468.20398,78.53391,106.47399
"35136",468.2173,78.521706,106.41597
"35137",468.2306,78.47776,106.32583
"35138",468.2439,78.433815,106.234314
"35139",468.2572,78.467995,106.21955
"35140",468.2705,78.64622,106.3499
"35141",468.2838,79.05882,106.7202
"35142",468.29712,79.75952,107.39149
"35143",468.31042,80.68482,108.30927
"35144",468.32373,81.72488,109.37073
"35145",468.33704,82.73075,110.430504
"35146",468.35034,83.560844,111.34593
"35147",468.36365,84.13214,112.0285
"35148",468.37695,84.40803,112.43352
"35149",468.39026,84.403145,112.56638
"35150",468.40356,84.20538,112.50622
"35151",468.41687,83.888,112.32025
"35152",468.43018,83.50225,112.056
"35153",468.44348,83.09941,111.7626
"35154",468.4568,82.7161,111.47615
"35155",468.4701,82.34745,111.192375
"35156",468.4834,81.991,110.90928
"35157",468.4967,81.64187,110.62237
"35158",468.51,81.324486,110.35629
"35159",468.52332,81.05348,110.12668
"35160",468.53662,80.8362,109.942314
"35161",468.54993,80.70191,109.83416
"35162",468.56323,80.655525,109.80971
"35163",468.57654,80.67994,109.85461
"35164",468.58984,80.76051,109.95643
"35165",468.60315,80.86061,110.08029
"35166",468.61646,80.94118,110.18775
"35167",468.62976,80.98512,110.26111
"35168",468.64307,80.96803,110.2748
"35169",468.65637,80.88258,110.219604
"35170",468.66968,80.743416,110.10802
"35171",468.68298,80.55787,109.9457
"35172",468.6963,80.33082,109.736084
"35173",468.7096,80.09155,109.50716
"35174",468.7362,79.635,109.04908
"35175",468.7495,79.43481,108.83748
"35176",468.76282,79.259026,108.644035
"35177",468.77612,79.10033,108.46218
"35178",468.78943,78.94896,108.2827
"35179",468.80273,78.81712,108.11802
"35180",468.81604,78.69993,107.96386
"35181",468.82935,78.58518,107.80849
"35182",468.84265,78.48264,107.661736
"35183",468.85596,78.40452,107.536194
"35184",468.86926,78.345924,107.42774
"35185",468.88257,78.30442,107.33455
"35186",468.89587,78.29954,107.27668
"35187",468.90918,78.311745,107.23575
"35188",468.9225,78.31907,107.190315
"35189",468.9358,78.32639,107.14511
"35190",468.9491,78.32151,107.08793
"35191",468.9624,78.294655,107.00862
"35192",468.9757,78.26292,106.92359
"35193",468.989,78.25315,106.85954
"35194",469.00232,78.31663,106.86843
"35195",469.01562,78.54124,107.040436
"35196",469.02893,78.992905,107.44652
"35197",469.04224,79.67895,108.10109
"35198",469.05554,80.567635,108.979744
"35199",469.06885,81.55398,109.983826
"35200",469.08215,82.50614,110.98455
"35201",469.09546,83.30938,111.866104
"35202",469.10876,83.89288,112.553024
"35203",469.12207,84.22247,113.004265
"35204",469.13538,84.30305,113.21679
"35205",469.14868,84.173645,113.221855
"35206",469.162,83.89288,113.07152
"35207",469.1753,83.52422,112.82451
"35208",469.1886,83.13603,112.54645
"35209",469.2019,82.760056,112.26847
"35210",469.2152,82.41093,112.00559
"35211",469.22852,82.07645,111.74645
"35212",469.24182,81.75418,111.489075
"35213",469.25513,81.44167,111.231384
"35214",469.26843,81.163345,110.99811
"35215",469.28174,80.94606,110.81718
"35216",469.29504,80.814224,110.714905
"35217",469.30835,80.77028,110.6964
"35218",469.32166,80.80202,110.75221
"35219",469.33496,80.87282,110.848076
"35220",469.34827,80.955826,110.95836
"35221",469.36157,81.02663,111.05903
"35222",469.37488,81.05348,111.117966
"35223",469.38818,81.01686,111.114265
"35224",469.4015,80.91676,111.045944
"35225",469.4148,80.743416,110.901245
"35226",469.4281,80.49439,110.67545
"35227",469.4414,80.2063,110.40281
"35228",469.4547,79.90845,110.111404
"35229",469.46802,79.635,109.8351
"35230",469.48132,79.40795,109.59664
"35231",469.49463,79.219955,109.390144
"35232",469.50793,79.0515,109.19731
"35233",469.52124,78.90013,109.016304
"35234",469.53455,78.765854,108.84766
"35235",469.54785,78.63157,108.674805
"35236",469.56116,78.53147,108.531944
"35237",469.57446,78.450905,108.40549
"35238",469.58777,78.365456,108.27163
"35239",469.60107,78.277565,108.13266
"35240",469.61438,78.18967,107.99094
"35241",469.6277,78.116425,107.86112
"35242",469.641,78.0798,107.76564
"35243",469.6543,78.09201,107.71784
"35244",469.6676,78.21652,107.78273
"35245",469.6809,78.52903,108.039505
"35246",469.6942,79.0515,108.51601
"35247",469.70752,79.781494,109.21636
"35248",469.72083,80.69947,110.12751
"35249",469.73413,81.70779,111.157684
"35250",469.74744,82.684364,112.18763
"35251",469.76074,83.51202,113.09917
"35252",469.77405,84.11261,113.80951
"35253",469.78735,84.46662,114.29204
"35254",469.80066,84.5716,114.5366
"35255",469.81396,84.4593,114.567154
"35256",469.82727,84.19318,114.440384
"35257",469.84058,83.8465,114.22474
"35258",469.85388,83.475395,113.97384
"35259",469.8672,83.11162,113.718666
"35260",469.8805,82.75029,113.454575
"35261",469.8938,82.39628,113.18651
"35262",469.9071,82.056915,112.92203
"35263",469.9204,81.71999,112.64938
"35264",469.93372,81.42458,112.40772
"35265",469.94702,81.20729,112.23495
"35266",469.96033,81.075455,112.14084
"35267",469.97363,81.02663,112.12562
"35268",469.98694,81.06569,112.19676
"35269",470.00024,81.1487,112.31307
"35270",470.01355,81.23903,112.4393
"35271",470.02686,81.31472,112.55371
"35272",470.04016,81.339134,112.61921
"35273",470.05347,81.2781,112.60002
"35274",470.06677,81.14137,112.503235
"35275",470.08008,80.92653,112.32406
"35276",470.09338,80.655525,112.08201
"35277",470.1067,80.35523,111.8022
"35278",470.12,80.06958,111.52765
"35279",470.1333,79.80591,111.26615
"35280",470.1466,79.569084,111.02326
"35281",470.1599,79.37133,110.81204
"35282",470.17322,79.200424,110.62149
"35283",470.19983,78.856186,110.22194
"35284",470.21313,78.69749,110.0275
"35285",470.22644,78.54124,109.83054
"35286",470.23975,78.38987,109.63359
"35287",470.25305,78.27268,109.46609
"35288",470.26636,78.1799,109.31933
"35289",470.27966,78.12863,109.21118
"35290",470.29297,78.16037,109.18444
"35291",470.30627,78.32151,109.28809
"35292",470.31958,78.66819,109.58232
"35293",470.3329,79.26147,110.13398
"35294",470.3462,80.096436,110.94587
"35295",470.3595,81.109634,111.96208
"35296",470.3728,82.2034,113.09052
"35297",470.3861,83.250786,114.206764
"35298",470.3994,84.12482,115.18238
"35299",470.41272,84.7425,115.92896
"35300",470.42603,85.07698,116.411644
"35301",470.43933,85.152664,116.64598
"35302",470.45264,85.013504,116.66784
"35303",470.46594,84.73029,116.5413
"35304",470.47925,84.37629,116.33511
"35305",470.49255,84.017395,116.112976
"35306",470.50586,83.66827,115.88939
"35307",470.51917,83.32159,115.65734
"35308",470.53247,82.97734,115.41689
"35309",470.54578,82.62333,115.15592
"35310",470.55908,82.262,114.87657
"35311",470.5724,81.9202,114.60545
"35312",470.5857,81.636986,114.38225
"35313",470.599,81.43435,114.23077
"35314",470.6123,81.31716,114.1584
"35315",470.6256,81.26589,114.14829
"35316",470.63892,81.25124,114.1732
"35317",470.65222,81.23903,114.20009
"35318",470.66553,81.19508,114.19486
"35319",470.67883,81.10475,114.14188
"35320",470.69214,80.953384,114.02503
"35321",470.70544,80.73365,113.83509
"35322",470.71875,80.45289,113.577255
"35323",470.73206,80.14038,113.2789
"35324",470.74536,79.84253,112.985435
"35325",470.75867,79.58129,112.71928
"35326",470.77197,79.35424,112.47914
"35327",470.78528,79.151596,112.25632
"35328",470.79858,78.96361,112.04182
"35329",470.8119,78.76097,111.80679
"35330",470.8252,78.551,111.558105
"35331",470.8385,78.365456,111.32728
"35332",470.8518,78.204315,111.11506
"35333",470.8651,78.07004,110.92467
"35334",470.87842,77.962616,110.756935
"35335",470.89172,77.86252,110.59317
"35336",470.90503,77.786835,110.45069
"35337",470.91833,77.77707,110.371765
"35338",470.93164,77.89426,110.41949
"35339",470.94495,78.22629,110.685715
"35340",470.95825,78.84642,111.25042
"35341",470.97156,79.742424,112.110374
"35342",470.98486,80.850845,113.21075
"35343",470.99817,82.04715,114.43364
"35344",471.01147,83.16533,115.61579
"35345",471.02478,84.08087,116.63025
"35346",471.0381,84.7132,117.39011
"35347",471.0514,85.04524,117.86943
"35348",471.0647,85.135574,118.117424
"35349",471.078,85.05257,118.1949
"35350",471.0913,84.84749,118.14771
"35351",471.1046,84.59846,118.05016
"35352",471.11792,84.32746,117.92287
"35353",471.13123,84.02716,117.7578
"35354",471.14453,83.69512,117.551605
"35355",471.15784,83.319145,117.2911
"35356",471.17114,82.89189,116.96757
"35357",471.18445,82.442665,116.60871
"35358",471.19775,82.003204,116.24558
"35359",471.21106,81.60769,115.91267
"35360",471.22437,81.2781,115.633316
"35361",471.23767,81.0193,115.41446
"35362",471.25098,80.84108,115.26809
"35363",471.26428,80.719,115.172295
"35364",471.2776,80.601814,115.077576
"35365",471.2909,80.482185,114.97675
"35366",471.3042,80.32838,114.83801
"35367",471.3175,80.10864,114.62854
"35368",471.3308,79.83032,114.353615
"35369",471.34412,79.49828,114.01627
"35370",471.35742,79.1223,113.62461
"35371",471.37073,78.73899,113.213875
"35372",471.38403,78.365456,112.800934
"35373",471.39734,78.00656,112.39096
"35374",471.41064,77.67208,111.99419
"35375",471.42395,77.37667,111.62603
"35376",471.43726,77.10811,111.27549
"35377",471.45056,76.88106,110.95807
"35378",471.46387,76.69062,110.670166
"35379",471.47717,76.52949,110.40562
"35380",471.49048,76.402534,110.17021
"35381",471.50378,76.297554,109.95281
"35382",471.5171,76.192566,109.732124
"35383",471.5304,76.08026,109.50084
"35384",471.5437,75.97772,109.27581
"35385",471.557,75.8996,109.07199
"35386",471.5703,75.877625,108.92188
"35387",471.58362,75.9704,108.88583
"35388",471.59692,76.27558,109.065094
"35389",471.61023,76.841995,109.51512
"35390",471.62354,77.67452,110.24896
"35391",471.63684,78.74876,111.25053
"35392",471.65015,79.9646,112.42727
"35393",471.66345,81.17311,113.634674
"35394",471.67676,82.2327,114.73092
"35395",471.69006,83.038376,115.60637
"35396",471.70337,83.54131,116.204254
"35397",471.71667,83.775696,116.5493
"35398",471.72998,83.7879,116.6795
"35399",471.7433,83.65362,116.66358
"35400",471.7566,83.45342,116.57756
"35401",471.7699,83.23125,116.4633
"35402",471.7832,82.97978,116.31281
"35403",471.7965,82.69657,116.12272
"35404",471.8098,82.36942,115.87984
"35405",471.82312,81.969025,115.55348
"35406",471.83643,81.51736,115.163345
"35407",471.84973,81.05104,114.744446
"35408",471.86304,80.61402,114.34027
"35409",471.87634,80.25269,113.99813
"35410",471.88965,79.98901,113.74235
"35411",471.90295,79.81079,113.56378
"35412",471.91626,79.691154,113.43823
"35413",471.92957,79.5935,113.330925
"35414",471.94287,79.48608,113.2108
"35415",471.95618,79.344475,113.05314
"35416",471.96948,79.16136,112.84954
"35417",471.9828,78.91966,112.581635
"35418",471.9961,78.624245,112.25246
"35419",472.0094,78.2971,111.88232
"35420",472.0227,77.95529,111.4873
"35421",472.036,77.625694,111.0938
"35422",472.04932,77.3254,110.719315
"35423",472.06262,77.0544,110.36473
"35424",472.07593,76.805374,110.02366
"35425",472.08923,76.578316,109.69677
"35426",472.10254,76.368355,109.37988
"35427",472.11584,76.18768,109.085724
"35428",472.12915,76.04364,108.82255
"35429",472.14246,75.92157,108.57684
"35430",472.15576,75.81903,108.346855
"35431",472.16907,75.7409,108.13807
"35432",472.18237,75.67498,107.93906
"35433",472.19568,75.61639,107.74531
"35434",472.20898,75.58221,107.57414
"35435",472.2223,75.57244,107.42632
"35436",472.2356,75.56512,107.28064
"35437",472.2489,75.545586,107.12252
"35438",472.2622,75.52117,106.95891
"35439",472.2755,75.47234,106.77012
"35440",472.28882,75.39422,106.55051
"35441",472.30212,75.30877,106.32113
"35442",472.31543,75.23308,106.09884
"35443",472.32874,75.16228,105.879074
"35444",472.34204,75.11101,105.67663
"35445",472.35535,75.09148,105.50432
"35446",472.36865,75.13054,105.38999
"35447",472.38196,75.29656,105.40385
"35448",472.39526,75.667656,105.62796
"35449",472.40857,76.3122,106.13712
"35450",472.42188,77.261925,106.9716
"35451",472.43518,78.45579,108.0799
"35452",472.4485,79.74975,109.32561
"35453",472.4618,81.004654,110.57269
"35454",472.4751,82.08621,111.685646
"35455",472.4884,82.88945,112.55408
"35456",472.5017,83.404594,113.159515
"35457",472.515,83.65118,113.51249
"35458",472.52832,83.69512,113.67053
"35459",472.54163,83.617,113.70788
"35460",472.55493,83.47051,113.67442
"35461",472.56824,83.30694,113.6193
"35462",472.58154,83.14824,113.56394
"35463",472.59485,82.96269,113.476776
"35464",472.60815,82.70634,113.313
"35465",472.62146,82.36942,113.06066
"35466",472.63477,81.94705,112.71233
"35467",472.64807,81.480736,112.30686
"35468",472.66138,81.03395,111.90635
"35469",472.67468,80.6482,111.55291
"35470",472.688,80.37476,111.29973
"35471",472.7013,80.20874,111.14542
"35472",472.7146,80.11841,111.06161
"35473",472.7279,80.0647,111.0116
"35474",472.7412,79.9939,110.94282
"35475",472.75452,79.87671,110.82544
"35476",472.76782,79.691154,110.63603
"35477",472.78113,79.432365,110.36759
"35478",472.79443,79.12962,110.04711
"35479",472.80774,78.819565,109.709854
"35480",472.82104,78.49973,109.353134
"35481",472.83435,78.18234,108.98886
"35482",472.84766,77.90646,108.65618
"35483",472.86096,77.66476,108.34905
"35484",472.87427,77.454796,108.06612
"35485",472.88757,77.279015,107.8108
"35486",472.90088,77.13252,107.57928
"35487",472.91418,77.00557,107.36272
"35488",472.9275,76.893265,107.15684
"35489",472.9408,76.78584,106.95233
"35490",472.9541,76.68818,106.75423
"35491",472.9674,76.612495,106.57505
"35492",472.9807,76.54902,106.405716
"35493",472.99402,76.49775,106.246605
"35494",473.00732,76.470894,106.110306
"35495",473.02063,76.44892,105.97805
"35496",473.03394,76.42939,105.84755
"35497",473.04724,76.41718,105.72376
"35498",473.06055,76.422066,105.616684
"35499",473.07385,76.42939,105.5122
"35500",473.08716,76.42939,105.40062
"35501",473.10046,76.42451,105.28416
"35502",473.11377,76.404976,105.15289
"35503",473.12708,76.34638,104.98196
"35504",473.14038,76.26826,104.78966
"35505",473.1537,76.19501,104.59979
"35506",473.167,76.12665,104.41253
"35507",473.1803,76.07782,104.24266
"35508",473.1936,76.07294,104.11521
"35509",473.2069,76.12665,104.0462
"35510",473.2202,76.28535,104.08386
"35511",473.23352,76.6247,104.30714
"35512",473.24683,77.20332,104.78028
"35513",473.26013,78.048065,105.53763
"35514",473.27344,79.11742,106.54598
"35515",473.28674,80.29664,107.697624
"35516",473.30005,81.444115,108.85437
"35517",473.31335,82.42802,109.8834
"35518",473.32666,83.13359,110.66485
"35519",473.33997,83.53887,111.16805
"35520",473.35327,83.700005,111.43977
"35521",473.36658,83.67071,111.5261
"35522",473.37988,83.51934,111.48944
"35523",473.3932,83.32891,111.40899
"35524",473.4065,83.14336,111.32746
"35525",473.4198,82.967575,111.24991
"35526",473.4331,82.78691,111.16198
"35527",473.4464,82.57694,111.0391
"35528",473.45972,82.303505,110.84619
"35529",473.47302,81.9617,110.57637
"35530",473.48633,81.57595,110.25192
"35531",473.49963,81.1902,109.91542
"35532",473.51294,80.848404,109.61082
"35533",473.52625,80.5774,109.366325
"35534",473.53955,80.38209,109.18906
"35535",473.55286,80.25025,109.06916
"35536",473.56616,80.15259,108.97932
"35537",473.57947,80.05493,108.88643
"35538",473.59277,79.940186,108.7734
"35539",473.60608,79.80347,108.63481
"35540",473.6194,79.62524,108.45044
"35541",473.6327,79.40795,108.22144
"35542",473.646,79.168686,107.96368
"35543",473.6593,78.93675,107.705765
"35544",473.6726,78.709694,107.44548
"35545",473.6859,78.485085,107.18055
"35546",473.69922,78.2678,106.915924
"35547",473.71252,78.0676,106.66159
"35548",473.72583,77.87717,106.410774
"35549",473.73914,77.69894,106.16621
"35550",473.75244,77.55245,105.947815
"35551",473.76575,77.44503,105.76391
"35552",473.77905,77.37423,105.613266
"35553",473.79236,77.3254,105.48238
"35554",473.80566,77.315636,105.38904
"35555",473.81897,77.33761,105.327126
"35556",473.83228,77.347374,105.25369
"35557",473.84558,77.33761,105.16103
"35558",473.8589,77.32052,105.060745
"35559",473.8722,77.2839,104.94039
"35560",473.8855,77.23506,104.80668
"35561",473.8988,77.196,104.68121
"35562",473.9121,77.16182,104.55941
"35563",473.9254,77.13252,104.44142
"35564",473.93872,77.11299,104.33228
"35565",473.95203,77.09346,104.222534
"35566",473.96533,77.07149,104.10973
"35567",473.97864,77.07393,104.02066
"35568",473.99194,77.07881,103.934105
"35569",474.00525,77.07881,103.84282
"35570",474.01855,77.07393,103.74665
"35571",474.03186,77.066605,103.64789
"35572",474.04517,77.051956,103.54157
"35573",474.05847,77.0251,103.42259
"35574",474.07178,76.98604,103.290565
"35575",474.08508,76.981155,103.1915
"35576",474.0984,77.04707,103.16308
"35577",474.1117,77.23262,103.25635
"35578",474.125,77.642784,103.58003
"35579",474.1383,78.331276,104.19486
"35580",474.1516,79.27123,105.08267
"35581",474.16492,80.38697,106.17564
"35582",474.17822,81.54177,107.34253
"35583",474.19153,82.564735,108.41367
"35584",474.20483,83.34112,109.2702
"35585",474.21814,83.81232,109.84581
"35586",474.23145,84.01251,110.16514
"35587",474.24475,84.02228,110.30029
"35588",474.25806,83.90753,110.31124
"35589",474.27136,83.74883,110.27465
"35590",474.28467,83.58282,110.225784
"35591",474.29797,83.424126,110.179054
"35592",474.31128,83.27764,110.13957
"35593",474.3246,83.13359,110.097946
"35594",474.3379,82.94316,110.00544
"35595",474.3512,82.70878,109.86303
"35596",474.3645,82.423134,109.66203
"35597",474.3778,82.09598,109.4106
"35598",474.3911,81.76883,109.14895
"35599",474.40442,81.48562,108.92101
"35600",474.41772,81.25613,108.737946
"35601",474.43103,81.0901,108.611176
"35602",474.44434,80.972916,108.52805
"35603",474.45764,80.87526,108.4608
"35604",474.47095,80.782486,108.39538
"35605",474.48425,80.67506,108.3124
"35606",474.49756,80.5359,108.194336
"35607",474.51086,80.36744,108.042625
"35608",474.52417,80.17212,107.85879
"35609",474.53748,79.94263,107.634674
"35610",474.55078,79.71313,107.40338
"35611",474.5641,79.483635,107.164925
"35612",474.5774,79.24925,106.914406
"35613",474.5907,79.0222,106.663895
"35614",474.604,78.81224,106.42338
"35615",474.6173,78.624245,106.198265
"35616",474.6306,78.45335,105.984375
"35617",474.64392,78.314186,105.79688
"35618",474.65723,78.21164,105.641655
"35619",474.67053,78.133514,105.507645
"35620",474.68384,78.048065,105.36387
"35621",474.69714,77.97238,105.22719
"35622",474.71045,77.908905,105.10035
"35623",474.72375,77.855194,104.98129
"35624",474.73706,77.83566,104.89474
"35625",474.75037,77.84787,104.83931
"35626",474.76367,77.872284,104.79647
"35627",474.77698,77.891815,104.74951
"35628",474.79028,77.88449,104.67631
"35629",474.8036,77.83566,104.56137
"35630",474.8169,77.76242,104.420494
"35631",474.8302,77.68673,104.27488
"35632",474.8435,77.611046,104.12691
"35633",474.8568,77.5671,104.00831
"35634",474.87012,77.54757,103.91275
"35635",474.88342,77.53292,103.821465
"35636",474.89673,77.51827,103.72972
"35637",474.91003,77.51583,103.64973
"35638",474.92334,77.51827,103.57454
"35639",474.93665,77.5256,103.50431
"35640",474.94995,77.53536,103.43675
"35641",474.96326,77.54513,103.3695
"35642",474.97656,77.54513,103.292786
"35643",474.98987,77.53292,103.203865
"35644",475.00317,77.5256,103.119446
"35645",475.01648,77.540245,103.05677
"35646",475.0298,77.58419,103.02385
"35647",475.0431,77.64034,103.00451
"35648",475.0564,77.72335,103.01378
"35649",475.0697,77.88449,103.103775
"35650",475.083,78.19211,103.34528
"35651",475.0963,78.71702,103.8137
"35652",475.10962,79.50561,104.562195
"35653",475.12292,80.50904,105.55018
"35654",475.13623,81.62722,106.684265
"35655",475.14954,82.70878,107.81667
"35656",475.16284,83.61944,108.81198
"35657",475.17615,84.27131,109.57696
"35658",475.18945,84.63996,110.07909
"35659",475.20276,84.76448,110.3486
"35660",475.21606,84.70588,110.43889
"35661",475.22937,84.542305,110.42237
"35662",475.24268,84.3299,110.35191
"35663",475.25598,84.119934,110.27725
"35664",475.2693,83.93439,110.22045
"35665",475.2826,83.77814,110.18715
"35666",475.2959,83.614555,110.14163
"35667",475.3092,83.41192,110.05195
"35668",475.3225,83.16289,109.90954
"35669",475.33582,82.847946,109.693436
"35670",475.34912,82.4744,109.40889
"35671",475.36243,82.091095,109.102905
"35672",475.37573,81.75662,108.83378
"35673",475.38904,81.51736,108.64941
"35674",475.40234,81.38064,108.560104
"35675",475.41565,81.32693,108.54954
"35676",475.42896,81.29275,108.55682
"35677",475.44226,81.248795,108.55327
"35678",475.45557,81.163345,108.50684
"35679",475.46887,81.01198,108.39183
"35680",475.48218,80.82155,108.233025
"35681",475.49548,80.6067,108.043846
"35682",475.5088,80.36256,107.818665
"35683",475.5221,80.09888,107.566315
"35684",475.5354,79.83765,107.308174
"35685",475.5487,79.5935,107.05895
"35686",475.562,79.39086,106.84361
"35687",475.57532,79.21019,106.643906
"35688",475.58862,79.05394,106.462975
"35689",475.60193,78.924545,106.304016
"35690",475.61523,78.79515,106.141014
"35691",475.62854,78.65354,105.961754
"35692",475.64185,78.53147,105.79761
"35693",475.65515,78.42649,105.646736
"35694",475.66846,78.345924,105.517
"35695",475.68176,78.28733,105.406715
"35696",475.69507,78.24338,105.30924
"35697",475.70837,78.221405,105.232376
"35698",475.72168,78.204315,105.159706
"35699",475.735,78.17746,105.07674
"35700",475.7483,78.15793,105.00025
"35701",475.7616,78.16281,104.94757
"35702",475.7749,78.1799,104.90725
"35703",475.7882,78.19943,104.8699
"35704",475.8015,78.19699,104.811195
"35705",475.81482,78.17258,104.73044
"35706",475.82812,78.12863,104.62939
"35707",475.84143,78.05539,104.497665
"35708",475.85474,77.97482,104.35633
"35709",475.86804,77.91867,104.23689
"35710",475.88135,77.88449,104.13767
"35711",475.89465,77.86252,104.04959
"35712",475.90796,77.86008,103.980354
"35713",475.92126,77.86496,103.918365
"35714",475.93457,77.874725,103.86141
"35715",475.94788,77.88693,103.807205
"35716",475.96118,77.89914,103.75338
"35717",475.9745,77.91379,103.70238
"35718",475.9878,77.9382,103.6616
"35719",476.0011,77.945526,103.60449
"35720",476.0144,77.93576,103.530525
"35721",476.0277,77.92844,103.458694
"35722",476.04102,77.925995,103.39152
"35723",476.05432,77.977264,103.377975
"35724",476.06763,78.15793,103.49543
"35725",476.08093,78.536354,103.81629
"35726",476.09424,79.151596,104.385796
"35727",476.10754,80.00366,105.21135
"35728",476.12085,81.04616,106.25396
"35729",476.13416,82.16922,107.40971
"35730",476.14746,83.22392,108.5322
"35731",476.16077,84.08331,109.49234
"35732",476.17407,84.67414,110.21077
"35733",476.18738,84.962234,110.64493
"35734",476.20068,84.99153,110.82929
"35735",476.214,84.85481,110.84856
"35736",476.2273,84.630196,110.77565
"35737",476.2406,84.38361,110.67376
"35738",476.2539,84.16632,110.59345
"35739",476.2672,83.97101,110.528336
"35740",476.28052,83.78058,110.462
"35741",476.29382,83.58282,110.38238
"35742",476.30713,83.35821,110.26973
"35743",476.32043,83.104294,110.12076
"35744",476.33374,82.83086,109.94433
"35745",476.34705,82.53788,109.739815
"35746",476.36035,82.247345,109.52859
"35747",476.37366,81.99588,109.34735
"35748",476.38696,81.78104,109.19488
"35749",476.40027,81.60769,109.07719
"35750",476.41357,81.49294,109.01268
"35751",476.42688,81.41726,108.98365
"35752",476.4402,81.339134,108.949814
"35753",476.4535,81.23659,108.889114
"35754",476.4668,81.109634,108.800804
"35755",476.4801,80.93385,108.6597
"35756",476.4934,80.71412,108.46915
"35757",476.5067,80.47486,108.252205
"35758",476.52002,80.22339,108.01557
"35759",476.53333,79.96216,107.76132
"35760",476.54663,79.70092,107.4989
"35761",476.55994,79.449455,107.23809
"35762",476.57324,79.219955,106.99139
"35763",476.58655,79.012436,106.75949
"35764",476.59985,78.83177,106.547966
"35765",476.61316,78.68772,106.36741
"35766",476.62646,78.56809,106.20677
"35767",476.63977,78.45823,106.05216
"35768",476.65308,78.363014,105.90877
"35769",476.66638,78.28245,105.77705
"35770",476.6797,78.21896,105.65989
"35771",476.693,78.170135,105.555405
"35772",476.7063,78.13107,105.45916
"35773",476.7196,78.11154,105.381226
"35774",476.7329,78.101776,105.31245
"35775",476.74622,78.082245,105.2336
"35776",476.75952,78.05051,105.14193
"35777",476.77283,78.02365,105.05415
"35778",476.78613,77.99924,104.96798
"35779",476.79944,77.97238,104.8786
"35780",476.81274,77.95041,104.79327
"35781",476.82605,77.943085,104.72189
"35782",476.83936,77.93576,104.65029
"35783",476.85266,77.92355,104.57358
"35784",476.86597,77.91135,104.49648
"35785",476.87927,77.91623,104.4361
"35786",476.89258,77.91623,104.37098
"35787",476.90588,77.91867,104.308304
"35788",476.9192,77.93332,104.25791
"35789",476.9325,77.95041,104.21042
"35790",476.9458,77.95285,104.14881
"35791",476.9591,77.945526,104.077515
"35792",476.9724,77.92355,103.99134
"35793",476.98572,77.891815,103.894714
"35794",476.99902,77.8674,103.80442
"35795",477.01233,77.85031,103.72069
"35796",477.02563,77.857635,103.660835
"35797",477.03894,77.925995,103.66225
"35798",477.05225,78.12131,103.79275
"35799",477.06555,78.53147,104.1442
"35800",477.07886,79.21507,104.78191
"35801",477.09216,80.15015,105.69246
"35802",477.10547,81.26101,106.808014
"35803",477.11877,82.41581,108.00222
"35804",477.13208,83.45342,109.115326
"35805",477.1454,84.26887,110.03869
"35806",477.1587,84.823074,110.726295
"35807",477.172,85.09651,111.15045
"35808",477.1853,85.14046,111.35366
"35809",477.1986,85.01106,111.3849
"35810",477.2119,84.77425,111.30468
"35811",477.22522,84.505684,111.18531
"35812",477.23853,84.242004,111.06243
"35813",477.25183,83.99298,110.94597
"35814",477.26514,83.76105,110.83881
"35815",477.27844,83.51934,110.71464
"35816",477.29175,83.24834,110.55361
"35817",477.30505,82.95293,110.35971
"35818",477.31836,82.64042,110.13948
"35819",477.33167,82.33036,109.911934
"35820",477.34497,82.04959,109.70399
"35821",477.35828,81.80789,109.52634
"35822",477.37158,81.64187,109.41681
"35823",477.3849,81.54177,109.36802
"35824",477.3982,81.47585,109.35028
"35825",477.4115,81.43435,109.3549
"35826",477.4248,81.392845,109.358215
"35827",477.4381,81.31228,109.321175
"35828",477.45142,81.18532,109.23522
"35829",477.46472,81.01198,109.09892
"35830",477.47803,80.78981,108.90838
"35831",477.49133,80.54078,108.68403
"35832",477.50464,80.272224,108.43237
"35833",477.51794,79.9939,108.16255
"35834",477.53125,79.727776,107.89624
"35835",477.54456,79.47875,107.63871
"35836",477.55786,79.25414,107.39781
"35837",477.57117,79.063705,107.18407
"35838",477.58447,78.91234,107.00344
"35839",477.59778,78.785385,106.8425
"35840",477.61108,78.6804,106.699554
"35841",477.6244,78.57542,106.55334
"35842",477.6377,78.470436,106.40384
"35843",477.651,78.39475,106.28036
"35844",477.6643,78.348366,106.18381
"35845",477.6776,78.32151,106.10534
"35846",477.69092,78.311745,106.04312
"35847",477.70422,78.3093,105.98792
"35848",477.71753,78.294655,105.92044
"35849",477.73083,78.24338,105.81587
"35850",477.74414,78.170135,105.68774
"35851",477.75745,78.101776,105.562195
"35852",477.77075,78.030975,105.432076
"35853",477.78406,77.960175,105.29974
"35854",477.79736,77.90402,105.17985
"35855",477.81067,77.86252,105.072845
"35856",477.82397,77.81857,104.962105
"35857",477.83728,77.7673,104.84267
"35858",477.8506,77.71603,104.72162
"35859",477.8639,77.67696,104.61118
"35860",477.8772,77.66476,104.52638
"35861",477.8905,77.662315,104.450966
"35862",477.9038,77.65255,104.36815
"35863",477.9171,77.64034,104.282585
"35864",477.93042,77.61837,104.186874
"35865",477.94373,77.58175,104.07583
"35866",477.95703,77.54757,103.96608
"35867",477.97034,77.53048,103.87235
"35868",477.98364,77.51583,103.78053
"35869",477.99695,77.50851,103.69558
"35870",478.01025,77.55489,103.66411
"35871",478.02356,77.71114,103.74395
"35872",478.03687,78.05783,104.01911
"35873",478.05017,78.677956,104.578545
"35874",478.06348,79.57397,105.43324
"35875",478.07678,80.6775,106.52346
"35876",478.0901,81.87869,107.74583
"35877",478.1034,83.038376,108.96422
"35878",478.1167,84.02228,110.04307
"35879",478.13,84.75227,110.89876
"35880",478.1433,85.206375,111.501366
"35881",478.15662,85.40902,111.86671
"35882",478.16992,85.399254,112.02597
"35883",478.18323,85.23323,112.02867
"35884",478.19653,84.98421,111.943184
"35885",478.20984,84.698555,111.813286
"35886",478.22314,84.3885,111.650055
"35887",478.23645,84.08331,111.48201
"35888",478.24976,83.792786,111.319084
"35889",478.26306,83.49004,111.134865
"35890",478.27637,83.160446,110.91433
"35891",478.28967,82.81621,110.66885
"35892",478.30298,82.47929,110.41994
"35893",478.31628,82.16678,110.184906
"35894",478.3296,81.90311,109.988945
"35895",478.3429,81.71023,109.85554
"35896",478.3562,81.600365,109.79912
"35897",478.3695,81.55154,109.8003
"35898",478.3828,81.52224,109.81949
"35899",478.39612,81.47585,109.82067
"35900",478.40942,81.40261,109.79355
"35901",478.42273,81.27566,109.71043
"35902",478.43604,81.06813,109.54276
"35903",478.44934,80.80446,109.31247
"35904",478.46265,80.51392,109.04707
"35905",478.47595,80.201416,108.750626
"35906",478.48926,79.8645,108.420006
"35907",478.50256,79.54955,108.10082
"35908",478.51587,79.273674,107.81087
"35909",478.52917,79.027084,107.54158
"35910",478.54248,78.81468,107.298775
"35911",478.5558,78.643776,107.09083
"35912",478.5691,78.49973,106.9044
"35913",478.5824,78.38499,106.742775
"35914",478.5957,78.277565,106.584885
"35915",478.609,78.18234,106.43584
"35916",478.6223,78.12619,106.32288
"35917",478.63562,78.07492,106.21306
"35918",478.64893,77.994354,106.072334
"35919",478.66223,77.908905,105.92421
"35920",478.67554,77.84543,105.79539
"35921",478.68884,77.79904,105.68167
"35922",478.70215,77.79416,105.60801
"35923",478.71545,77.840546,105.585464
"35924",478.72876,77.93088,105.608315
"35925",478.74207,78.02121,105.63399
"35926",478.75537,78.07736,105.6283
"35927",478.76868,78.09201,105.58287
"35928",478.78198,78.09689,105.52813
"35929",478.7953,78.0798,105.45157
"35930",478.8086,78.05051,105.36227
"35931",478.8219,78.04074,105.29158
"35932",478.8352,78.05051,105.24012
"35933",478.8485,78.08469,105.21338
"35934",478.86182,78.13107,105.19991
"35935",478.87512,78.17746,105.1879
"35936",478.88843,78.21164,105.16512
"35937",478.90173,78.21408,105.11168
"35938",478.91504,78.167694,105.00948
"35939",478.92834,78.09201,104.87654
"35940",478.94165,77.994354,104.71926
"35941",478.95496,77.8967,104.55893
"35942",478.96826,77.83078,104.427284
"35943",478.98157,77.84787,104.37659
"35944",478.99487,78.02609,104.48756
"35945",479.00818,78.45579,104.85557
"35946",479.02148,79.17113,105.52265
"35947",479.0348,80.17212,106.49774
"35948",479.0481,81.38796,107.71896
"35949",479.0614,82.69169,109.06606
"35950",479.0747,83.92462,110.38311
"35951",479.088,84.96712,111.54825
"35952",479.10132,85.71664,112.45299
"35953",479.11462,86.1561,113.07109
"35954",479.12793,86.30259,113.40996
"35955",479.14124,86.21225,113.51657
"35956",479.15454,85.98276,113.48121
"35957",479.16785,85.72396,113.40937
"35958",479.18115,85.46029,113.32457
"35959",479.19446,85.21614,113.25105
"35960",479.20776,84.998856,113.19677
"35961",479.22107,84.76448,113.11861
"35962",479.23438,84.488594,112.99161
"35963",479.24768,84.17853,112.82181
"35964",479.261,83.86847,112.64233
"35965",479.2743,83.57305,112.4678
"35966",479.2876,83.32647,112.33287
"35967",479.3009,83.14824,112.25859
"35968",479.3142,83.02861,112.23734
"35969",479.3275,82.950485,112.25386
"35970",479.34082,82.90654,112.30212
"35971",479.35413,82.88457,112.37097
"35972",479.36743,82.84306,112.41961
"35973",479.38074,82.75029,112.41568
"35974",479.39404,82.59647,112.34781
"35975",479.40735,82.36942,112.2019
"35976",479.42065,82.06668,111.9732
"35977",479.43396,81.71023,111.68133
"35978",479.44727,81.324486,111.34903
"35979",479.46057,80.938736,111.00467
"35980",479.47388,80.57984,110.67511
"35981",479.48718,80.24536,110.35875
"35982",479.5005,79.940186,110.06124
"35983",479.5138,79.676506,109.79569
"35984",479.5271,79.432365,109.54144
"35985",479.5404,79.19066,109.282
"35986",479.5537,78.96605,109.0321
"35987",479.56702,78.76097,108.79471
"35988",479.58032,78.555885,108.5509
"35989",479.59363,78.363014,108.312904
"35990",479.60693,78.20187,108.10061
"35991",479.62024,78.07004,107.91258
"35992",479.63354,77.95773,107.73997
"35993",479.64685,77.874725,107.59314
"35994",479.66016,77.81857,107.47057
"35995",479.67346,77.77219,107.35602
"35996",479.68677,77.71847,107.23268
"35997",479.70007,77.662315,107.10523
"35998",479.71338,77.60128,106.971146
"35999",479.72668,77.53292,106.82783
"36000",479.74,77.45968,106.67749
"36001",479.7533,77.37667,106.5151
"36002",479.7666,77.28878,106.34523
"36003",479.7799,77.19112,106.16284
"36004",479.7932,77.09834,105.98229
"36005",479.80652,77.02998,105.82326
"36006",479.81982,77.032425,105.73289
"36007",479.83313,77.16914,105.77687
"36008",479.84644,77.52804,106.0473
"36009",479.85974,78.187225,106.62924
"36010",479.87305,79.14671,107.53208
"36011",479.88635,80.34058,108.69929
"36012",479.89966,81.651634,110.02098
"36013",479.91296,82.93584,111.3568
"36014",479.92627,84.03937,112.55207
"36015",479.93958,84.86458,113.50351
"36016",479.95288,85.39193,114.18288
"36017",479.9662,85.64095,114.600395
"36018",479.9795,85.65804,114.79376
"36019",479.9928,85.506676,114.81921
"36020",480.0061,85.25033,114.73494
"36021",480.0194,84.93294,114.58162
"36022",480.0327,84.576485,114.37932
"36023",480.04602,84.20294,114.14879
"36024",480.05933,83.82208,113.89927
"36025",480.07263,83.43633,113.63296
"36026",480.08594,83.055466,113.359474
"36027",480.09924,82.70634,113.10583
"36028",480.11255,82.38651,112.870575
"36029",480.12585,82.12039,112.67903
"36030",480.13916,81.92508,112.54998
"36031",480.15247,81.78348,112.46854
"36032",480.16577,81.705345,112.44614
"36033",480.17908,81.688255,112.48234
"36034",480.19238,81.685814,112.53265
"36035",480.2057,81.651634,112.551155
"36036",480.219,81.57595,112.527084
"36037",480.2323,81.43191,112.43229
"36038",480.2456,81.214615,112.25974
"36039",480.2589,80.92897,112.012054
"36040",480.27222,80.58961,111.70172
"36041",480.28552,80.23804,111.368576
"36042",480.29883,79.88403,111.02201
"36043",480.31213,79.5227,110.65705
"36044",480.32544,79.19066,110.3101
"36045",480.33875,78.8806,109.97475
"36046",480.35205,78.58274,109.64191
"36047",480.36536,78.30442,109.3193
"36048",480.37866,78.05295,109.01484
"36049",480.39197,77.823456,108.7245
"36050",480.40527,77.62325,108.45628
"36051",480.41858,77.44503,108.20379
"36052",480.4319,77.279015,107.95793
"36053",480.4452,77.1252,107.719086
"36054",480.4585,76.98604,107.49009
"36055",480.4718,76.90059,107.310455
"36056",480.4851,76.859085,107.1721
"36057",480.4984,76.83467,107.04953
"36058",480.51172,76.82735,106.94329
"36059",480.52502,76.81758,106.83438
"36060",480.53833,76.771194,106.688545
"36061",480.55164,76.70527,106.52172
"36062",480.56494,76.63691,106.3504
"36063",480.57825,76.56611,106.17451
"36064",480.59155,76.5124,106.01349
"36065",480.60486,76.5124,105.9045
"36066",480.61816,76.629585,105.912704
"36067",480.63147,76.927444,106.10524
"36068",480.64478,77.45968,106.54146
"36069",480.65808,78.26536,107.26775
"36070",480.6714,79.33959,108.28778
"36071",480.6847,80.59693,109.52448
"36072",480.698,81.898224,110.84443
"36073",480.7113,83.12138,112.12691
"36074",480.7246,84.137024,113.24009
"36075",480.7379,84.842606,114.07495
"36076",480.75122,85.223465,114.60714
"36077",480.76453,85.313805,114.86071
"36078",480.77783,85.17708,114.89004
"36079",480.79114,84.88167,114.75641
"36080",480.80444,84.49592,114.52321
"36081",480.81775,84.088196,114.25598
"36082",480.83105,83.67803,113.97357
"36083",480.84436,83.2752,113.68568
"36084",480.85767,82.88701,113.39983
"36085",480.87097,82.52567,113.128716
"36086",480.88428,82.18631,112.86828
"36087",480.89758,81.88602,112.63631
"36088",480.9109,81.64187,112.451096
"36089",480.9242,81.46609,112.32662
"36090",480.9375,81.36355,112.2699
"36091",480.9508,81.31716,112.26612
"36092",480.9641,81.30251,112.29263
"36093",480.97742,81.30251,112.333336
"36094",480.99072,81.27322,112.34474
"36095",481.00403,81.17067,112.28198
"36096",481.01733,81.007095,112.15499
"36097",481.03064,80.79225,111.97162
"36098",481.04395,80.52369,111.72781
"36099",481.05725,80.23071,111.4512
"36100",481.07056,79.94751,111.17521
"36101",481.08386,79.656975,110.88303
"36102",481.09717,79.34692,110.562256
"36103",481.11047,79.03929,110.23422
"36104",481.12378,78.73899,109.9039
"36105",481.1371,78.44602,109.571526
"36106",481.1504,78.17502,109.25196
"36107",481.1637,77.94797,108.96788
"36108",481.177,77.7673,108.72309
"36109",481.1903,77.62325,108.50927
"36110",481.2036,77.51827,108.33002
"36111",481.21692,77.45968,108.19387
"36112",481.23022,77.43282,108.08763
"36113",481.24353,77.420616,107.9952
"36114",481.25684,77.40597,107.89995
"36115",481.27014,77.37911,107.79203
"36116",481.28345,77.332726,107.66374
"36117",481.29675,77.264366,107.51203
"36118",481.31006,77.19844,107.36062
"36119",481.32336,77.15694,107.23157
"36120",481.33667,77.18379,107.16958
"36121",481.34998,77.33517,107.23295
"36122",481.36328,77.67696,107.49147
"36123",481.3766,78.26536,108.00727
"36124",481.3899,79.11986,108.80756
"36125",481.4032,80.20874,109.86894
"36126",481.4165,81.42947,111.09619
"36127",481.4298,82.64774,112.35914
"36128",481.4431,83.72198,113.51611
"36129",481.45642,84.53254,114.442986
"36130",481.46973,85.013504,115.06559
"36131",481.48303,85.17464,115.38339
"36132",481.49634,85.050125,115.420586
"36133",481.50964,84.73029,115.25857
"36134",481.52295,84.31037,114.986465
"36135",481.53625,83.86603,114.67682
"36136",481.54956,83.4168,114.348404
"36137",481.56287,82.984665,114.02304
"36138",481.57617,82.57694,113.70859
"36139",481.58948,82.176544,113.38872
"36140",481.60278,81.79813,113.078316
"36141",481.6161,81.45632,112.7927
"36142",481.6294,81.17311,112.555
"36143",481.6427,80.972916,112.391464
"36144",481.656,80.84352,112.29247
"36145",481.6693,80.762955,112.238266
"36146",481.68262,80.73365,112.2328
"36147",481.69592,80.723885,112.245964
"36148",481.70923,80.689705,112.234406
"36149",481.72253,80.61402,112.180275
"36150",481.73584,80.47242,112.05786
"36151",481.74915,80.26978,111.86999
"36152",481.76245,80.01099,111.61962
"36153",481.77576,79.69604,111.305016
"36154",481.78906,79.34936,110.94884
"36155",481.80237,79.00511,110.58426
"36156",481.81567,78.658424,110.20648
"36157",481.82898,78.314186,109.82032
"36158",481.8423,78.00412,109.45757
"36159",481.8556,77.733116,109.1242
"36160",481.8689,77.51339,108.83363
"36161",481.8822,77.33761,108.58015
"36162",481.8955,77.19844,108.35778
"36163",481.9088,77.09346,108.16525
"36164",481.92212,76.98848,107.969444
"36165",481.93542,76.87862,107.76547
"36166",481.94873,76.7834,107.572716
"36167",481.96204,76.71015,107.39895
"36168",481.97534,76.65644,107.24243
"36169",481.98865,76.63203,107.11353
"36170",482.00195,76.627144,107.0034
"36171",482.01526,76.64912,106.919975
"36172",482.02856,76.76631,106.93246
"36173",482.04187,77.04463,107.109726
"36174",482.05518,77.57931,107.55205
"36175",482.06848,78.4094,108.306496
"36176",482.0818,79.51049,109.35788
"36177",482.0951,80.765396,110.59749
"36178",482.1084,82.02518,111.88119
"36179",482.1217,83.12871,113.048004
"36180",482.135,83.96124,113.97831
"36181",482.14832,84.46906,114.60992
"36182",482.16162,84.65217,114.93268
"36183",482.17493,84.576485,115.00237
"36184",482.18823,84.32014,114.88904
"36185",482.20154,83.946594,114.6505
"36186",482.21484,83.509575,114.33681
"36187",482.22815,83.055466,113.99237
"36188",482.24146,82.59403,113.62642
"36189",482.25476,82.12039,113.23384
"36190",482.26807,81.65652,112.83623
"36191",482.28137,81.24147,112.472946
"36192",482.29468,80.88991,112.16018
"36193",482.30798,80.618904,111.916985
"36194",482.3213,80.45777,111.77519
"36195",482.3346,80.411385,111.74311
"36196",482.3479,80.42359,111.76817
"36197",482.3612,80.45777,111.81559
"36198",482.3745,80.48463,111.85675
"36199",482.38782,80.45777,111.84504
"36200",482.40112,80.33326,111.73483
"36201",482.41443,80.12573,111.53772
"36202",482.42773,79.86206,111.27798
"36203",482.44104,79.57641,110.988014
"36204",482.45435,79.27856,110.676926
"36205",482.46765,78.975815,110.35164
"36206",482.48096,78.675514,110.01933
"36207",482.49426,78.37766,109.68009
"36208",482.50757,78.05783,109.30956
"36209",482.52087,77.733116,108.92416
"36210",482.53418,77.43038,108.55058
"36211",482.5475,77.15694,108.19684
"36212",482.5608,76.91524,107.866295
"36213",482.5741,76.734566,107.589226
"36214",482.5874,76.612495,107.36511
"36215",482.6007,76.52216,107.16892
"36216",482.614,76.453804,106.99188
"36217",482.62732,76.40009,106.827354
"36218",482.64062,76.351265,106.66603
"36219",482.65393,76.3122,106.51295
"36220",482.66724,76.31953,106.40503
"36221",482.68054,76.436714,106.4072
"36222",482.69385,76.749214,106.60835
"36223",482.70715,77.315636,107.07319
"36224",482.72046,78.17258,107.846245
"36225",482.73376,79.28344,108.9
"36226",482.74707,80.5481,110.14227
"36227",482.76038,81.80057,111.411865
"36228",482.77368,82.88701,112.55457
"36229",482.787,83.69024,113.44802
"36230",482.8003,84.173645,114.046745
"36231",482.8136,84.34211,114.345634
"36232",482.8269,84.244446,114.38366
"36233",482.8402,83.97833,114.25018
"36234",482.85352,83.62188,114.01805
"36235",482.86682,83.226364,113.73572
"36236",482.88013,82.81865,113.428825
"36237",482.89343,82.406044,113.1043
"36238",482.90674,81.98123,112.75468
"36239",482.92004,81.54421,112.37957
"36240",482.93335,81.11696,112.00057
"36241",482.94666,80.743416,111.661934
"36242",482.95996,80.45777,111.39952
"36243",482.97327,80.274666,111.23072
"36244",482.98657,80.19409,111.15873
"36245",482.99988,80.184326,111.15503
"36246",483.01318,80.21118,111.187645
"36247",483.0265,80.235596,111.21866
"36248",483.0398,80.22095,111.21137
"36249",483.0531,80.130615,111.127945
"36250",483.0664,79.96704,110.96845
"36251",483.0797,79.73022,110.7306
"36252",483.09302,79.42016,110.41211
"36253",483.10632,79.06615,110.03998
"36254",483.11963,78.709694,109.65434
"36255",483.13293,78.35325,109.257576
"36256",483.14624,78.011444,108.86431
"36257",483.15955,77.72335,108.51408
"36258",483.17285,77.49142,108.211
"36259",483.18616,77.31075,107.95194
"36260",483.19946,77.1667,107.723854
"36261",483.21277,77.03731,107.50592
"36262",483.22607,76.912796,107.288826
"36263",483.23938,76.78096,107.06052
"36264",483.2527,76.63935,106.81831
"36265",483.266,76.51728,106.591225
"36266",483.2793,76.419624,106.384735
"36267",483.2926,76.34882,106.20205
"36268",483.3059,76.36347,106.1026
"36269",483.3192,76.53925,106.16474
"36270",483.33252,76.944534,106.461876
"36271",483.34583,77.63546,107.05732
"36272",483.35913,78.61448,107.96245
"36273",483.37244,79.80591,109.11058
"36274",483.38574,81.0901,110.38871
"36275",483.39905,82.303505,111.63618
"36276",483.41235,83.3045,112.70915
"36277",483.42566,83.99542,113.50334
"36278",483.43896,84.34699,113.97977
"36279",483.45227,84.4007,114.16932
"36280",483.46558,84.23224,114.138374
"36281",483.47888,83.94171,113.9801
"36282",483.4922,83.61944,113.781006
"36283",483.5055,83.3167,113.59138
"36284",483.5188,83.035934,113.41425
"36285",483.5321,82.75517,113.22836
"36286",483.5454,82.43534,112.99463
"36287",483.55872,82.04227,112.67766
"36288",483.57202,81.59792,112.297134
"36289",483.58533,81.146255,111.8954
"36290",483.59863,80.73121,111.516174
"36291",483.61194,80.411385,111.2192
"36292",483.62524,80.201416,111.02209
"36293",483.63855,80.0647,110.89166
"36294",483.65186,79.96704,110.79603
"36295",483.66516,79.86694,110.6949
"36296",483.67847,79.72289,110.54669
"36297",483.69177,79.54711,110.36225
"36298",483.70508,79.32983,110.13081
"36299",483.71838,79.06615,109.84619
"36300",483.7317,78.77318,109.52404
"36301",483.745,78.46555,109.17808
"36302",483.7583,78.14816,108.81274
"36303",483.7716,77.84299,108.44969
"36304",483.7849,77.57198,108.11128
"36305",483.79822,77.33517,107.79859
"36306",483.81152,77.120316,107.500465
"36307",483.82483,76.92256,107.21272
"36308",483.83813,76.72968,106.923676
"36309",483.85144,76.53925,106.63105
"36310",483.86475,76.35615,106.3398
"36311",483.87805,76.22919,106.09897
"36312",483.89136,76.16083,105.91277
"36313",483.90466,76.13397,105.765945
"36314",483.91797,76.13153,105.64269
"36315",483.93127,76.16327,105.55354
"36316",483.94458,76.25605,105.52643
"36317",483.9579,76.48798,105.641365
"36318",483.9712,76.95674,106.000374
"36319",483.9845,77.713585,106.66212
"36320",483.9978,78.76097,107.638054
"36321",484.0111,79.99634,108.8347
"36322",484.0244,81.27566,110.11391
"36323",484.03772,82.45243,111.33054
"36324",484.05103,83.39727,112.35202
"36325",484.06433,84.03204,113.09296
"36326",484.07764,84.37385,113.56076
"36327",484.09094,84.473946,113.79754
"36328",484.10425,84.4007,113.864105
"36329",484.11755,84.242004,113.842926
"36330",484.13086,84.06134,113.79482
"36331",484.14417,83.85138,113.71178
"36332",484.15747,83.60967,113.59042
"36333",484.17078,83.30694,113.40049
"36334",484.18408,82.92607,113.12296
"36335",484.1974,82.45487,112.7432
"36336",484.2107,81.9324,112.29745
"36337",484.224,81.42214,111.84757
"36338",484.2373,80.9778,111.44767
"36339",484.2506,80.6482,111.14863
"36340",484.26392,80.4358,110.95648
"36341",484.27722,80.323494,110.857796
"36342",484.29053,80.255135,110.799545
"36343",484.30383,80.177,110.729385
"36344",484.31714,80.05005,110.60796
"36345",484.33044,79.869385,110.42886
"36346",484.34375,79.62035,110.17575
"36347",484.35706,79.3225,109.866035
"36348",484.37036,79.00023,109.52259
"36349",484.38367,78.68284,109.17396
"36350",484.39697,78.38499,108.834946
"36351",484.41028,78.09689,108.49638
"36352",484.42358,77.81857,108.15859
"36353",484.4369,77.55245,107.8243
"36354",484.4502,77.30831,107.50368
"36355",484.4635,77.09834,107.209595
"36356",484.4768,76.93477,106.955345
"36357",484.4901,76.82002,106.74481
"36358",484.50342,76.72236,106.547775
"36359",484.51672,76.62226,106.34525
"36360",484.53003,76.524605,106.142044
"36361",484.54333,76.43427,105.94311
"36362",484.55664,76.3415,105.73891
"36363",484.56995,76.243835,105.52692
"36364",484.58325,76.15839,105.32409
"36365",484.59656,76.102234,105.14789
"36366",484.60986,76.12665,105.0505
"36367",484.62317,76.33173,105.134544
"36368",484.63647,76.80293,105.49111
"36369",484.64978,77.56954,106.157814
"36370",484.6631,78.607155,107.11948
"36371",484.6764,79.835205,108.304
"36372",484.6897,81.10719,109.57084
"36373",484.703,82.28397,110.78222
"36374",484.7163,83.23613,111.80575
"36375",484.7296,83.878235,112.54898
"36376",484.74292,84.227356,113.019295
"36377",484.75623,84.32746,113.2515
"36378",484.76953,84.26154,113.320816
"36379",484.78284,84.12726,113.3197
"36380",484.79614,83.966125,113.287544
"36381",484.80945,83.76593,113.21129
"36382",484.82275,83.51446,113.0775
"36383",484.83606,83.17998,112.852844
"36384",484.84937,82.75517,112.52741
"36385",484.86267,82.27421,112.132545
"36386",484.87598,81.75418,111.683586
"36387",484.88928,81.24635,111.230576
"36388",484.9026,80.82887,110.85204
"36389",484.9159,80.50904,110.55811
"36390",484.9292,80.272224,110.337204
"36391",484.9425,80.11841,110.191895
"36392",484.9558,79.9939,110.07108
"36393",484.96912,79.84985,109.92685
"36394",484.98242,79.65942,109.73172
"36395",484.99573,79.42016,109.48182
"36396",485.00903,79.151596,109.19514
"36397",485.02234,78.85863,108.875656
"36398",485.03564,78.536354,108.517715
"36399",485.04895,78.21896,108.15459
"36400",485.06226,77.90646,107.78643
"36401",485.07556,77.60128,107.415825
"36402",485.08887,77.315636,107.05522
"36403",485.10217,77.05684,106.71254
"36404",485.11548,76.822464,106.38619
"36405",485.12878,76.61982,106.08425
"36406",485.1421,76.439156,105.79796
"36407",485.1554,76.29267,105.5402
"36408",485.1687,76.1828,105.314476
"36409",485.182,76.09491,105.1073
"36410",485.1953,76.019226,104.909584
"36411",485.20862,75.96307,104.729034
"36412",485.22192,75.90448,104.54429
"36413",485.23523,75.843445,104.35527
"36414",485.24854,75.78485,104.16679
"36415",485.26184,75.72869,103.978905
"36416",485.27515,75.684746,103.80148
"36417",485.28845,75.66277,103.64466
"36418",485.30176,75.66277,103.509125
"36419",485.31506,75.70428,103.41509
"36420",485.32837,75.862976,103.43955
"36421",485.34167,76.224304,103.6716
"36422",485.35498,76.86641,104.19572
"36423",485.3683,77.79416,105.02554
"36424",485.3816,78.93919,106.10165
"36425",485.3949,80.18921,107.31851
"36426",485.4082,81.38064,108.515854
"36427",485.4215,82.35233,109.53069
"36428",485.4348,83.038376,110.290245
"36429",485.44812,83.45098,110.7978
"36430",485.46143,83.62432,111.07898
"36431",485.47473,83.62432,111.19224
"36432",485.48804,83.543755,111.22493
"36433",485.50134,83.44854,111.240456
"36434",485.51465,83.33868,111.23836
"36435",485.52795,83.19707,111.20108
"36436",485.54126,83.001755,111.105675
"36437",485.55457,82.71366,110.911385
"36438",485.56787,82.30839,110.59091
"36439",485.58118,81.83475,110.18941
"36440",485.59448,81.356224,109.76822
"36441",485.6078,80.90944,109.363815
"36442",485.6211,80.52857,109.01137
"36443",485.6344,80.24536,108.744675
"36444",485.6477,80.05737,108.564354
"36445",485.661,79.93042,108.43919
"36446",485.67432,79.83032,108.33692
"36447",485.68762,79.708244,108.20954
"36448",485.70093,79.54711,108.03929
"36449",485.71423,79.33959,107.81762
"36450",485.72754,79.07591,107.5333
"36451",485.74084,78.77562,107.20413
"36452",485.75415,78.467995,106.858246
"36453",485.76746,78.15549,106.49786
"36454",485.78076,77.84787,106.13261
"36455",485.79407,77.56954,105.787025
"36456",485.80737,77.30343,105.44496
"36457",485.82068,77.049515,105.10678
"36458",485.83398,76.83467,104.799736
"36459",485.8473,76.65644,104.52259
"36460",485.8606,76.50019,104.261856
"36461",485.8739,76.38056,104.03286
"36462",485.8872,76.30976,103.84895
"36463",485.9005,76.26093,103.68481
"36464",485.91382,76.209656,103.516685
"36465",485.92712,76.173035,103.36162
"36466",485.94043,76.1413,103.21029
"36467",485.95374,76.09979,103.0482
"36468",485.96704,76.06561,102.89214
"36469",485.98035,76.053406,102.75699
"36470",485.99365,76.04364,102.62389
"36471",486.00696,76.02655,102.48317
"36472",486.02026,76.00702,102.33947
"36473",486.03357,75.98016,102.187836
"36474",486.04688,75.92401,102.006065
"36475",486.06018,75.85077,101.80545
"36476",486.0735,75.79462,101.61964
"36477",486.0868,75.789734,101.48334
"36478",486.1001,75.90692,101.468956
"36479",486.1134,76.23407,101.6682
"36480",486.1267,76.82979,102.14623
"36481",486.14,77.71114,102.92852
"36482",486.15332,78.81712,103.962975
"36483",486.16663,80.0061,105.11499
"36484",486.17993,81.13405,106.243126
"36485",486.19324,82.06424,107.208755
"36486",486.20654,82.720985,107.93001
"36487",486.21985,83.09941,108.39346
"36488",486.23315,83.25323,108.644135
"36489",486.24646,83.26299,108.75556
"36490",486.25977,83.192184,108.78672
"36491",486.27307,83.09697,108.79126
"36492",486.28638,83.001755,108.79282
"36493",486.29968,82.90166,108.78653
"36494",486.313,82.7625,108.738045
"36495",486.3263,82.55985,108.62173
"36496",486.3396,82.2913,108.43317
"36497",486.3529,81.95682,108.17029
"36498",486.3662,81.600365,107.874985
"36499",486.37952,81.26833,107.592964
"36500",486.39282,80.99977,107.36404
"36501",486.40613,80.816666,107.21217
"36502",486.41943,80.71656,107.13759
"36503",486.43274,80.66285,107.10627
"36504",486.44604,80.61402,107.078156
"36505",486.45935,80.53834,107.02166
"36506",486.47266,80.411385,106.91153
"36507",486.48596,80.23804,106.75104
"36508",486.49927,80.03296,106.5534
"36509",486.51257,79.7937,106.31517
"36510",486.52588,79.54467,106.05969
"36511",486.53918,79.293205,105.794
"36512",486.5525,79.027084,105.50579
"36513",486.5658,78.76097,105.209274
"36514",486.5791,78.536354,104.94594
"36515",486.5924,78.35325,104.717094
"36516",486.6057,78.20187,104.51426
"36517",486.61902,78.08957,104.345764
"36518",486.63232,78.00412,104.200615
"36519",486.64563,77.9382,104.07233
"36520",486.65894,77.874725,103.94442
"36521",486.67224,77.81613,103.81941
"36522",486.68555,77.76486,103.6999
"36523",486.69885,77.70626,103.57145
"36524",486.71216,77.62325,103.41676
"36525",486.72546,77.55001,103.26925
"36526",486.73877,77.48409,103.12677
"36527",486.75208,77.41329,102.97735
"36528",486.76538,77.35714,102.84036
"36529",486.7787,77.330284,102.73092
"36530",486.792,77.32296,102.64017
"36531",486.8053,77.33517,102.56872
"36532",486.8186,77.34005,102.490326
"36533",486.8319,77.32296,102.390114
"36534",486.8452,77.279015,102.26251
"36535",486.85852,77.208206,102.106674
"36536",486.87183,77.1252,101.936424
"36537",486.88513,77.05684,101.77823
"36538",486.89844,77.02022,101.649635
"36539",486.91174,77.02754,101.56384
"36540",486.92505,77.120316,101.56373
"36541",486.93835,77.35714,101.71056
"36542",486.95166,77.81369,102.084526
"36543",486.96497,78.50706,102.70957
"36544",486.97827,79.40551,103.56137
"36545",486.99158,80.42359,104.560875
"36546",487.00488,81.43191,105.58243
"36547",487.0182,82.303505,106.49877
"36548",487.0315,82.96513,107.23238
"36549",487.0448,83.39239,107.7523
"36550",487.0581,83.59014,108.05606
"36551",487.0714,83.62188,108.19999
"36552",487.08472,83.55108,108.24237
"36553",487.09802,83.421684,108.223946
"36554",487.11133,83.284966,108.19415
"36555",487.12463,83.16533,108.17717
"36556",487.13794,83.04814,108.1589
"36557",487.15125,82.9041,108.11011
"36558",487.16455,82.71366,108.01042
"36559",487.17786,82.46708,107.84864
"36560",487.19116,82.1741,107.63276
"36561",487.20447,81.85672,107.383316
"36562",487.21777,81.54665,107.13127
"36563",487.23108,81.30984,106.94279
"36564",487.2444,81.15114,106.82502
"36565",487.2577,81.0486,106.75845
"36566",487.271,80.987564,106.73019
"36567",487.2843,80.95094,106.72443
"36568",487.2976,80.89723,106.70043
"36569",487.3109,80.80446,106.6357
"36570",487.32422,80.67017,106.52655
"36571",487.33752,80.49439,106.37171
"36572",487.35083,80.26978,106.16255
"36573",487.36414,80.01587,105.91707
"36574",487.37744,79.76929,105.67098
"36575",487.39075,79.53246,105.42695
"36576",487.40405,79.31518,105.19505
"36577",487.41736,79.132065,104.99054
"36578",487.43066,78.975815,104.80717
"36579",487.44397,78.82933,104.62868
"36580",487.45728,78.69993,104.46269
"36581",487.47058,78.57786,104.299995
"36582",487.4839,78.46311,104.14081
"36583",487.4972,78.363014,103.99268
"36584",487.5105,78.28733,103.865845
"36585",487.5238,78.23605,103.76105
"36586",487.5371,78.20676,103.67663
"36587",487.5504,78.187225,103.60106
"36588",487.56372,78.15793,103.515114
"36589",487.57703,78.116425,103.416046
"36590",487.59033,78.0676,103.30836
"36591",487.60364,78.02609,103.20647
"36592",487.61694,78.009,103.12769
"36593",487.63025,77.99924,103.05571
"36594",487.64355,77.98459,102.97854
"36595",487.65686,77.97238,102.90335
"36596",487.67017,77.97238,102.83999
"36597",487.68347,77.96506,102.7693
"36598",487.69678,77.962616,102.70327
"36599",487.71008,77.96994,102.64693
"36600",487.7234,77.97482,102.58837
"36601",487.7367,77.960175,102.51044
"36602",487.75,77.93576,102.42228
"36603",487.7633,77.90646,102.328476
"36604",487.7766,77.87961,102.2362
"36605",487.78992,77.86984,102.16017
"36606",487.80322,77.90158,102.12534
"36607",487.81653,78.00656,102.16475
"36608",487.82983,78.238495,102.33439
"36609",487.84314,78.64866,102.68951
"36610",487.85645,79.259026,103.257645
"36611",487.86975,80.07446,104.04993
"36612",487.88306,81.03639,105.01418
"36613",487.89636,82.020294,106.03047
"36614",487.90967,82.899216,106.97253
"36615",487.92297,83.563286,107.727196
"36616",487.93628,83.96124,108.2365
"36617",487.9496,84.09796,108.49701
"36618",487.9629,84.04181,108.56892
"36619",487.9762,83.895325,108.54874
"36620",487.9895,83.73907,108.514206
"36621",488.0028,83.60235,108.49433
"36622",488.0161,83.49493,108.49948
"36623",488.02942,83.39971,108.51348
"36624",488.04272,83.282524,108.50253
"36625",488.05603,83.10918,108.43176
"36626",488.06934,82.87236,108.29211
"36627",488.08264,82.59647,108.10598
"36628",488.09595,82.31327,107.903915
"36629",488.10925,82.039825,107.70276
"36630",488.12256,81.80545,107.53213
"36631",488.13586,81.62966,107.41276
"36632",488.14917,81.512474,107.3465
"36633",488.16248,81.43923,107.32052
"36634",488.17578,81.38552,107.31178
"36635",488.1891,81.324486,107.294044
"36636",488.2024,81.22926,107.24021
"36637",488.2157,81.06813,107.11749
"36638",488.229,80.86305,106.94579
"36639",488.2423,80.6482,106.75791
"36640",488.2556,80.43824,106.56821
"36641",488.26892,80.23071,106.374374
"36642",488.28223,80.04761,106.19848
"36643",488.29553,79.871826,106.024185
"36644",488.30884,79.68627,105.834625
"36645",488.32214,79.49096,105.62951
"36646",488.33545,79.30053,105.42317
"36647",488.34875,79.13451,105.23529
"36648",488.36206,79.00267,105.07641
"36649",488.37537,78.90257,104.945145
"36650",488.38867,78.81224,104.82052
"36651",488.40198,78.73411,104.70527
"36652",488.41528,78.66575,104.59735
"36653",488.4286,78.59739,104.4873
"36654",488.4419,78.54368,104.389755
"36655",488.4552,78.50706,104.307625
"36656",488.4685,78.47776,104.231674
"36657",488.4818,78.450905,104.15725
"36658",488.49512,78.416725,104.07466
"36659",488.50842,78.37766,103.98612
"36660",488.52173,78.34348,103.901245
"36661",488.53503,78.31663,103.822624
"36662",488.54834,78.28489,103.73828
"36663",488.56165,78.25071,103.650505
"36664",488.57495,78.19943,103.54456
"36665",488.58826,78.118866,103.40773
"36666",488.60156,78.04318,103.27326
"36667",488.61487,77.99191,103.16084
"36668",488.62817,77.96994,103.07612
"36669",488.64148,77.98703,103.02977
"36670",488.6548,78.02609,103.00593
"36671",488.6681,78.07004,102.98819
"36672",488.6814,78.10422,102.96206
"36673",488.6947,78.101776,102.900375
"36674",488.708,78.08713,102.82641
"36675",488.7213,78.082245,102.76175
"36676",488.73462,78.08469,102.70426
"36677",488.74792,78.12619,102.68591
"36678",488.76123,78.28733,102.7885
"36679",488.77454,78.6096,103.05724
"36680",488.78784,79.12962,103.53382
"36681",488.80115,79.86694,104.24394
"36682",488.81445,80.762955,105.135796
"36683",488.82776,81.71023,106.10691
"36684",488.84106,82.59159,107.04172
"36685",488.85437,83.29229,107.8234
"36686",488.86768,83.74639,108.38039
"36687",488.88098,83.9588,108.70987
"36688",488.8943,83.980774,108.85555
"36689",488.9076,83.88312,108.88229
"36690",488.9209,83.72442,108.84494
"36691",488.9342,83.57549,108.8124
"36692",488.9475,83.455864,108.804504
"36693",488.96082,83.34356,108.80019
"36694",488.97412,83.22148,108.7826
"36695",488.98743,83.09453,108.75632
"36696",489.00073,82.930954,108.689445
"36697",489.01404,82.72343,108.57351
"36698",489.02734,82.48173,108.416916
"36699",489.04065,82.21805,108.23079
"36700",489.05396,81.969025,108.05108
"36701",489.06726,81.75906,107.90265
"36702",489.08057,81.600365,107.79892
"36703",489.09387,81.48806,107.736626
"36704",489.10718,81.42214,107.71721
"36705",489.12048,81.373314,107.71282
"36706",489.1338,81.31228,107.6947
"36707",489.1471,81.231705,107.655136
"36708",489.1604,81.12428,107.586205
"36709",489.1737,80.98512,107.48218
"36710",489.187,80.816666,107.344505
"36711",489.20032,80.63355,107.18691
"36712",489.21362,80.430916,107.004074
"36713",489.22693,80.22339,106.81001
"36714",489.24023,80.02319,106.6168
"36715",489.25354,79.84985,106.44418
"36716",489.26685,79.708244,106.29788
"36717",489.28015,79.57885,106.15937
"36718",489.29346,79.47143,106.03879
"36719",489.30676,79.37621,105.927055
"36720",489.32007,79.276115,105.807465
"36721",489.33337,79.17113,105.679855
"36722",489.34668,79.07347,105.5563
"36723",489.36,78.97826,105.43213
"36724",489.3733,78.89281,105.31475
"36725",489.3866,78.84398,105.23132
"36726",489.3999,78.81468,105.1659
"36727",489.4132,78.79515,105.10933
"36728",489.4265,78.785385,105.06191
"36729",489.43982,78.78294,105.021515
"36730",489.45312,78.77074,104.971275
"36731",489.46643,78.73655,104.898674
"36732",489.47974,78.709694,104.83234
"36733",489.49304,78.68772,104.77004
"36734",489.50635,78.65598,104.697296
"36735",489.51965,78.61204,104.61135
"36736",489.53296,78.57053,104.526474
"36737",489.54626,78.52415,104.43542
"36738",489.55957,78.48264,104.34779
"36739",489.57288,78.44846,104.2662
"36740",489.58618,78.416725,104.185974
"36741",489.5995,78.38743,104.1072
"36742",489.6128,78.365456,104.034836
"36743",489.6261,78.34104,103.95934
"36744",489.6394,78.31907,103.88553
"36745",489.6527,78.30198,103.81591
"36746",489.66602,78.3093,103.77017
"36747",489.67932,78.382545,103.79058
"36748",489.69263,78.5803,103.93779
"36749",489.70593,78.97826,104.29138
"36750",489.71924,79.61303,104.894226
"36751",489.73254,80.448006,105.71711
"36752",489.74585,81.3904,106.67351
"36753",489.75916,82.31571,107.642265
"36754",489.77246,83.10918,108.508095
"36755",489.78577,83.665825,109.1619
"36756",489.79907,83.963684,109.57432
"36757",489.81238,84.04669,109.78119
"36758",489.82568,83.96124,109.8222
"36759",489.839,83.75372,109.738464
"36760",489.8523,83.49981,109.60185
"36761",489.8656,83.24834,109.45975
"36762",489.8789,83.018845,109.331764
"36763",489.8922,82.82109,109.22835
"36764",489.90552,82.64774,109.14316
"36765",489.91882,82.47196,109.05012
"36766",489.93213,82.27665,108.93205
"36767",489.94543,82.05203,108.77858
"36768",489.95874,81.81033,108.601006
"36769",489.97205,81.57595,108.423195
"36770",489.98535,81.38796,108.284454
"36771",489.99866,81.25613,108.19599
"36772",490.01196,81.17555,108.15467
"36773",490.02527,81.13649,108.15234
"36774",490.03857,81.11696,108.16833
"36775",490.05188,81.08278,108.16905
"36776",490.0652,81.01198,108.13209
"36777",490.0785,80.91188,108.063614
"36778",490.0918,80.79225,107.97248
"36779",490.1051,80.635994,107.84098
"36780",490.1184,80.45289,107.67775
"36781",490.1317,80.26246,107.50147
"36782",490.14502,80.059814,107.30703
"36783",490.15833,79.84009,107.08917
"36784",490.17163,79.622795,106.86688
"36785",490.18494,79.432365,106.664665
"36786",490.19824,79.28832,106.502884
"36787",490.21155,79.19066,106.38298
"36788",490.22485,79.114975,106.282005
"36789",490.23816,79.05394,106.19331
"36790",490.25146,78.98802,106.09783
"36791",490.26477,78.907455,105.98564
"36792",490.27808,78.81712,105.86117
"36793",490.29138,78.74143,105.74851
"36794",490.3047,78.69016,105.65791
"36795",490.318,78.660866,105.587685
"36796",490.3313,78.6511,105.53607
"36797",490.3446,78.64622,105.48904
"36798",490.3579,78.62913,105.42964
"36799",490.37122,78.59739,105.355064
"36800",490.38452,78.55833,105.27217
"36801",490.39783,78.5095,105.17829
"36802",490.41113,78.45579,105.078
"36803",490.42444,78.41428,104.98824
"36804",490.43774,78.382545,104.90695
"36805",490.45105,78.37278,104.84664
"36806",490.46436,78.38499,104.808
"36807",490.47766,78.40696,104.7795
"36808",490.49097,78.416725,104.73949
"36809",490.50427,78.40696,104.680244
"36810",490.51758,78.382545,104.60605
"36811",490.53088,78.34104,104.514
"36812",490.5442,78.30442,104.42554
"36813",490.5575,78.311745,104.379875
"36814",490.5708,78.39231,104.407684
"36815",490.5841,78.5803,104.54543
"36816",490.5974,78.94652,104.86729
"36817",490.61072,79.52514,105.41299
"36818",490.62402,80.291756,106.164764
"36819",490.63733,81.1902,107.07233
"36820",490.65063,82.1033,108.02262
"36821",490.66394,82.90898,108.89403
"36822",490.67725,83.52178,109.59773
"36823",490.69055,83.90997,110.09598
"36824",490.70386,84.07843,110.38662
"36825",490.71716,84.07355,110.509186
"36826",490.73047,83.931946,110.49488
"36827",490.74377,83.69756,110.38337
"36828",490.75708,83.4168,110.218155
"36829",490.7704,83.12627,110.03439
"36830",490.7837,82.86748,109.8733
"36831",490.797,82.65751,109.75294
"36832",490.8103,82.476845,109.65532
"36833",490.8236,82.31327,109.569145
"36834",490.8369,82.16678,109.49494
"36835",490.85022,81.99588,109.391754
"36836",490.86353,81.80057,109.25881
"36837",490.87683,81.60525,109.11976
"36838",490.89014,81.43435,108.99902
"36839",490.90344,81.307396,108.91689
"36840",490.91675,81.22194,108.87229
"36841",490.93005,81.17067,108.85921
"36842",490.94336,81.143814,108.868935
"36843",490.95667,81.094986,108.85585
"36844",490.96997,80.990005,108.78509
"36845",490.98328,80.84596,108.67198
"36846",490.99658,80.67994,108.532394
"36847",491.0099,80.482185,108.35589
"36848",491.0232,80.27711,108.16588
"36849",491.0365,80.076904,107.974335
"36850",491.0498,79.87915,107.778984
"36851",491.0631,79.68383,107.57989
"36852",491.07642,79.50805,107.394226
"36853",491.08972,79.35668,107.227486
"36854",491.10303,79.22728,107.07798
"36855",491.11633,79.10765,106.934204
"36856",491.12964,78.995346,106.794014
"36857",491.14294,78.887924,106.6552
"36858",491.15625,78.77806,106.51058
"36859",491.16956,78.6804,106.37473
"36860",491.18286,78.6096,106.262695
"36861",491.19617,78.56321,106.17286
"36862",491.20947,78.53391,106.09866
"36863",491.22278,78.51438,106.03332
"36864",491.23608,78.485085,105.957596
"36865",491.2494,78.44846,105.873634
"36866",491.2627,78.40696,105.783646
"36867",491.276,78.37034,105.69724
"36868",491.2893,78.35325,105.62923
"36869",491.3026,78.34104,105.56556
"36870",491.31592,78.32151,105.49419
"36871",491.32922,78.2971,105.41732
"36872",491.34253,78.27268,105.33969
"36873",491.35583,78.24094,105.25397
"36874",491.36914,78.22385,105.18191
"36875",491.38245,78.24582,105.14838
"36876",491.39575,78.32639,105.17413
"36877",491.40906,78.519264,105.314705
"36878",491.42236,78.89525,105.64442
"36879",491.43567,79.47387,106.188515
"36880",491.44897,80.233154,106.93136
"36881",491.46228,81.10231,107.8078
"36882",491.4756,81.9617,108.70164
"36883",491.4889,82.701454,109.50269
"36884",491.5022,83.24101,110.12667
"36885",491.5155,83.55596,110.5429
"36886",491.5288,83.6585,110.75656
"36887",491.5421,83.5877,110.80009
"36888",491.55542,83.389946,110.71445
"36889",491.56873,83.13603,110.56647
"36890",491.58203,82.86992,110.39835
"36891",491.59534,82.6038,110.22192
"36892",491.60864,82.354774,110.05426
"36893",491.62195,82.11551,109.88858
"36894",491.63525,81.883575,109.722755
"36895",491.64856,81.651634,109.549675
"36896",491.66187,81.4197,109.369354
"36897",491.67517,81.20729,109.20131
"36898",491.68848,81.0486,109.080345
"36899",491.70178,80.95094,109.01546
"36900",491.7151,80.907,109.00123
"36901",491.7284,80.91188,109.034454
"36902",491.7417,80.953384,109.104454
"36903",491.755,80.987564,109.16843
"36904",491.7683,80.97536,109.18708
"36905",491.78162,80.91432,109.156525
"36906",491.79492,80.81178,109.08256
"36907",491.80823,80.66285,108.95899
"36908",491.82153,80.482185,108.79904
"36909",491.83484,80.27711,108.60903
"36910",491.84814,80.04761,108.38819
"36911",491.86145,79.818115,108.16019
"36912",491.87476,79.60082,107.93721
"36913",491.88806,79.40063,107.72454
"36914",491.90137,79.21263,107.517815
"36915",491.91467,79.0515,107.33208
"36916",491.92798,78.91478,107.16572
"36917",491.94128,78.79515,107.01218
"36918",491.9546,78.69749,106.87686
"36919",491.9679,78.63645,106.77512
"36920",491.9812,78.59495,106.69101
"36921",491.9945,78.56321,106.615364
"36922",492.0078,78.52903,106.536285
"36923",492.02112,78.48997,106.451256
"36924",492.03442,78.45335,106.36745
"36925",492.04773,78.416725,106.28249
"36926",492.06104,78.380104,106.196396
"36927",492.07434,78.363014,106.128685
"36928",492.08765,78.35325,106.067764
"36929",492.10095,78.34104,106.0041
"36930",492.11426,78.32639,105.93761
"36931",492.12756,78.294655,105.85357
"36932",492.14087,78.23605,105.74168
"36933",492.15417,78.170135,105.620636
"36934",492.16748,78.12375,105.51707
"36935",492.1808,78.12863,105.46332
"36936",492.1941,78.25559,105.5318
"36937",492.2074,78.56077,105.78246
"36938",492.2207,79.061264,106.23798
"36939",492.234,79.74731,106.89469
"36940",492.2473,80.58228,107.72177
"36941",492.26062,81.45876,108.61645
"36942",492.27393,82.262,109.46527
"36943",492.28723,82.92119,110.195145
"36944",492.30054,83.38506,110.750305
"36945",492.31384,83.63409,111.10511
"36946",492.32715,83.69512,111.27971
"36947",492.34045,83.60235,111.30241
"36948",492.35376,83.404594,111.217224
"36949",492.36707,83.14336,111.06238
"36950",492.38037,82.847946,110.8652
"36951",492.39368,82.55009,110.656334
"36952",492.40698,82.26444,110.45038
"36953",492.4203,81.99588,110.25258
"36954",492.4336,81.73708,110.05615
"36955",492.4469,81.49294,109.866295
"36956",492.4602,81.28054,109.70055
"36957",492.4735,81.112076,109.5721
"36958",492.48682,80.99489,109.48966
"36959",492.50012,80.93385,109.45972
"36960",492.51343,80.91676,109.47181
"36961",492.52673,80.936295,109.51999
"36962",492.54004,80.96071,109.57366
"36963",492.55334,80.96559,109.60857
"36964",492.56665,80.936295,109.60944
"36965",492.57996,80.85573,109.558136
"36966",492.59326,80.72144,109.45059
"36967",492.60657,80.5481,109.2998
"36968",492.61987,80.34547,109.11429
"36969",492.63318,80.128174,108.90779
"36970",492.64648,79.90845,108.69207
"36971",492.6598,79.691154,108.47192
"36972",492.6731,79.49096,108.26207
"36973",492.6864,79.32006,108.075264
"36974",492.6997,79.17113,107.90508
"36975",492.713,79.04173,107.74979
"36976",492.72632,78.91966,107.59777
"36977",492.73962,78.802475,107.44682
"36978",492.75293,78.6804,107.28732
"36979",492.76624,78.56321,107.1289
"36980",492.77954,78.46311,106.9839
"36981",492.79285,78.39231,106.865074
"36982",492.80615,78.34104,106.763565
"36983",492.81946,78.2971,106.66778
"36984",492.83276,78.26292,106.58038
"36985",492.84607,78.23117,106.494354
"36986",492.85938,78.20676,106.414665
"36987",492.87268,78.19699,106.34886
"36988",492.886,78.20187,106.2974
"36989",492.8993,78.24094,106.28027
"36990",492.9126,78.365456,106.34982
"36991",492.9259,78.626686,106.559975
"36992",492.9392,79.05882,106.949196
"36993",492.9525,79.676506,107.53747
"36994",492.96582,80.44068,108.291534
"36995",492.97913,81.26101,109.12563
"36996",492.99243,82.02518,109.92921
"36997",493.00574,82.64286,110.610176
"36998",493.01904,83.06279,111.11269
"36999",493.03235,83.25811,111.403725
"37000",493.04565,83.25323,111.500656
"37001",493.05896,83.10185,111.45094
"37002",493.07227,82.845505,111.29153
"37003",493.08557,82.530556,111.0655
"37004",493.09888,82.2034,110.81742
"37005",493.11218,81.87625,110.55913
"37006",493.1255,81.55154,110.293045
"37007",493.1388,81.231705,110.0217
"37008",493.1521,80.94362,109.7721
"37009",493.1654,80.69947,109.55744
"37010",493.1787,80.516365,109.396194
"37011",493.19202,80.396736,109.2927
"37012",493.20532,80.34058,109.24895
"37013",493.21863,80.34058,109.25959
"37014",493.23193,80.37476,109.30441
"37015",493.24524,80.40894,109.3503
"37016",493.25854,80.43336,109.3875
"37017",493.27185,80.428474,109.39616
"37018",493.28516,80.37232,109.35339
"37019",493.29846,80.26246,109.255165
"37020",493.31177,80.113525,109.11443
"37021",493.32507,79.9353,108.93976
"37022",493.33838,79.74731,108.74974
"37023",493.35168,79.551994,108.54653
"37024",493.365,79.361565,108.3421
"37025",493.3783,79.183334,108.14392
"37026",493.3916,78.99779,107.93285
"37027",493.4049,78.79515,107.6989
"37028",493.4182,78.61448,107.480576
"37029",493.43152,78.470436,107.293236
"37030",493.44482,78.35569,107.13069
"37031",493.45813,78.28245,107.006065
"37032",493.47144,78.24094,106.91088
"37033",493.48474,78.20676,106.82173
"37034",493.49805,78.15549,106.714424
"37035",493.51135,78.08957,106.590866
"37036",493.52466,78.02609,106.46769
"37037",493.53796,77.979706,106.35962
"37038",493.55127,77.95773,106.27451
"37039",493.56458,77.943085,106.196045
"37040",493.57788,77.96506,106.15374
"37041",493.5912,78.08713,106.21222
"37042",493.6045,78.382545,106.44786
"37043",493.6178,78.87816,106.89293
"37044",493.6311,79.5642,107.543915
"37045",493.6444,80.37476,108.34086
"37046",493.6577,81.20973,109.18754
"37047",493.67102,81.94705,109.96266
"37048",493.68433,82.50858,110.58504
"37049",493.69763,82.87724,111.03209
"37050",493.71094,83.03105,111.27581
"37051",493.72424,82.99931,111.33879
"37052",493.73755,82.84306,111.27627
"37053",493.75085,82.61112,111.13317
"37054",493.76416,82.32548,110.92912
"37055",493.77747,82.03006,110.706375
"37056",493.79077,81.74197,110.48172
"37057",493.80408,81.45388,110.24807
"37058",493.81738,81.160904,110.00053
"37059",493.8307,80.88258,109.758484
"37060",493.844,80.65064,109.55412
"37061",493.8573,80.47486,109.398674
"37062",493.8706,80.35279,109.29144
"37063",493.8839,80.308846,109.25852
"37064",493.89722,80.34058,109.29991
"37065",493.91052,80.411385,109.381355
"37066",493.92383,80.49439,109.47722
"37067",493.93713,80.552986,109.55126
"37068",493.95044,80.55543,109.570984
"37069",493.96375,80.5066,109.53951
"37070",493.97705,80.40406,109.452805
"37071",493.99036,80.255135,109.316505
"37072",494.00366,80.076904,109.14625
"37073",494.01697,79.88159,108.95334
"37074",494.03027,79.676506,108.74455
"37075",494.04358,79.48119,108.53913
"37076",494.0569,79.293205,108.33493
"37077",494.0702,79.1223,108.14194
"37078",494.0835,78.975815,107.968025
"37079",494.0968,78.86107,107.82127
"37080",494.1101,78.77074,107.69535
"37081",494.1234,78.69993,107.58613
"37082",494.13672,78.61692,107.462494
"37083",494.15002,78.519264,107.32162
"37084",494.16333,78.416725,107.172806
"37085",494.17664,78.32151,107.028114
"37086",494.18994,78.24582,106.89997
"37087",494.20325,78.21164,106.810974
"37088",494.21655,78.21164,106.75509
"37089",494.22986,78.26536,106.75292
"37090",494.24316,78.41184,106.8452
"37091",494.25647,78.709694,107.09342
"37092",494.26978,79.20531,107.54871
"37093",494.28308,79.89624,108.21481
"37094",494.2964,80.709236,109.02457
"37095",494.3097,81.54177,109.879265
"37096",494.323,82.27909,110.664764
"37097",494.3363,82.84062,111.297516
"37098",494.3496,83.18242,111.72808
"37099",494.3629,83.3167,111.961815
"37100",494.37622,83.2752,112.02396
"37101",494.38953,83.104294,111.9554
"37102",494.40283,82.85771,111.805824
"37103",494.41614,82.581825,111.61924
"37104",494.42944,82.30106,111.41916
"37105",494.44275,82.02762,111.21762
"37106",494.45605,81.75662,111.00999
"37107",494.46936,81.48806,110.79632
"37108",494.48267,81.231705,110.586464
"37109",494.49597,80.99489,110.38814
"37110",494.50928,80.79225,110.21659
"37111",494.52258,80.65308,110.10218
"37112",494.5359,80.587166,110.05667
"37113",494.5492,80.59449,110.082344
"37114",494.5625,80.64576,110.15219
"37115",494.5758,80.69947,110.22608
"37116",494.5891,80.73365,110.28212
"37117",494.60242,80.723885,110.29528
"37118",494.61572,80.638435,110.23245
"37119",494.62903,80.48463,110.098595
"37120",494.64233,80.289314,109.91843
"37121",494.65564,80.05737,109.695526
"37122",494.66895,79.80347,109.44341
"37123",494.68225,79.551994,109.1858
"37124",494.69556,79.3225,108.94231
"37125",494.70886,79.114975,108.71361
"37126",494.72217,78.93187,108.502846
"37127",494.73547,78.76341,108.30101
"37128",494.74878,78.61204,108.11099
"37129",494.7621,78.47776,107.93334
"37130",494.7754,78.37034,107.77835
"37131",494.7887,78.28001,107.63709
"37132",494.802,78.21164,107.51498
"37133",494.8153,78.16525,107.412704
"37134",494.8286,78.13107,107.32119
"37135",494.84192,78.08957,107.22128
"37136",494.85522,78.06271,107.13473
"37137",494.86853,78.099335,107.11081
"37138",494.88184,78.23361,107.18569
"37139",494.89514,78.52903,107.42591
"37140",494.90845,79.044174,107.89509
"37141",494.92175,79.77661,108.59766
"37142",494.93506,80.655525,109.46959
"37143",494.94836,81.56863,110.403175
"37144",494.96167,82.408485,111.29205
"37145",494.97498,83.070114,112.028946
"37146",494.98828,83.492485,112.54726
"37147",495.0016,83.66338,112.82729
"37148",495.0149,83.63409,112.912476
"37149",495.0282,83.46319,112.85514
"37150",495.0415,83.22148,112.72166
"37151",495.0548,82.950485,112.55133
"37152",495.0681,82.68925,112.38229
"37153",495.08142,82.43778,112.21487
"37154",495.09473,82.18875,112.042015
"37155",495.10803,81.92264,111.8443
"37156",495.12134,81.636986,111.61873
"37157",495.13464,81.356224,111.38912
"37158",495.14795,81.109634,111.18491
"37159",495.16125,80.91188,111.021835
"37160",495.17456,80.782486,110.92094
"37161",495.18787,80.73121,110.89411
"37162",495.20117,80.726326,110.91208
"37163",495.21448,80.743416,110.951866
"37164",495.22778,80.75319,110.98487
"37165",495.2411,80.71656,110.97178
"37166",495.2544,80.618904,110.896515
"37167",495.2677,80.46998,110.76693
"37168",495.281,80.26734,110.57898
"37169",495.2943,80.02319,110.343185
"37170",495.30762,79.766846,110.08756
"37171",495.32092,79.50317,109.8166
"37172",495.33423,79.23949,109.53739
"37173",495.34753,78.992905,109.267044
"37174",495.36084,78.77562,109.01829
"37175",495.37415,78.5803,108.784706
"37176",495.38745,78.40452,108.56456
"37177",495.40076,78.25803,108.36822
"37178",495.41406,78.12863,108.18438
"37179",495.42737,78.00656,108.00383
"37180",495.44067,77.90158,107.836555
"37181",495.45398,77.81369,107.68309
"37182",495.4673,77.73556,107.53664
"37183",495.4806,77.6672,107.397514
"37184",495.4939,77.628136,107.28555
"37185",495.5072,77.65255,107.23585
"37186",495.5205,77.806366,107.31631
"37187",495.5338,78.13107,107.572464
"37188",495.54712,78.66819,108.05118
"37189",495.56042,79.42016,108.76153
"37190",495.57373,80.33814,109.66139
"37191",495.58704,81.31716,110.65098
"37192",495.60034,82.230255,111.60523
"37193",495.61365,82.967575,112.41225
"37194",495.62695,83.458305,112.99571
"37195",495.64026,83.682915,113.32839
"37196",495.65356,83.68047,113.44104
"37197",495.66687,83.5169,113.39248
"37198",495.68018,83.25811,113.24359
"37199",495.69348,82.97978,113.06708
"37200",495.7068,82.73075,112.91116
"37201",495.7201,82.50614,112.77189
"37202",495.7334,82.28397,112.62804
"37203",495.7467,82.04715,112.462585
"37204",495.76,81.77127,112.25068
"37205",495.77332,81.45876,111.99352
"37206",495.78662,81.143814,111.72416
"37207",495.79993,80.87526,111.49135
"37208",495.81323,80.68238,111.32582
"37209",495.82654,80.56031,111.225075
"37210",495.83984,80.49439,111.17667
"37211",495.85315,80.46021,111.157936
"37212",495.86646,80.430916,111.14302
"37213",495.87976,80.37965,111.10522
"37214",495.89307,80.28199,111.019424
"37215",495.90637,80.128174,110.87442
"37216",495.91968,79.91577,110.66602
"37217",495.93298,79.6643,110.41192
"37218",495.9463,79.38598,110.12311
"37219",495.9596,79.10521,109.82315
"37220",495.9729,78.84398,109.53396
"37221",495.9862,78.61448,109.26833
"37222",495.9995,78.42161,109.032166
"37223",496.01282,78.2678,108.82903
"37224",496.02612,78.150604,108.65771
"37225",496.03943,78.05051,108.49982
"37226",496.05273,77.943085,108.331474
"37227",496.06604,77.83322,108.15733
"37228",496.07935,77.71847,107.97487
"37229",496.09265,77.60616,107.79127
"37230",496.10596,77.51095,107.62125
"37231",496.11926,77.437706,107.47022
"37232",496.13257,77.37667,107.32912
"37233",496.14587,77.33517,107.205635
"37234",496.15918,77.34493,107.132126
"37235",496.1725,77.45968,107.1639
"37236",496.1858,77.747765,107.372604
"37237",496.1991,78.2678,107.82226
"37238",496.2124,79.029526,108.529854
"37239",496.2257,79.974365,109.44437
"37240",496.239,80.99489,110.46409
"37241",496.25232,81.95438,111.454666
"37242",496.26562,82.74052,112.30188
"37243",496.27893,83.29473,112.941734
"37244",496.29224,83.60723,113.35719
"37245",496.30554,83.70977,113.57246
"37246",496.31885,83.665825,113.64444
"37247",496.33215,83.546196,113.639366
"37248",496.34546,83.38262,113.58661
"37249",496.35876,83.20683,113.516525
"37250",496.37207,83.03349,113.4434
"37251",496.38538,82.847946,113.352646
"37252",496.39868,82.616005,113.2097
"37253",496.412,82.31815,112.9936
"37254",496.4253,81.971466,112.71935
"37255",496.4386,81.60769,112.41718
"37256",496.4519,81.26833,112.12807
"37257",496.4652,80.99733,111.8967
"37258",496.47852,80.82155,111.75208
"37259",496.49182,80.72877,111.684975
"37260",496.50513,80.67506,111.65404
"37261",496.51843,80.62623,111.626305
"37262",496.53174,80.55787,111.577515
"37263",496.54504,80.430916,111.467995
"37264",496.55835,80.235596,111.28614
"37265",496.57166,79.991455,111.04936
"37266",496.58496,79.708244,110.765884
"37267",496.59827,79.40063,110.44915
"37268",496.61157,79.093,110.122795
"37269",496.62488,78.79759,109.79904
"37270",496.63818,78.53391,109.49779
"37271",496.6515,78.30686,109.22492
"37272",496.6648,78.1091,108.97425
"37273",496.6781,77.95041,108.75647
"37274",496.6914,77.83322,108.57523
"37275",496.7047,77.730675,108.404976
"37276",496.71802,77.63546,108.238846
"37277",496.73132,77.5378,108.0673
"37278",496.74463,77.44991,107.902466
"37279",496.75793,77.37423,107.74709
"37280",496.77124,77.298546,107.589355
"37281",496.78455,77.21797,107.42436
"37282",496.79785,77.13985,107.2593
"37283",496.81116,77.07393,107.104004
"37284",496.82446,77.02998,106.96862
"37285",496.83777,77.051956,106.89778
"37286",496.85107,77.208206,106.96191
"37287",496.86438,77.56954,107.236
"37288",496.8777,78.16525,107.75576
"37289",496.891,79.00023,108.5334
"37290",496.9043,80.01343,109.51536
"37291",496.9176,81.094986,110.597336
"37292",496.9309,82.108185,111.64475
"37293",496.9442,82.91875,112.521194
"37294",496.95752,83.47295,113.16661
"37295",496.97083,83.75372,113.55591
"37296",496.98413,83.79767,113.717155
"37297",496.99744,83.69756,113.735725
"37298",497.01074,83.55596,113.70967
"37299",497.02405,83.407036,113.67187
"37300",497.03735,83.26299,113.63429
"37301",497.05066,83.09697,113.57024
"37302",497.06396,82.85771,113.42776
"37303",497.07727,82.52567,113.18502
"37304",497.09058,82.11307,112.85134
"37305",497.10388,81.668724,112.47303
"37306",497.1172,81.270775,112.12723
"37307",497.1305,80.953384,111.84955
"37308",497.1438,80.726326,111.65228
"37309",497.1571,80.58228,111.53094
"37310",497.1704,80.49195,111.4588
"37311",497.18372,80.413826,111.39605
"37312",497.19702,80.323494,111.31865
"37313",497.21033,80.19653,111.2018
"37314",497.22363,80.02075,111.03216
"37315",497.23694,79.80347,110.81552
"37316",497.25024,79.551994,110.55791
"37317",497.26355,79.281,110.27291
"37318",497.27686,78.995346,109.96479
"37319",497.29016,78.70481,109.64286
"37320",497.30347,78.42161,109.31918
"37321",497.31677,78.153046,109.0013
"37322",497.33008,77.90646,108.697
"37323",497.34338,77.68673,108.41184
"37324",497.3567,77.50118,108.15401
"37325",497.37,77.33517,107.909904
"37326",497.3833,77.19112,107.68258
"37327",497.3966,77.07149,107.475174
"37328",497.4099,76.97383,107.286
"37329",497.42322,76.895706,107.11331
"37330",497.43652,76.83223,106.95283
"37331",497.44983,76.76631,106.78792
"37332",497.46313,76.70283,106.62338
"37333",497.47644,76.64912,106.46664
"37334",497.48975,76.61982,106.33263
"37335",497.50305,76.63203,106.239204
"37336",497.51636,76.66865,106.17058
"37337",497.52966,76.6955,106.09333
"37338",497.54297,76.69306,105.987625
"37339",497.55627,76.65888,105.850105
"37340",497.56958,76.5832,105.67001
"37341",497.5829,76.49287,105.47291
"37342",497.5962,76.40986,105.280304
"37343",497.6095,76.37568,105.133934
"37344",497.6228,76.436714,105.08171
"37345",497.6361,76.66621,105.19985
"37346",497.6494,77.12764,105.557106
"37347",497.66272,77.8674,106.20711
"37348",497.67603,78.86839,107.14146
"37349",497.68933,80.0354,108.2731
"37350",497.70264,81.248795,109.4876
"37351",497.71594,82.374306,110.65214
"37352",497.72925,83.284966,111.63699
"37353",497.74255,83.91974,112.37442
"37354",497.75586,84.25666,112.83383
"37355",497.76917,84.3299,113.04009
"37356",497.78247,84.22003,113.06553
"37357",497.79578,84.02472,113.00209
"37358",497.80908,83.81232,112.91546
"37359",497.8224,83.617,112.83927
"37360",497.8357,83.42657,112.76187
"37361",497.849,83.20195,112.64433
"37362",497.8623,82.92851,112.470955
"37363",497.8756,82.59647,112.23043
"37364",497.88892,82.21805,111.93314
"37365",497.90222,81.832306,111.616714
"37366",497.91553,81.47097,111.31264
"37367",497.92883,81.16823,111.05586
"37368",497.94214,80.938736,110.86288
"37369",497.95544,80.780045,110.73352
"37370",497.96875,80.67994,110.65779
"37371",497.98206,80.618904,110.618004
"37372",497.99536,80.550545,110.568985
"37373",498.00867,80.43824,110.473885
"37374",498.02197,80.272224,110.32156
"37375",498.03528,80.05005,110.107895
"37376",498.04858,79.764404,109.823814
"37377",498.0619,79.43725,109.489296
"37378",498.0752,79.097885,109.13235
"37379",498.0885,78.77806,108.78433
"37380",498.1018,78.49241,108.460495
"37381",498.1151,78.25315,108.174126
"37382",498.12842,78.04562,107.91201
"37383",498.14172,77.86496,107.67027
"37384",498.15503,77.69894,107.43753
"37385",498.16833,77.540245,107.20693
"37386",498.18164,77.39376,106.98358
"37387",498.19495,77.27657,106.78495
"37388",498.20825,77.17891,106.60218
"37389",498.22156,77.09102,106.42613
"37390",498.23486,77.02022,106.26443
"37391",498.24817,76.96651,106.1176
"37392",498.26147,76.91768,105.973976
"37393",498.27478,76.86641,105.826385
"37394",498.2881,76.824905,105.68696
"37395",498.3014,76.7834,105.546234
"37396",498.3147,76.73945,105.401764
"37397",498.328,76.700386,105.26081
"37398",498.3413,76.65644,105.113754
"37399",498.3546,76.59785,104.950676
"37400",498.36792,76.53437,104.78088
"37401",498.38123,76.48554,104.62376
"37402",498.39453,76.470894,104.49928
"37403",498.40784,76.55634,104.47445
"37404",498.42114,76.83711,104.647606
"37405",498.43445,77.38155,105.09321
"37406",498.44775,78.204315,105.834145
"37407",498.46106,79.273674,106.84739
"37408",498.47437,80.49439,108.04541
"37409",498.48767,81.722435,109.2889
"37410",498.50098,82.80644,110.426735
"37411",498.51428,83.63409,111.34208
"37412",498.5276,84.16632,111.98788
"37413",498.5409,84.41047,112.36222
"37414",498.5542,84.42512,112.514694
"37415",498.5675,84.283516,112.511375
"37416",498.5808,84.06378,112.4255
"37417",498.59412,83.81232,112.301025
"37418",498.60742,83.563286,112.17113
"37419",498.62073,83.32647,112.04566
"37420",498.63403,83.06767,111.890816
"37421",498.64734,82.76738,111.686386
"37422",498.66064,82.41825,111.42374
"37423",498.67395,82.03494,111.116
"37424",498.68726,81.65652,110.80116
"37425",498.70056,81.3196,110.516014
"37426",498.71387,81.06081,110.298454
"37427",498.72717,80.89723,110.16803
"37428",498.74048,80.80446,110.103294
"37429",498.75378,80.73609,110.06007
"37430",498.7671,80.66285,110.00983
"37431",498.7804,80.56031,109.928
"37432",498.7937,80.411385,109.796585
"37433",498.807,80.21118,109.60924
"37434",498.8203,79.96704,109.3717
"37435",498.83362,79.68627,109.0899
"37436",498.84692,79.38842,108.78224
"37437",498.86023,79.097885,108.472595
"37438",498.87354,78.81712,108.16364
"37439",498.88684,78.553444,107.863
"37440",498.90015,78.31663,107.58098
"37441",498.91345,78.10666,107.318405
"37442",498.92676,77.90646,107.059044
"37443",498.94006,77.7087,106.79586
"37444",498.95337,77.52071,106.53627
"37445",498.96667,77.366905,106.304985
"37446",498.97998,77.264366,106.12016
"37447",498.9933,77.20332,105.97363
"37448",499.0066,77.16914,105.85206
"37449",499.0199,77.14717,105.74162
"37450",499.0332,77.11299,105.61829
"37451",499.0465,77.0544,105.46948
"37452",499.0598,76.98848,105.311516
"37453",499.07312,76.929886,105.15881
"37454",499.08643,76.86885,105.00184
"37455",499.09973,76.81026,104.8454
"37456",499.11304,76.76387,104.69933
"37457",499.12634,76.72236,104.556694
"37458",499.13965,76.70771,104.43962
"37459",499.15295,76.78096,104.40999
"37460",499.16626,77.02266,104.551094
"37461",499.17957,77.49386,104.92925
"37462",499.19287,78.23117,105.58825
"37463",499.20618,79.23216,106.533966
"37464",499.21948,80.413826,107.691635
"37465",499.2328,81.634544,108.925285
"37466",499.2461,82.75273,110.09455
"37467",499.2594,83.65118,111.07902
"37468",499.2727,84.263985,111.80592
"37469",499.286,84.58869,112.26388
"37470",499.29932,84.66926,112.48784
"37471",499.31262,84.55207,112.51656
"37472",499.32593,84.32014,112.42688
"37473",499.33923,84.04669,112.28844
"37474",499.35254,83.78546,112.15366
"37475",499.36584,83.543755,112.03025
"37476",499.37915,83.299614,111.89685
"37477",499.39246,83.018845,111.71919
"37478",499.40576,82.684364,111.47905
"37479",499.41907,82.29374,111.17231
"37480",499.43237,81.89334,110.84359
"37481",499.44568,81.54421,110.55363
"37482",499.45898,81.28054,110.33821
"37483",499.4723,81.10475,110.20244
"37484",499.4856,80.98512,110.11733
"37485",499.4989,80.88747,110.05046
"37486",499.5122,80.78737,109.978096
"37487",499.5255,80.65308,109.868416
"37488",499.53882,80.48463,109.72037
"37489",499.55212,80.27955,109.53043
"37490",499.56543,80.03784,109.29746
"37491",499.57874,79.7522,109.013
"37492",499.59204,79.432365,108.685425
"37493",499.60535,79.10521,108.34053
"37494",499.61865,78.79027,107.99763
"37495",499.63196,78.49241,107.661964
"37496",499.64526,78.22385,107.34629
"37497",499.65857,77.994354,107.061295
"37498",499.67188,77.79416,106.79842
"37499",499.68518,77.59884,106.53417
"37500",499.6985,77.41573,106.27603
"37501",499.7118,77.261925,106.041466
"37502",499.7251,77.154495,105.84847
"37503",499.7384,77.083694,105.68875
"37504",499.7517,77.05684,105.57076
"37505",499.765,77.0544,105.47635
"37506",499.77832,77.06172,105.391624
"37507",499.79163,77.04707,105.28516
"37508",499.80493,77.01289,105.1587
"37509",499.81824,76.99336,105.04582
"37510",499.83154,76.98604,104.94454
"37511",499.84485,76.97627,104.84059
"37512",499.85815,76.95186,104.72169
"37513",499.87146,76.91768,104.592255
"37514",499.88477,76.859085,104.43734
"37515",499.89807,76.77608,104.25618
"37516",499.91138,76.71992,104.09927
"37517",499.92468,76.76875,104.04561
"37518",499.938,77.00313,104.17901
"37519",499.9513,77.49386,104.57609
"37520",499.9646,78.28001,105.28392
"37521",499.9779,79.33715,106.287315
"37522",499.9912,80.584724,107.514175
"37523",500.00452,81.881134,108.82886
"37524",500.01782,83.06767,110.07418
"37525",500.03113,84.01495,111.117325
"37526",500.04443,84.65217,111.880005
"37527",500.05774,84.96712,112.34033
"37528",500.07104,85.00374,112.53217
"37529",500.08435,84.86214,112.546936
"37530",500.09766,84.63508,112.47182
"37531",500.11096,84.39338,112.37496
"37532",500.12427,84.159,112.27787
"37533",500.13757,83.93439,112.18323
"37534",500.15088,83.69024,112.06203
"37535",500.16418,83.39727,111.88438
"37536",500.1775,83.04082,111.63409
"37537",500.1908,82.65507,111.34336
"37538",500.2041,82.266884,111.03815
"37539",500.2174,81.898224,110.740326
"37540",500.2307,81.58572,110.48714
"37541",500.24402,81.35134,110.302315
"37542",500.25732,81.19264,110.185844
"37543",500.27063,81.09987,110.13034
"37544",500.28394,81.03639,110.101234
"37545",500.29724,80.96071,110.05794
"37546",500.31055,80.83864,109.96589
"37547",500.32385,80.65308,109.80654
"37548",500.33716,80.394295,109.56816
"37549",500.35046,80.09888,109.285065
"37550",500.36377,79.781494,108.97077
"37551",500.37708,79.43725,108.6197
"37552",500.39038,79.078354,108.24322
"37553",500.4037,78.72678,107.86285
"37554",500.417,78.40452,107.50079
"37555",500.4303,78.12619,107.17261
"37556",500.4436,77.89426,106.88212
"37557",500.4569,77.70626,106.62832
"37558",500.4702,77.55978,106.41016
"37559",500.48352,77.42794,106.202065
"37560",500.49683,77.30099,105.994736
"37561",500.51013,77.21065,105.82005
"37562",500.52344,77.152054,105.67429
"37563",500.53674,77.08858,105.52182
"37564",500.55005,77.01778,105.36004
"37565",500.56335,76.95674,105.20581
"37566",500.57666,76.89082,105.04479
"37567",500.58997,76.8127,104.86951
"37568",500.60327,76.74189,104.6991
"37569",500.61658,76.68818,104.54357
"37570",500.62988,76.65156,104.40346
"37571",500.6432,76.61982,104.26708
"37572",500.6565,76.60761,104.14925
"37573",500.6698,76.61494,104.05056
"37574",500.6831,76.61982,103.94966
"37575",500.6964,76.62226,103.84647
"37576",500.70972,76.63203,103.75069
"37577",500.72302,76.629585,103.643
"37578",500.73633,76.610054,103.51814
"37579",500.74963,76.58808,103.390236
"37580",500.76294,76.55634,103.25188
"37581",500.77625,76.524605,103.112526
"37582",500.78955,76.524605,103.00392
"37583",500.80286,76.59052,102.961235
"37584",500.81616,76.807816,103.07198
"37585",500.82947,77.28634,103.45075
"37586",500.84277,78.101776,104.18139
"37587",500.85608,79.256584,105.27688
"37588",500.8694,80.6775,106.67456
"37589",500.8827,82.213165,108.2314
"37590",500.896,83.67071,109.7581
"37591",500.9093,84.89632,111.09842
"37592",500.9226,85.787445,112.142555
"37593",500.9359,86.32212,112.858086
"37594",500.94922,86.536964,113.27049
"37595",500.96252,86.49302,113.430824
"37596",500.97583,86.28062,113.421326
"37597",500.98914,85.99008,113.32706
"37598",501.00244,85.697105,113.22127
"37599",501.01575,85.43343,113.13563
"37600",501.02905,85.17952,113.051506
"37601",501.04236,84.910965,112.94481
"37602",501.05566,84.60578,112.79309
"37603",501.06897,84.23224,112.56348
"37604",501.08228,83.79523,112.25872
"37605",501.09558,83.34844,111.930534
"37606",501.1089,82.930954,111.61768
"37607",501.1222,82.56718,111.3455
"37608",501.1355,82.286415,111.14496
"37609",501.1488,82.09842,111.02841
"37610",501.1621,81.971466,110.96703
"37611",501.1754,81.864044,110.92122
"37612",501.18872,81.73708,110.85251
"37613",501.20203,81.57351,110.74322
"37614",501.21533,81.36111,110.57999
"37615",501.22864,81.0901,110.35152
"37616",501.24194,80.77516,110.07064
"37617",501.25525,80.43824,109.75794
"37618",501.26855,80.08911,109.42251
"37619",501.28186,79.7351,109.07128
"37620",501.29517,79.395744,108.72365
"37621",501.30847,79.07103,108.38005
"37622",501.32178,78.76341,108.0434
"37623",501.33508,78.4802,107.72155
"37624",501.3484,78.22385,107.4177
"37625",501.3617,77.99191,107.130264
"37626",501.375,77.789276,106.864876
"37627",501.3883,77.61593,106.622444
"37628",501.4016,77.471886,106.4039
"37629",501.41492,77.35958,106.21259
"37630",501.42822,77.25704,106.02754
"37631",501.44153,77.1667,105.85149
"37632",501.45483,77.09102,105.68726
"37633",501.46814,77.01045,105.51579
"37634",501.48145,76.929886,105.341805
"37635",501.49475,76.859085,105.175064
"37636",501.50806,76.80293,105.02076
"37637",501.52136,76.75166,104.86958
"37638",501.53467,76.71015,104.72656
"37639",501.54797,76.67841,104.59202
"37640",501.56128,76.654,104.463806
"37641",501.5746,76.62226,104.32751
"37642",501.5879,76.58564,104.18533
"37643",501.6012,76.544136,104.03713
"37644",501.6145,76.49775,103.88275
"37645",501.6278,76.44648,103.72204
"37646",501.6411,76.41474,103.579254
"37647",501.65442,76.4123,103.464775
"37648",501.66772,76.41474,103.3551
"37649",501.68103,76.419624,103.24795
"37650",501.69434,76.470894,103.18733
"37651",501.70764,76.63691,103.243065
"37652",501.72095,77.00801,103.50907
"37653",501.73425,77.68673,104.09429
"37654",501.74756,78.709694,105.04497
"37655",501.76086,80.03052,106.32547
"37656",501.77417,81.529564,107.82547
"37657",501.78748,83.03349,109.3772
"37658",501.80078,84.37873,110.81723
"37659",501.8141,85.44808,112.023415
"37660",501.8274,86.17807,112.92365
"37661",501.8407,86.56626,113.504906
"37662",501.854,86.65659,113.80043
"37663",501.8673,86.519875,113.87173
"37664",501.8806,86.25376,113.80936
"37665",501.89392,85.93637,113.68739
"37666",501.90723,85.61654,113.55307
"37667",501.92053,85.31869,113.43073
"37668",501.93384,85.033035,113.31129
"37669",501.94714,84.71076,113.14629
"37670",501.96045,84.334785,112.91753
"37671",501.97375,83.90509,112.62329
"37672",501.98706,83.438774,112.27901
"37673",502.00037,82.9749,111.92259
"37674",502.01367,82.58915,111.62981
"37675",502.02698,82.31327,111.43484
"37676",502.04028,82.127716,111.32157
"37677",502.0536,82.003204,111.26355
"37678",502.0669,81.90555,111.22849
"37679",502.0802,81.79324,111.175735
"37680",502.0935,81.6321,111.07063
"37681",502.1068,81.41726,110.90679
"37682",502.12012,81.15846,110.69228
"37683",502.13342,80.86061,110.43063
"37684",502.14673,80.52613,110.12305
"37685",502.16003,80.15991,109.77327
"37686",502.17334,79.781494,109.39985
"37687",502.18665,79.395744,109.00727
"37688",502.19995,79.01732,108.60996
"37689",502.21326,78.658424,108.22036
"37690",502.22656,78.331276,107.85129
"37691",502.23987,78.04074,107.508606
"37692",502.25317,77.79172,107.19836
"37693",502.26648,77.58419,106.92182
"37694",502.2798,77.41085,106.67299
"37695",502.2931,77.27169,106.45292
"37696",502.3064,77.171585,106.267555
"37697",502.3197,77.0959,106.103485
"37698",502.333,77.01778,105.93461
"37699",502.3463,76.929886,105.753525
"37700",502.35962,76.83223,105.55993
"37701",502.37292,76.732124,105.36083
"37702",502.38623,76.66132,105.18791
"37703",502.39954,76.63691,105.059166
"37704",502.41284,76.64179,104.958954
"37705",502.42615,76.654,104.86622
"37706",502.43945,76.64912,104.756775
"37707",502.45276,76.60517,104.608116
"37708",502.46606,76.53193,104.42879
"37709",502.47937,76.453804,104.24229
"37710",502.49268,76.37568,104.053345
"37711",502.50598,76.317085,103.88149
"37712",502.5193,76.29267,103.74199
"37713",502.5326,76.28535,103.61881
"37714",502.5459,76.280464,103.49785
"37715",502.5592,76.280464,103.381615
"37716",502.5725,76.27314,103.25806
"37717",502.58582,76.24872,103.11717
"37718",502.59912,76.224304,102.97553
"37719",502.61243,76.23895,102.87219
"37720",502.62573,76.34882,102.86453
"37721",502.63904,76.65156,103.05317
"37722",502.65234,77.23506,103.532036
"37723",502.66565,78.17258,104.38315
"37724",502.67896,79.44457,105.59804
"37725",502.69226,80.9485,107.08461
"37726",502.70557,82.51835,108.6841
"37727",502.71887,83.980774,110.22522
"37728",502.73218,85.19173,111.56057
"37729",502.74548,86.065765,112.59685
"37730",502.7588,86.588234,113.30887
"37731",502.7721,86.7982,113.72472
"37732",502.7854,86.751816,113.89077
"37733",502.7987,86.51743,113.86738
"37734",502.812,86.17563,113.72924
"37735",502.82532,85.79477,113.54137
"37736",502.83862,85.418785,113.346466
"37737",502.85193,85.04768,113.1447
"37738",502.86523,84.68391,112.93866
"37739",502.87854,84.31281,112.713936
"37740",502.89185,83.90753,112.44343
"37741",502.90515,83.48028,112.13828
"37742",502.91846,83.06279,111.82955
"37743",502.93176,82.67948,111.541954
"37744",502.94507,82.35966,111.30586
"37745",502.95837,82.127716,111.14766
"37746",502.97168,81.969025,111.05546
"37747",502.985,81.85672,111.004684
"37748",502.9983,81.761505,110.96749
"37749",503.0116,81.64675,110.90778
"37750",503.0249,81.495384,110.80788
"37751",503.0382,81.307396,110.66662
"37752",503.0515,81.077896,110.477974
"37753",503.06482,80.79469,110.228455
"37754",503.07812,80.45533,109.913925
"37755",503.09143,80.08179,109.55461
"37756",503.10474,79.68383,109.15921
"37757",503.11804,79.27856,108.74406
"37758",503.13135,78.89281,108.33576
"37759",503.14465,78.538795,107.94715
"37760",503.15796,78.221405,107.5841
"37761",503.17126,77.93576,107.242874
"37762",503.18457,77.69161,106.93422
"37763",503.19788,77.486534,106.657005
"37764",503.21118,77.32784,106.41977
"37765",503.2245,77.20088,106.209305
"37766",503.2378,77.0959,106.01685
"37767",503.2511,77.00557,105.83577
"37768",503.2644,76.93477,105.671394
"37769",503.2777,76.88106,105.5219
"37770",503.29102,76.83711,105.380486
"37771",503.30432,76.79561,105.24014
"37772",503.31763,76.76387,105.10827
"37773",503.33093,76.749214,104.992485
"37774",503.34424,76.754105,104.89579
"37775",503.35754,76.75899,104.79924
"37776",503.37085,76.76143,104.7004
"37777",503.38416,76.74677,104.58454
"37778",503.39746,76.71259,104.4487
"37779",503.41077,76.67109,104.30447
"37780",503.42407,76.64423,104.173584
"37781",503.43738,76.629585,104.05407
"37782",503.45068,76.612495,103.931656
"37783",503.464,76.58564,103.79894
"37784",503.4773,76.56611,103.672714
"37785",503.4906,76.610054,103.60935
"37786",503.5039,76.80293,103.6963
"37787",503.5172,77.25948,104.05294
"37788",503.53052,78.065155,104.77297
"37789",503.54382,79.21507,105.86243
"37790",503.55713,80.62623,107.249054
"37791",503.57043,82.159454,108.80185
"37792",503.58374,83.631645,110.34152
"37793",503.59705,84.86458,111.68794
"37794",503.61035,85.753265,112.728645
"37795",503.62366,86.26841,113.42358
"37796",503.63696,86.451515,113.80257
"37797",503.65027,86.363625,113.91628
"37798",503.66357,86.08774,113.83926
"37799",503.67688,85.70443,113.64619
"37800",503.6902,85.26742,113.387436
"37801",503.7035,84.81087,113.09549
"37802",503.7168,84.36164,112.7966
"37803",503.7301,83.91974,112.491
"37804",503.7434,83.47784,112.171585
"37805",503.7567,83.035934,111.83836
"37806",503.77002,82.6038,111.5011
"37807",503.78333,82.20584,111.18451
"37808",503.79663,81.87381,110.92141
"37809",503.80994,81.6321,110.73826
"37810",503.82324,81.48806,110.64522
"37811",503.83655,81.42214,110.6258
"37812",503.84985,81.39773,110.64583
"37813",503.86316,81.37087,110.66265
"37814",503.87646,81.29519,110.62981
