"","Time..s.","PPG.trace","Preprocessed.PPG"
"98275",1318.0887,80.49195,176.66742
"98276",1318.1022,80.53834,176.72919
"98277",1318.1154,80.587166,176.79485
"98278",1318.1285,80.62623,176.85226
"98279",1318.142,80.6482,176.89381
"98280",1318.1554,80.65064,176.91652
"98281",1318.1686,80.63111,176.91733
"98282",1318.1818,80.58228,176.88823
"98283",1318.1952,80.499275,176.82343
"98284",1318.2086,80.39918,176.73894
"98285",1318.2218,80.289314,176.64156
"98286",1318.235,80.17944,176.54073
"98287",1318.2484,80.076904,176.44379
"98288",1318.2618,79.98413,176.35342
"98289",1318.275,79.89868,176.26749
"98290",1318.2882,79.818115,176.18375
"98291",1318.3016,79.742424,176.10237
"98292",1318.3151,79.67895,176.03084
"98293",1318.3282,79.63256,175.97441
"98294",1318.3414,79.605705,175.93607
"98295",1318.3549,79.5935,175.91153
"98296",1318.3683,79.59106,175.89638
"98297",1318.3815,79.59838,175.89091
"98298",1318.3947,79.605705,175.88568
"98299",1318.4081,79.60815,175.8758
"98300",1318.4215,79.605705,175.8611
"98301",1318.4347,79.60082,175.84389
"98302",1318.4479,79.59106,175.82164
"98303",1318.4613,79.57641,175.7942
"98304",1318.4747,79.54955,175.7541
"98305",1318.4879,79.517815,175.70828
"98306",1318.5011,79.48119,175.65659
"98307",1318.5145,79.44457,175.60374
"98308",1318.528,79.42016,175.56197
"98309",1318.5411,79.43969,175.56337
"98310",1318.5543,79.534904,175.64107
"98311",1318.5677,79.7351,175.82672
"98312",1318.5812,80.05249,176.13583
"98313",1318.5944,80.46754,176.55252
"98314",1318.6075,80.92897,177.02856
"98315",1318.621,81.37087,177.4995
"98316",1318.6344,81.7322,177.90367
"98317",1318.6476,81.969025,178.19463
"98318",1318.6608,82.07156,178.3587
"98319",1318.6742,82.054474,178.40636
"98320",1318.6876,81.94461,178.3607
"98321",1318.7008,81.77371,178.25058
"98322",1318.714,81.57107,178.10336
"98323",1318.7274,81.36111,177.9425
"98324",1318.7408,81.160904,177.78484
"98325",1318.754,80.9778,177.63802
"98326",1318.7672,80.814224,177.505
"98327",1318.7806,80.66285,177.37907
"98328",1318.7941,80.52613,177.26308
"98329",1318.8073,80.4065,177.1599
"98330",1318.8204,80.31129,177.0774
"98331",1318.8339,80.25269,177.02853
"98332",1318.8473,80.235596,177.01933
"98333",1318.8605,80.257576,177.04868
"98334",1318.8737,80.30152,177.10068
"98335",1318.8871,80.35767,177.16626
"98336",1318.9005,80.39918,177.21895
"98337",1318.9137,80.42115,177.2534
"98338",1318.9269,80.41627,177.26169
"98339",1318.9403,80.37965,177.23808
"98340",1318.9537,80.31861,177.18892
"98341",1318.9669,80.23804,177.1183
"98342",1318.9801,80.14038,177.02808
"98343",1318.9935,80.03052,176.9226
"98344",1319.007,79.91577,176.8088
"98345",1319.0201,79.801025,176.69144
"98346",1319.0333,79.691154,176.57535
"98347",1319.0468,79.588615,176.46315
"98348",1319.0602,79.49828,176.35995
"98349",1319.0734,79.4226,176.26859
"98350",1319.0865,79.361565,176.1895
"98351",1319.1,79.31518,176.12315
"98352",1319.1134,79.290764,176.07733
"98353",1319.1266,79.281,176.0454
"98354",1319.1398,79.28588,176.0278
"98355",1319.1532,79.30053,176.02013
"98356",1319.1666,79.3225,176.02023
"98357",1319.1798,79.344475,176.02103
"98358",1319.193,79.35424,176.0103
"98359",1319.2064,79.34936,175.98523
"98360",1319.2198,79.33715,175.95268
"98361",1319.233,79.327385,175.9222
"98362",1319.2462,79.35668,175.93047
"98363",1319.2596,79.47387,176.02754
"98364",1319.2731,79.72289,176.26012
"98365",1319.2863,80.111084,176.63965
"98366",1319.2994,80.60914,177.14117
"98367",1319.3129,81.15114,177.70221
"98368",1319.3263,81.65896,178.246
"98369",1319.3395,82.06668,178.70557
"98370",1319.3527,82.33036,179.03383
"98371",1319.3661,82.44022,179.21652
"98372",1319.3795,82.41337,179.26593
"98373",1319.3927,82.28153,179.20952
"98374",1319.4059,82.07889,179.07817
"98375",1319.4193,81.85672,178.92097
"98376",1319.4327,81.64187,178.76414
"98377",1319.4459,81.463646,178.63724
"98378",1319.4591,81.324486,178.54382
"98379",1319.4725,81.2195,178.48022
"98380",1319.486,81.129166,178.42801
"98381",1319.4991,81.03883,178.37297
"98382",1319.5123,80.9485,178.31511
"98383",1319.5258,80.86061,178.25687
"98384",1319.5392,80.780045,178.2032
"98385",1319.5524,80.719,178.16653
"98386",1319.5656,80.67994,178.14995
"98387",1319.579,80.655525,178.14679
"98388",1319.5924,80.64332,178.15508
"98389",1319.6056,80.62379,178.15565
"98390",1319.6188,80.59205,178.14342
"98391",1319.6322,80.54566,178.11554
"98392",1319.6456,80.4773,178.06424
"98393",1319.6588,80.39185,177.99371
"98394",1319.672,80.29908,177.9132
"98395",1319.6854,80.201416,177.82487
"98396",1319.6989,80.09888,177.72864
"98397",1319.712,79.9939,177.62674
"98398",1319.7252,79.886475,177.51913
"98399",1319.7386,79.77905,177.40817
"98400",1319.7521,79.67162,177.29384
"98401",1319.7653,79.57885,177.1908
"98402",1319.7784,79.50317,177.10194
"98403",1319.7919,79.44213,177.02538
"98404",1319.8053,79.398186,176.96399
"98405",1319.8185,79.37133,176.91832
"98406",1319.8317,79.35424,176.88158
"98407",1319.8451,79.344475,176.85162
"98408",1319.8585,79.33715,176.8238
"98409",1319.8717,79.3225,176.78844
"98410",1319.8849,79.30297,176.74773
"98411",1319.8983,79.273674,176.69664
"98412",1319.9117,79.23216,176.63243
"98413",1319.9249,79.19066,176.56693
"98414",1319.9381,79.151596,176.50256
"98415",1319.9515,79.11742,176.44186
"98416",1319.965,79.08568,176.38254
"98417",1319.9781,79.05638,176.32466
"98418",1319.9913,79.029526,176.26831
"98419",1320.0048,79.027084,176.23553
"98420",1320.0182,79.08324,176.26128
"98421",1320.0314,79.25414,176.40353
"98422",1320.0446,79.571526,176.6976
"98423",1320.058,80.042725,177.15541
"98424",1320.0714,80.618904,177.73293
"98425",1320.0846,81.22682,178.36018
"98426",1320.0978,81.77371,178.94542
"98427",1320.1112,82.178986,179.40613
"98428",1320.1246,82.408485,179.70372
"98429",1320.1378,82.4622,179.8327
"98430",1320.151,82.37919,179.82664
"98431",1320.1644,82.20584,179.72765
"98432",1320.1779,81.99832,179.58907
"98433",1320.191,81.79813,179.45132
"98434",1320.2042,81.64675,179.35614
"98435",1320.2177,81.55154,179.3124
"98436",1320.2311,81.50515,179.3145
"98437",1320.2443,81.4905,179.3469
"98438",1320.2574,81.47585,179.37883
"98439",1320.2709,81.43191,179.38101
"98440",1320.2843,81.34646,179.34032
"98441",1320.2975,81.21706,179.25299
"98442",1320.3107,81.058365,179.13234
"98443",1320.3241,80.89479,179.00185
"98444",1320.3375,80.74586,178.88087
"98445",1320.3507,80.62867,178.787
"98446",1320.3639,80.54078,178.71877
"98447",1320.3773,80.482185,178.67708
"98448",1320.3907,80.430916,178.64088
"98449",1320.4039,80.377205,178.60065
"98450",1320.4171,80.31373,178.54897
"98451",1320.4305,80.24292,178.48796
"98452",1320.444,80.16235,178.41498
"98453",1320.4572,80.07202,178.32971
"98454",1320.4703,79.97925,178.2392
"98455",1320.4838,79.87915,178.13846
"98456",1320.4972,79.77173,178.02725
"98457",1320.5104,79.65942,177.9078
"98458",1320.5236,79.54955,177.7873
"98459",1320.537,79.44213,177.66579
"98460",1320.5504,79.33959,177.5458
"98461",1320.5636,79.24925,177.43483
"98462",1320.5768,79.17601,177.33812
"98463",1320.5902,79.11742,177.25377
"98464",1320.6036,79.07347,177.18224
"98465",1320.6168,79.03929,177.1191
"98466",1320.63,79.00511,177.05489
"98467",1320.6434,78.97093,176.98961
"98468",1320.6569,78.93431,176.92082
"98469",1320.67,78.89525,176.84845
"98470",1320.6832,78.856186,176.77486
"98471",1320.6967,78.819565,176.70248
"98472",1320.7101,78.78783,176.63385
"98473",1320.7233,78.76097,176.5691
"98474",1320.7365,78.73411,176.50352
"98475",1320.7499,78.70237,176.43222
"98476",1320.7633,78.66575,176.35504
"98477",1320.7765,78.62913,176.27672
"98478",1320.7897,78.59495,176.19969
"98479",1320.8031,78.56321,176.12404
"98480",1320.8165,78.536354,176.05228
"98481",1320.8297,78.50706,175.97723
"98482",1320.8429,78.4802,175.90372
"98483",1320.8563,78.45335,175.82936
"98484",1320.8698,78.42649,175.75417
"98485",1320.8829,78.399635,175.67813
"98486",1320.8961,78.380104,175.60858
"98487",1320.9095,78.3679,175.54575
"98488",1320.923,78.35569,175.48253
"98489",1320.9362,78.345924,175.42137
"98490",1320.9493,78.3386,175.36235
"98491",1320.9628,78.331276,175.3031
"98492",1320.9762,78.31907,175.23874
"98493",1320.9894,78.30686,175.174
"98494",1321.0026,78.2971,175.11131
"98495",1321.016,78.29221,175.0532
"98496",1321.0294,78.28733,174.99495
"98497",1321.0426,78.28489,174.93898
"98498",1321.0558,78.28733,174.88782
"98499",1321.0692,78.33372,174.88068
"98500",1321.0826,78.47288,174.96776
"98501",1321.0958,78.751205,175.19836
"98502",1321.109,79.19554,175.60367
"98503",1321.1224,79.79614,176.17912
"98504",1321.1359,80.48951,176.86612
"98505",1321.149,81.180435,177.57234
"98506",1321.1622,81.761505,178.1903
"98507",1321.1757,82.16434,178.6482
"98508",1321.1891,82.35966,178.91115
"98509",1321.2023,82.354774,178.98001
"98510",1321.2155,82.20828,178.9071
"98511",1321.2289,81.986115,178.75395
"98512",1321.2423,81.74685,178.57675
"98513",1321.2555,81.54421,178.42871
"98514",1321.2687,81.40505,178.33781
"98515",1321.2821,81.33669,178.31337
"98516",1321.2955,81.32693,178.34538
"98517",1321.3087,81.35134,178.41127
"98518",1321.3219,81.38064,178.4828
"98519",1321.3353,81.375755,178.52107
"98520",1321.3488,81.3196,178.50792
"98521",1321.3619,81.20729,178.43684
"98522",1321.3751,81.05104,178.31833
"98523",1321.3885,80.88014,178.18028
"98524",1321.402,80.72144,178.04909
"98525",1321.4152,80.58961,177.9398
"98526",1321.4283,80.49683,177.86546
"98527",1321.4418,80.4358,177.81996
"98528",1321.4552,80.396736,177.79453
"98529",1321.4684,80.36256,177.77275
"98530",1321.4816,80.323494,177.74503
"98531",1321.495,80.27711,177.70876
"98532",1321.5084,80.21362,177.65393
"98533",1321.5216,80.14282,177.58981
"98534",1321.5348,80.05737,177.50882
"98535",1321.5482,79.9646,177.41785
"98536",1321.5616,79.869385,177.32153
"98537",1321.5748,79.77173,177.21979
"98538",1321.588,79.67162,177.11255
"98539",1321.6014,79.569084,176.99974
"98540",1321.6149,79.47143,176.88861
"98541",1321.628,79.38354,176.7842
"98542",1321.6412,79.30785,176.68924
"98543",1321.6547,79.24437,176.60413
"98544",1321.6681,79.202866,176.539
"98545",1321.6813,79.17357,176.48479
"98546",1321.6945,79.151596,176.43698
"98547",1321.7079,79.12962,176.38849
"98548",1321.7213,79.11009,176.34175
"98549",1321.7345,79.09056,176.2944
"98550",1321.7477,79.07103,176.24644
"98551",1321.7611,79.044174,176.19055
"98552",1321.7745,79.012436,176.12894
"98553",1321.7877,78.9807,176.06633
"98554",1321.8009,78.94896,176.00273
"98555",1321.8143,78.91966,175.94058
"98556",1321.8278,78.89769,175.88484
"98557",1321.841,78.87816,175.83086
"98558",1321.8541,78.86107,175.7787
"98559",1321.8676,78.84154,175.72357
"98560",1321.881,78.819565,175.66539
"98561",1321.8942,78.79515,175.60408
"98562",1321.9073,78.768295,175.53957
"98563",1321.9208,78.73899,175.47177
"98564",1321.9342,78.71458,175.40794
"98565",1321.9474,78.69749,175.35068
"98566",1321.9606,78.6804,175.29288
"98567",1321.974,78.66575,175.23698
"98568",1321.9874,78.65598,175.18552
"98569",1322.0006,78.65598,175.14351
"98570",1322.0138,78.6804,175.12592
"98571",1322.0272,78.77562,175.1799
"98572",1322.0406,78.98802,175.35403
"98573",1322.0538,79.34692,175.6813
"98574",1322.067,79.84497,176.15895
"98575",1322.0804,80.430916,176.74005
"98576",1322.0939,81.02663,177.34923
"98577",1322.107,81.54421,177.8989
"98578",1322.1202,81.90799,178.31093
"98579",1322.1337,82.09354,178.5561
"98580",1322.1471,82.11063,178.63863
"98581",1322.1603,81.99588,178.58984
"98582",1322.1735,81.795685,178.45203
"98583",1322.1869,81.56374,178.2762
"98584",1322.2003,81.339134,178.10046
"98585",1322.2135,81.15358,177.95676
"98586",1322.2267,81.024185,177.86342
"98587",1322.2401,80.95094,177.82219
"98588",1322.2535,80.91676,177.81773
"98589",1322.2667,80.89723,177.82686
"98590",1322.2799,80.86549,177.82317
"98591",1322.2933,80.799576,177.7843
"98592",1322.3068,80.709236,177.71895
"98593",1322.32,80.60914,177.64102
"98594",1322.3331,80.51392,177.56485
"98595",1322.3466,80.4358,177.50279
"98596",1322.36,80.38697,177.46759
"98597",1322.3732,80.35035,177.44307
"98598",1322.3864,80.31373,177.4174
"98599",1322.3998,80.272224,177.38571
"98600",1322.4132,80.22339,177.34538
"98601",1322.4264,80.15991,177.28888
"98602",1322.4396,80.08423,177.2182
"98603",1322.453,80.00122,177.13782
"98604",1322.4664,79.91089,177.04752
"98605",1322.4796,79.81323,176.94708
"98606",1322.4928,79.708244,176.83626
"98607",1322.5062,79.60815,176.72704
"98608",1322.5197,79.50805,176.61469
"98609",1322.5328,79.412834,176.50409
"98610",1322.546,79.327385,176.40028
"98611",1322.5594,79.2517,176.30357
"98612",1322.5729,79.1931,176.22159
"98613",1322.586,79.149155,176.15242
"98614",1322.5992,79.11986,176.09653
"98615",1322.6127,79.10033,176.04948
"98616",1322.6261,79.093,176.01404
"98617",1322.6393,79.08812,175.9808
"98618",1322.6525,79.078354,175.94254
"98619",1322.6659,79.06859,175.90396
"98620",1322.6793,79.05882,175.86508
"98621",1322.6925,79.046616,175.82346
"98622",1322.7057,79.02464,175.77168
"98623",1322.7191,78.99779,175.71434
"98624",1322.7325,78.96605,175.65128
"98625",1322.7457,78.93919,175.5921
"98626",1322.7589,78.907455,175.5272
"98627",1322.7723,78.87816,175.46376
"98628",1322.7858,78.856186,175.40672
"98629",1322.799,78.83421,175.349
"98630",1322.8121,78.8098,175.28815
"98631",1322.8256,78.78294,175.22409
"98632",1322.839,78.765854,175.16896
"98633",1322.8522,78.77806,175.1426
"98634",1322.8654,78.853745,175.18008
"98635",1322.8788,79.044174,175.33469
"98636",1322.8922,79.37133,175.63197
"98637",1322.9054,79.83276,176.07376
"98638",1322.9186,80.38209,176.61786
"98639",1322.932,80.94118,177.18889
"98640",1322.9454,81.41726,177.69438
"98641",1322.9586,81.74197,178.06339
"98642",1322.9718,81.900665,178.27652
"98643",1322.9852,81.89578,178.33104
"98644",1322.9987,81.76883,178.26334
"98645",1323.0118,81.57351,178.12329
"98646",1323.025,81.35134,177.9503
"98647",1323.0385,81.13161,177.7728
"98648",1323.0519,80.9485,177.62506
"98649",1323.0651,80.81178,177.51799
"98650",1323.0782,80.72144,177.45302
"98651",1323.0917,80.66773,177.42186
"98652",1323.1051,80.62623,177.40123
"98653",1323.1183,80.5774,177.37198
"98654",1323.1315,80.50904,177.32167
"98655",1323.1449,80.42603,177.25458
"98656",1323.1583,80.33326,177.17513
"98657",1323.1715,80.25269,177.10498
"98658",1323.1847,80.18921,177.0494
"98659",1323.1981,80.14038,177.00647
"98660",1323.2115,80.10376,176.97424
"98661",1323.2247,80.07202,176.94574
"98662",1323.2379,80.03296,176.90894
"98663",1323.2513,79.98413,176.86115
"98664",1323.2648,79.91577,176.7923
"98665",1323.278,79.83276,176.70667
"98666",1323.2911,79.742424,176.6111
"98667",1323.3046,79.64965,176.51027
"98668",1323.318,79.55932,176.40898
"98669",1323.3312,79.47387,176.30975
"98670",1323.3444,79.39086,176.2103
"98671",1323.3578,79.31518,176.11557
"98672",1323.3712,79.24437,176.02336
"98673",1323.3844,79.17845,175.93382
"98674",1323.3976,79.11986,175.84955
"98675",1323.411,79.07347,175.77565
"98676",1323.4244,79.03929,175.71251
"98677",1323.4376,79.01732,175.6605
"98678",1323.4508,79.009995,175.62247
"98679",1323.4642,79.00267,175.5842
"98680",1323.4777,78.99046,175.54082
"98681",1323.4908,78.9807,175.4995
"98682",1323.504,78.975815,175.46275
"98683",1323.5175,78.975815,175.43074
"98684",1323.5309,78.97337,175.39629
"98685",1323.5441,78.97093,175.36176
"98686",1323.5573,78.96605,175.3247
"98687",1323.5707,78.95384,175.28018
"98688",1323.5841,78.93187,175.22551
"98689",1323.5973,78.905014,175.16527
"98690",1323.6105,78.87816,175.10419
"98691",1323.6239,78.84886,175.03983
"98692",1323.6373,78.81468,174.96967
"98693",1323.6505,78.79515,174.91309
"98694",1323.6637,78.78294,174.86322
"98695",1323.6771,78.7805,174.82274
"98696",1323.6906,78.7805,174.78462
"98697",1323.7037,78.785385,174.75139
"98698",1323.7169,78.785385,174.71342
"98699",1323.7303,78.785385,174.67546
"98700",1323.7438,78.7805,174.63261
"98701",1323.757,78.7805,174.5945
"98702",1323.7701,78.785385,174.56126
"98703",1323.7836,78.8098,174.54771
"98704",1323.797,78.90013,174.60085
"98705",1323.8102,79.10765,174.77399
"98706",1323.8234,79.4641,175.10255
"98707",1323.8368,79.96216,175.58386
"98708",1323.8502,80.552986,176.17351
"98709",1323.8634,81.15358,176.79138
"98710",1323.8766,81.668724,177.34258
"98711",1323.89,82.02518,177.75117
"98712",1323.9034,82.18875,177.97804
"98713",1323.9166,82.178986,178.03668
"98714",1323.9298,82.03494,177.96074
"98715",1323.9432,81.80789,177.79729
"98716",1323.9567,81.55154,177.59743
"98717",1323.9698,81.30984,177.40422
"98718",1323.983,81.112076,177.24739
"98719",1323.9965,80.97536,177.14543
"98720",1324.0099,80.89723,177.0978
"98721",1324.0231,80.85573,177.08434
"98722",1324.0363,80.831314,177.08667
"98723",1324.0497,80.797134,177.07848
"98724",1324.0631,80.73121,177.03746
"98725",1324.0763,80.63355,176.96266
"98726",1324.0895,80.516365,176.86528
"98727",1324.1029,80.394295,176.75935
"98728",1324.1163,80.291756,176.66914
"98729",1324.1295,80.21362,176.60013
"98730",1324.1427,80.164795,176.55798
"98731",1324.1561,80.130615,176.52896
"98732",1324.1696,80.10376,176.5062
"98733",1324.1827,80.076904,176.48257
"98734",1324.1959,80.03784,176.44592
"98735",1324.2094,79.97925,176.38852
"98736",1324.2228,79.90845,176.31708
"98737",1324.236,79.83276,176.23853
"98738",1324.2491,79.74975,176.15028
"98739",1324.2626,79.66918,176.06189
"98740",1324.276,79.59594,175.9783
"98741",1324.2892,79.52758,175.89731
"98742",1324.3024,79.4641,175.81906
"98743",1324.3158,79.40063,175.73883
"98744",1324.3292,79.34203,175.6615
"98745",1324.3424,79.293205,175.5921
"98746",1324.3556,79.256584,175.53339
"98747",1324.369,79.22972,175.48329
"98748",1324.3824,79.21019,175.43968
"98749",1324.3956,79.19554,175.40034
"98750",1324.4088,79.185776,175.36543
"98751",1324.4222,79.183334,175.33754
"98752",1324.4357,79.183334,175.31201
"98753",1324.4489,79.18822,175.29137
"98754",1324.462,79.19554,175.27332
"98755",1324.4755,79.1931,175.24573
"98756",1324.4889,79.183334,175.21074
"98757",1324.5021,79.166245,175.16812
"98758",1324.5153,79.13939,175.1152
"98759",1324.5287,79.10521,175.05412
"98760",1324.5421,79.07347,174.99442
"98761",1324.5553,79.044174,174.93616
"98762",1324.5685,79.01732,174.87943
"98763",1324.5819,79.00023,174.83162
"98764",1324.5953,78.992905,174.79305
"98765",1324.6085,78.98314,174.7518
"98766",1324.6217,78.9807,174.71758
"98767",1324.6351,78.98558,174.6906
"98768",1324.6486,78.995346,174.66866
"98769",1324.6617,79.00511,174.64702
"98770",1324.6749,79.01488,174.62569
"98771",1324.6884,79.02464,174.60466
"98772",1324.7018,79.03197,174.5815
"98773",1324.715,79.03685,174.55612
"98774",1324.7281,79.044174,174.53334
"98775",1324.7416,79.04906,174.50835
"98776",1324.755,79.0515,174.48106
"98777",1324.7682,79.04906,174.44897
"98778",1324.7814,79.046616,174.41681
"98779",1324.7948,79.061264,174.40166
"98780",1324.8082,79.132065,174.44312
"98781",1324.8214,79.31274,174.59666
"98782",1324.8346,79.64477,174.90721
"98783",1324.848,80.13306,175.3844
"98784",1324.8615,80.73609,175.9916
"98785",1324.8746,81.36599,176.6445
"98786",1324.8878,81.9202,177.2414
"98787",1324.9012,82.31327,177.69447
"98788",1324.9147,82.50614,177.95964
"98789",1324.9279,82.513466,178.04529
"98790",1324.941,82.37675,177.98712
"98791",1324.9545,82.14969,177.83434
"98792",1324.9679,81.87869,177.63052
"98793",1324.9811,81.61013,177.42067
"98794",1324.9943,81.373314,177.23418
"98795",1325.0077,81.1902,177.09398
"98796",1325.0211,81.06813,177.00911
"98797",1325.0343,81.00221,176.97658
"98798",1325.0475,80.97536,176.98105
"98799",1325.0609,80.953384,176.98956
"98800",1325.0743,80.91188,176.97786
"98801",1325.0875,80.84352,176.938
"98802",1325.1007,80.74586,176.8667
"98803",1325.1141,80.63355,176.77771
"98804",1325.1276,80.5359,176.69986
"98805",1325.1407,80.45777,176.63849
"98806",1325.1539,80.40406,176.59909
"98807",1325.1674,80.360115,176.56778
"98808",1325.1808,80.32838,176.5473
"98809",1325.194,80.291756,176.52095
"98810",1325.2072,80.25025,176.48857
"98811",1325.2206,80.201416,176.44756
"98812",1325.234,80.14282,176.39526
"98813",1325.2472,80.07202,176.32892
"98814",1325.2604,79.99634,176.2555
"98815",1325.2738,79.91333,176.17236
"98816",1325.2872,79.82788,176.0842
"98817",1325.3004,79.744865,175.9958
"98818",1325.3136,79.6643,175.90726
"98819",1325.327,79.588615,175.82108
"98820",1325.3405,79.517815,175.73741
"98821",1325.3536,79.45678,175.6613
"98822",1325.3668,79.40307,175.5906
"98823",1325.3802,79.35912,175.528
"98824",1325.3937,79.32983,175.47867
"98825",1325.4069,79.32006,175.44795
"98826",1325.42,79.327385,175.43402
"98827",1325.4335,79.34203,175.42764
"98828",1325.4469,79.36645,175.43149
"98829",1325.4601,79.38842,175.43365
"98830",1325.4733,79.40551,175.43163
"98831",1325.4867,79.40795,175.41548
"98832",1325.5001,79.40307,175.39209
"98833",1325.5133,79.38598,175.35634
"98834",1325.5265,79.35668,175.30785
"98835",1325.5399,79.327385,175.25844
"98836",1325.5533,79.290764,175.20079
"98837",1325.5665,79.25414,175.142
"98838",1325.5797,79.2224,175.08694
"98839",1325.5931,79.19798,175.03822
"98840",1325.6066,79.18089,174.99606
"98841",1325.6198,79.17113,174.9607
"98842",1325.6329,79.1638,174.92746
"98843",1325.6464,79.1638,174.90132
"98844",1325.6598,79.166245,174.87762
"98845",1325.673,79.168686,174.854
"98846",1325.6862,79.17845,174.83778
"98847",1325.6996,79.19066,174.82431
"98848",1325.713,79.20531,174.81366
"98849",1325.7262,79.21019,174.7937
"98850",1325.7394,79.20775,174.76657
"98851",1325.7528,79.202866,174.73692
"98852",1325.7662,79.19798,174.70712
"98853",1325.7794,79.19798,174.68205
"98854",1325.7926,79.202866,174.66187
"98855",1325.806,79.21019,174.64427
"98856",1325.8195,79.21507,174.62447
"98857",1325.8326,79.22484,174.6097
"98858",1325.8458,79.26879,174.62943
"98859",1325.8593,79.40063,174.7384
"98860",1325.8727,79.66186,174.9809
"98861",1325.8859,80.08179,175.39026
"98862",1325.899,80.62867,175.9397
"98863",1325.9125,81.24391,176.57458
"98864",1325.9259,81.82498,177.19453
"98865",1325.9391,82.28397,177.71056
"98866",1325.9523,82.562294,178.06026
"98867",1325.9657,82.652626,178.23067
"98868",1325.9791,82.58427,178.24521
"98869",1325.9923,82.40116,178.14287
"98870",1326.0055,82.144806,177.96155
"98871",1326.0189,81.8616,177.74538
"98872",1326.0323,81.583275,177.52522
"98873",1326.0455,81.339134,177.33057
"98874",1326.0587,81.1487,177.18198
"98875",1326.0721,81.024185,177.09337
"98876",1326.0856,80.955826,177.05702
"98877",1326.0988,80.919205,177.05028
"98878",1326.1119,80.88258,177.04239
"98879",1326.1254,80.82643,177.01382
"98880",1326.1388,80.74586,176.95908
"98881",1326.152,80.655525,176.89206
"98882",1326.1652,80.570076,176.8271
"98883",1326.1786,80.49439,176.76924
"98884",1326.192,80.4358,176.7261
"98885",1326.2052,80.39185,176.69579
"98886",1326.2184,80.35279,176.66898
"98887",1326.2318,80.31129,176.6385
"98888",1326.2452,80.26978,176.60674
"98889",1326.2584,80.22095,176.56633
"98890",1326.2716,80.164795,176.51709
"98891",1326.285,80.09888,176.45633
"98892",1326.2985,80.028076,176.38861
"98893",1326.3116,79.94995,176.31137
"98894",1326.3248,79.87671,176.23657
"98895",1326.3383,79.80347,176.15948
"98896",1326.3517,79.73754,176.08742
"98897",1326.3649,79.67162,176.01329
"98898",1326.378,79.61059,175.94199
"98899",1326.3915,79.54955,175.86877
"98900",1326.4049,79.49096,175.7961
"98901",1326.4181,79.44213,175.73135
"98902",1326.4313,79.40307,175.67485
"98903",1326.4447,79.38598,175.6391
"98904",1326.4581,79.381096,175.61502
"98905",1326.4713,79.38842,175.603
"98906",1326.4845,79.40063,175.59608
"98907",1326.4979,79.41039,175.58711
"98908",1326.5114,79.41039,175.56868
"98909",1326.5245,79.41039,175.55025
"98910",1326.5377,79.40307,175.52449
"98911",1326.5511,79.395744,175.4985
"98912",1326.5646,79.38842,175.47229
"98913",1326.5778,79.378654,175.4434
"98914",1326.591,79.361565,175.40689
"98915",1326.6044,79.33959,175.36496
"98916",1326.6178,79.31518,175.3199
"98917",1326.631,79.29565,175.27896
"98918",1326.6442,79.27856,175.23985
"98919",1326.6576,79.26391,175.20265
"98920",1326.671,79.256584,175.17232
"98921",1326.6842,79.24437,175.13687
"98922",1326.6974,79.23216,175.10104
"98923",1326.7108,79.2224,175.06728
"98924",1326.7242,79.2224,175.04297
"98925",1326.7374,79.22728,175.02354
"98926",1326.7506,79.237045,175.00916
"98927",1326.764,79.24681,174.99507
"98928",1326.7775,79.26147,174.98619
"98929",1326.7906,79.26879,174.97043
"98930",1326.8038,79.276115,174.9549
"98931",1326.8173,79.28344,174.93959
"98932",1326.8307,79.293205,174.92696
"98933",1326.8439,79.30297,174.91463
"98934",1326.857,79.310295,174.90016
"98935",1326.8705,79.32006,174.88837
"98936",1326.8839,79.35668,174.90373
"98937",1326.8971,79.4641,174.99104
"98938",1326.9103,79.69604,175.20622
"98939",1326.9237,80.08179,175.58247
"98940",1326.9371,80.604256,176.1075
"98941",1326.9503,81.20485,176.72697
"98942",1326.9635,81.7908,177.35059
"98943",1326.9769,82.27421,177.88995
"98944",1326.9904,82.581825,178.26865
"98945",1327.0035,82.70634,178.47385
"98946",1327.0167,82.66239,178.51448
"98947",1327.0302,82.49149,178.42679
"98948",1327.0436,82.23758,178.25073
"98949",1327.0568,81.93973,178.02281
"98950",1327.07,81.64187,177.78557
"98951",1327.0834,81.375755,177.57077
"98952",1327.0968,81.16579,177.4038
"98953",1327.11,81.01442,177.28886
"98954",1327.1232,80.921646,177.2278
"98955",1327.1366,80.86549,177.20045
"98956",1327.15,80.82155,177.18356
"98957",1327.1632,80.765396,177.15309
"98958",1327.1764,80.69703,177.10864
"98959",1327.1898,80.61646,177.04987
"98960",1327.2032,80.53834,176.99101
"98961",1327.2164,80.4773,176.94681
"98962",1327.2296,80.43336,176.91779
"98963",1327.243,80.40162,176.8996
"98964",1327.2565,80.377205,176.88774
"98965",1327.2697,80.34791,176.87024
"98966",1327.2828,80.31129,176.8445
"98967",1327.2963,80.2649,176.80785
"98968",1327.3097,80.20874,176.75996
"98969",1327.3229,80.147705,176.70544
"98970",1327.336,80.07446,176.63681
"98971",1327.3495,79.9939,176.55856
"98972",1327.3629,79.91089,176.47537
"98973",1327.3761,79.82544,176.38715
"98974",1327.3893,79.742424,176.29868
"98975",1327.4027,79.66674,176.21494
"98976",1327.4161,79.59594,176.13371
"98977",1327.4293,79.53246,176.0576
"98978",1327.4425,79.48119,175.99171
"98979",1327.4559,79.44213,175.93643
"98980",1327.4694,79.41772,175.89458
"98981",1327.4825,79.40307,175.86172
"98982",1327.4957,79.40307,175.84306
"98983",1327.5092,79.41039,175.83173
"98984",1327.5226,79.42016,175.82306
"98985",1327.5358,79.43481,175.81958
"98986",1327.549,79.4519,175.819
"98987",1327.5624,79.47143,175.8214
"98988",1327.5758,79.48608,175.81952
"98989",1327.589,79.4934,175.81078
"98990",1327.6022,79.4934,175.79494
"98991",1327.6156,79.47875,175.76445
"98992",1327.629,79.449455,175.71886
"98993",1327.6422,79.415276,175.66747
"98994",1327.6554,79.378654,175.61256
"98995",1327.6688,79.3518,175.56628
"98996",1327.6823,79.33471,175.52893
"98997",1327.6954,79.32006,175.49348
"98998",1327.7086,79.31274,175.4649
"98999",1327.722,79.30541,175.4361
"99000",1327.7355,79.290764,175.39973
"99001",1327.7487,79.27856,175.36536
"99002",1327.7618,79.26635,175.3306
"99003",1327.7753,79.25414,175.29546
"99004",1327.7887,79.2517,175.2697
"99005",1327.8019,79.25414,175.24875
"99006",1327.8151,79.27123,175.24252
"99007",1327.8285,79.290764,175.23927
"99008",1327.8419,79.310295,175.23663
"99009",1327.8551,79.32494,175.22972
"99010",1327.8683,79.34936,175.23303
"99011",1327.8817,79.415276,175.27861
"99012",1327.8951,79.586174,175.43123
"99013",1327.9083,79.89868,175.7308
"99014",1327.9215,80.360115,176.18907
"99015",1327.9349,80.936295,176.7765
"99016",1327.9484,81.54177,177.41124
"99017",1327.9615,82.07645,177.9941
"99018",1327.9747,82.44999,178.43253
"99019",1327.9882,82.633095,178.6922
"99020",1328.0016,82.62577,178.76717
"99021",1328.0148,82.47196,178.69542
"99022",1328.028,82.21805,178.51875
"99023",1328.0414,81.92752,178.29755
"99024",1328.0548,81.63943,178.06969
"99025",1328.068,81.38796,177.86946
"99026",1328.0812,81.18776,177.71263
"99027",1328.0946,81.04616,177.60815
"99028",1328.108,80.96071,177.5554
"99029",1328.1212,80.90456,177.52928
"99030",1328.1344,80.86305,177.51605
"99031",1328.1478,80.80934,177.48932
"99032",1328.1613,80.73609,177.44136
"99033",1328.1744,80.64576,177.37404
"99034",1328.1876,80.550545,177.29901
"99035",1328.201,80.45533,177.22101
"99036",1328.2145,80.37232,177.15224
"99037",1328.2277,80.30152,177.09308
"99038",1328.2408,80.24536,177.04634
"99039",1328.2543,80.19409,177.00275
"99040",1328.2677,80.14526,176.95999
"99041",1328.2809,80.09888,176.91815
"99042",1328.2941,80.042725,176.86508
"99043",1328.3075,79.97681,176.8005
"99044",1328.3209,79.89868,176.72165
"99045",1328.3341,79.815674,176.63547
"99046",1328.3473,79.73022,176.54425
"99047",1328.3607,79.64233,176.44792
"99048",1328.3741,79.56176,176.35617
"99049",1328.3873,79.483635,176.26434
"99050",1328.4005,79.41039,176.17496
"99051",1328.414,79.33959,176.08572
"99052",1328.4274,79.276115,176.0016
"99053",1328.4406,79.22484,175.9277
"99054",1328.4537,79.19554,175.87418
"99055",1328.4672,79.183334,175.83682
"99056",1328.4806,79.19066,175.81862
"99057",1328.4938,79.200424,175.80309
"99058",1328.507,79.20775,175.78542
"99059",1328.5204,79.21019,175.76309
"99060",1328.5338,79.20531,175.73352
"99061",1328.547,79.202866,175.70624
"99062",1328.5602,79.202866,175.68132
"99063",1328.5736,79.202866,175.6564
"99064",1328.587,79.19798,175.6266
"99065",1328.6002,79.18822,175.59177
"99066",1328.6134,79.16136,175.53954
"99067",1328.6268,79.12718,175.47914
"99068",1328.6403,79.093,175.41768
"99069",1328.6534,79.06615,175.36247
"99070",1328.6666,79.0515,175.31863
"99071",1328.68,79.046616,175.2841
"99072",1328.6935,79.046616,175.2543
"99073",1328.7067,79.04906,175.22694
"99074",1328.7198,79.0515,175.19966
"99075",1328.7333,79.044174,175.16269
"99076",1328.7467,79.03441,175.12305
"99077",1328.7599,79.0222,175.08066
"99078",1328.7731,79.01488,175.04277
"99079",1328.7865,79.00511,175.00221
"99080",1328.7999,79.00267,174.96867
"99081",1328.8131,79.00267,174.9375
"99082",1328.8263,79.00267,174.90633
"99083",1328.8397,79.00023,174.87271
"99084",1328.8531,78.99779,174.83902
"99085",1328.8663,78.995346,174.80525
"99086",1328.8795,78.995346,174.77385
"99087",1328.893,79.00511,174.75221
"99088",1328.9064,79.03929,174.7553
"99089",1328.9196,79.13451,174.82048
"99090",1328.9327,79.33715,174.99608
"99091",1328.9462,79.68871,175.32692
"99092",1328.9596,80.19409,175.82257
"99093",1328.9728,80.80934,176.44388
"99094",1328.986,81.446556,177.10638
"99095",1328.9994,82.01053,177.71556
"99096",1329.0128,82.41337,178.18123
"99097",1329.026,82.616005,178.45929
"99098",1329.0392,82.62821,178.55325
"99099",1329.0526,82.48661,178.49379
"99100",1329.066,82.247345,178.33223
"99101",1329.0792,81.95926,178.11438
"99102",1329.0924,81.66384,177.88019
"99103",1329.1058,81.40017,177.66852
"99104",1329.1193,81.18776,177.49986
"99105",1329.1324,81.03883,177.38806
"99106",1329.1456,80.9485,177.3302
"99107",1329.159,80.89479,177.30614
"99108",1329.1725,80.85573,177.29504
"99109",1329.1857,80.80934,177.2754
"99110",1329.1989,80.73853,177.22989
"99111",1329.2123,80.635994,177.15044
"99112",1329.2257,80.52125,177.05557
"99113",1329.2389,80.40406,176.95468
"99114",1329.2521,80.29908,176.86234
"99115",1329.2655,80.21118,176.78378
"99116",1329.2789,80.14282,176.72202
"99117",1329.2921,80.08667,176.67032
"99118",1329.3053,80.04028,176.62665
"99119",1329.3187,79.9939,176.58151
"99120",1329.3322,79.94507,176.5325
"99121",1329.3453,79.8938,176.47952
"99122",1329.3585,79.835205,176.4176
"99123",1329.372,79.77173,176.34897
"99124",1329.3854,79.7058,176.27591
"99125",1329.3986,79.635,176.1959
"99126",1329.4117,79.55932,176.10881
"99127",1329.4252,79.47631,176.01202
"99128",1329.4386,79.398186,175.91753
"99129",1329.4518,79.32494,175.82547
"99130",1329.465,79.26391,175.74333
"99131",1329.4784,79.217514,175.67393
"99132",1329.4918,79.183334,175.6153
"99133",1329.505,79.15404,175.56047
"99134",1329.5182,79.12962,175.50961
"99135",1329.5316,79.10277,175.45555
"99136",1329.545,79.08568,175.41042
"99137",1329.5582,79.07591,175.37207
"99138",1329.5714,79.078354,175.34563
"99139",1329.5848,79.08568,175.32414
"99140",1329.5983,79.09544,175.30533
"99141",1329.6115,79.097885,175.2795
"99142",1329.6246,79.093,175.24641
"99143",1329.6381,79.078354,175.20341
"99144",1329.6515,79.061264,175.15752
"99145",1329.6647,79.044174,175.11108
"99146",1329.6779,79.03197,175.069
"99147",1329.6913,79.029526,175.0363
"99148",1329.7047,79.03197,175.0084
"99149",1329.7179,79.046616,174.9928
"99150",1329.7311,79.061264,174.97765
"99151",1329.7445,79.07103,174.95807
"99152",1329.7579,79.06615,174.92415
"99153",1329.7711,79.04906,174.87787
"99154",1329.7843,79.0222,174.82129
"99155",1329.7977,78.995346,174.76387
"99156",1329.8112,78.97826,174.71538
"99157",1329.8243,78.97093,174.67612
"99158",1329.8375,78.975815,174.64883
"99159",1329.851,78.98802,174.62903
"99160",1329.8644,79.00267,174.61205
"99161",1329.8776,79.01488,174.59308
"99162",1329.8907,79.029526,174.57693
"99163",1329.9042,79.04173,174.5588
"99164",1329.9176,79.05394,174.54106
"99165",1329.9308,79.063705,174.52126
"99166",1329.944,79.080795,174.50908
"99167",1329.9574,79.13695,174.5365
"99168",1329.9708,79.273674,174.64626
"99169",1329.984,79.537346,174.88722
"99170",1329.9972,79.954834,175.29025
"99171",1330.0106,80.50904,175.84305
"99172",1330.024,81.13649,176.4864
"99173",1330.0372,81.74197,177.1274
"99174",1330.0504,82.230255,177.67012
"99175",1330.0638,82.53544,178.045
"99176",1330.0773,82.64286,178.23166
"99177",1330.0905,82.57694,178.24834
"99178",1330.1036,82.38163,178.13356
"99179",1330.1171,82.11307,177.93942
"99180",1330.1305,81.80545,177.69785
"99181",1330.1437,81.497826,177.44664
"99182",1330.1569,81.2195,177.21512
"99183",1330.1703,81.00221,177.03595
"99184",1330.1837,80.848404,176.91347
"99185",1330.1969,80.75807,176.84966
"99186",1330.2101,80.71168,176.82695
"99187",1330.2235,80.68238,176.8199
"99188",1330.2369,80.64332,176.80217
"99189",1330.2501,80.587166,176.76613
"99190",1330.2633,80.52125,176.71857
"99191",1330.2767,80.45289,176.6665
"99192",1330.2902,80.394295,176.62207
"99193",1330.3033,80.35035,176.59045
"99194",1330.3165,80.31373,176.56479
"99195",1330.33,80.274666,176.53554
"99196",1330.3434,80.22827,176.49773
"99197",1330.3566,80.17212,176.4487
"99198",1330.3698,80.1062,176.38815
"99199",1330.3832,80.03052,176.3158
"99200",1330.3966,79.94263,176.22885
"99201",1330.4098,79.852295,176.13672
"99202",1330.423,79.76196,176.04178
"99203",1330.4364,79.66918,175.94156
"99204",1330.4498,79.571526,175.83356
"99205",1330.463,79.47631,175.72495
"99206",1330.4762,79.381096,175.61336
"99207",1330.4896,79.29809,175.511
"99208",1330.503,79.22484,175.41582
"99209",1330.5162,79.17113,175.33788
"99210",1330.5294,79.13939,175.28023
"99211",1330.5428,79.12474,175.23868
"99212",1330.5563,79.11986,175.20644
"99213",1330.5695,79.11986,175.17892
"99214",1330.5826,79.12718,175.15874
"99215",1330.5961,79.132065,175.13634
"99216",1330.6095,79.13939,175.11653
"99217",1330.6227,79.14671,175.09695
"99218",1330.6359,79.15892,175.08249
"99219",1330.6493,79.17113,175.0684
"99220",1330.6627,79.17845,175.04982
"99221",1330.6759,79.18089,175.02658
"99222",1330.6891,79.17357,174.99365
"99223",1330.7025,79.16136,174.95561
"99224",1330.716,79.14671,174.91475
"99225",1330.7291,79.13695,174.87831
"99226",1330.7423,79.12718,174.84157
"99227",1330.7557,79.1223,174.8094
"99228",1330.7692,79.11742,174.77708
"99229",1330.7823,79.10765,174.73973
"99230",1330.7955,79.097885,174.70207
"99231",1330.809,79.08568,174.66167
"99232",1330.8224,79.078354,174.62576
"99233",1330.8356,79.07347,174.59207
"99234",1330.8488,79.07347,174.56311
"99235",1330.8622,79.080795,174.54147
"99236",1330.8756,79.09056,174.5225
"99237",1330.8888,79.097885,174.5014
"99238",1330.902,79.10277,174.47809
"99239",1330.9154,79.11009,174.45737
"99240",1330.9288,79.11742,174.43687
"99241",1330.942,79.12718,174.41905
"99242",1330.9552,79.151596,174.41618
"99243",1330.9686,79.20531,174.44337
"99244",1330.982,79.34203,174.55527
"99245",1330.9952,79.603264,174.79593
"99246",1331.0084,80.01831,175.19858
"99247",1331.0219,80.56519,175.74603
"99248",1331.0353,81.18288,176.38138
"99249",1331.0485,81.77615,177.01163
"99250",1331.0616,82.247345,177.53833
"99251",1331.0751,82.54032,177.90154
"99252",1331.0885,82.64286,178.08347
"99253",1331.1017,82.5745,178.0977
"99254",1331.1149,82.37919,177.98285
"99255",1331.1283,82.1033,177.78131
"99256",1331.1417,81.78836,177.5321
"99257",1331.1549,81.46853,177.26816
"99258",1331.1681,81.17311,177.01863
"99259",1331.1815,80.92409,176.80627
"99260",1331.195,80.73609,176.64716
"99261",1331.2081,80.604256,176.53833
"99262",1331.2213,80.52125,176.47421
"99263",1331.2347,80.465096,176.43436
"99264",1331.2482,80.42115,176.40495
"99265",1331.2614,80.377205,176.37418
"99266",1331.2745,80.3357,176.34447
"99267",1331.288,80.30396,176.32323
"99268",1331.3014,80.28199,176.31076
"99269",1331.3146,80.26246,176.30005
"99270",1331.3278,80.23804,176.28383
"99271",1331.3412,80.20386,176.25708
"99272",1331.3546,80.15991,176.21951
"99273",1331.3678,80.1062,176.1708
"99274",1331.381,80.042725,176.11066
"99275",1331.3944,79.974365,176.04364
"99276",1331.4078,79.90112,175.9696
"99277",1331.421,79.82788,175.89328
"99278",1331.4342,79.74731,175.80733
"99279",1331.4476,79.66674,175.71886
"99280",1331.461,79.58373,175.62543
"99281",1331.4742,79.500725,175.5294
"99282",1331.4874,79.415276,175.42834
"99283",1331.5009,79.34203,175.33682
"99284",1331.5143,79.27856,175.25278
"99285",1331.5275,79.22972,175.1814
"99286",1331.5406,79.19554,175.12314
"99287",1331.5541,79.17357,175.07602
"99288",1331.5675,79.15892,175.03554
"99289",1331.5807,79.14671,174.99704
"99290",1331.5939,79.132065,174.95572
"99291",1331.6073,79.11253,174.90906
"99292",1331.6207,79.09056,174.85934
"99293",1331.6339,79.07591,174.81627
"99294",1331.6471,79.063705,174.77518
"99295",1331.6605,79.05882,174.74103
"99296",1331.674,79.063705,174.71649
"99297",1331.6871,79.06859,174.69211
"99298",1331.7003,79.061264,174.65567
"99299",1331.7137,79.046616,174.61168
"99300",1331.7272,79.02464,174.5599
"99301",1331.7404,78.995346,174.50012
"99302",1331.7535,78.96605,174.43942
"99303",1331.767,78.94652,174.38757
"99304",1331.7804,78.93919,174.34732
"99305",1331.7936,78.93919,174.31416
"99306",1331.8068,78.94896,174.29077
"99307",1331.8202,78.958725,174.26768
"99308",1331.8336,78.97093,174.24734
"99309",1331.8468,78.98314,174.22739
"99310",1331.86,78.992905,174.20537
"99311",1331.8734,79.00755,174.18854
"99312",1331.8868,79.03197,174.18193
"99313",1331.9,79.06615,174.18585
"99314",1331.9132,79.10277,174.19328
"99315",1331.9266,79.14183,174.2043
"99316",1331.9401,79.17601,174.21165
"99317",1331.9532,79.20775,174.21764
"99318",1331.9664,79.234604,174.21973
"99319",1331.9933,79.378654,174.3173
"99320",1332.0065,79.586174,174.5054
"99321",1332.0197,79.9353,174.8416
"99322",1332.0331,80.42603,175.3303
"99323",1332.0465,81.01686,175.93445
"99324",1332.0597,81.62722,176.57658
"99325",1332.0729,82.16922,177.16943
"99326",1332.0863,82.562294,177.6303
"99327",1332.0997,82.76982,177.9179
"99328",1332.1129,82.80156,178.0362
"99329",1332.1261,82.68192,178.0041
"99330",1332.1395,82.45487,177.86087
"99331",1332.153,82.161896,177.6446
"99332",1332.1661,81.849396,177.39967
"99333",1332.1793,81.54421,177.15228
"99334",1332.1927,81.27322,176.92955
"99335",1332.2062,81.04372,176.73984
"99336",1332.2194,80.85329,176.58203
"99337",1332.2325,80.70191,176.45732
"99338",1332.246,80.5774,176.35475
"99339",1332.2594,80.48463,176.28003
"99340",1332.2726,80.43336,176.24391
"99341",1332.2858,80.42115,176.24525
"99342",1332.2992,80.45045,176.28772
"99343",1332.3126,80.5066,176.35796
"99344",1332.3258,80.5774,176.4446
"99345",1332.339,80.638435,176.52368
"99346",1332.3524,80.68238,176.58759
"99347",1332.3658,80.70435,176.63089
"99348",1332.379,80.70191,176.65047
"99349",1332.3922,80.672615,176.64311
"99350",1332.4056,80.621346,176.61287
"99351",1332.4191,80.54566,176.55661
"99352",1332.4323,80.448006,176.47601
"99353",1332.4454,80.3357,176.37772
"99354",1332.4589,80.216064,176.26857
"99355",1332.4723,80.09888,176.15814
"99356",1332.4855,79.9939,176.05624
"99357",1332.4987,79.89868,175.96085
"99358",1332.5121,79.81323,175.87222
"99359",1332.5255,79.73998,175.79314
"99360",1332.5387,79.674065,175.71909
"99361",1332.5519,79.62035,175.65518
"99362",1332.5653,79.58373,175.60669
"99363",1332.5787,79.56664,175.57658
"99364",1332.5919,79.569084,175.56548
"99365",1332.6051,79.57885,175.56177
"99366",1332.6185,79.5935,175.56325
"99367",1332.632,79.61059,175.56763
"99368",1332.6451,79.62768,175.57254
"99369",1332.6583,79.64233,175.57555
"99370",1332.6718,79.64965,175.57169
"99371",1332.6852,79.65942,175.5705
"99372",1332.6984,79.65942,175.55984
"99373",1332.7115,79.65209,175.54187
"99374",1332.725,79.639885,175.51878
"99375",1332.7384,79.63744,175.50508
"99376",1332.7516,79.674065,175.53036
"99377",1332.7648,79.783936,175.63005
"99378",1332.7782,80.00366,175.84302
"99379",1332.7916,80.34791,176.18738
"99380",1332.8048,80.79225,176.6426
"99381",1332.818,81.270775,177.14587
"99382",1332.8314,81.71267,177.62749
"99383",1332.8448,82.04471,178.01305
"99384",1332.858,82.22781,178.26006
"99385",1332.8712,82.252235,178.3541
"99386",1332.8846,82.15213,178.32437
"99387",1332.8981,81.95926,178.19876
"99388",1332.9113,81.71755,178.01828
"99389",1332.9244,81.45144,177.80585
"99390",1332.9379,81.18532,177.58508
"99391",1332.9513,80.936295,177.37311
"99392",1332.9645,80.71168,177.17775
"99393",1332.9777,80.50904,176.99736
"99394",1332.9911,80.3357,176.83994
"99395",1333.0045,80.19409,176.70882
"99396",1333.0177,80.10132,176.6221
"99397",1333.0309,80.05737,176.58133
"99398",1333.0443,80.06714,176.5929
"99399",1333.0577,80.12573,176.6536
"99400",1333.0709,80.22095,176.75275
"99401",1333.0841,80.33082,176.86952
"99402",1333.0975,80.428474,176.97752
"99403",1333.111,80.50416,177.0666
"99404",1333.1241,80.54322,177.12143
"99405",1333.1373,80.54322,177.13841
"99406",1333.1508,80.50416,177.11633
"99407",1333.1642,80.4358,177.06374
"99408",1333.1774,80.34547,176.98703
"99409",1333.1906,80.24536,176.89772
"99410",1333.204,80.14038,176.80042
"99411",1333.2174,80.03296,176.69739
"99412",1333.2306,79.92554,176.591
"99413",1333.2438,79.818115,176.48126
"99414",1333.2572,79.71557,176.37303
"99415",1333.2706,79.622795,176.27136
"99416",1333.2838,79.54711,176.18388
"99417",1333.297,79.49584,176.11845
"99418",1333.3104,79.46899,176.07584
"99419",1333.3239,79.45922,176.04947
"99420",1333.337,79.4641,176.03745
"99421",1333.3502,79.47387,176.03046
"99422",1333.3636,79.48608,176.02621
"99423",1333.3771,79.49828,176.02235
"99424",1333.3903,79.51537,176.02376
"99425",1333.4034,79.53246,176.0257
"99426",1333.4169,79.5642,176.04282
"99427",1333.4303,79.64477,176.10976
"99428",1333.4435,79.801025,176.25491
"99429",1333.4567,80.0647,176.51236
"99430",1333.4701,80.43824,176.88792
"99431",1333.4835,80.89479,177.35817
"99432",1333.4967,81.373314,177.86465
"99433",1333.5099,81.79813,178.33238
"99434",1333.5233,82.108185,178.69864
"99435",1333.5367,82.269325,178.92566
"99436",1333.5499,82.27421,179.00146
"99437",1333.5631,82.14725,178.94557
"99438",1333.5765,81.92508,178.79051
"99439",1333.59,81.64675,178.57234
"99440",1333.6031,81.356224,178.33328
"99441",1333.6163,81.08278,178.10222
"99442",1333.6298,80.84352,177.8968
"99443",1333.6432,80.64576,177.7254
"99444",1333.6564,80.48707,177.5869
"99445",1333.6696,80.35523,177.47029
"99446",1333.683,80.25025,177.37642
"99447",1333.6964,80.164795,177.29878
"99448",1333.7096,80.10132,177.24045
"99449",1333.7228,80.062256,177.20456
"99450",1333.7362,80.045166,177.18942
"99451",1333.7496,80.05005,177.19571
"99452",1333.7628,80.06714,177.21436
"99453",1333.776,80.093994,177.24332
"99454",1333.7894,80.12085,177.2731
"99455",1333.8029,80.13794,177.29398
"99456",1333.816,80.130615,177.29095
"99457",1333.8292,80.093994,177.25842
"99458",1333.8427,80.028076,177.19543
"99459",1333.8561,79.937744,177.10599
"99460",1333.8693,79.83276,176.99905
"99461",1333.8824,79.73266,176.89372
"99462",1333.8959,79.635,176.7877
"99463",1333.9093,79.54711,176.6884
"99464",1333.9225,79.4641,176.59123
"99465",1333.9357,79.39086,176.50124
"99466",1333.9491,79.31762,176.40895
"99467",1333.9625,79.24437,176.31438
"99468",1333.9757,79.17113,176.21751
"99469",1333.9889,79.10521,176.12569
"99470",1334.0023,79.04906,176.04156
"99471",1334.0157,79.009995,175.97278
"99472",1334.0289,78.992905,175.92474
"99473",1334.0421,78.99046,175.89082
"99474",1334.0555,78.995346,175.86415
"99475",1334.069,79.00267,175.84007
"99476",1334.0822,79.00511,175.81134
"99477",1334.0953,78.995346,175.77048
"99478",1334.1088,78.975815,175.71954
"99479",1334.1222,78.95384,175.66556
"99480",1334.1354,78.94408,175.6231
"99481",1334.1486,78.97826,175.62427
"99482",1334.162,79.11009,175.72417
"99483",1334.1754,79.381096,175.96736
"99484",1334.1886,79.798584,176.36551
"99485",1334.2018,80.32838,176.889
"99486",1334.2152,80.902115,177.473
"99487",1334.2286,81.42214,178.02122
"99488",1334.2418,81.79813,178.44165
"99489",1334.255,81.99588,178.6956
"99490",1334.2684,82.01785,178.77995
"99491",1334.2819,81.8909,178.71606
"99492",1334.295,81.668724,178.55298
"99493",1334.3082,81.40017,178.33658
"99494",1334.3217,81.13405,178.11421
"99495",1334.3351,80.89723,177.91284
"99496",1334.3483,80.70191,177.74556
"99497",1334.3615,80.55787,177.62346
"99498",1334.3749,80.46021,177.54324
"99499",1334.3883,80.38453,177.48195
"99500",1334.4015,80.31617,177.42561
"99501",1334.4147,80.24536,177.36469
"99502",1334.4281,80.16235,177.28934
"99503",1334.4415,80.0647,177.19675
"99504",1334.4547,79.96704,177.1011
"99505",1334.4679,79.88403,177.01706
"99506",1334.4813,79.82056,176.94995
"99507",1334.4948,79.77661,176.90039
"99508",1334.5079,79.73998,176.85678
"99509",1334.5211,79.710686,176.81935
"99510",1334.5345,79.676506,176.77612
"99511",1334.548,79.63012,176.71962
"99512",1334.5612,79.571526,176.64946
"99513",1334.5743,79.51049,176.57503
"99514",1334.5878,79.44213,176.49136
"99515",1334.6012,79.36889,176.40068
"99516",1334.6144,79.29565,176.30771
"99517",1334.6276,79.22728,176.21733
"99518",1334.641,79.1638,176.1297
"99519",1334.6544,79.11009,176.04985
"99520",1334.6676,79.061264,175.9732
"99521",1334.6808,79.0222,175.9048
"99522",1334.6942,78.98802,175.84006
"99523",1334.7076,78.958725,175.77913
"99524",1334.7208,78.924545,175.7124
"99525",1334.734,78.890366,175.6446
"99526",1334.7474,78.86107,175.58063
"99527",1334.7609,78.84886,175.53282
"99528",1334.774,78.84642,175.4944
"99529",1334.7872,78.85863,175.47055
"99530",1334.8007,78.87816,175.4544
"99531",1334.8141,78.89769,175.43887
"99532",1334.8273,78.91234,175.41907
"99533",1334.8405,78.922104,175.39484
"99534",1334.8539,78.92943,175.36847
"99535",1334.8673,78.93431,175.33989
"99536",1334.8805,78.92943,175.3017
"99537",1334.8937,78.91966,175.25847
"99538",1334.9071,78.907455,175.2125
"99539",1334.9205,78.890366,175.16125
"99540",1334.9337,78.870834,175.10704
"99541",1334.9469,78.8513,175.05222
"99542",1334.9603,78.839096,175.0041
"99543",1334.9738,78.839096,174.96782
"99544",1334.9869,78.88548,174.97792
"99545",1335.0001,79.0222,175.0798
"99546",1335.0135,79.30053,175.32758
"99547",1335.027,79.73022,175.7354
"99548",1335.0402,80.289314,176.28606
"99549",1335.0533,80.90944,176.91522
"99550",1335.0668,81.497826,177.53203
"99551",1335.0802,81.94949,178.0305
"99552",1335.0934,82.213165,178.3551
"99553",1335.1066,82.269325,178.48042
"99554",1335.12,82.15701,178.43903
"99555",1335.1334,81.92508,178.2745
"99556",1335.1466,81.6321,178.04169
"99557",1335.1598,81.33425,177.79485
"99558",1335.1732,81.07057,177.57286
"99559",1335.1866,80.86061,177.39636
"99560",1335.1998,80.71168,177.27432
"99561",1335.213,80.618904,177.2038
"99562",1335.2264,80.56031,177.16455
"99563",1335.2399,80.51148,177.13324
"99564",1335.253,80.448006,177.08575
"99565",1335.2662,80.36744,177.0192
"99566",1335.2797,80.2649,176.92815
"99567",1335.2931,80.15747,176.829
"99568",1335.3063,80.05249,176.72894
"99569",1335.3195,79.96216,176.64026
"99570",1335.3329,79.89136,176.56827
"99571",1335.3463,79.84009,176.51361
"99572",1335.3595,79.79614,176.46466
"99573",1335.3727,79.75464,176.41678
"99574",1335.3861,79.72045,176.37492
"99575",1335.3995,79.68139,176.32712
"99576",1335.4127,79.63256,176.26833
"99577",1335.4259,79.57641,176.20068
"99578",1335.4393,79.51293,176.12396
"99579",1335.4528,79.447014,176.04282
"99580",1335.466,79.378654,175.95717
"99581",1335.4791,79.31274,175.87183
"99582",1335.4926,79.24681,175.78442
"99583",1335.506,79.18822,175.70229
"99584",1335.5192,79.132065,175.62076
"99585",1335.5323,79.08568,175.54724
"99586",1335.5458,79.04906,175.48204
"99587",1335.5592,79.029526,175.43279
"99588",1335.5724,79.02464,175.39757
"99589",1335.5856,79.027084,175.36952
"99590",1335.599,79.03929,175.35132
"99591",1335.6124,79.05394,175.33594
"99592",1335.6256,79.06615,175.31857
"99593",1335.6388,79.080795,175.30403
"99594",1335.6522,79.10033,175.29483
"99595",1335.6656,79.11742,175.2838
"99596",1335.6788,79.12962,175.26842
"99597",1335.692,79.13451,175.2461
"99598",1335.7054,79.13695,175.22148
"99599",1335.7189,79.13939,175.19695
"99600",1335.732,79.14427,175.17493
"99601",1335.7452,79.151596,175.1555
"99602",1335.7587,79.1638,175.14119
"99603",1335.7721,79.17357,175.12482
"99604",1335.7853,79.183334,175.10875
"99605",1335.7985,79.18822,175.0881
"99606",1335.8119,79.200424,175.07494
"99607",1335.8253,79.21507,175.06459
"99608",1335.8385,79.22728,175.05226
"99609",1335.8517,79.22972,175.03055
"99610",1335.8651,79.22728,175.00403
"99611",1335.8785,79.23216,174.98476
"99612",1335.8917,79.276115,175.00471
"99613",1335.9049,79.415276,175.12125
"99614",1335.9183,79.69848,175.38617
"99615",1335.9318,80.13794,175.81621
"99616",1335.945,80.69703,176.37961
"99617",1335.9581,81.30984,177.0142
"99618",1335.9716,81.87137,177.61667
"99619",1335.985,82.29374,178.09752
"99620",1335.9982,82.52079,178.39626
"99621",1336.0114,82.55253,178.50677
"99622",1336.0248,82.41825,178.45227
"99623",1336.0382,82.176544,178.28613
"99624",1336.0514,81.87381,178.05142
"99625",1336.0646,81.56374,177.79991
"99626",1336.078,81.28298,177.56802
"99627",1336.0914,81.05104,177.37617
"99628",1336.1046,80.87526,177.23325
"99629",1336.1178,80.743416,177.12875
"99630",1336.1312,80.64332,177.0519
"99631",1336.1447,80.56519,176.99388
"99632",1336.1578,80.49439,176.94075
"99633",1336.171,80.428474,176.89029
"99634",1336.1844,80.38209,176.8573
"99635",1336.1979,80.360115,176.84727
"99636",1336.211,80.36256,176.86098
"99637",1336.2242,80.38453,176.89429
"99638",1336.2377,80.40162,176.9234
"99639",1336.2511,80.40894,176.94328
"99640",1336.2643,80.38697,176.9341
"99641",1336.2775,80.33814,176.89737
"99642",1336.2909,80.26734,176.83714
"99643",1336.3043,80.184326,176.76248
"99644",1336.3175,80.08911,176.67303
"99645",1336.3307,79.991455,176.57816
"99646",1336.3441,79.8938,176.48022
"99647",1336.3575,79.80591,176.389
"99648",1336.3707,79.727776,176.30481
"99649",1336.3839,79.6643,176.23282
"99650",1336.3973,79.60815,176.16617
"99651",1336.4108,79.55932,176.10509
"99652",1336.424,79.50805,176.04004
"99653",1336.4371,79.4519,175.9685
"99654",1336.4506,79.398186,175.89766
"99655",1336.464,79.35912,175.83978
"99656",1336.4772,79.33227,175.7929
"99657",1336.4904,79.31762,175.75737
"99658",1336.5038,79.31518,175.7336
"99659",1336.5172,79.3225,175.71951
"99660",1336.5304,79.33471,175.71054
"99661",1336.5436,79.34692,175.70195
"99662",1336.557,79.35912,175.69374
"99663",1336.5704,79.37133,175.68591
"99664",1336.5836,79.37621,175.67114
"99665",1336.5968,79.37133,175.64676
"99666",1336.6102,79.35912,175.6149
"99667",1336.6237,79.344475,175.58022
"99668",1336.6368,79.34203,175.55728
"99669",1336.65,79.38842,175.5831
"99670",1336.6635,79.5227,175.69826
"99671",1336.6769,79.781494,175.94214
"99672",1336.6901,80.16724,176.32104
"99673",1336.7032,80.65064,176.80968
"99674",1336.7167,81.15602,177.33539
"99675",1336.7301,81.59792,177.81342
"99676",1336.7433,81.90555,178.17097
"99677",1336.7565,82.04471,178.36969
"99678",1336.7699,82.02518,178.41406
"99679",1336.7833,81.881134,178.33331
"99680",1336.7965,81.654076,178.16504
"99681",1336.8097,81.38796,177.95062
"99682",1336.8231,81.1194,177.72543
"99683",1336.8365,80.88014,177.52116
"99684",1336.8497,80.6775,177.34602
"99685",1336.8629,80.516365,177.20607
"99686",1336.8763,80.38941,177.09526
"99687",1336.8898,80.28443,177.00246
"99688",1336.903,80.19653,176.92345
"99689",1336.9161,80.11841,176.85147
"99690",1336.9296,80.05737,176.79413
"99691",1336.943,80.01587,176.75443
"99692",1336.9562,79.99878,176.73782
"99693",1336.9694,79.99878,176.7378
"99694",1336.9828,80.008545,176.74753
"99695",1336.9962,80.02075,176.76001
"99696",1337.0094,80.02319,176.76309
"99697",1337.0226,80.01587,176.7565
"99698",1337.036,79.991455,176.73257
"99699",1337.0494,79.94995,176.6908
"99700",1337.0626,79.8938,176.63309
"99701",1337.0758,79.823,176.55896
"99702",1337.0892,79.744865,176.4753
"99703",1337.1027,79.6643,176.38675
"99704",1337.1158,79.58373,176.29568
"99705",1337.129,79.51049,176.20943
"99706",1337.1425,79.44457,176.1282
"99707",1337.1559,79.395744,176.06201
"99708",1337.1691,79.35668,176.00406
"99709",1337.1823,79.32983,175.95709
"99710",1337.1957,79.31274,175.91905
"99711",1337.2091,79.30053,175.88536
"99712",1337.2223,79.28588,175.84885
"99713",1337.2355,79.26635,175.80699
"99714",1337.2489,79.24437,175.76208
"99715",1337.2623,79.22484,175.71893
"99716",1337.2755,79.21019,175.68005
"99717",1337.2887,79.19798,175.64316
"99718",1337.3021,79.1931,175.6132
"99719",1337.3156,79.19554,175.59042
"99720",1337.3287,79.19798,175.56772
"99721",1337.3419,79.19798,175.54265
"99722",1337.3553,79.19066,175.51025
"99723",1337.3688,79.17845,175.47275
"99724",1337.382,79.15892,175.42754
"99725",1337.3951,79.13695,175.37927
"99726",1337.4086,79.11742,175.33276
"99727",1337.422,79.10765,175.29541
"99728",1337.4352,79.10765,175.26752
"99729",1337.4484,79.132065,175.26404
"99730",1337.4618,79.22728,175.33212
"99731",1337.4752,79.43725,175.51794
"99732",1337.4884,79.78882,175.85193
"99733",1337.5016,80.274666,176.33118
"99734",1337.515,80.833755,176.89885
"99735",1337.5284,81.373314,177.46446
"99736",1337.5416,81.80301,177.93707
"99737",1337.5548,82.05936,178.24977
"99738",1337.5682,82.13016,178.38493
"99739",1337.5817,82.039825,178.36118
"99740",1337.5948,81.83475,178.21985
"99741",1337.608,81.57107,178.0135
"99742",1337.6215,81.29275,177.78429
"99743",1337.6349,81.02907,177.561
"99744",1337.6481,80.8069,177.371
"99745",1337.6613,80.638435,177.22775
"99746",1337.6747,80.52613,177.1354
"99747",1337.6881,80.45045,177.07617
"99748",1337.7013,80.394295,177.0341
"99749",1337.7145,80.33814,176.99028
"99750",1337.7279,80.272224,176.93494
"99751",1337.7413,80.18921,176.86043
"99752",1337.7545,80.10864,176.78577
"99753",1337.7677,80.03784,176.71835
"99754",1337.7811,79.98901,176.67072
"99755",1337.7946,79.94995,176.63132
"99756",1337.8077,79.92554,176.60535
"99757",1337.8209,79.906006,176.5835
"99758",1337.8344,79.88403,176.5586
"99759",1337.8478,79.85962,176.53055
"99760",1337.861,79.83276,176.4993
"99761",1337.8741,79.79614,176.45746
"99762",1337.8876,79.74975,176.4047
"99763",1337.901,79.693596,176.34071
"99764",1337.9142,79.63012,176.26765
"99765",1337.9274,79.5642,176.19017
"99766",1337.9408,79.49584,176.10818
"99767",1337.9542,79.429924,176.0265
"99768",1337.9674,79.364006,175.94276
"99769",1337.9806,79.30785,175.86673
"99770",1337.994,79.26147,175.7987
"99771",1338.0074,79.219955,175.73412
"99772",1338.0206,79.183334,175.67311
"99773",1338.0338,79.15648,175.62073
"99774",1338.0472,79.14183,175.57971
"99775",1338.0607,79.13939,175.55045
"99776",1338.0739,79.14671,175.53087
"99777",1338.087,79.16136,175.51884
"99778",1338.1005,79.17845,175.50972
"99779",1338.1139,79.19554,175.50113
"99780",1338.1271,79.19554,175.47598
"99781",1338.1403,79.18822,175.44351
"99782",1338.1537,79.168686,175.3986
"99783",1338.1671,79.14183,175.34576
"99784",1338.1803,79.11253,175.28964
"99785",1338.1935,79.08568,175.23505
"99786",1338.2069,79.061264,175.18205
"99787",1338.2203,79.04173,175.13318
"99788",1338.2335,79.029526,175.09102
"99789",1338.2467,79.02464,175.0558
"99790",1338.2601,79.03197,175.03264
"99791",1338.2736,79.044174,175.01459
"99792",1338.2867,79.05882,174.99936
"99793",1338.2999,79.07347,174.98459
"99794",1338.3134,79.080795,174.96295
"99795",1338.3268,79.078354,174.93178
"99796",1338.34,79.06859,174.8932
"99797",1338.3531,79.061264,174.85677
"99798",1338.3666,79.07103,174.83719
"99799",1338.38,79.13939,174.87651
"99800",1338.3932,79.3225,175.03273
"99801",1338.4064,79.66186,175.3509
"99802",1338.4198,80.15503,175.83351
"99803",1338.4332,80.74586,176.42918
"99804",1338.4464,81.341576,177.04822
"99805",1338.4596,81.84207,177.59064
"99806",1338.473,82.16434,177.97047
"99807",1338.4865,82.286415,178.16019
"99808",1338.4996,82.22049,178.16571
"99809",1338.5128,82.02762,178.04224
"99810",1338.5262,81.761505,177.8395
"99811",1338.5397,81.47585,177.60889
"99812",1338.5529,81.20973,177.38889
"99813",1338.566,80.99733,177.2143
"99814",1338.5795,80.84596,177.0941
"99815",1338.5929,80.75563,177.03021
"99816",1338.6061,80.70191,177.0001
"99817",1338.6193,80.66285,176.98299
"99818",1338.6327,80.60914,176.95
"99819",1338.6461,80.53834,176.89824
"99820",1338.6593,80.44312,176.81985
"99821",1338.6725,80.34058,176.73117
"99822",1338.6859,80.24292,176.64415
"99823",1338.6993,80.15991,176.56873
"99824",1338.7125,80.096436,176.51025
"99825",1338.7257,80.045166,176.462
"99826",1338.7391,80.00122,176.41946
"99827",1338.7526,79.957275,176.37555
"99828",1338.7657,79.91089,176.32782
"99829",1338.7789,79.85718,176.27133
"99830",1338.7924,79.801025,176.21072
"99831",1338.8058,79.73998,176.14346
"99832",1338.819,79.676506,176.07185
"99833",1338.8322,79.61303,175.99826
"99834",1338.8456,79.554436,175.92757
"99835",1338.859,79.49828,175.85748
"99836",1338.8722,79.4519,175.79541
"99837",1338.8854,79.412834,175.73921
"99838",1338.8988,79.37621,175.68423
"99839",1338.9122,79.33715,175.62567
"99840",1338.9254,79.30053,175.56833
"99841",1338.9386,79.26635,175.51228
"99842",1338.952,79.23949,175.4625
"99843",1338.9655,79.219955,175.41919
"99844",1338.9786,79.21263,175.38748
"99845",1338.9918,79.21019,175.36043
"99846",1339.0052,79.21263,175.33818
"99847",1339.0187,79.21263,175.31357
"99848",1339.0319,79.21507,175.2914
"99849",1339.045,79.219955,175.27174
"99850",1339.0585,79.22484,175.25224
"99851",1339.0719,79.22484,175.22801
"99852",1339.0851,79.217514,175.19646
"99853",1339.0983,79.200424,175.1549
"99854",1339.1117,79.183334,175.11282
"99855",1339.1251,79.168686,175.07265
"99856",1339.1383,79.166245,175.04422
"99857",1339.1515,79.168686,175.0206
"99858",1339.1649,79.17601,175.00194
"99859",1339.1783,79.183334,174.9835
"99860",1339.1915,79.183334,174.95798
"99861",1339.2047,79.17845,174.92757
"99862",1339.2181,79.17113,174.89456
"99863",1339.2316,79.1638,174.86133
"99864",1339.2448,79.151596,174.82298
"99865",1339.2579,79.13939,174.78426
"99866",1339.2714,79.132065,174.75003
"99867",1339.2848,79.13451,174.72534
"99868",1339.298,79.14183,174.70561
"99869",1339.3112,79.15892,174.69588
"99870",1339.3246,79.17601,174.68668
"99871",1339.338,79.1931,174.67801
"99872",1339.3512,79.20531,174.665
"99873",1339.3644,79.234604,174.66945
"99874",1339.3778,79.33227,174.7432
"99875",1339.3912,79.55688,174.94693
"99876",1339.4044,79.937744,175.31395
"99877",1339.4176,80.46021,175.83447
"99878",1339.431,81.058365,176.447
"99879",1339.4445,81.6321,177.05382
"99880",1339.4576,82.07645,177.54916
"99881",1339.4708,82.33524,177.87285
"99882",1339.4843,82.40116,178.01175
"99883",1339.4977,82.30595,177.99158
"99884",1339.5109,82.09598,177.85367
"99885",1339.524,81.82498,177.64818
"99886",1339.5375,81.53445,177.41467
"99887",1339.5509,81.25857,177.18675
"99888",1339.5641,81.02907,176.99658
"99889",1339.5773,80.85573,176.85541
"99890",1339.5907,80.73609,176.76251
"99891",1339.6041,80.66041,176.70984
"99892",1339.6173,80.59937,176.66945
"99893",1339.6305,80.5359,176.62471
"99894",1339.6439,80.465096,176.57066
"99895",1339.6573,80.38453,176.50464
"99896",1339.6705,80.30152,176.43365
"99897",1339.6837,80.22827,176.36983
"99898",1339.6971,80.17456,176.32324
"99899",1339.7106,80.14038,176.29453
"99900",1339.7238,80.113525,176.27206
"99901",1339.7369,80.08179,176.24387
"99902",1339.7504,80.045166,176.20981
"99903",1339.7638,80.00122,176.16727
"99904",1339.777,79.94507,176.11115
"99905",1339.7902,79.88403,176.0484
"99906",1339.8036,79.818115,175.97885
"99907",1339.817,79.75708,175.91214
"99908",1339.8302,79.70092,175.84839
"99909",1339.8434,79.64477,175.78288
"99910",1339.8568,79.586174,175.71318
"99911",1339.8702,79.52514,175.6392
"99912",1339.8834,79.4641,175.56332
"99913",1339.8966,79.40063,175.4831
"99914",1339.91,79.33959,175.40332
"99915",1339.9235,79.28832,175.3314
"99916",1339.9366,79.25414,175.27498
"99917",1339.9498,79.237045,175.23457
"99918",1339.9633,79.234604,175.20828
"99919",1339.9767,79.24193,175.19168
"99920",1339.9899,79.25414,175.1802
"99921",1340.003,79.26879,175.17154
"99922",1340.0165,79.281,175.16089
"99923",1340.0299,79.293205,175.15062
"99924",1340.0431,79.30053,175.13585
"99925",1340.0563,79.30785,175.1213
"99926",1340.0697,79.310295,175.10211
"99927",1340.0831,79.30541,175.07567
"99928",1340.0963,79.293205,175.04175
"99929",1340.1095,79.281,175.00745
"99930",1340.1229,79.26879,174.97276
"99931",1340.1364,79.256584,174.9377
"99932",1340.1495,79.24925,174.90714
"99933",1340.1627,79.23949,174.8739
"99934",1340.1761,79.234604,174.84525
"99935",1340.1896,79.23216,174.81888
"99936",1340.2028,79.23216,174.79488
"99937",1340.216,79.23216,174.77087
"99938",1340.2294,79.23216,174.74687
"99939",1340.2428,79.237045,174.72775
"99940",1340.256,79.24437,174.71123
"99941",1340.2692,79.2517,174.69495
"99942",1340.2826,79.259026,174.67888
"99943",1340.296,79.26879,174.66548
"99944",1340.3092,79.276115,174.64995
"99945",1340.3224,79.281,174.6322
"99946",1340.3358,79.290764,174.61949
"99947",1340.3492,79.29565,174.6022
"99948",1340.3624,79.30053,174.58507
"99949",1340.3756,79.31274,174.57541
"99950",1340.389,79.36889,174.61008
"99951",1340.4025,79.5227,174.74416
"99952",1340.4156,79.81079,175.01733
"99953",1340.4288,80.24048,175.4411
"99954",1340.4423,80.782486,175.99063
"99955",1340.4557,81.356224,176.58882
"99956",1340.4689,81.866486,177.14146
"99957",1340.482,82.22781,177.56113
"99958",1340.4955,82.406044,177.80898
"99959",1340.5089,82.41093,177.88905
"99960",1340.5221,82.27909,177.83257
"99961",1340.5353,82.056915,177.68161
"99962",1340.5487,81.79324,177.48222
"99963",1340.5621,81.514915,177.25993
"99964",1340.5753,81.25124,177.04361
"99965",1340.5885,81.024185,176.85565
"99966",1340.6019,80.84596,176.70944
"99967",1340.6154,80.719,176.60892
"99968",1340.6285,80.638435,176.55083
"99969",1340.6417,80.58228,176.51463
"99970",1340.6552,80.5359,176.48645
"99971",1340.6686,80.4773,176.44461
"99972",1340.6818,80.40894,176.39117
"99973",1340.695,80.343025,176.33804
"99974",1340.7084,80.28443,176.29018
"99975",1340.7218,80.24536,176.26
"99976",1340.735,80.22095,176.24326
"99977",1340.7482,80.20386,176.23306
"99978",1340.7616,80.181885,176.21747
"99979",1340.775,80.15259,176.19385
"99980",1340.7882,80.111084,176.1571
"99981",1340.8014,80.05493,176.10443
"99982",1340.8148,79.991455,176.04266
"99983",1340.8282,79.923096,175.97403
"99984",1340.8414,79.84985,175.89838
"99985",1340.8546,79.76929,175.81311
"99986",1340.868,79.693596,175.73021
"99987",1340.8815,79.62524,175.65227
"99988",1340.8947,79.55688,175.57219
"99989",1340.9078,79.500725,175.50218
"99990",1340.9213,79.45434,175.44019
"99991",1340.9347,79.415276,175.38406
"99992",1340.9479,79.381096,175.3316
"99993",1340.961,79.35668,175.28784
"99994",1340.9745,79.33959,175.25064
"99995",1340.9879,79.32983,175.22023
"99996",1341.0011,79.3225,175.19196
"99997",1341.0143,79.327385,175.17566
"99998",1341.0277,79.33715,175.1644
"99999",1341.0411,79.3518,175.15833
"100000",1341.0543,79.364006,175.15027
"100001",1341.0675,79.37377,175.14015
"100002",1341.0809,79.381096,175.1279
"100003",1341.0944,79.381096,175.10855
"100004",1341.1075,79.37621,175.08432
"100005",1341.1207,79.37133,175.05994
"100006",1341.1342,79.364006,175.03296
"100007",1341.1476,79.35424,175.00331
"100008",1341.1608,79.34692,174.9758
"100009",1341.174,79.33715,174.94562
"100010",1341.1874,79.327385,174.91513
"100011",1341.2008,79.32494,174.89166
"100012",1341.214,79.3225,174.86812
"100013",1341.2272,79.32006,174.8445
"100014",1341.2406,79.32494,174.82812
"100015",1341.254,79.32983,174.8119
"100016",1341.2672,79.32983,174.79095
"100017",1341.2804,79.33227,174.77245
"100018",1341.2938,79.32983,174.74913
"100019",1341.3073,79.327385,174.72574
"100020",1341.3204,79.327385,174.70471
"100021",1341.3336,79.33227,174.68857
"100022",1341.347,79.344475,174.6799
"100023",1341.3605,79.35424,174.66917
"100024",1341.3737,79.35912,174.65387
"100025",1341.3868,79.364006,174.63872
"100026",1341.4003,79.36889,174.62372
"100027",1341.4137,79.40795,174.64305
"100028",1341.4269,79.53246,174.74905
"100029",1341.4401,79.798584,175.00056
"100030",1341.4535,80.21362,175.4093
"100031",1341.4669,80.74586,175.94821
"100032",1341.4801,81.32693,176.5526
"100033",1341.4933,81.85916,177.1263
"100034",1341.5067,82.252235,177.57747
"100035",1341.5201,82.46708,177.8627
"100036",1341.5333,82.49882,177.97154
"100037",1341.5465,82.38407,177.93489
"100038",1341.5599,82.16922,177.79454
"100039",1341.5734,81.900665,177.59378
"100040",1341.5865,81.617455,177.36996
"100041",1341.5997,81.34646,177.14952
"100042",1341.6132,81.10719,176.95233
"100043",1341.6266,80.91188,176.79163
"100044",1341.6398,80.762955,176.6712
"100045",1341.653,80.655525,176.58762
"100046",1341.6664,80.57984,176.53242
"100047",1341.6798,80.52125,176.49196
"100048",1341.693,80.46998,176.45699
"100049",1341.7062,80.41627,176.41797
"100050",1341.7196,80.360115,176.37483
"100051",1341.733,80.31373,176.3397
"100052",1341.7462,80.274666,176.31046
"100053",1341.7594,80.24536,176.28973
"100054",1341.7728,80.22583,176.27786
"100055",1341.7863,80.20874,176.26782
"100056",1341.7994,80.18921,176.25482
"100057",1341.8126,80.15747,176.229
"100058",1341.826,80.11841,176.19485
"100059",1341.8395,80.06714,176.14728
"100060",1341.8527,80.00366,176.0859
"100061",1341.8658,79.93286,176.01523
"100062",1341.8793,79.86206,175.94232
"100063",1341.8927,79.78638,175.86234
"100064",1341.9059,79.71313,175.78241
"100065",1341.9191,79.639885,175.7002
"100066",1341.9325,79.569084,175.61813
"100067",1341.9459,79.51293,175.54851
"100068",1341.9591,79.46899,175.48933
"100069",1341.9723,79.43725,175.441
"100070",1341.9857,79.415276,175.40143
"100071",1341.9991,79.40551,175.37338
"100072",1342.0123,79.398186,175.34747
"100073",1342.0255,79.398186,175.32866
"100074",1342.039,79.40551,175.31717
"100075",1342.0524,79.415276,175.30835
"100076",1342.0656,79.432365,175.30716
"100077",1342.0787,79.447014,175.30406
"100078",1342.0922,79.46166,175.30142
"100079",1342.1056,79.47143,175.29436
"100080",1342.1188,79.47631,175.28271
"100081",1342.132,79.47143,175.26146
"100082",1342.1454,79.466545,175.24005
"100083",1342.1588,79.45922,175.21605
"100084",1342.172,79.449455,175.18938
"100085",1342.1852,79.43969,175.1624
"100086",1342.1986,79.43481,175.14
"100087",1342.212,79.42748,175.115
"100088",1342.2252,79.42016,175.08978
"100089",1342.2384,79.412834,175.06433
"100090",1342.2518,79.415276,175.04842
"100091",1342.2653,79.415276,175.03014
"100092",1342.2784,79.42016,175.01674
"100093",1342.2916,79.42504,175.0035
"100094",1342.305,79.432365,174.99284
"100095",1342.3185,79.44213,174.98486
"100096",1342.3317,79.449455,174.97475
"100097",1342.3448,79.449455,174.95753
"100098",1342.3583,79.44457,174.93544
"100099",1342.3717,79.43969,174.9132
"100100",1342.3849,79.43725,174.89323
"100101",1342.3981,79.447014,174.8854
"100102",1342.4115,79.500725,174.92183
"100103",1342.4249,79.64965,175.05515
"100104",1342.4381,79.93286,175.32741
"100105",1342.4513,80.360115,175.75256
"100106",1342.4647,80.89967,176.30338
"100107",1342.4781,81.480736,176.91255
"100108",1342.4913,82.005646,177.48373
"100109",1342.5045,82.38651,177.92728
"100110",1342.518,82.59159,178.20694
"100111",1342.5314,82.62333,178.31967
"100112",1342.5446,82.50858,178.28691
"100113",1342.5577,82.29618,178.15291
"100114",1342.5712,82.02762,177.9561
"100115",1342.5846,81.74441,177.73625
"100116",1342.5978,81.478294,177.52466
"100117",1342.611,81.26101,177.35358
"100118",1342.6244,81.09987,177.23184
"100119",1342.6378,80.99489,177.16124
"100120",1342.651,80.91676,177.11421
"100121",1342.6642,80.84596,177.07207
"100122",1342.6776,80.76051,177.01306
"100123",1342.691,80.66773,176.94405
"100124",1342.7042,80.57496,176.87215
"100125",1342.7174,80.48463,176.79979
"100126",1342.7308,80.41627,176.74658
"100127",1342.7443,80.37476,176.7181
"100128",1342.7574,80.34791,176.70296
"100129",1342.7706,80.325935,176.69186
"100130",1342.784,80.31373,176.68985
"100131",1342.7975,80.2942,176.68013
"100132",1342.8107,80.26246,176.6576
"100133",1342.8239,80.21118,176.61452
"100134",1342.8373,80.13794,176.54788
"100135",1342.8507,80.04761,176.46185
"100136",1342.8639,79.94751,176.36325
"100137",1342.8771,79.84741,176.2615
"100138",1342.8905,79.75464,176.16397
"100139",1342.9039,79.66674,176.0684
"100140",1342.9171,79.588615,175.97986
"100141",1342.9303,79.520256,175.89864
"100142",1342.9437,79.4641,175.82748
"100143",1342.9572,79.42016,175.76678
"100144",1342.9703,79.38842,175.71692
"100145",1342.9835,79.35668,175.66606
"100146",1342.997,79.32494,175.61421
"100147",1343.0104,79.293205,175.56137
"100148",1343.0236,79.26635,175.51242
"100149",1343.0367,79.24437,175.46751
"100150",1343.0502,79.22728,175.4268
"100151",1343.0636,79.217514,175.39288
"100152",1343.0768,79.20775,175.35866
"100153",1343.09,79.19066,175.3168
"100154",1343.1034,79.17357,175.27441
"100155",1343.1168,79.151596,175.22661
"100156",1343.13,79.132065,175.18056
"100157",1343.1432,79.11009,175.13145
"100158",1343.1566,79.093,175.08655
"100159",1343.17,79.07347,175.03867
"100160",1343.1832,79.05882,174.99506
"100161",1343.1964,79.044174,174.95099
"100162",1343.2098,79.03197,174.9089
"100163",1343.2233,79.027084,174.87376
"100164",1343.2365,79.0222,174.83847
"100165",1343.2496,79.01732,174.80302
"100166",1343.2631,79.00511,174.7601
"100167",1343.2765,78.992905,174.7168
"100168",1343.2897,78.9807,174.67311
"100169",1343.3029,78.97093,174.63148
"100170",1343.3163,78.96605,174.59444
"100171",1343.3297,78.96849,174.56456
"100172",1343.3429,78.98314,174.54697
"100173",1343.3561,78.995346,174.52739
"100174",1343.3695,79.012436,174.51308
"100175",1343.3829,79.03197,174.50174
"100176",1343.3961,79.05882,174.49834
"100177",1343.4093,79.078354,174.48845
"100178",1343.4227,79.093,174.47429
"100179",1343.4362,79.10033,174.45326
"100180",1343.4493,79.10277,174.42758
"100181",1343.4625,79.11009,174.40686
"100182",1343.476,79.166245,174.4352
"100183",1343.4894,79.32494,174.56784
"100184",1343.5026,79.63256,174.85435
"100185",1343.5157,80.09155,175.30186
"100186",1343.5292,80.66529,175.87846
"100187",1343.5426,81.270775,176.50475
"100188",1343.5558,81.80545,177.07913
"100189",1343.569,82.18387,177.51398
"100190",1343.5824,82.36454,177.7629
"100191",1343.5958,82.36698,177.83923
"100192",1343.609,82.230255,177.77647
"100193",1343.6222,81.99832,177.61424
"100194",1343.6356,81.72732,177.40569
"100195",1343.649,81.45144,177.18379
"100196",1343.6622,81.19264,176.97035
"100197",1343.6754,80.972916,176.7879
"100198",1343.6888,80.80446,176.64986
"100199",1343.7023,80.69215,176.56268
"100200",1343.7155,80.621346,176.51352
"100201",1343.7286,80.5774,176.489
"100202",1343.7421,80.54078,176.47043
"100203",1343.7555,80.499275,176.44583
"100204",1343.7687,80.44312,176.40529
"100205",1343.7819,80.37965,176.35567
"100206",1343.7953,80.31617,176.30406
"100207",1343.8087,80.2649,176.26268
"100208",1343.8219,80.22095,176.227
"100209",1343.8351,80.19409,176.20706
"100210",1343.8485,80.17212,176.19116
"100211",1343.8619,80.147705,176.17212
"100212",1343.8751,80.10864,176.13766
"100213",1343.8883,80.05737,176.08978
"100214",1343.9017,79.98901,176.02322
"100215",1343.9152,79.91333,175.9472
"100216",1343.9283,79.835205,175.86636
"100217",1343.9415,79.75952,175.78552
"100218",1343.955,79.68139,175.69987
"100219",1343.9684,79.603264,175.61179
"100220",1343.9816,79.53002,175.52614
"100221",1343.9948,79.466545,175.44797
"100222",1344.0082,79.412834,175.37758
"100223",1344.0216,79.37133,175.31772
"100224",1344.0348,79.33715,175.26389
"100225",1344.048,79.30785,175.21387
"100226",1344.0614,79.28344,175.16782
"100227",1344.0748,79.26391,175.12589
"100228",1344.088,79.256584,175.09555
"100229",1344.1012,79.256584,175.07231
"100230",1344.1146,79.26391,175.0564
"100231",1344.128,79.273674,175.04315
"100232",1344.1412,79.28588,175.03265
"100233",1344.1544,79.29809,175.02254
"100234",1344.1678,79.30297,175.00548
"100235",1344.1813,79.30297,174.98369
"100236",1344.1945,79.293205,174.95213
"100237",1344.2076,79.28832,174.92516
"100238",1344.2211,79.28344,174.89803
"100239",1344.2345,79.281,174.87318
"100240",1344.2477,79.276115,174.84583
"100241",1344.2609,79.26879,174.81587
"100242",1344.2743,79.259026,174.78325
"100243",1344.2877,79.24681,174.74788
"100244",1344.3009,79.237045,174.71457
"100245",1344.3141,79.22972,174.6834
"100246",1344.3275,79.2224,174.652
"100247",1344.341,79.219955,174.62524
"100248",1344.3541,79.21263,174.59354
"100249",1344.3673,79.202866,174.55916
"100250",1344.3807,79.19554,174.52692
"100251",1344.3942,79.185776,174.492
"100252",1344.4073,79.17845,174.45923
"100253",1344.4205,79.17845,174.43355
"100254",1344.434,79.18089,174.41031
"100255",1344.4474,79.18089,174.3847
"100256",1344.4606,79.17845,174.35666
"100257",1344.4738,79.18089,174.33342
"100258",1344.4872,79.19066,174.31758
"100259",1344.5006,79.22484,174.32646
"100260",1344.5138,79.31274,174.39014
"100261",1344.527,79.49828,174.5542
"100262",1344.5404,79.818115,174.85835
"100263",1344.5538,80.2649,175.29945
"100264",1344.567,80.81178,175.85461
"100265",1344.5802,81.38552,176.45372
"100266",1344.5936,81.89578,177.00728
"100267",1344.607,82.247345,177.41809
"100268",1344.6202,82.41581,177.65678
"100269",1344.6334,82.40116,177.71764
"100270",1344.6469,82.24246,177.63397
"100271",1344.6603,81.986115,177.44771
"100272",1344.6735,81.6907,177.21436
"100273",1344.6866,81.3904,176.9669
"100274",1344.7001,81.112076,176.73203
"100275",1344.7135,80.87526,176.52997
"100276",1344.7267,80.69215,176.3742
"100277",1344.7399,80.56031,176.264
"100278",1344.7533,80.465096,176.18631
"100279",1344.7667,80.394295,176.13005
"100280",1344.7799,80.33814,176.08623
"100281",1344.7931,80.28687,176.04553
"100282",1344.8065,80.24048,176.0081
"100283",1344.82,80.198975,175.97412
"100284",1344.8331,80.164795,175.94617
"100285",1344.8463,80.14526,175.9318
"100286",1344.8597,80.14038,175.93146
"100287",1344.8732,80.13794,175.93341
"100288",1344.8864,80.14038,175.94016
"100289",1344.8995,80.13306,175.93723
"100290",1344.913,80.113525,175.92184
"100291",1344.9264,80.07446,175.88632
"100292",1344.9396,80.01587,175.83005
"100293",1344.9528,79.94751,175.76218
"100294",1344.9662,79.87427,175.68729
"100295",1344.9796,79.80591,175.61499
"100296",1344.9928,79.73998,175.543
"100297",1345.006,79.67895,175.47383
"100298",1345.0194,79.62035,175.4052
"100299",1345.0328,79.569084,175.34206
"100300",1345.046,79.517815,175.27731
"100301",1345.0592,79.47143,175.21585
"100302",1345.0726,79.432365,175.16026
"100303",1345.086,79.40307,175.11322
"100304",1345.0992,79.38354,175.07503
"100305",1345.1124,79.37133,175.04355
"100306",1345.1259,79.36645,175.01901
"100307",1345.1393,79.37133,175.00409
"100308",1345.1525,79.378654,174.99176
"100309",1345.1656,79.38354,174.97722
"100310",1345.1791,79.38598,174.96039
"100311",1345.1925,79.381096,174.93631
"100312",1345.2057,79.37133,174.9072
"100313",1345.2189,79.35668,174.8729
"100314",1345.2323,79.34203,174.83813
"100315",1345.2457,79.32494,174.80048
"100316",1345.2589,79.310295,174.76472
"100317",1345.2721,79.29565,174.72852
"100318",1345.2855,79.281,174.69185
"100319",1345.299,79.26391,174.65228
"100320",1345.3121,79.2517,174.61707
"100321",1345.3253,79.24193,174.58391
"100322",1345.3387,79.23216,174.55045
"100323",1345.3522,79.2224,174.51668
"100324",1345.3654,79.217514,174.48749
"100325",1345.3785,79.21263,174.45815
"100326",1345.392,79.21019,174.43109
"100327",1345.4054,79.21263,174.40884
"100328",1345.4186,79.217514,174.38911
"100329",1345.4318,79.22484,174.37198
"100330",1345.4452,79.237045,174.35995
"100331",1345.4586,79.25414,174.35321
"100332",1345.4718,79.273674,174.34943
"100333",1345.485,79.29809,174.35114
"100334",1345.4984,79.32006,174.35117
"100335",1345.5118,79.33715,174.347
"100336",1345.525,79.34936,174.33849
"100337",1345.5382,79.36889,174.33768
"100338",1345.5516,79.43725,174.3863
"100339",1345.5651,79.603264,174.53473
"100340",1345.5782,79.906006,174.82507
"100341",1345.5914,80.34547,175.2616
"100342",1345.6049,80.885025,175.81195
"100343",1345.6183,81.44167,176.39626
"100344",1345.6315,81.9202,176.91983
"100345",1345.6447,82.252235,177.31187
"100346",1345.6581,82.40116,177.53119
"100347",1345.6715,82.37675,177.58182
"100348",1345.6847,82.22049,177.49983
"100349",1345.6979,81.97391,177.32265
"100350",1345.7113,81.685814,177.09624
"100351",1345.7247,81.38796,176.85107
"100352",1345.7379,81.11696,176.62344
"100353",1345.7511,80.88014,176.42154
"100354",1345.7645,80.69215,176.26105
"100355",1345.778,80.54322,176.13376
"100356",1345.7911,80.43336,176.04088
"100357",1345.8043,80.35523,175.9763
"100358",1345.8177,80.30152,175.9337
"100359",1345.8312,80.272224,175.91383
"100360",1345.8444,80.26978,175.9199
"100361",1345.8575,80.289314,175.94788
"100362",1345.871,80.33082,175.99843
"100363",1345.8844,80.37476,176.05272
"100364",1345.8976,80.413826,176.1035
"100365",1345.9108,80.428474,176.13109
"100366",1345.9242,80.41871,176.13472
"100367",1345.9376,80.38209,176.11119
"100368",1345.9508,80.325935,176.06699
"100369",1345.964,80.24536,175.9966
"100370",1345.9774,80.15747,175.91638
"100371",1345.9908,80.06714,175.83096
"100372",1346.004,79.974365,175.7403
"100373",1346.0172,79.888916,175.65405
"100374",1346.0306,79.815674,175.57733
"100375",1346.0441,79.75708,175.51297
"100376",1346.0573,79.7058,175.4541
"100377",1346.0704,79.64965,175.38875
"100378",1346.0839,79.60082,175.32896
"100379",1346.0973,79.55932,175.27498
"100380",1346.1105,79.53246,175.23434
"100381",1346.1237,79.517815,175.20508
"100382",1346.1371,79.51293,175.18512
"100383",1346.1505,79.51049,175.16745
"100384",1346.1637,79.50561,175.14726
"100385",1346.1769,79.500725,175.12692
"100386",1346.1903,79.4934,175.10399
"100387",1346.2037,79.49096,175.08571
"100388",1346.2169,79.49584,175.07468
"100389",1346.2301,79.49828,175.06136
"100390",1346.2435,79.49828,175.04567
"100391",1346.257,79.49584,175.02754
"100392",1346.2701,79.4934,175.00934
"100393",1346.2833,79.48608,174.98618
"100394",1346.2968,79.483635,174.96767
"100395",1346.3102,79.483635,174.95152
"100396",1346.3234,79.483635,174.93538
"100397",1346.3365,79.483635,174.91924
"100398",1346.35,79.48119,174.90065
"100399",1346.3634,79.47875,174.88199
"100400",1346.3766,79.47143,174.85837
"100401",1346.3898,79.46899,174.8394
"100402",1346.4032,79.466545,174.82036
"100403",1346.4166,79.46899,174.80612
"100404",1346.4298,79.47631,174.79684
"100405",1346.443,79.48608,174.79024
"100406",1346.4564,79.50317,174.79126
"100407",1346.4698,79.52514,174.7977
"100408",1346.483,79.551994,174.80971
"100409",1346.4962,79.58129,174.825
"100410",1346.5096,79.60082,174.83144
"100411",1346.5231,79.62035,174.83849
"100412",1346.5363,79.656975,174.86324
"100413",1346.5494,79.76196,174.9575
"100414",1346.5629,79.971924,175.16003
"100415",1346.5763,80.308846,175.49608
"100416",1346.5895,80.75319,175.95007
"100417",1346.6027,81.24391,176.46434
"100418",1346.6161,81.6907,176.95
"100419",1346.6295,82.01785,177.32999
"100420",1346.6427,82.178986,177.55418
"100421",1346.6559,82.17166,177.61496
"100422",1346.6693,82.02518,177.53635
"100423",1346.6827,81.78348,177.35794
"100424",1346.6959,81.48562,177.11581
"100425",1346.7091,81.17067,176.84729
"100426",1346.7225,80.867935,176.58115
"100427",1346.736,80.59449,176.33482
"100428",1346.7491,80.365,176.12392
"100429",1346.7623,80.177,175.94733
"100430",1346.7758,80.03296,175.8088
"100431",1346.7892,79.92554,175.70242
"100432",1346.8024,79.852295,175.62686
"100433",1346.8156,79.80835,175.57831
"100434",1346.829,79.798584,175.56256
"100435",1346.8424,79.83032,175.58801
"100436",1346.8556,79.90112,175.6535
"100437",1346.8688,79.99634,175.74564
"100438",1346.8822,80.10132,175.8505
"100439",1346.8956,80.19409,175.94644
"100440",1346.9088,80.26002,176.01843
"100441",1346.922,80.291756,176.0583
"100442",1346.9354,80.28443,176.0601
"100443",1346.9489,80.24292,176.02748
"100444",1346.962,80.17212,175.96426
"100445",1346.9752,80.08423,175.88174
"100446",1346.9886,79.98657,175.78671
"100447",1347.0021,79.888916,175.68863
"100448",1347.0153,79.801025,175.59726
"100449",1347.0284,79.72289,175.51291
"100450",1347.0419,79.65942,175.44077
"100451",1347.0553,79.605705,175.3764
"100452",1347.0685,79.56664,175.32501
"100453",1347.0817,79.54223,175.28705
"100454",1347.0951,79.52514,175.25565
"100455",1347.1085,79.51537,175.23103
"100456",1347.1217,79.51049,175.211
"100457",1347.1349,79.50805,175.19325
"100458",1347.1483,79.50561,175.17543
"100459",1347.1617,79.50561,175.15997
"100460",1347.1749,79.50805,175.14696
"100461",1347.1881,79.51537,175.1389
"100462",1347.2015,79.52758,175.13596
"100463",1347.215,79.54223,175.13583
"100464",1347.2281,79.56176,175.14105
"100465",1347.2413,79.58373,175.14932
"100466",1347.2548,79.603264,175.15584
"100467",1347.2682,79.622795,175.16296
"100468",1347.2814,79.63256,175.16093
"100469",1347.2946,79.63744,175.15433
"100470",1347.308,79.62768,175.13322
"100471",1347.3214,79.61791,175.11182
"100472",1347.3346,79.64477,175.12672
"100473",1347.3478,79.74731,175.21815
"100474",1347.3612,79.96704,175.43
"100475",1347.3746,80.323494,175.78542
"100476",1347.3878,80.782486,176.25452
"100477",1347.401,81.28542,176.7819
"100478",1347.4144,81.75174,177.28839
"100479",1347.4279,82.10086,177.69226
"100480",1347.441,82.29618,177.95323
"100481",1347.4542,82.33036,178.05917
"100482",1347.4677,82.230255,178.03189
"100483",1347.4811,82.03494,177.90628
"100484",1347.4943,81.78104,177.71597
"100485",1347.5074,81.50759,177.49818
"100486",1347.5209,81.23903,177.27673
"100487",1347.5343,80.99733,177.07376
"100488",1347.5475,80.78981,176.89742
"100489",1347.5607,80.61402,176.7463
"100490",1347.5741,80.462654,176.61414
"100491",1347.5875,80.33326,176.4992
"100492",1347.6007,80.233154,176.40952
"100493",1347.6139,80.164795,176.34845
"100494",1347.6273,80.14038,176.3292
"100495",1347.6407,80.15747,176.35068
"100496",1347.6539,80.21362,176.41174
"100497",1347.6671,80.28443,176.48923
"100498",1347.6805,80.36256,176.57625
"100499",1347.694,80.42359,176.64862
"100500",1347.7072,80.46021,176.69849
"100501",1347.7203,80.465096,176.71776
"100502",1347.7338,80.44068,176.70789
"100503",1347.7472,80.38453,176.66551
"100504",1347.7604,80.306404,176.59941
"100505",1347.7736,80.22095,176.52353
"100506",1347.787,80.1355,176.44498
"100507",1347.8004,80.05737,176.3711
"100508",1347.8136,79.97925,176.29477
"100509",1347.8268,79.903564,176.21844
"100510",1347.8402,79.83032,176.14218
"100511",1347.8536,79.75464,176.06119
"100512",1347.8668,79.67162,175.9705
"100513",1347.88,79.60082,175.88943
"100514",1347.8934,79.551994,175.82812
"100515",1347.9069,79.5227,175.78482
"100516",1347.92,79.51293,175.76013
"100517",1347.9332,79.52514,175.75711
"100518",1347.9467,79.54467,175.7618
"100519",1347.9601,79.55688,175.75977
"100520",1347.9733,79.56176,175.7508
"100521",1347.9865,79.554436,175.72977
"100522",1347.9999,79.53979,175.70119
"100523",1348.0133,79.52514,175.67215
"100524",1348.0265,79.54467,175.67683
"100525",1348.0397,79.63256,175.75049
"100526",1348.0531,79.82544,175.93188
"100527",1348.0665,80.14038,176.24136
"100528",1348.0797,80.55543,176.6608
"100529",1348.0929,81.01686,177.13959
"100530",1348.1063,81.45632,177.61082
"100531",1348.1198,81.80545,178.00546
"100532",1348.1329,82.022736,178.27917
"100533",1348.1461,82.09842,178.41808
"100534",1348.1595,82.05203,178.43727
"100535",1348.173,81.90799,178.35736
"100536",1348.1862,81.69802,178.20702
"100537",1348.1993,81.45632,178.01839
"100538",1348.2128,81.20729,177.81487
"100539",1348.2262,80.970474,177.61578
"100540",1348.2394,80.75807,177.43372
"100541",1348.2526,80.57984,177.27917
"100542",1348.266,80.42359,177.14105
"100543",1348.2794,80.289314,177.02002
"100544",1348.2926,80.181885,176.92163
"100545",1348.3058,80.10864,176.85406
"100546",1348.3192,80.06958,176.81839
"100547",1348.3326,80.06958,176.82056
"100548",1348.3458,80.10864,176.86179
"100549",1348.359,80.16724,176.92377
"100550",1348.3724,80.24048,177.00223
"100551",1348.3859,80.31861,177.08788
"100552",1348.399,80.38941,177.16864
"100553",1348.4122,80.43824,177.22964
"100554",1348.4257,80.45045,177.25555
"100555",1348.4391,80.428474,177.24767
"100556",1348.4523,80.36744,177.20003
"100557",1348.4655,80.27955,177.12363
"100558",1348.4789,80.177,177.02982
"100559",1348.4923,80.06714,176.92548
"100560",1348.5055,79.9646,176.82504
"100561",1348.5187,79.86206,176.7214
"100562",1348.5321,79.76929,176.62433
"100563",1348.5455,79.691154,176.53899
"100564",1348.5587,79.63012,176.46829
"100565",1348.5719,79.57641,176.40302
"100566",1348.5853,79.534904,176.34827
"100567",1348.5988,79.49828,176.2971
"100568",1348.6119,79.47143,176.25456
"100569",1348.6251,79.45922,176.22583
"100570",1348.6385,79.45678,176.20648
"100571",1348.652,79.4641,176.19682
"100572",1348.6652,79.483635,176.1996
"100573",1348.6783,79.51537,176.2152
"100574",1348.6918,79.57885,176.26352
"100575",1348.7052,79.708244,176.37975
"100576",1348.7184,79.94507,176.60745
"100577",1348.7316,80.30152,176.96219
"100578",1348.745,80.76051,177.4306
"100579",1348.7584,81.26589,177.95975
"100580",1348.7716,81.74441,178.47783
"100581",1348.7848,82.11551,178.90344
"100582",1348.7982,82.33524,179.18929
"100583",1348.8116,82.39628,179.3233
"100584",1348.8248,82.32304,179.32495
"100585",1348.838,82.14969,179.2242
"100586",1348.8514,81.92264,179.06433
"100587",1348.8649,81.68093,178.8827
"100588",1348.878,81.449,178.70331
"100589",1348.8912,81.25124,178.55084
"100590",1348.9047,81.0901,178.4288
"100591",1348.9181,80.96315,178.33592
"100592",1348.9313,80.85817,178.26105
"100593",1348.9445,80.762955,178.19266
"100594",1348.9579,80.67017,178.12372
"100595",1348.9713,80.5774,178.0519
"100596",1348.9845,80.49439,177.98694
"100597",1348.9977,80.42359,177.9316
"100598",1349.0111,80.38209,177.90334
"100599",1349.0245,80.365,177.8982
"100600",1349.0377,80.35767,177.90228
"100601",1349.0509,80.35767,177.91347
"100602",1349.0643,80.35279,177.91977
"100603",1349.0778,80.33326,177.91127
"100604",1349.091,80.28443,177.87286
"100605",1349.1041,80.22095,177.81827
"100606",1349.1176,80.13794,177.74216
"100607",1349.131,80.045166,177.65369
"100608",1349.1442,79.94995,177.55988
"100609",1349.1573,79.852295,177.46066
"100610",1349.1708,79.75952,177.36328
"100611",1349.1842,79.67162,177.26787
"100612",1349.1974,79.588615,177.17459
"100613",1349.2106,79.51537,177.08849
"100614",1349.224,79.4519,177.00986
"100615",1349.2374,79.40307,176.9439
"100616",1349.2506,79.36645,176.88861
"100617",1349.2638,79.34203,176.84439
"100618",1349.2772,79.327385,176.80917
"100619",1349.2906,79.327385,176.78815
"100620",1349.3038,79.327385,176.76712
"100621",1349.317,79.33227,176.75098
"100622",1349.3304,79.33471,176.73254
"100623",1349.3439,79.34203,176.71907
"100624",1349.357,79.33715,176.69362
"100625",1349.3702,79.33227,176.66801
"100626",1349.3837,79.33715,176.65202
"100627",1349.3971,79.398186,176.69234
"100628",1349.4103,79.554436,176.82977
"100629",1349.4235,79.84253,177.10394
"100630",1349.4369,80.26734,177.52383
"100631",1349.4503,80.78981,178.05466
"100632",1349.4635,81.3196,178.60913
"100633",1349.4767,81.76883,179.0996
"100634",1349.4901,82.074005,179.46005
"100635",1349.5035,82.21805,179.66891
"100636",1349.5167,82.20584,179.72603
"100637",1349.5299,82.08133,179.67046
"100638",1349.5433,81.89334,179.54752
"100639",1349.5568,81.688255,179.4016
"100640",1349.57,81.497826,179.26393
"100641",1349.5831,81.34402,179.15694
"100642",1349.5966,81.24391,179.09883
"100643",1349.61,81.180435,179.07423
"100644",1349.6232,81.13405,179.06474
"100645",1349.6364,81.08034,179.04648
"100646",1349.6498,80.99733,178.99724
"100647",1349.6632,80.88258,178.91367
"100648",1349.6764,80.75563,178.8143
"100649",1349.6896,80.62623,178.70851
"100650",1349.703,80.51148,178.61334
"100651",1349.7164,80.41871,178.53656
"100652",1349.7296,80.35279,178.48373
"100653",1349.7428,80.29908,178.44106
"100654",1349.7562,80.255135,178.40646
"100655",1349.7697,80.216064,178.37537
"100656",1349.7828,80.17944,178.34549
"100657",1349.796,80.128174,178.29984
"100658",1349.8094,80.06958,178.24524
"100659",1349.8229,80.00366,178.18149
"100660",1349.836,79.93286,178.11081
"100661",1349.8492,79.85718,178.03302
"100662",1349.8627,79.77661,177.948
"100663",1349.8761,79.69604,177.86044
"100664",1349.8893,79.61547,177.77037
"100665",1349.9025,79.534904,177.67778
"100666",1349.9159,79.45678,177.58511
"100667",1349.9293,79.38598,177.49733
"100668",1349.9425,79.3225,177.41466
"100669",1349.9557,79.26635,177.33733
"100670",1349.9691,79.21019,177.25824
"100671",1349.9825,79.15892,177.18228
"100672",1349.9957,79.114975,177.11205
"100673",1350.0089,79.07591,177.04532
"100674",1350.0223,79.04173,176.98225
"100675",1350.0358,79.012436,176.923
"100676",1350.049,78.99046,176.87016
"100677",1350.0621,78.97337,176.82152
"100678",1350.0756,78.95628,176.77234
"100679",1350.089,78.93675,176.72018
"100680",1350.1022,78.91722,176.66742
"100681",1350.1154,78.90013,176.61649
"100682",1350.1288,78.88548,176.56746
"100683",1350.1422,78.873276,176.52042
"100684",1350.1554,78.86595,176.47787
"100685",1350.1686,78.85863,176.4351
"100686",1350.182,78.853745,176.39455
"100687",1350.1954,78.84642,176.3514
"100688",1350.2086,78.839096,176.30801
"100689",1350.2218,78.82933,176.26196
"100690",1350.2352,78.81712,176.21317
"100691",1350.2487,78.802475,176.16154
"100692",1350.2618,78.785385,176.10703
"100693",1350.275,78.77074,176.05441
"100694",1350.2885,78.75609,176.00134
"100695",1350.3019,78.73899,175.94537
"100696",1350.3151,78.71946,175.88643
"100697",1350.3282,78.69749,175.82443
"100698",1350.3417,78.692604,175.77884
"100699",1350.3551,78.74143,175.7868
"100700",1350.3683,78.89769,175.90373
"100701",1350.3815,79.202866,176.17445
"100702",1350.3949,79.66918,176.61586
"100703",1350.4083,80.257576,177.19391
"100704",1350.4215,80.88991,177.83429
"100705",1350.4347,81.45876,178.43095
"100706",1350.4481,81.87625,178.89403
"100707",1350.4615,82.09842,179.17484
"100708",1350.4747,82.1326,179.2746
"100709",1350.4879,82.01785,179.2265
"100710",1350.5013,81.81033,179.08205
"100711",1350.5148,81.57107,178.89935
"100712",1350.528,81.34646,178.72385
"100713",1350.5411,81.160904,178.58037
"100714",1350.5546,81.03883,178.49458
"100715",1350.568,80.972916,178.46114
"100716",1350.5812,80.9485,178.46713
"100717",1350.5944,80.93141,178.47969
"100718",1350.6078,80.89479,178.47218
"100719",1350.6212,80.814224,178.41959
"100720",1350.6344,80.689705,178.32051
"100721",1350.6476,80.533455,178.18582
"100722",1350.661,80.36988,178.03893
"100723",1350.6744,80.22095,177.90155
"100724",1350.6876,80.1062,177.7937
"100725",1350.7008,80.025635,177.71646
"100726",1350.7142,79.974365,177.66599
"100727",1350.7277,79.937744,177.62857
"100728",1350.7408,79.906006,177.59488
"100729",1350.754,79.86694,177.55289
"100730",1350.7675,79.815674,177.49747
"100731",1350.7809,79.75464,177.43066
"100732",1350.7941,79.691154,177.35951
"100733",1350.8073,79.63012,177.28882
"100734",1350.8207,79.57397,177.2211
"100735",1350.8341,79.520256,177.15407
"100736",1350.8473,79.46166,177.08047
"100737",1350.8605,79.398186,177.00017
"100738",1350.8739,79.33471,176.91788
"100739",1350.8873,79.276115,176.83849
"100740",1350.9005,79.219955,176.7597
"100741",1350.9137,79.168686,176.68405
"100742",1350.9271,79.12718,176.61656
"100743",1350.9406,79.093,176.5551
"100744",1350.9537,79.06615,176.4999
"100745",1350.9669,79.046616,176.45117
"100746",1350.9803,79.03197,176.40672
"100747",1350.9938,79.01732,176.36182
"100748",1351.007,79.00267,176.31645
"100749",1351.0201,78.98558,176.26819
"100750",1351.0336,78.97337,176.22427
"100751",1351.047,78.96605,176.18486
"100752",1351.0602,78.96117,176.14766
"100753",1351.0734,78.9514,176.10542
"100754",1351.0868,78.93675,176.058
"100755",1351.1002,78.922104,176.01012
"100756",1351.1134,78.90257,175.9569
"100757",1351.1266,78.88304,175.90306
"100758",1351.14,78.86595,175.85106
"100759",1351.1534,78.85863,175.80829
"100760",1351.1666,78.853745,175.76773
"100761",1351.1798,78.853745,175.7319
"100762",1351.1932,78.856186,175.69852
"100763",1351.2067,78.85863,175.6652
"100764",1351.2198,78.86107,175.63197
"100765",1351.233,78.86107,175.59637
"100766",1351.2465,78.86839,175.5681
"100767",1351.2599,78.86839,175.53273
"100768",1351.2731,78.86595,175.49492
"100769",1351.2863,78.870834,175.46436
"100770",1351.2997,78.91478,175.473
"100771",1351.3131,79.03929,175.5636
"100772",1351.3263,79.29809,175.79237
"100773",1351.3395,79.71313,176.18547
"100774",1351.3529,80.257576,176.72095
"100775",1351.3663,80.867935,177.33936
"100776",1351.3795,81.45876,177.9573
"100777",1351.3927,81.93729,178.48141
"100778",1351.4061,82.23514,178.83981
"100779",1351.4196,82.34745,179.02197
"100780",1351.4327,82.30106,179.04895
"100781",1351.4459,82.142365,178.96216
"100782",1351.4594,81.91531,178.80206
"100783",1351.4728,81.67605,178.62265
"100784",1351.486,81.45388,178.45287
"100785",1351.4991,81.2781,178.32253
"100786",1351.5126,81.1487,178.23306
"100787",1351.526,81.06569,178.18596
"100788",1351.5392,81.00221,178.15579
"100789",1351.5524,80.94118,178.12608
"100790",1351.5658,80.867935,178.08226
"100791",1351.5792,80.78493,178.02638
"100792",1351.5924,80.69947,177.96545
"100793",1351.6056,80.62623,177.91408
"100794",1351.619,80.57496,177.88239
"100795",1351.6324,80.5481,177.8735
"100796",1351.6456,80.52857,177.87111
"100797",1351.6588,80.5066,177.86566
"100798",1351.6722,80.47486,177.84976
"100799",1351.6857,80.430916,177.82066
"100800",1351.6989,80.36744,177.77066
"100801",1351.712,80.28687,177.70158
"100802",1351.7255,80.198975,177.62265
"100803",1351.7389,80.113525,177.54343
"100804",1351.7521,80.025635,177.45908
"100805",1351.7653,79.94263,177.37686
"100806",1351.7787,79.85962,177.29205
"100807",1351.7921,79.77905,177.20709
"100808",1351.8053,79.69604,177.11717
"100809",1351.8185,79.62035,177.03198
"100810",1351.8319,79.54955,176.94931
"100811",1351.8453,79.48608,176.87175
"100812",1351.8585,79.429924,176.79953
"100813",1351.8717,79.3933,176.74509
"100814",1351.8851,79.37377,176.70659
"100815",1351.8986,79.36645,176.67969
"100816",1351.9117,79.36889,176.66232
"100817",1351.9249,79.37377,176.64748
"100818",1351.9384,79.37377,176.6279
"100819",1351.9518,79.36889,176.60344
"100820",1351.965,79.361565,176.57639
"100821",1351.9781,79.35424,176.5491
"100822",1351.9916,79.34692,176.52159
"100823",1352.005,79.33959,176.49385
"100824",1352.0182,79.3225,176.45612
"100825",1352.0314,79.30053,176.41296
"100826",1352.0448,79.26879,176.35936
"100827",1352.0582,79.22728,176.295
"100828",1352.0714,79.183334,176.2269
"100829",1352.0846,79.132065,176.1501
"100830",1352.098,79.08324,176.07414
"100831",1352.1115,79.03685,175.9991
"100832",1352.1246,79.0222,175.95435
"100833",1352.1378,79.07103,175.97261
"100834",1352.1512,79.237045,176.10959
"100835",1352.1647,79.54711,176.39581
"100836",1352.1779,79.99878,176.83333
"100837",1352.191,80.54322,177.37773
"100838",1352.2045,81.09743,177.94891
"100839",1352.2179,81.57351,178.45929
"100840",1352.2311,81.900665,178.83562
"100841",1352.2443,82.054474,179.04883
"100842",1352.2577,82.04715,179.10571
"100843",1352.2711,81.9202,179.04274
"100844",1352.2843,81.71999,178.90254
"100845",1352.2975,81.497826,178.73413
"100846",1352.3109,81.290306,178.57343
"100847",1352.3243,81.1194,178.44284
"100848",1352.3375,80.99489,178.35332
"100849",1352.3507,80.902115,178.29164
"100850",1352.3641,80.82399,178.24171
"100851",1352.3776,80.73853,178.182
"100852",1352.3907,80.64088,178.10744
"100853",1352.4039,80.52857,178.01517
"100854",1352.4174,80.41627,177.91939
"100855",1352.4308,80.32105,177.83719
"100856",1352.444,80.257576,177.78375
"100857",1352.4572,80.22583,177.76006
"100858",1352.4706,80.21362,177.75491
"100859",1352.484,80.21118,177.75916
"100860",1352.4972,80.20386,177.75842
"100861",1352.5104,80.17944,177.74039
"100862",1352.5238,80.1355,177.70206
"100863",1352.5372,80.07202,177.64282
"100864",1352.5504,79.991455,177.56451
"100865",1352.5636,79.903564,177.47635
"100866",1352.577,79.81079,177.38055
"100867",1352.5905,79.725334,177.28918
"100868",1352.6036,79.64477,177.20003
"100869",1352.6168,79.57885,177.123
"100870",1352.6302,79.51537,177.04636
"100871",1352.6437,79.45434,176.97017
"100872",1352.6569,79.39086,176.88963
"100873",1352.67,79.327385,176.80711
"100874",1352.6835,79.26147,176.72017
"100875",1352.6969,79.200424,176.63605
"100876",1352.7101,79.151596,176.56223
"100877",1352.7233,79.11009,176.4942
"100878",1352.7367,79.09056,176.44685
"100879",1352.7501,79.080795,176.40866
"100880",1352.7633,79.080795,176.37993
"100881",1352.7765,79.08324,176.35364
"100882",1352.7899,79.08812,176.32986
"100883",1352.8033,79.08324,176.29648
"100884",1352.8165,79.07347,176.25806
"100885",1352.8297,79.05638,176.212
"100886",1352.8431,79.03441,176.16054
"100887",1352.8566,79.00755,176.1035
"100888",1352.8698,78.975815,176.04074
"100889",1352.8829,78.93919,175.9721
"100890",1352.8964,78.907455,175.90721
"100891",1352.9098,78.887924,175.85353
"100892",1352.923,78.87572,175.80656
"100893",1352.9362,78.870834,175.76654
"100894",1352.9496,78.870834,175.73125
"100895",1352.963,78.86595,175.69107
"100896",1352.9762,78.85863,175.6483
"100897",1352.9894,78.84398,175.59798
"100898",1353.0028,78.82445,175.54231
"100899",1353.0162,78.80003,175.48116
"100900",1353.0294,78.77806,175.42168
"100901",1353.0426,78.751205,175.35663
"100902",1353.056,78.73167,175.29807
"100903",1353.0695,78.74143,175.26819
"100904",1353.0826,78.82445,175.31187
"100905",1353.0958,79.027084,175.47777
"100906",1353.1093,79.37621,175.7965
"100907",1353.1227,79.871826,176.27261
"100908",1353.1359,80.46998,176.86676
"100909",1353.149,81.08278,177.49425
"100910",1353.1625,81.61501,178.06032
"100911",1353.1759,81.988556,178.48433
"100912",1353.1891,82.176544,178.73447
"100913",1353.2023,82.18143,178.80737
"100914",1353.2157,82.04715,178.74127
"100915",1353.2291,81.82742,178.58553
"100916",1353.2423,81.57595,178.39116
"100917",1353.2555,81.33425,178.19872
"100918",1353.2689,81.13161,178.03777
"100919",1353.2823,80.98512,177.92665
"100920",1353.2955,80.88991,177.86223
"100921",1353.3087,80.831314,177.83145
"100922",1353.3221,80.782486,177.80861
"100923",1353.3356,80.726326,177.7769
"100924",1353.3488,80.6482,177.72148
"100925",1353.3619,80.54322,177.63676
"100926",1353.3754,80.428474,177.539
"100927",1353.3888,80.32105,177.44498
"100928",1353.402,80.233154,177.36711
"100929",1353.4152,80.17456,177.3158
"100930",1353.4286,80.147705,177.2944
"100931",1353.442,80.13794,177.28925
"100932",1353.4552,80.1355,177.2911
"100933",1353.4684,80.12573,177.28558
"100934",1353.4818,80.093994,177.25778
"100935",1353.4952,80.03052,177.19724
"100936",1353.5084,79.94995,177.11761
"100937",1353.5216,79.85962,177.02573
"100938",1353.535,79.764404,176.92612
"100939",1353.5485,79.676506,176.83086
"100940",1353.5616,79.5935,176.73773
"100941",1353.5748,79.50805,176.63957
"100942",1353.5883,79.4226,176.53874
"100943",1353.6017,79.33715,176.43524
"100944",1353.6149,79.259026,176.3364
"100945",1353.628,79.18822,176.24243
"100946",1353.6415,79.132065,176.1609
"100947",1353.6549,79.08324,176.08495
"100948",1353.6681,79.04906,176.02211
"100949",1353.6813,79.027084,175.97041
"100950",1353.6947,79.01488,175.9278
"100951",1353.7081,79.012436,175.89456
"100952",1353.7213,79.01976,175.87102
"100953",1353.7345,79.03441,175.85503
"100954",1353.7479,79.04173,175.83217
"100955",1353.7614,79.046616,175.8071
"100956",1353.7745,79.04173,175.77242
"100957",1353.7877,79.027084,175.72781
"100958",1353.8011,79.00755,175.67787
"100959",1353.8146,78.98314,175.62244
"100960",1353.8278,78.95628,175.5638
"100961",1353.841,78.93187,175.50676
"100962",1353.8544,78.907455,175.44896
"100963",1353.8678,78.890366,175.39772
"100964",1353.881,78.873276,175.34595
"100965",1353.8942,78.856186,175.29364
"100966",1353.9076,78.836655,175.23836
"100967",1353.921,78.81468,175.18002
"100968",1353.9342,78.80003,175.12833
"100969",1353.9474,78.79271,175.0835
"100970",1353.9608,78.79759,175.05064
"100971",1353.9742,78.81224,175.02771
"100972",1353.9874,78.82445,175.00279
"100973",1354.0006,78.82933,174.97093
"100974",1354.014,78.82933,174.93434
"100975",1354.0275,78.82933,174.89775
"100976",1354.0406,78.82933,174.86116
"100977",1354.0538,78.84642,174.84166
"100978",1354.0673,78.91722,174.8764
"100979",1354.0807,79.08812,175.01346
"100980",1354.0939,79.395744,175.29259
"100981",1354.107,79.85474,175.7327
"100982",1354.1205,80.42359,176.29701
"100983",1354.1339,81.01686,176.90352
"100984",1354.1471,81.53933,177.45776
"100985",1354.1603,81.91531,177.88185
"100986",1354.1737,82.09842,178.12482
"100987",1354.1871,82.10574,178.19772
"100988",1354.2003,81.98367,178.14146
"100989",1354.2135,81.78836,178.00815
"100990",1354.2269,81.55886,177.83453
"100991",1354.2404,81.33181,177.6562
"100992",1354.2535,81.13161,177.49762
"100993",1354.2667,80.972916,177.3743
"100994",1354.2802,80.85329,177.28508
"100995",1354.2936,80.77272,177.23119
"100996",1354.3068,80.719,177.20161
"100997",1354.32,80.67017,177.17526
"100998",1354.3334,80.61158,177.13762
"100999",1354.3468,80.53834,177.0835
"101000",1354.36,80.448006,177.01
"101001",1354.3732,80.35279,176.92879
"101002",1354.3866,80.272224,176.85925
"101003",1354.4,80.20386,176.7994
"101004",1354.4132,80.15503,176.75693
"101005",1354.4264,80.12085,176.7276
"101006",1354.4398,80.09888,176.70941
"101007",1354.4532,80.076904,176.69052
"101008",1354.4664,80.04761,176.66364
"101009",1354.4796,80.00366,176.62119
"101010",1354.493,79.94995,176.5676
"101011",1354.5065,79.88403,176.50012
"101012",1354.5197,79.80835,176.4208
"101013",1354.5328,79.7351,176.34157
"101014",1354.5463,79.66186,176.26004
"101015",1354.5597,79.59106,176.17867
"101016",1354.5729,79.52758,176.1024
"101017",1354.586,79.46899,176.02904
"101018",1354.5995,79.412834,175.95628
"101019",1354.6129,79.361565,175.88666
"101020",1354.6261,79.31518,175.82031
"101021",1354.6393,79.27856,175.76228
"101022",1354.6527,79.23949,175.70067
"101023",1354.6661,79.202866,175.64027
"101024",1354.6793,79.17357,175.58606
"101025",1354.6925,79.15648,175.54314
"101026",1354.7059,79.14427,175.50456
"101027",1354.7194,79.14427,175.47781
"101028",1354.7325,79.14427,175.45107
"101029",1354.7457,79.14427,175.42432
"101030",1354.7592,79.13695,175.39024
"101031",1354.7726,79.11986,175.34618
"101032",1354.7858,79.097885,175.29669
"101033",1354.799,79.07591,175.24652
"101034",1354.8124,79.0515,175.19322
"101035",1354.8258,79.027084,175.13916
"101036",1354.839,79.00511,175.08678
"101037",1354.8522,78.98558,175.03615
"101038",1354.8656,78.97093,174.98979
"101039",1354.879,78.96117,174.94786
"101040",1354.8922,78.96117,174.91539
"101041",1354.9054,78.96849,174.89024
"101042",1354.9188,78.98558,174.87509
"101043",1354.9323,79.00755,174.86536
"101044",1354.9454,79.02464,174.85143
"101045",1354.9586,79.03197,174.82826
"101046",1354.972,79.029526,174.79556
"101047",1354.9855,79.009995,174.7457
"101048",1354.9987,78.98558,174.69034
"101049",1355.0118,78.96361,174.63666
"101050",1355.0253,78.94896,174.58961
"101051",1355.0387,78.94896,174.55676
"101052",1355.0519,78.96605,174.541
"101053",1355.0651,78.98802,174.53065
"101054",1355.0785,79.012436,174.52344
"101055",1355.0919,79.03441,174.51454
"101056",1355.1051,79.078354,174.5283
"101057",1355.1183,79.200424,174.62157
"101058",1355.1317,79.45434,174.8505
"101059",1355.1451,79.86694,175.24605
"101060",1355.1583,80.41871,175.79366
"101061",1355.1715,81.03395,176.42198
"101062",1355.1849,81.617455,177.0378
"101063",1355.1984,82.06668,177.53757
"101064",1355.2115,82.33036,177.86583
"101065",1355.2247,82.40116,178.00946
"101066",1355.2382,82.31083,177.99417
"101067",1355.2516,82.11307,177.86862
"101068",1355.2648,81.85184,177.67343
"101069",1355.278,81.57107,177.45053
"101070",1355.2914,81.31228,177.24084
"101071",1355.3048,81.09743,177.067
"101072",1355.318,80.936295,176.94017
"101073",1355.3312,80.831314,176.86446
"101074",1355.3446,80.765396,176.82452
"101075",1355.358,80.71656,176.7996
"101076",1355.3712,80.66041,176.76585
"101077",1355.3844,80.58961,176.7157
"101078",1355.3978,80.51148,176.656
"101079",1355.4113,80.42603,176.58655
"101080",1355.4244,80.34791,176.52174
"101081",1355.4376,80.28687,176.47159
"101082",1355.451,80.2478,176.44148
"101083",1355.4645,80.22339,176.4248
"101084",1355.4777,80.20386,176.41226
"101085",1355.4908,80.18677,176.40155
"101086",1355.5043,80.15747,176.37808
"101087",1355.5177,80.111084,176.33661
"101088",1355.5309,80.04761,176.27661
"101089",1355.5441,79.974365,176.20486
"101090",1355.5575,79.89868,176.12839
"101091",1355.5709,79.815674,176.0422
"101092",1355.5841,79.73022,175.95099
"101093",1355.5973,79.64965,175.86198
"101094",1355.6107,79.569084,175.77046
"101095",1355.6241,79.4934,175.6813
"101096",1355.6373,79.42504,175.5971
"101097",1355.6505,79.37377,175.52786
"101098",1355.664,79.327385,175.4619
"101099",1355.6774,79.28344,175.39693
"101100",1355.6906,79.24925,175.34035
"101101",1355.7037,79.2224,175.29002
"101102",1355.7172,79.200424,175.24374
"101103",1355.7306,79.18822,175.20654
"101104",1355.7438,79.19066,175.18361
"101105",1355.757,79.200424,175.16808
"101106",1355.7704,79.21019,175.15285
"101107",1355.7838,79.21507,175.13304
"101108",1355.797,79.217514,175.11095
"101109",1355.8102,79.217514,175.08649
"101110",1355.8236,79.21263,175.05714
"101111",1355.837,79.20531,175.0252
"101112",1355.8502,79.200424,174.99548
"101113",1355.8634,79.185776,174.95584
"101114",1355.8768,79.166245,174.91086
"101115",1355.8903,79.14427,174.86282
"101116",1355.9034,79.12474,174.81654
"101117",1355.9166,79.10521,174.76965
"101118",1355.93,79.09056,174.72704
"101119",1355.9435,79.078354,174.6864
"101120",1355.9567,79.07103,174.65027
"101121",1355.9698,79.06615,174.61635
"101122",1355.9833,79.063705,174.58472
"101123",1355.9967,79.061264,174.55301
"101124",1356.0099,79.05882,174.52122
"101125",1356.0231,79.05394,174.48692
"101126",1356.0365,79.05394,174.45735
"101127",1356.0499,79.06615,174.43999
"101128",1356.0631,79.08324,174.42789
"101129",1356.0763,79.10277,174.41876
"101130",1356.0897,79.1223,174.41025
"101131",1356.1031,79.13939,174.3999
"101132",1356.1163,79.14427,174.37788
"101133",1356.1295,79.14427,174.35114
"101134",1356.143,79.14183,174.32195
"101135",1356.1564,79.151596,174.30489
"101136",1356.1696,79.21019,174.33696
"101137",1356.1827,79.37377,174.47586
"101138",1356.1962,79.68383,174.76634
"101139",1356.2096,80.14526,175.2179
"101140",1356.2228,80.71656,175.79373
"101141",1356.236,81.31716,176.41673
"101142",1356.2494,81.846954,176.98769
"101143",1356.2628,82.22293,177.42139
"101144",1356.276,82.4036,177.67152
"101145",1356.2892,82.41093,177.75397
"101146",1356.3026,82.28886,177.70724
"101147",1356.316,82.07645,177.56636
"101148",1356.3292,81.82742,177.38223
"101149",1356.3424,81.57595,177.18787
"101150",1356.3558,81.34402,177.00519
"101151",1356.3693,81.13893,176.8421
"101152",1356.3824,80.970474,176.70924
"101153",1356.3956,80.850845,176.61995
"101154",1356.409,80.762955,176.55865
"101155",1356.4225,80.69703,176.51657
"101156",1356.4357,80.64088,176.48221
"101157",1356.4489,80.587166,176.44853
"101158",1356.4623,80.52613,176.40585
"101159",1356.4757,80.465096,176.36127
"101160",1356.4889,80.411385,176.3221
"101161",1356.5021,80.37476,176.29834
"101162",1356.5155,80.34791,176.2832
"101163",1356.5289,80.325935,176.27211
"101164",1356.5421,80.306404,176.26277
"101165",1356.5553,80.27955,176.2455
"101166",1356.5687,80.24048,176.21516
"101167",1356.5822,80.18677,176.16898
"101168",1356.5953,80.12329,176.11133
"101169",1356.6085,80.05737,176.04926
"101170",1356.622,79.98901,175.9827
"101171",1356.6354,79.923096,175.91644
"101172",1356.6486,79.85718,175.84811
"101173",1356.6617,79.79126,175.77774
"101174",1356.6752,79.725334,175.70529
"101175",1356.6886,79.66186,175.63322
"101176",1356.7018,79.60082,175.56161
"101177",1356.715,79.54955,175.49786
"101178",1356.7284,79.50561,175.43983
"101179",1356.7418,79.47387,175.39264
"101180",1356.755,79.447014,175.34933
"101181",1356.7682,79.432365,175.3174
"101182",1356.7816,79.432365,175.29965
"101183",1356.795,79.43481,175.28435
"101184",1356.8082,79.44457,175.27644
"101185",1356.8214,79.45678,175.27129
"101186",1356.8348,79.47143,175.26895
"101187",1356.8483,79.483635,175.26463
"101188",1356.8615,79.4934,175.25826
"101189",1356.8746,79.4934,175.24242
"101190",1356.8881,79.48608,175.21925
"101191",1356.9015,79.466545,175.18365
"101192",1356.9147,79.44213,175.14256
"101193",1356.9279,79.412834,175.09583
"101194",1356.9413,79.39086,175.0555
"101195",1356.9547,79.37377,175.01936
"101196",1356.9679,79.37377,174.99979
"101197",1356.9811,79.38598,174.99242
"101198",1356.9945,79.41039,174.99763
"101199",1357.0079,79.43725,175.00606
"101200",1357.0211,79.45434,175.00555
"101201",1357.0343,79.45434,174.9885
"101202",1357.0477,79.44457,174.96167
"101203",1357.0612,79.429924,174.92966
"101204",1357.0743,79.415276,174.89719
"101205",1357.0875,79.40795,174.87158
"101206",1357.101,79.40307,174.84819
"101207",1357.1144,79.40307,174.82953
"101208",1357.1276,79.40063,174.80843
"101209",1357.1407,79.395744,174.7848
"101210",1357.1542,79.395744,174.76591
"101211",1357.1676,79.40063,174.7519
"101212",1357.1808,79.40551,174.73805
"101213",1357.194,79.42016,174.73412
"101214",1357.2074,79.483635,174.77946
"101215",1357.2208,79.639885,174.91957
"101216",1357.234,79.93042,175.19885
"101217",1357.2472,80.360115,175.62637
"101218",1357.2606,80.89235,176.16986
"101219",1357.274,81.444115,176.74951
"101220",1357.2872,81.917755,177.26828
"101221",1357.3004,82.24002,177.65048
"101222",1357.3138,82.37675,177.85721
"101223",1357.3273,82.34257,177.89731
"101224",1357.3405,82.18143,177.80937
"101225",1357.3536,81.93973,177.63585
"101226",1357.3671,81.66628,177.42302
"101227",1357.3805,81.392845,177.20166
"101228",1357.3937,81.143814,176.99615
"101229",1357.4069,80.92897,176.81706
"101230",1357.4203,80.765396,176.68253
"101231",1357.4337,80.65308,176.59413
"101232",1357.4469,80.58228,176.54375
"101233",1357.4601,80.5359,176.51556
"101234",1357.4735,80.499275,176.4957
"101235",1357.4869,80.45289,176.46492
"101236",1357.5001,80.396736,176.42293
"101237",1357.5133,80.33814,176.37674
"101238",1357.5267,80.28687,176.33604
"101239",1357.5402,80.24292,176.30106
"101240",1357.5533,80.21362,176.27936
"101241",1357.5665,80.184326,176.25674
"101242",1357.58,80.15259,176.23077
"101243",1357.5934,80.11597,176.19891
"101244",1357.6066,80.079346,176.16592
"101245",1357.6198,80.03296,176.12201
"101246",1357.6332,79.97681,176.0669
"101247",1357.6466,79.91333,176.00269
"101248",1357.6598,79.83765,175.92429
"101249",1357.673,79.7522,175.83377
"101250",1357.6864,79.65942,175.73325
"101251",1357.6998,79.571526,175.6347
"101252",1357.713,79.49828,175.54807
"101253",1357.7262,79.43725,175.47134
"101254",1357.7396,79.398186,175.41469
"101255",1357.753,79.37377,175.37146
"101256",1357.7662,79.35668,175.3348
"101257",1357.7794,79.33715,175.29515
"101258",1357.7928,79.32006,175.25734
"101259",1357.8063,79.293205,175.20923
"101260",1357.8195,79.27123,175.16516
"101261",1357.8326,79.2517,175.12285
"101262",1357.8461,79.237045,175.08481
"101263",1357.8595,79.22728,175.0512
"101264",1357.8727,79.2224,175.02216
"101265",1357.8859,79.219955,174.9954
"101266",1357.8993,79.219955,174.97102
"101267",1357.9127,79.217514,174.9442
"101268",1357.9259,79.20775,174.90997
"101269",1357.9391,79.185776,174.86324
"101270",1357.9525,79.15648,174.80849
"101271",1357.966,79.1223,174.74794
"101272",1357.9791,79.093,174.69121
"101273",1357.9923,79.06615,174.636
"101274",1358.0057,79.04906,174.58972
"101275",1358.0192,79.03685,174.54779
"101276",1358.0323,79.03197,174.5128
"101277",1358.0455,79.029526,174.4801
"101278",1358.059,79.0222,174.44244
"101279",1358.0724,79.009995,174.39967
"101280",1358.0856,78.995346,174.35408
"101281",1358.0988,78.97826,174.30559
"101282",1358.1122,78.96605,174.26144
"101283",1358.1256,78.95384,174.21692
"101284",1358.1388,78.94896,174.17934
"101285",1358.152,78.94896,174.14648
"101286",1358.1654,78.94896,174.11363
"101287",1358.1788,78.9514,174.08322
"101288",1358.192,78.95628,174.05533
"101289",1358.2052,78.96605,174.03247
"101290",1358.2186,78.98314,174.01724
"101291",1358.232,78.995346,173.99767
"101292",1358.2452,79.012436,173.98335
"101293",1358.2584,79.063705,174.00375
"101294",1358.2719,79.18822,174.099
"101295",1358.2853,79.43481,174.32022
"101296",1358.2985,79.83276,174.70052
"101297",1358.3116,80.35767,175.2202
"101298",1358.3251,80.95094,175.82465
"101299",1358.3385,81.52468,176.4281
"101300",1358.3517,81.986115,176.93718
"101301",1358.3649,82.269325,177.28246
"101302",1358.3783,82.36942,177.45348
"101303",1358.3917,82.30839,177.46649
"101304",1358.4049,82.127716,177.35796
"101305",1358.4181,81.87869,177.17543
"101306",1358.4315,81.61013,176.96558
"101307",1358.445,81.35378,176.75955
"101308",1358.4581,81.13893,176.587
"101309",1358.4713,80.972916,176.45659
"101310",1358.4847,80.86549,176.37958
"101311",1358.4982,80.797134,176.33827
"101312",1358.5114,80.75563,176.32169
"101313",1358.5245,80.719,176.30867
"101314",1358.538,80.67506,176.2872
"101315",1358.5514,80.60914,176.24239
"101316",1358.5646,80.53101,176.1833
"101317",1358.5778,80.45045,176.11934
"101318",1358.5912,80.37232,176.0553
"101319",1358.6046,80.308846,176.00346
"101320",1358.6178,80.2649,175.96918
"101321",1358.631,80.23804,175.95059
"101322",1358.6444,80.21362,175.93362
"101323",1358.6578,80.18921,175.9159
"101324",1358.671,80.15747,175.89008
"101325",1358.6842,80.11597,175.85349
"101326",1358.6976,80.059814,175.80096
"101327",1358.711,79.98901,175.73203
"101328",1358.7242,79.90845,175.65112
"101329",1358.7374,79.82544,175.56525
"101330",1358.7509,79.744865,175.47922
"101331",1358.7643,79.66674,175.39311
"101332",1358.7775,79.60082,175.31677
"101333",1358.7906,79.54711,175.25058
"101334",1358.8041,79.50317,175.19247
"101335",1358.8175,79.4641,175.13788
"101336",1358.8307,79.429924,175.08694
"101337",1358.8439,79.40063,175.03983
"101338",1358.8573,79.36645,174.98691
"101339",1358.8707,79.33471,174.93536
"101340",1358.8839,79.31274,174.8926
"101341",1358.8971,79.30297,174.86134
"101342",1358.9105,79.30053,174.83711
"101343",1358.924,79.30541,174.82013
"101344",1358.9371,79.31274,174.80574
"101345",1358.9503,79.3225,174.79402
"101346",1358.9637,79.32983,174.78017
"101347",1358.9772,79.32983,174.75922
"101348",1358.9904,79.33227,174.7407
"101349",1359.0035,79.32983,174.71739
"101350",1359.017,79.32006,174.68668
"101351",1359.0304,79.30785,174.65321
"101352",1359.0436,79.30053,174.62425
"101353",1359.0568,79.293205,174.59506
"101354",1359.0702,79.28588,174.56564
"101355",1359.0836,79.276115,174.53355
"101356",1359.0968,79.26391,174.49872
"101357",1359.11,79.2517,174.4635
"101358",1359.1234,79.23949,174.4279
"101359",1359.1368,79.23216,174.3968
"101360",1359.15,79.234604,174.37524
"101361",1359.1632,79.24437,174.36108
"101362",1359.1766,79.24925,174.34235
"101363",1359.1901,79.2517,174.32133
"101364",1359.2032,79.2517,174.29794
"101365",1359.2164,79.25414,174.277
"101366",1359.2299,79.259026,174.25856
"101367",1359.2433,79.26635,174.24272
"101368",1359.2565,79.27856,174.232
"101369",1359.2697,79.293205,174.22409
"101370",1359.2831,79.29565,174.20444
"101371",1359.2965,79.29565,174.18242
"101372",1359.3097,79.32006,174.18481
"101373",1359.3229,79.41039,174.25389
"101374",1359.3363,79.62524,174.4503
"101375",1359.3497,79.991455,174.80481
"101376",1359.3629,80.48951,175.3026
"101377",1359.3761,81.06081,175.88919
"101378",1359.3895,81.61257,176.4741
"101379",1359.403,82.056915,176.96884
"101380",1359.4161,82.3328,177.309
"101381",1359.4293,82.425575,177.47469
"101382",1359.4427,82.35966,177.48457
"101383",1359.4562,82.176544,177.3752
"101384",1359.4694,81.917755,177.18443
"101385",1359.4825,81.634544,176.96115
"101386",1359.496,81.358665,176.73636
"101387",1359.5094,81.11696,176.53711
"101388",1359.5226,80.92653,176.38159
"101389",1359.5358,80.78981,176.27383
"101390",1359.5492,80.69703,176.20573
"101391",1359.5626,80.63111,176.1616
"101392",1359.5758,80.57496,176.12518
"101393",1359.589,80.52369,176.09189
"101394",1359.6024,80.47486,176.05943
"101395",1359.6158,80.4358,176.03522
"101396",1359.629,80.40894,176.02199
"101397",1359.6422,80.39918,176.02501
"101398",1359.6556,80.39918,176.03749
"101399",1359.6691,80.39185,176.04265
"101400",1359.6823,80.36744,176.03049
"101401",1359.6954,80.325935,176.00047
"101402",1359.7089,80.272224,175.95695
"101403",1359.7223,80.2063,175.89954
"101404",1359.7355,80.13794,175.83762
"101405",1359.7487,80.06958,175.77356
