"","Time..s.","PPG.trace","Preprocessed.PPG"
"17462",244.83177,90.64347,47.991768
"17463",244.84511,88.83925,46.520153
"17464",244.85844,87.17662,45.13375
"17465",244.87178,85.65804,43.839443
"17466",244.88512,84.27131,42.629524
"17467",244.89845,83.01396,41.505653
"17468",244.91179,81.91043,40.496307
"17469",244.92513,81.01442,39.659996
"17470",244.93846,80.37232,39.0496
"17471",244.9518,80.01587,38.70478
"17472",244.96513,79.9353,38.62471
"17473",244.97847,80.06958,38.756966
"17474",244.9918,80.33082,39.02038
"17475",245.00514,80.63111,39.33101
"17476",245.01848,80.88258,39.602203
"17477",245.03181,81.02663,39.773827
"17478",245.04515,81.01198,39.79126
"17479",245.05849,80.814224,39.62513
"17480",245.07182,80.43824,39.27459
"17481",245.08516,79.89868,38.748726
"17482",245.0985,79.22972,38.0766
"17483",245.11183,78.46067,37.283478
"17484",245.12517,77.625694,36.4004
"17485",245.1385,76.75899,35.459496
"17486",245.15184,75.90204,34.501266
"17487",245.16518,75.07439,33.545555
"17488",245.17851,74.302895,32.620136
"17489",245.19185,73.61196,31.751167
"17490",245.20518,73.006485,30.946064
"17491",245.21852,72.481575,30.202606
"17492",245.23186,72.047,29.533077
"17493",245.2452,71.69787,28.935417
"17494",245.25853,71.43664,28.414745
"17495",245.27187,71.25353,27.964035
"17496",245.2852,71.148544,27.58572
"17497",245.29854,71.116806,27.277374
"17498",245.31187,71.148544,27.031513
"17499",245.32521,71.23888,26.845238
"17500",245.33855,71.36828,26.700855
"17501",245.35188,71.52453,26.587364
"17502",245.36522,71.70031,26.498287
"17503",245.37856,71.8761,26.414711
"17504",245.39189,72.03967,26.324413
"17505",245.40523,72.17639,26.212372
"17506",245.41856,72.30579,26.097286
"17507",245.4319,72.54017,26.091217
"17508",245.44524,73.14809,26.466015
"17509",245.45857,74.444496,27.548302
"17510",245.47191,76.65644,29.586636
"17511",245.48524,79.80347,32.629177
"17512",245.49858,83.6585,36.47807
"17513",245.51192,87.77722,40.71112
"17514",245.52525,91.629814,44.80675
"17515",245.53859,94.77196,48.312325
"17516",245.55193,96.95949,50.96148
"17517",245.56526,98.13382,52.665794
"17518",245.5786,98.36332,53.461975
"17519",245.59193,97.796906,53.469414
"17520",245.60527,96.63233,52.860992
"17521",245.6186,95.08446,51.83288
"17522",245.63194,93.35836,50.57817
"17523",245.64528,91.62737,49.264633
"17524",245.65862,90.01846,48.01908
"17525",245.67195,88.59022,46.90391
"17526",245.68529,87.34264,45.92478
"17527",245.69862,86.22934,45.040936
"17528",245.71196,85.19173,44.19799
"17529",245.7253,84.19318,43.361683
"17530",245.73863,83.23125,42.530792
"17531",245.75197,82.34745,41.74797
"17532",245.7653,81.58816,41.062035
"17533",245.77864,80.990005,40.51351
"17534",245.79198,80.56519,40.119637
"17535",245.80531,80.289314,39.86142
"17536",245.81865,80.12085,39.701996
"17537",245.83199,79.9939,39.57882
"17538",245.84532,79.85962,39.44435
"17539",245.85866,79.66918,39.249527
"17540",245.872,79.38598,38.955986
"17541",245.88533,78.995346,38.546165
"17542",245.89867,78.49973,38.019157
"17543",245.912,77.90646,37.379005
"17544",245.92534,77.239944,36.647064
"17545",245.93867,76.51972,35.84059
"17546",245.95201,75.77753,34.98964
"17547",245.96535,75.03288,34.113045
"17548",245.97868,74.31266,33.2376
"17549",245.99202,73.63882,32.386024
"17550",246.00536,73.02113,31.569553
"17551",246.01869,72.46693,30.797256
"17552",246.03203,71.9884,30.083324
"17553",246.04536,71.58068,29.42524
"17554",246.0587,71.23888,28.820332
"17555",246.07204,70.958115,28.265785
"17556",246.08537,70.7335,27.75861
"17557",246.09871,70.56016,27.295692
"17558",246.11205,70.44541,26.885952
"17559",246.12538,70.381935,26.523895
"17560",246.13872,70.36973,26.211124
"17561",246.15205,70.40147,25.941917
"17562",246.16539,70.46006,25.700558
"17563",246.17873,70.54795,25.490326
"17564",246.19206,70.657814,25.304813
"17565",246.2054,70.78233,25.13739
"17566",246.21873,70.92149,24.988499
"17567",246.23207,71.06554,24.848839
"17568",246.2454,71.2047,24.708797
"17569",246.25874,71.326775,24.556023
"17570",246.27208,71.4342,24.392406
"17571",246.28542,71.519646,24.210175
"17572",246.29875,71.570915,23.996433
"17573",246.31209,71.622185,23.784294
"17574",246.32542,71.79309,23.693394
"17575",246.33876,72.325325,23.969162
"17576",246.3521,73.49966,24.90366
"17577",246.36543,75.494316,26.695183
"17578",246.37877,78.27268,29.332747
"17579",246.3921,81.583275,32.58936
"17580",246.40544,85.00862,36.064182
"17581",246.41878,88.0824,39.29448
"17582",246.43211,90.457924,41.92258
"17583",246.44545,91.98871,43.780174
"17584",246.45879,92.6894,44.855515
"17585",246.47212,92.662544,45.225204
"17586",246.48546,92.069275,45.02764
"17587",246.4988,91.0927,44.42823
"17588",246.51213,89.901276,43.583458
"17589",246.52547,88.64881,42.640408
"17590",246.5388,87.45495,41.71682
"17591",246.55214,86.39292,40.88776
"17592",246.56548,85.4847,40.17932
"17593",246.57881,84.7132,39.57922
"17594",246.59215,84.02472,39.038025
"17595",246.60548,83.36553,38.50461
"17596",246.61882,82.71366,37.95791
"17597",246.63216,82.07645,37.405495
"17598",246.6455,81.4905,36.884438
"17599",246.65883,81.007095,36.44761
"17600",246.67216,80.66041,36.132393
"17601",246.6855,80.445564,35.938187
"17602",246.69884,80.33082,35.837364
"17603",246.71217,80.27711,35.79399
"17604",246.72551,80.235596,35.76114
"17605",246.73885,80.15747,35.690376
"17606",246.75218,80.01587,35.553696
"17607",246.76552,79.78882,35.32714
"17608",246.77885,79.47631,35.008034
"17609",246.79219,79.07591,34.59127
"17610",246.80553,78.60227,34.088753
"17611",246.81886,78.07004,33.51284
"17612",246.8322,77.50118,32.883675
"17613",246.84554,76.91768,32.222084
"17614",246.85887,76.3415,31.549582
"17615",246.87221,75.78241,30.876163
"17616",246.88554,75.2575,30.219454
"17617",246.89888,74.776535,29.590286
"17618",246.91222,74.34684,28.997358
"17619",246.92555,73.970856,28.444714
"17620",246.93889,73.66079,27.946236
"17621",246.95222,73.41665,27.503994
"17622",246.96556,73.233536,27.11515
"17623",246.9789,73.11391,26.78407
"17624",246.99223,73.043106,26.498077
"17625",247.00557,73.00893,26.246494
"17626",247.0189,72.99672,26.015816
"17627",247.03224,73.00893,25.80917
"17628",247.04558,73.040665,25.622437
"17629",247.05891,73.09682,25.46111
"17630",247.07225,73.16762,25.316185
"17631",247.08559,73.248184,25.183239
"17632",247.09892,73.338524,25.062584
"17633",247.11226,73.428856,24.944744
"17634",247.1256,73.51186,24.822403
"17635",247.13893,73.582664,24.690449
"17636",247.15227,73.64614,24.553383
"17637",247.1656,73.69985,24.408535
"17638",247.17894,73.73403,24.245834
"17639",247.19228,73.760895,24.076885
"17640",247.20561,73.78531,23.906326
"17641",247.21895,73.80972,23.73653
"17642",247.23228,73.83414,23.567497
"17643",247.24562,73.865875,23.406551
"17644",247.25896,73.90494,23.253922
"17645",247.2723,73.94888,23.107395
"17646",247.28563,73.98306,22.952477
"17647",247.29897,74.002594,22.783978
"17648",247.3123,74.00992,22.603882
"17649",247.32564,74.04654,22.453312
"17650",247.33897,74.28336,22.50409
"17651",247.35231,74.9987,23.040783
"17652",247.36565,76.456245,24.342035
"17653",247.37898,78.746315,26.521362
"17654",247.39232,81.73708,29.472954
"17655",247.40565,85.08919,32.87934
"17656",247.41899,88.33631,36.285503
"17657",247.43233,91.04143,39.25113
"17658",247.44566,92.9482,41.502945
"17659",247.459,94.01022,42.969604
"17660",247.47234,94.310524,43.707726
"17661",247.48567,93.98337,43.827774
"17662",247.49901,93.18257,43.46396
"17663",247.51234,92.07416,42.7675
"17664",247.52568,90.811935,41.8826
"17665",247.53902,89.53506,40.943596
"17666",247.55235,88.35096,40.05747
"17667",247.56569,87.327995,39.29547
"17668",247.57903,86.47349,38.669964
"17669",247.59236,85.76059,38.159363
"17670",247.6057,85.135574,37.714367
"17671",247.61903,84.54963,37.28891
"17672",247.63237,83.99542,36.876877
"17673",247.6457,83.49981,36.50612
"17674",247.65904,83.09697,36.212646
"17675",247.67238,82.82597,36.03843
"17676",247.68571,82.69657,35.997337
"17677",247.69905,82.67948,36.064514
"17678",247.71239,82.72831,36.197075
"17679",247.72572,82.78203,36.336052
"17680",247.73906,82.79668,36.437637
"17681",247.7524,82.72343,36.451782
"17682",247.76573,82.54276,36.356224
"17683",247.77907,82.2449,36.137825
"17684",247.7924,81.846954,35.810028
"17685",247.80574,81.35378,35.374573
"17686",247.81908,80.79469,34.857788
"17687",247.83241,80.18677,34.274696
"17688",247.84575,79.56176,33.655525
"17689",247.85909,78.941635,33.021706
"17690",247.87242,78.345924,32.39292
"17691",247.88576,77.7966,31.791908
"17692",247.8991,77.30587,31.232323
"17693",247.91243,76.87129,30.713552
"17694",247.92577,76.49531,30.239796
"17695",247.9391,76.18036,29.815325
"17696",247.95244,75.914246,29.429848
"17697",247.96577,75.68719,29.07511
"17698",247.97911,75.4992,28.752346
"17699",247.99245,75.34783,28.46033
"17700",248.00578,75.228195,28.195312
"17701",248.01912,75.13786,27.955862
"17702",248.03246,75.07683,27.742886
"17703",248.04579,75.04753,27.55974
"17704",248.05913,75.04265,27.400093
"17705",248.07246,75.0573,27.259825
"17706",248.0858,75.08171,27.12978
"17707",248.09914,75.11345,27.007822
"17708",248.11247,75.140305,26.881973
"17709",248.12581,75.17204,26.761847
"17710",248.13914,75.1989,26.637829
"17711",248.15248,75.23064,26.519533
"17712",248.16582,75.25994,26.399796
"17713",248.17915,75.2868,26.278524
"17714",248.19249,75.301445,26.145885
"17715",248.20583,75.301445,25.999056
"17716",248.21916,75.2868,25.837578
"17717",248.2325,75.2575,25.660994
"17718",248.24583,75.20622,25.461514
"17719",248.25917,75.13786,25.24335
"17720",248.2725,75.04997,25.003517
"17721",248.28584,74.966965,24.765821
"17722",248.29918,75.003586,24.64516
"17723",248.31252,75.39178,24.877214
"17724",248.32585,76.39765,25.739082
"17725",248.33919,78.18234,27.4112
"17726",248.35252,80.709236,29.88129
"17727",248.36586,83.74639,32.94061
"17728",248.3792,86.89586,36.20715
"17729",248.39253,89.72549,39.252274
"17730",248.40587,91.913025,41.743732
"17731",248.4192,93.33883,43.541817
"17732",248.43254,94.01511,44.634933
"17733",248.44588,94.03708,45.09488
"17734",248.45921,93.5317,45.02816
"17735",248.47255,92.645454,44.56478
"17736",248.48589,91.51995,43.83445
"17737",248.49922,90.29923,42.973732
"17738",248.51256,89.10292,42.09927
"17739",248.5259,88.006714,41.28753
"17740",248.53923,87.05455,40.585575
"17741",248.55257,86.239105,39.990585
"17742",248.5659,85.523766,39.47022
"17743",248.57924,84.86214,38.98121
"17744",248.59258,84.227356,38.49837
"17745",248.60591,83.63409,38.03721
"17746",248.61925,83.13115,37.647835
"17747",248.63258,82.7625,37.37703
"17748",248.64592,82.55253,37.253387
"17749",248.65926,82.493935,37.27456
"17750",248.67259,82.54032,37.39888
"17751",248.68593,82.63065,37.568596
"17752",248.69926,82.70878,37.728928
"17753",248.7126,82.72343,37.828224
"17754",248.72594,82.6453,37.835205
"17755",248.73927,82.45243,37.725
"17756",248.75261,82.13748,37.486687
"17757",248.76595,81.705345,37.121346
"17758",248.77928,81.18288,36.65217
"17759",248.79262,80.59205,36.098305
"17760",248.80595,79.954834,35.47959
"17761",248.81929,79.30297,34.826317
"17762",248.83263,78.65598,34.157547
"17763",248.84596,78.0383,33.497864
"17764",248.8593,77.454796,32.853058
"17765",248.87263,76.92256,32.241287
"17766",248.88597,76.45136,31.673918
"17767",248.8993,76.033875,31.145535
"17768",248.91264,75.6701,30.657816
"17769",248.92598,75.3576,30.210007
"17770",248.93932,75.10124,29.808577
"17771",248.95265,74.896164,29.450413
"17772",248.96599,74.74235,29.137102
"17773",248.97932,74.632484,28.862938
"17774",248.99266,74.56657,28.629284
"17775",249.006,74.53239,28.425308
"17776",249.01933,74.52018,28.242237
"17777",249.03267,74.52506,28.075874
"17778",249.046,74.54459,27.924313
"17779",249.05934,74.57633,27.785568
"17780",249.07268,74.617836,27.657581
"17781",249.08601,74.66422,27.535774
"17782",249.09935,74.71305,27.417858
"17783",249.11269,74.76433,27.303917
"17784",249.12602,74.80827,27.184248
"17785",249.13936,74.83757,27.051304
"17786",249.1527,74.85222,26.904627
"17787",249.16603,74.84978,26.741318
"17788",249.17937,74.82048,26.551077
"17789",249.1927,74.76677,26.335506
"17790",249.20604,74.73502,26.140223
"17791",249.21938,74.87419,26.11486
"17792",249.23271,75.421074,26.501562
"17793",249.24605,76.62226,27.559658
"17794",249.25938,78.57786,29.4097
"17795",249.27272,81.20485,31.99225
"17796",249.28606,84.23956,35.064617
"17797",249.2994,87.293816,38.251358
"17798",249.31273,89.97696,41.162434
"17799",249.32607,92.035095,43.53235
"17800",249.3394,93.368126,45.241478
"17801",249.35274,94.00046,46.291565
"17802",249.36607,94.0029,46.73152
"17803",249.37941,93.48531,46.651527
"17804",249.39275,92.5893,46.176933
"17805",249.40608,91.46868,45.44973
"17806",249.41942,90.25529,44.594734
"17807",249.43275,89.06386,43.72378
"17808",249.44609,87.97009,42.91326
"17809",249.45943,87.00328,42.195515
"17810",249.47276,86.14633,41.55742
"17811",249.4861,85.365074,40.968235
"17812",249.49944,84.61799,40.38881
"17813",249.51277,83.90509,39.82022
"17814",249.52611,83.25323,39.29039
"17815",249.53944,82.703896,38.84272
"17816",249.55278,82.31083,38.53415
"17817",249.56612,82.08377,38.379303
"17818",249.57945,82.01053,38.371178
"17819",249.59279,82.04715,38.470627
"17820",249.60612,82.13504,38.62249
"17821",249.61946,82.21561,38.769775
"17822",249.6328,82.23758,38.860985
"17823",249.64613,82.159454,38.852783
"17824",249.65947,81.95682,38.71763
"17825",249.6728,81.619896,38.441856
"17826",249.68614,81.163345,38.035927
"17827",249.69948,80.604256,37.51319
"17828",249.71281,79.96948,36.8973
"17829",249.72615,79.28832,36.215187
"17830",249.73949,78.590065,35.49469
"17831",249.75282,77.88693,34.747498
"17832",249.76616,77.20332,33.997856
"17833",249.7795,76.55146,33.2586
"17834",249.79283,75.948425,32.5478
"17835",249.80617,75.39666,31.869421
"17836",249.8195,74.90837,31.237278
"17837",249.83284,74.486,30.655794
"17838",249.84618,74.127106,30.124588
"17839",249.85951,73.83658,29.650532
"17840",249.87285,73.6144,29.235748
"17841",249.88618,73.45571,28.877506
"17842",249.89952,73.35317,28.570457
"17843",249.91286,73.29946,28.309032
"17844",249.9262,73.287254,28.087433
"17845",249.93953,73.3019,27.892307
"17846",249.95287,73.34341,27.724495
"17847",249.9662,73.40688,27.579952
"17848",249.97954,73.48989,27.456924
"17849",249.99287,73.582664,27.346256
"17850",250.00621,73.67544,27.238487
"17851",250.01955,73.763336,27.128742
"17852",250.03288,73.83414,27.004646
"17853",250.04622,73.87808,26.855907
"17854",250.05956,73.88785,26.674362
"17855",250.07289,73.8732,26.468708
"17856",250.08623,73.86099,26.265038
"17857",250.09956,73.953766,26.165966
"17858",250.1129,74.36881,26.392067
"17859",250.12624,75.35027,27.197552
"17860",250.13957,77.06172,28.763697
"17861",250.15291,79.50317,31.11332
"17862",250.16624,82.48661,34.081238
"17863",250.17958,85.680016,37.35235
"17864",250.19292,88.68543,40.535267
"17865",250.20625,91.18547,43.306725
"17866",250.21959,93.00679,45.477592
"17867",250.23293,94.103,46.980263
"17868",250.24626,94.50828,47.826263
"17869",250.2596,94.29832,48.069687
"17870",250.27293,93.60738,47.825577
"17871",250.28627,92.58442,47.227844
"17872",250.2996,91.371025,46.407715
"17873",250.31294,90.10391,45.49595
"17874",250.32628,88.89296,44.600742
"17875",250.33961,87.78699,43.772675
"17876",250.35295,86.79088,43.01991
"17877",250.36629,85.87778,42.319023
"17878",250.37962,85.01106,41.63599
"17879",250.39296,84.1712,40.95273
"17880",250.4063,83.372856,40.28473
"17881",250.41963,82.65995,39.677223
"17882",250.43297,82.08621,39.186607
"17883",250.4463,81.688255,38.853844
"17884",250.45964,81.46853,38.686874
"17885",250.47298,81.40017,38.664406
"17886",250.48631,81.42947,38.737457
"17887",250.49965,81.497826,38.850487
"17888",250.51299,81.54421,38.94368
"17889",250.52632,81.51003,38.957756
"17890",250.53966,81.36355,38.85846
"17891",250.553,81.08278,38.6203
"17892",250.56633,80.6775,38.248856
"17893",250.57967,80.16235,37.754883
"17894",250.593,79.554436,37.15204
"17895",250.60634,78.87572,36.459396
"17896",250.61967,78.16037,35.708916
"17897",250.63301,77.42794,34.919
"17898",250.64635,76.70283,34.11351
"17899",250.65968,76.00458,33.312225
"17900",250.67302,75.35027,32.533066
"17901",250.68636,74.75212,31.78961
"17902",250.69969,74.212555,31.086048
"17903",250.71303,73.738914,30.43155
"17904",250.72636,73.33608,29.833057
"17905",250.7397,73.01381,29.302536
"17906",250.75304,72.76723,28.837635
"17907",250.76637,72.59388,28.438263
"17908",250.77971,72.47913,28.092075
"17909",250.79305,72.42054,27.798454
"17910",250.80638,72.39857,27.539623
"17911",250.81972,72.40833,27.311844
"17912",250.83305,72.45228,27.11855
"17913",250.84639,72.52796,26.958366
"17914",250.85973,72.6305,26.827404
"17915",250.87306,72.762344,26.72895
"17916",250.8864,72.89906,26.639492
"17917",250.89973,73.03334,26.551865
"17918",250.91307,73.14809,26.448902
"17919",250.9264,73.22865,26.315346
"17920",250.93974,73.26284,26.137928
"17921",250.95308,73.25796,25.922508
"17922",250.96642,73.2604,25.71426
"17923",250.97975,73.428856,25.672104
"17924",250.99309,74.002594,26.040493
"17925",251.00642,75.22331,27.073792
"17926",251.01976,77.21797,28.91918
"17927",251.0331,79.93042,31.54469
"17928",251.04643,83.12627,34.73836
"17929",251.05977,86.43931,38.149097
"17930",251.0731,89.47402,41.38504
"17931",251.08644,91.935,44.14208
"17932",251.09978,93.67574,46.25579
"17933",251.11311,94.6572,47.66462
"17934",251.12645,94.91844,48.383896
"17935",251.13979,94.56931,48.50097
"17936",251.15312,93.753876,48.140823
"17937",251.16646,92.63325,47.450005
"17938",251.1798,91.36126,46.572807
"17939",251.19313,90.06729,45.63388
"17940",251.20647,88.84413,44.725323
"17941",251.2198,87.728386,43.885956
"17942",251.23314,86.71519,43.11427
"17943",251.24648,85.76547,42.374405
"17944",251.25981,84.842606,41.63171
"17945",251.27315,83.93683,40.877266
"17946",251.28648,83.06767,40.131134
"17947",251.29982,82.2913,39.450623
"17948",251.31316,81.65896,38.889885
"17949",251.32649,81.20485,38.487617
"17950",251.33983,80.92897,38.24939
"17951",251.35316,80.797134,38.146584
"17952",251.3665,80.76051,38.134872
"17953",251.37984,80.75563,38.153755
"17954",251.39317,80.723885,38.145622
"17955",251.40651,80.61646,38.06082
"17956",251.41985,80.396736,37.86036
"17957",251.43318,80.05005,37.52607
"17958",251.44652,79.58129,37.058876
"17959",251.45985,79.00023,36.46473
"17960",251.47319,78.3386,35.77186
"17961",251.48653,77.62081,35.00215
"17962",251.49986,76.87129,34.178284
"17963",251.5132,76.11688,33.326103
"17964",251.52654,75.386894,32.47477
"17965",251.53987,74.69596,31.639677
"17966",251.5532,74.06119,30.839153
"17967",251.56654,73.497215,30.089592
"17968",251.57988,73.00893,29.39809
"17969",251.59322,72.601204,28.771896
"17970",251.60655,72.2765,28.215977
"17971",251.61989,72.042114,27.740234
"17972",251.63322,71.91272,27.362156
"17973",251.64656,71.89807,27.09478
"17974",251.6599,71.99573,26.93925
"17975",251.67323,72.19592,26.889313
"17976",251.68657,72.46693,26.91644
"17977",251.6999,72.77699,26.991096
"17978",251.71324,73.1017,27.090084
"17979",251.72658,73.411766,27.184578
"17980",251.73991,73.70229,27.269222
"17981",251.75325,73.968414,27.33854
"17982",251.76659,74.20279,27.384426
"17983",251.77992,74.40299,27.403465
"17984",251.79326,74.56657,27.392132
"17985",251.8066,74.67887,27.33464
"17986",251.81993,74.73502,27.224506
"17987",251.83327,74.71793,27.042885
"17988",251.8466,74.63981,26.799694
"17989",251.85994,74.54948,26.541855
"17990",251.87328,74.615395,26.437443
"17991",251.88661,75.071945,26.725723
"17992",251.89995,76.13153,27.631308
"17993",251.91328,77.88205,29.260937
"17994",251.92662,80.2478,31.560505
"17995",251.93996,82.96513,34.28558
"17996",251.9533,85.680016,37.09312
"17997",251.96663,88.043335,39.63394
"17998",251.97997,89.81827,41.66023
"17999",251.9933,90.91203,43.060814
"18000",252.00664,91.32952,43.819305
"18001",252.01997,91.15129,43.995125
"18002",252.03331,90.50675,43.699066
"18003",252.04665,89.53994,43.06059
"18004",252.05998,88.40223,42.221
"18005",252.07332,87.21324,41.294582
"18006",252.08665,86.07553,40.382286
"18007",252.09999,85.04036,39.536976
"18008",252.11333,84.122375,38.776505
"18009",252.12666,83.29229,38.07524
"18010",252.14,82.52567,37.411507
"18011",252.15334,81.78836,36.75312
"18012",252.16667,81.06813,36.088776
"18013",252.18001,80.38209,35.43611
"18014",252.19334,79.77661,34.842575
"18015",252.20668,79.293205,34.35219
"18016",252.22002,78.95384,33.990738
"18017",252.23335,78.75609,33.760292
"18018",252.24669,78.67307,33.638405
"18019",252.26003,78.65598,33.57985
"18020",252.27336,78.660866,33.542732
"18021",252.2867,78.63401,33.47403
"18022",252.30003,78.54368,33.34101
"18023",252.31337,78.3679,33.11972
"18024",252.3267,78.099335,32.800156
"18025",252.34004,77.74288,32.384308
"18026",252.35338,77.315636,31.886526
"18027",252.36671,76.83223,31.319233
"18028",252.38005,76.317085,30.705095
"18029",252.39339,75.78729,30.060211
"18030",252.40672,75.26971,29.410978
"18031",252.42006,74.78142,28.774868
"18032",252.4334,74.33463,28.165003
"18033",252.44673,73.934235,27.587563
"18034",252.46007,73.585106,27.048878
"18035",252.4734,73.28237,26.545677
"18036",252.48674,73.02602,26.079395
"18037",252.50008,72.8185,25.653938
"18038",252.51341,72.6598,25.270817
"18039",252.52675,72.549934,24.931572
"18040",252.54008,72.4889,24.637722
"18041",252.55342,72.46937,24.383469
"18042",252.56676,72.48402,24.162785
"18043",252.5801,72.532845,23.976738
"18044",252.59343,72.59876,23.809307
"18045",252.60677,72.674446,23.653702
"18046",252.6201,72.75502,23.505352
"18047",252.63344,72.83559,23.359512
"18048",252.64677,72.91615,23.21619
"18049",252.66011,72.99428,23.072945
"18050",252.67345,73.0724,22.93214
"18051",252.68678,73.15053,22.793777
"18052",252.70012,73.23598,22.66518
"18053",252.71346,73.323875,22.541702
"18054",252.72679,73.41665,22.425846
"18055",252.74013,73.50698,22.310448
"18056",252.75346,73.59731,22.197872
"18057",252.7668,73.68276,22.083237
"18058",252.78014,73.75845,21.961514
"18059",252.79347,73.81949,21.8275
"18060",252.80681,73.86832,21.683186
"18061",252.82014,73.94156,21.564812
"18062",252.83348,74.16861,21.602535
"18063",252.84682,74.76677,22.018463
"18064",252.86015,75.93378,23.021933
"18065",252.87349,77.76242,24.723507
"18066",252.88683,80.18921,27.080372
"18067",252.90016,82.99199,29.889065
"18068",252.9135,85.81918,32.809757
"18069",252.92683,88.31922,35.491646
"18070",252.94017,90.26017,37.69257
"18071",252.9535,91.53704,39.29007
"18072",252.96684,92.16205,40.27561
"18073",252.98018,92.21088,40.704506
"18074",252.99352,91.808044,40.683266
"18075",253.00685,91.08293,40.327156
"18076",253.02019,90.16983,39.7604
"18077",253.03352,89.18837,39.096745
"18078",253.04686,88.22644,38.42195
"18079",253.0602,87.34997,37.802555
"18080",253.07353,86.57847,37.260742
"18081",253.08687,85.89975,36.7876
"18082",253.1002,85.279625,36.351845
"18083",253.11354,84.67658,35.91379
"18084",253.12688,84.07599,35.459343
"18085",253.14021,83.49737,35.008095
"18086",253.15355,82.97002,34.590034
"18087",253.16689,82.53788,34.25071
"18088",253.18022,82.230255,34.022392
"18089",253.19356,82.04715,33.90898
"18090",253.2069,81.96414,33.889946
"18091",253.22023,81.94217,33.92935
"18092",253.23357,81.93729,33.98516
"18093",253.2469,81.90799,34.016403
"18094",253.26024,81.82254,33.990578
"18095",253.27357,81.65896,33.88395
"18096",253.28691,81.40505,33.681885
"18097",253.30025,81.06325,33.383987
"18098",253.31358,80.64576,32.999725
"18099",253.32692,80.164795,32.53894
"18100",253.34026,79.64965,32.028946
"18101",253.35359,79.11742,31.485764
"18102",253.36693,78.58518,30.92595
"18103",253.38026,78.07492,30.371475
"18104",253.3936,77.60128,29.837677
"18105",253.40694,77.16426,29.325697
"18106",253.42027,76.76875,28.841572
"18107",253.43361,76.419624,28.391466
"18108",253.44695,76.11444,27.974396
"18109",253.46028,75.85077,27.5893
"18110",253.47362,75.631035,27.239902
"18111",253.48695,75.46014,26.932474
"18112",253.50029,75.33074,26.66121
"18113",253.51363,75.24284,26.427397
"18114",253.52696,75.18425,26.220142
"18115",253.5403,75.14763,26.03303
"18116",253.55363,75.13298,25.866745
"18117",253.56697,75.140305,25.721975
"18118",253.5803,75.15495,25.584759
"18119",253.59364,75.174484,25.452883
"18120",253.60698,75.191574,25.319176
"18121",253.62032,75.1989,25.176237
"18122",253.63365,75.20378,25.031086
"18123",253.64699,75.20622,24.883646
"18124",253.66032,75.211105,24.738724
"18125",253.67366,75.22575,24.60372
"18126",253.687,75.245285,24.474056
"18127",253.70033,75.267265,24.347452
"18128",253.71367,75.2868,24.219086
"18129",253.727,75.31365,24.098654
"18130",253.74034,75.338066,23.97662
"18131",253.75368,75.3576,23.850466
"18132",253.76701,75.372246,23.72004
"18133",253.78035,75.372246,23.575422
"18134",253.79369,75.36004,23.418598
"18135",253.80702,75.372246,23.285807
"18136",253.82036,75.51873,23.287674
"18137",253.8337,76.00946,23.638365
"18138",253.84703,77.04707,24.551273
"18139",253.86037,78.74143,26.153353
"18140",253.8737,81.058365,28.430956
"18141",253.88704,83.79767,31.203333
"18142",253.90038,86.61265,34.13699
"18143",253.91371,89.144424,36.875412
"18144",253.92705,91.12688,39.143627
"18145",253.94038,92.437935,40.8024
"18146",253.95372,93.07027,41.823418
"18147",253.96706,93.09712,42.25872
"18148",253.9804,92.65522,42.226105
"18149",253.99373,91.88373,41.85009
"18150",254.00706,90.9218,41.25953
"18151",254.0204,89.884186,40.563225
"18152",254.03374,88.866104,39.854023
"18153",254.04707,87.93591,39.200897
"18154",254.06041,87.11803,38.63101
"18155",254.07375,86.40269,38.138107
"18156",254.08708,85.75815,37.693653
"18157",254.10042,85.14778,37.26323
"18158",254.11375,84.55207,36.82839
"18159",254.12709,83.97101,36.38958
"18160",254.14043,83.441216,35.98388
"18161",254.15376,82.99687,35.64707
"18162",254.1671,82.669716,35.413567
"18163",254.18044,82.46464,35.291916
"18164",254.19377,82.3621,35.266396
"18165",254.2071,82.32792,35.30603
"18166",254.22044,82.320595,35.371452
"18167",254.23378,82.29862,35.421997
"18168",254.24712,82.22049,35.415695
"18169",254.26045,82.06424,35.328835
"18170",254.27379,81.812775,35.141876
"18171",254.28712,81.47097,34.85672
"18172",254.30046,81.05104,34.482758
"18173",254.3138,80.57252,34.03708
"18174",254.32713,80.05249,33.534943
"18175",254.34047,79.5227,33.00679
"18176",254.3538,78.99779,32.466965
"18177",254.36714,78.48997,31.927826
"18178",254.38048,78.009,31.399673
"18179",254.39381,77.5671,30.895554
"18180",254.40715,77.16182,30.414244
"18181",254.42049,76.79805,29.96178
"18182",254.43382,76.48066,29.544329
"18183",254.44716,76.207214,29.160904
"18184",254.4605,75.97772,28.812887
"18185",254.47383,75.79462,28.504086
"18186",254.48717,75.65545,28.2335
"18187",254.5005,75.55535,27.997635
"18188",254.51384,75.48699,27.79038
"18189",254.52718,75.44793,27.610287
"18190",254.54051,75.43084,27.450945
"18191",254.55385,75.43328,27.3106
"18192",254.56718,75.44793,27.182539
"18193",254.58052,75.47723,27.069584
"18194",254.59386,75.51385,26.964869
"18195",254.6072,75.55535,26.86618
"18196",254.62053,75.59197,26.763906
"18197",254.63387,75.62127,26.655453
"18198",254.6472,75.64324,26.54059
"18199",254.66054,75.65545,26.416649
"18200",254.67387,75.65545,26.280882
"18201",254.68721,75.650566,26.140232
"18202",254.70055,75.64568,25.99943
"18203",254.71388,75.63836,25.856033
"18204",254.72722,75.631035,25.712408
"18205",254.74055,75.62859,25.573437
"18206",254.75389,75.62859,25.43683
"18207",254.76723,75.631035,25.302666
"18208",254.78056,75.63592,25.171019
"18209",254.7939,75.63592,25.034641
"18210",254.80724,75.63836,24.900705
"18211",254.82057,75.67742,24.803467
"18212",254.83391,75.880066,24.87103
"18213",254.84724,76.46601,25.328228
"18214",254.86058,77.64034,26.392122
"18215",254.87392,79.49828,28.176323
"18216",254.88725,81.98367,30.646034
"18217",254.90059,84.86214,33.586487
"18218",254.91393,87.784546,36.66084
"18219",254.92726,90.38224,39.5018
"18220",254.9406,92.403755,41.84776
"18221",254.95393,93.74166,43.57328
"18222",254.96727,94.39597,44.65702
"18223",254.9806,94.44236,45.153282
"18224",254.99394,93.99802,45.160263
"18225",255.00728,93.2021,44.80179
"18226",255.02061,92.18646,44.198715
"18227",255.03395,91.070724,43.463806
"18228",255.04729,89.952545,42.69159
"18229",255.06062,88.90517,41.955227
"18230",255.07396,87.974976,41.30332
"18231",255.0873,87.16197,40.739536
"18232",255.10063,86.43931,40.240685
"18233",255.11397,85.76303,39.765636
"18234",255.1273,85.11604,39.298744
"18235",255.14064,84.491035,38.833614
"18236",255.15398,83.91974,38.402664
"18237",255.16731,83.43145,38.036865
"18238",255.18065,83.06279,37.775436
"18239",255.19398,82.82109,37.629448
"18240",255.20732,82.686806,37.58332
"18241",255.22066,82.62333,37.603806
"18242",255.234,82.58915,37.651604
"18243",255.24733,82.54276,37.686127
"18244",255.26067,82.442665,37.66549
"18245",255.274,82.269325,37.56848
"18246",255.28734,82.003204,37.373276
"18247",255.30067,81.64187,37.07454
"18248",255.31401,81.19997,36.683945
"18249",255.32735,80.69703,36.218506
"18250",255.34068,80.147705,35.690964
"18251",255.35402,79.57885,35.126724
"18252",255.36736,79.00755,34.542267
"18253",255.38069,78.44602,33.949722
"18254",255.39403,77.91379,33.368927
"18255",255.40736,77.41329,32.803238
"18256",255.4207,76.94942,32.25853
"18257",255.43404,76.52949,31.743269
"18258",255.44737,76.15839,31.263714
"18259",255.46071,75.84589,30.831163
"18260",255.47404,75.58953,30.444992
"18261",255.48738,75.38445,30.102087
"18262",255.50072,75.228195,29.801594
"18263",255.51405,75.11101,29.535288
"18264",255.52739,75.02556,29.297058
"18265",255.54073,74.96452,29.080572
"18266",255.55406,74.9279,28.886593
"18267",255.5674,74.915695,28.715883
"18268",255.58073,74.92058,28.561882
"18269",255.59407,74.93523,28.417799
"18270",255.6074,74.95476,28.279057
"18271",255.62074,74.97673,28.143366
"18272",255.63408,74.99138,28.001038
"18273",255.64742,75.001144,27.854284
"18274",255.66075,75.003586,27.700512
"18275",255.67409,75.001144,27.541933
"18276",255.68742,74.99138,27.375954
"18277",255.70076,74.97917,27.207228
"18278",255.7141,74.96452,27.035679
"18279",255.72743,74.95232,26.866114
"18280",255.74077,74.93767,26.693726
"18281",255.7541,74.92058,26.518438
"18282",255.76744,74.898605,26.337734
"18283",255.78078,74.87419,26.153902
"18284",255.79411,74.8571,25.976631
"18285",255.80745,74.847336,25.80615
"18286",255.82079,74.844894,25.642689
"18287",255.83412,74.844894,25.481592
"18288",255.84746,74.84245,25.318054
"18289",255.8608,74.864426,25.178854
"18290",255.87413,75.054855,25.208797
"18291",255.88747,75.665215,25.664621
"18292",255.9008,76.94942,26.813362
"18293",255.91414,79.029526,28.79814
"18294",255.92747,81.849396,31.587683
"18295",255.94081,85.15022,34.946304
"18296",255.95415,88.54139,38.498417
"18297",255.96748,91.60784,41.831787
"18298",255.98082,94.05905,44.645744
"18299",255.99416,95.765625,46.791664
"18300",256.0075,96.71046,48.22917
"18301",256.02084,96.95216,48.99308
"18302",256.03418,96.60059,49.171265
"18303",256.04752,95.799805,48.889244
"18304",256.06085,94.70603,48.289215
"18305",256.0742,93.45846,47.501205
"18306",256.08752,92.17914,46.642464
"18307",256.10086,90.95598,45.799904
"18308",256.1142,89.84268,45.028984
"18309",256.12753,88.8539,44.347782
"18310",256.14087,87.974976,43.745544
"18311",256.1542,87.16441,43.1842
"18312",256.16754,86.39536,42.639038
"18313",256.18088,85.65804,42.101574
"18314",256.1942,84.96956,41.589905
"18315",256.20755,84.35676,41.132404
"18316",256.2209,83.86359,40.775383
"18317",256.23422,83.509575,40.542107
"18318",256.24756,83.28741,40.42961
"18319",256.2609,83.16533,40.410263
"18320",256.27423,83.09941,40.44326
"18321",256.28757,83.038376,40.47908
"18322",256.3009,82.933395,40.469048
"18323",256.31424,82.75273,40.38005
"18324",256.32758,82.48173,40.19507
"18325",256.3409,82.10574,39.896637
"18326",256.35425,81.62966,39.48636
"18327",256.36758,81.06569,38.973312
"18328",256.38092,80.4358,38.376724
"18329",256.39426,79.75952,37.714066
"18330",256.4076,79.07103,37.01806
"18331",256.42093,78.38987,36.30787
"18332",256.43427,77.733116,35.6008
"18333",256.4476,77.10567,34.90251
"18334",256.46094,76.51972,34.22612
"18335",256.47427,75.98016,33.577805
"18336",256.4876,75.4992,32.971222
"18337",256.50095,75.071945,32.40332
"18338",256.51428,74.71061,31.887983
"18339",256.52762,74.40543,31.417515
"18340",256.54095,74.158844,30.996094
"18341",256.5543,73.96353,30.618244
"18342",256.56763,73.814606,30.280678
"18343",256.58096,73.7145,29.987278
"18344",256.5943,73.653465,29.72982
"18345",256.60764,73.62417,29.502193
"18346",256.62097,73.619286,29.298065
"18347",256.6343,73.636375,29.115757
"18348",256.64764,73.65835,28.938866
"18349",256.66098,73.687645,28.769985
"18350",256.67432,73.70962,28.594696
"18351",256.68765,73.73159,28.420094
"18352",256.701,73.74624,28.238853
"18353",256.71432,73.75113,28.048313
"18354",256.72766,73.74868,27.850586
"18355",256.741,73.741356,27.647907
"18356",256.75433,73.72915,27.440117
"18357",256.76767,73.71206,27.227062
"18358",256.781,73.687645,27.00615
"18359",256.79434,73.66079,26.782032
"18360",256.80768,73.633934,26.557076
"18361",256.821,73.60952,26.333721
"18362",256.83435,73.59487,26.11937
"18363",256.8477,73.59487,25.919209
"18364",256.86102,73.60464,25.728813
"18365",256.87436,73.616844,25.541164
"18366",256.8877,73.62417,25.349014
"18367",256.90103,73.62905,25.154652
"18368",256.91437,73.66567,24.99218
"18369",256.9277,73.87076,24.999317
"18370",256.94104,74.50797,25.444992
"18371",256.95438,75.862976,26.628368
"18372",256.9677,78.082245,28.718355
"18373",256.98105,81.126724,31.702904
"18374",256.9944,84.75227,35.363663
"18375",257.00772,88.534065,39.293964
"18376",257.02106,92.018005,43.044594
"18377",257.0344,94.86229,46.264442
"18378",257.04773,96.900894,48.767494
"18379",257.06107,98.0972,50.49195
"18380",257.0744,98.50736,51.46765
"18381",257.08774,98.229034,51.767677
"18382",257.10107,97.408714,51.517014
"18383",257.1144,96.20264,50.854958
"18384",257.12775,94.767075,49.925728
"18385",257.14108,93.24605,48.866173
"18386",257.15442,91.747,47.781067
"18387",257.16776,90.34074,46.741898
"18388",257.1811,89.0663,45.790607
"18389",257.19443,87.91394,44.92157
"18390",257.20776,86.86168,44.11662
"18391",257.2211,85.88754,43.35691
"18392",257.23444,84.99153,42.644886
"18393",257.24777,84.2005,42.009842
"18394",257.2611,83.54131,41.48192
"18395",257.27444,83.0457,41.09697
"18396",257.28778,82.73319,40.87964
"18397",257.30112,82.58427,40.816124
"18398",257.31445,82.55009,40.8627
"18399",257.3278,82.57206,40.964363
"18400",257.34113,82.58427,41.056946
"18401",257.35446,82.53544,41.088875
"18402",257.3678,82.38163,41.014297
"18403",257.38113,82.108185,40.815277
"18404",257.39447,81.71023,40.4832
"18405",257.4078,81.20241,40.028824
"18406",257.42114,80.59693,39.460922
"18407",257.43448,79.91089,38.793533
"18408",257.4478,79.17113,38.050987
"18409",257.46115,78.41184,37.2658
"18410",257.4745,77.65011,36.454437
"18411",257.48782,76.912796,35.643692
"18412",257.50116,76.21454,34.84896
"18413",257.5145,75.57,34.08613
"18414",257.52783,74.984055,33.361748
"18415",257.54117,74.4567,32.677647
"18416",257.5545,73.99527,32.042984
"18417",257.56784,73.60952,31.469585
"18418",257.58118,73.29458,30.95494
"18419",257.5945,73.05043,30.501247
"18420",257.60785,72.88197,30.115616
"18421",257.6212,72.781876,29.79308
"18422",257.63452,72.73792,29.52356
"18423",257.64786,72.742805,29.301502
"18424",257.6612,72.781876,29.113785
"18425",257.67453,72.84291,28.949253
"18426",257.68787,72.918594,28.801277
"18427",257.7012,72.99916,28.66055
"18428",257.71454,73.08217,28.52478
"18429",257.72787,73.162735,28.389164
"18430",257.7412,73.23598,28.248741
"18431",257.75455,73.29702,28.098408
"18432",257.76788,73.34341,27.935326
"18433",257.78122,73.38247,27.766369
"18434",257.79456,73.409325,27.586426
"18435",257.8079,73.43618,27.407322
"18436",257.82123,73.45815,27.224174
"18437",257.83456,73.477684,27.039272
"18438",257.8479,73.5021,26.859863
"18439",257.86124,73.52163,26.676334
"18440",257.87457,73.531395,26.48365
"18441",257.8879,73.531395,26.281506
"18442",257.90125,73.52651,26.074478
"18443",257.91458,73.599754,25.945423
"18444",257.92792,73.97574,26.121399
"18445",257.94125,74.95964,26.917042
"18446",257.9546,76.79805,28.59794
"18447",257.96793,79.56664,31.266472
"18448",257.98126,83.1165,34.802788
"18449",257.9946,87.09361,38.87729
"18450",258.00793,90.99748,43.002834
"18451",258.02127,94.38621,46.73523
"18452",258.0346,96.97414,49.772728
"18453",258.04794,98.648964,51.977997
"18454",258.06128,99.41314,53.32495
"18455",258.07462,99.36675,53.885223
"18456",258.08795,98.66117,53.78485
"18457",258.1013,97.47219,53.17903
"18458",258.11462,95.98779,52.24064
"18459",258.12796,94.374,51.126465
"18460",258.1413,92.772415,49.974068
"18461",258.15463,91.27825,48.879044
"18462",258.16797,89.94278,47.89602
"18463",258.1813,88.76112,47.025074
"18464",258.19464,87.708855,46.24659
"18465",258.20798,86.7396,45.518238
"18466",258.2213,85.83139,44.82064
"18467",258.23465,84.981766,44.153248
"18468",258.248,84.21759,43.544754
"18469",258.26132,83.580376,43.039337
"18470",258.27466,83.09209,42.662933
"18471",258.288,82.75273,42.420204
"18472",258.30133,82.53788,42.291374
"18473",258.31467,82.40116,42.233963
"18474",258.328,82.286415,42.194252
"18475",258.34134,82.14969,42.128975
"18476",258.35468,81.94949,41.995956
"18477",258.368,81.6614,41.768784
"18478",258.38135,81.270775,41.430077
"18479",258.39468,80.77516,40.974174
"18480",258.40802,80.181885,40.40512
"18481",258.42136,79.50561,39.734528
"18482",258.4347,78.77562,38.98909
"18483",258.44803,78.009,38.18421
"18484",258.46136,77.239944,37.352936
"18485",258.4747,76.490425,36.517166
"18486",258.48804,75.78241,35.69948
"18487",258.50137,75.12077,34.906044
"18488",258.5147,74.5153,34.14809
"18489",258.52805,73.9733,33.434692
"18490",258.54138,73.494774,32.767834
"18491",258.55472,73.077286,32.147057
"18492",258.56805,72.72816,31.581593
"18493",258.5814,72.44251,31.068703
"18494",258.59473,72.217896,30.607914
"18495",258.60806,72.04944,30.196266
"18496",258.6214,71.94202,29.84039
"18497",258.63474,71.88098,29.527542
"18498",258.64807,71.86389,29.256733
"18499",258.6614,71.87854,29.017128
"18500",258.67474,71.920044,28.804836
"18501",258.68808,71.98108,28.613373
"18502",258.70142,72.05188,28.433582
"18503",258.71475,72.13489,28.268211
"18504",258.7281,72.22766,28.1152
"18505",258.74142,72.32777,27.97242
"18506",258.75476,72.43275,27.837643
"18507",258.7681,72.54505,27.71347
"18508",258.78143,72.65003,27.585484
"18509",258.79477,72.740364,27.446129
"18510",258.8081,72.813614,27.292515
"18511",258.82144,72.867325,27.12165
"18512",258.83478,72.886856,26.918285
"18513",258.8481,72.87953,26.688675
"18514",258.86145,72.886856,26.473484
"18515",258.8748,73.06752,26.431862
"18516",258.88812,73.69009,26.837788
"18517",258.90146,75.04021,27.990723
"18518",258.9148,77.281456,30.076979
"18519",258.92813,80.38941,33.09998
"18520",258.94147,84.11017,36.832905
"18521",258.9548,88.01648,40.86766
"18522",258.96814,91.632256,44.73395
"18523",258.98148,94.57664,48.04184
"18524",258.9948,96.639656,50.56038
"18525",259.00815,97.760284,52.200996
"18526",259.02148,97.99222,52.987938
"18527",259.03482,97.47463,53.032608
"18528",259.04816,96.38819,52.49225
"18529",259.0615,94.940414,51.556602
"18530",259.07483,93.3193,50.402374
"18531",259.08817,91.67376,49.173065
"18532",259.1015,90.125885,47.989998
"18533",259.11484,88.7367,46.917248
"18534",259.12817,87.518425,45.971992
"18535",259.1415,86.434425,45.122944
"18536",259.15485,85.4432,44.332794
"18537",259.16818,84.50324,43.56294
"18538",259.18152,83.62188,42.822304
"18539",259.19485,82.82597,42.13958
"18540",259.2082,82.159454,41.56137
"18541",259.22153,81.65896,41.128357
"18542",259.23486,81.339134,40.860374
"18543",259.2482,81.17311,40.7362
"18544",259.26154,81.109634,40.70938
"18545",259.27487,81.092545,40.726967
"18546",259.2882,81.06325,40.73181
"18547",259.30154,80.972916,40.674706
"18548",259.31488,80.78737,40.51956
"18549",259.32822,80.479744,40.23654
"18550",259.34155,80.05493,39.82672
"18551",259.3549,79.5227,39.296204
"18552",259.36823,78.90013,38.658722
"18553",259.38156,78.21408,37.9383
"18554",259.3949,77.4963,37.16471
"18555",259.40823,76.76631,36.356483
"18556",259.42157,76.04852,35.537643
"18557",259.4349,75.36248,34.72812
"18558",259.44824,74.71549,33.93621
"18559",259.46158,74.11978,33.175358
"18560",259.4749,73.58022,32.45204
"18561",259.48825,73.09926,31.770458
"18562",259.5016,72.68421,31.139763
"18563",259.51492,72.33265,30.559582
"18564",259.52826,72.047,30.034325
"18565",259.5416,71.81995,29.558743
"18566",259.55493,71.64904,29.13221
"18567",259.56827,71.534294,28.756496
"18568",259.5816,71.47326,28.430908
"18569",259.59494,71.46105,28.15224
"18570",259.60828,71.49279,27.917137
"18571",259.6216,71.55627,27.714764
"18572",259.63495,71.6466,27.54123
"18573",259.6483,71.73937,27.37296
"18574",259.66162,71.84436,27.219803
"18575",259.67496,71.95911,27.079685
"18576",259.6883,72.078735,26.948036
"18577",259.70163,72.200806,26.822567
"18578",259.71497,72.33021,26.708244
"18579",259.7283,72.45228,26.590633
"18580",259.74164,72.56458,26.467072
"18581",259.75497,72.6598,26.32993
"18582",259.7683,72.7306,26.171349
"18583",259.78165,72.77211,25.985691
"18584",259.79498,72.798965,25.786674
"18585",259.80832,72.90883,25.671505
"18586",259.82166,73.323875,25.864952
"18587",259.835,74.34196,26.674404
"18588",259.84833,76.18524,28.340874
"18589",259.86166,78.924545,30.960966
"18590",259.875,82.408485,34.411297
"18591",259.88834,86.278175,38.35625
"18592",259.90167,90.04532,42.319588
"18593",259.915,93.27291,45.861095
"18594",259.92834,95.66796,48.670925
"18595",259.94168,97.12062,50.61321
"18596",259.95502,97.64309,51.670696
"18597",259.96835,97.34768,51.926632
"18598",259.9817,96.41749,51.538555
"18599",259.99503,95.05516,50.689274
"18600",260.00836,93.44869,49.55328
"18601",260.0217,91.76654,48.2914
"18602",260.03503,90.15274,47.045303
"18603",260.04837,88.67811,45.887943
"18604",260.0617,87.36462,44.845642
"18605",260.07504,86.19272,43.90389
"18606",260.08838,85.12825,43.032944
"18607",260.1017,84.139465,42.20442
"18608",260.11505,83.228806,41.42312
"18609",260.1284,82.4329,40.72811
"18610",260.14172,81.80545,40.17669
"18611",260.15506,81.38064,39.808296
"18612",260.1684,81.160904,39.631706
"18613",260.18173,81.109634,39.616714
"18614",260.19507,81.17311,39.714867
"18615",260.2084,81.28054,39.858955
"18616",260.22174,81.36355,39.98198
"18617",260.23508,81.36355,40.02459
"18618",260.2484,81.24635,39.950005
"18619",260.26175,80.990005,39.732605
"18620",260.2751,80.59449,39.368027
"18621",260.28842,80.079346,38.87146
"18622",260.30176,79.466545,38.26114
"18623",260.3151,78.79271,37.570633
"18624",260.32843,78.08713,36.827324
"18625",260.34177,77.366905,36.047325
"18626",260.3551,76.65156,35.249695
"18627",260.36844,75.95575,34.44925
"18628",260.38177,75.29656,33.66368
"18629",260.3951,74.683754,32.903893
"18630",260.40845,74.12955,32.18355
"18631",260.42178,73.64126,31.51181
"18632",260.43512,73.21889,30.890728
"18633",260.44846,72.85756,30.31749
"18634",260.4618,72.5597,29.796429
"18635",260.47513,72.325325,29.329544
"18636",260.48846,72.15198,28.916363
"18637",260.5018,72.03723,28.556366
"18638",260.51514,71.973755,28.244053
"18639",260.52847,71.956665,27.976143
"18640",260.5418,71.98108,27.749203
"18641",260.55515,72.047,27.56453
"18642",260.56848,72.15198,27.420979
"18643",260.58182,72.28626,27.310013
"18644",260.59515,72.444954,27.22765
"18645",260.6085,72.61829,27.164894
"18646",260.62183,72.79164,27.107563
"18647",260.63516,72.952774,27.043434
"18648",260.6485,73.094376,26.96481
"18649",260.66183,73.199356,26.853989
"18650",260.67517,73.2604,26.70251
"18651",260.6885,73.3019,26.533401
"18652",260.70184,73.44106,26.463245
"18653",260.71518,73.89517,26.712387
"18654",260.72852,74.92302,27.549458
"18655",260.74185,76.71992,29.1877
"18656",260.7552,79.31274,31.678017
"18657",260.76852,82.530556,34.87436
"18658",260.78186,86.02182,38.444702
"18659",260.7952,89.35195,41.963017
"18660",260.80853,92.13275,45.036064
"18661",260.82187,94.11276,47.395226
"18662",260.8352,95.20409,48.927574
"18663",260.84854,95.431145,49.62976
"18664",260.86188,94.916,49.59684
"18665",260.8752,93.82956,48.976524
"18666",260.88855,92.37202,47.951157
"18667",260.9019,90.72404,46.689804
"18668",260.91522,89.041885,45.342777
"18669",260.92856,87.43786,44.02131
"18670",260.9419,85.980316,42.7962
"18671",260.95523,84.67414,41.67691
"18672",260.96857,83.50225,40.651085
"18673",260.9819,82.42802,39.686295
"18674",260.99524,81.444115,38.778267
"18675",261.00858,80.570076,37.949356
"18676",261.0219,79.8645,37.261597
"18677",261.03525,79.378654,36.771515
"18678",261.04858,79.13695,36.51039
"18679",261.06192,79.12474,36.471214
"18680",261.07526,79.28832,36.607445
"18681",261.0886,79.554436,36.85132
"18682",261.10193,79.84009,37.123047
"18683",261.11526,80.07202,37.349983
"18684",261.1286,80.19653,37.476746
"18685",261.14194,80.17944,37.465797
"18686",261.15527,80.0061,37.298065
"18687",261.1686,79.67895,36.9711
"18688",261.18195,79.21507,36.497192
"18689",261.19528,78.63889,35.896484
"18690",261.20862,77.979706,35.194763
"18691",261.22195,77.261925,34.41385
"18692",261.2353,76.52216,33.588524
"18693",261.24863,75.77997,32.737648
"18694",261.26196,75.054855,31.88066
"18695",261.2753,74.36393,31.035198
"18696",261.28864,73.721825,30.216965
"18697",261.30197,73.1432,29.44215
"18698",261.3153,72.64027,28.724937
"18699",261.32864,72.215454,28.070133
"18700",261.34198,71.86389,27.475304
"18701",261.35532,71.58556,26.942722
"18702",261.36865,71.3756,26.46981
"18703",261.382,71.23399,26.05869
"18704",261.39532,71.16319,25.713951
"18705",261.40866,71.168076,25.442684
"18706",261.422,71.24132,25.23993
"18707",261.43533,71.37316,25.098064
"18708",261.44867,71.5465,25.001816
"18709",261.462,71.74914,24.94028
"18710",261.47534,71.95911,24.89241
"18711",261.48868,72.17151,24.853535
"18712",261.502,72.38148,24.818863
"18713",261.51535,72.58167,24.78098
"18714",261.5287,72.75502,24.722504
"18715",261.54202,72.89662,24.6377
"18716",261.55536,73.040665,24.559761
"18717",261.5687,73.31411,24.615726
"18718",261.58203,73.95865,25.05133
"18719",261.59537,75.25262,26.156506
"18720",261.6087,77.3547,28.110231
"18721",261.62204,80.24292,30.915787
"18722",261.63538,83.682915,34.363373
"18723",261.6487,87.28161,38.077156
"18724",261.66205,90.58732,41.610416
"18725",261.67538,93.24361,44.597557
"18726",261.68872,95.064926,46.83274
"18727",261.70206,95.99512,48.23371
"18728",261.7154,96.09033,48.828773
"18729",261.72873,95.47997,48.721237
"18730",261.74207,94.327614,48.052628
"18731",261.7554,92.81636,46.989113
"18732",261.76874,91.12932,45.702583
"18733",261.78207,89.41299,44.334045
"18734",261.7954,87.77234,42.987553
"18735",261.80875,86.258644,41.716743
"18736",261.82208,84.89143,40.545116
"18737",261.83542,83.648735,39.455276
"18738",261.84875,82.52079,38.441353
"18739",261.8621,81.512474,37.51181
"18740",261.87543,80.6775,36.7241
"18741",261.88876,80.0647,36.13247
"18742",261.9021,79.71313,35.78292
"18743",261.91544,79.61791,35.67874
"18744",261.92877,79.7351,35.78399
"18745",261.9421,79.98657,36.027184
"18746",261.95544,80.27955,36.31974
"18747",261.96878,80.53834,36.587265
"18748",261.98212,80.69947,36.76522
"18749",261.99545,80.72144,36.80905
"18750",262.0088,80.58228,36.692436
"18751",262.02213,80.28199,36.41034
"18752",262.03546,79.83276,35.969925
"18753",262.0488,79.26391,35.395844
"18754",262.06213,78.61204,34.72097
"18755",262.07547,77.90158,33.96714
"18756",262.0888,77.1667,33.166687
"18757",262.10214,76.42695,32.338394
"18758",262.11548,75.70428,31.504065
"18759",262.1288,75.01579,30.68134
"18760",262.14215,74.38102,29.89081
"18761",262.1555,73.812164,29.146362
"18762",262.16882,73.31411,28.454937
"18763",262.18216,72.886856,27.818748
"18764",262.1955,72.52308,27.232685
"18765",262.20883,72.22278,26.69873
"18766",262.22217,71.990845,26.223759
"18767",262.2355,71.82239,25.805016
"18768",262.24884,71.71984,25.446918
"18769",262.26218,71.68566,25.153984
"18770",262.2755,71.71496,24.923458
"18771",262.28885,71.8053,24.75489
"18772",262.3022,71.94202,24.635525
"18773",262.31552,72.12512,24.566818
"18774",262.32886,72.32777,24.523373
"18775",262.3422,72.535286,24.491135
"18776",262.35553,72.71351,24.436085
"18777",262.36887,72.86488,24.359756
"18778",262.3822,73.04555,24.317448
"18779",262.39554,73.411766,24.46634
"18780",262.40887,74.20767,25.056362
"18781",262.4222,75.66033,26.32801
"18782",262.43555,77.86008,28.392141
"18783",262.44888,80.71168,31.176868
"18784",262.46222,83.95148,34.438908
"18785",262.47556,87.183945,37.79486
"18786",262.4889,90.023346,40.85876
"18787",262.50223,92.19867,43.347313
"18788",262.51556,93.592735,45.12259
"18789",262.5289,94.20065,46.15528
"18790",262.54224,94.098114,46.496513
"18791",262.55557,93.419395,46.25836
"18792",262.5689,92.32319,45.581512
"18793",262.58224,90.98039,44.623817
"18794",262.59558,89.53506,43.52162
"18795",262.60892,88.10437,42.388905
"18796",262.62225,86.766464,41.30426
"18797",262.6356,85.555504,40.304752
"18798",262.64893,84.46418,39.38704
"18799",262.66226,83.46807,38.530434
"18800",262.6756,82.547646,37.718384
"18801",262.68893,81.71267,36.96302
"18802",262.70227,80.99977,36.303642
"18803",262.7156,80.45777,35.792885
"18804",262.72894,80.12573,35.47515
"18805",262.74228,80.01343,35.366776
"18806",262.7556,80.076904,35.43067
"18807",262.76895,80.257576,35.613747
"18808",262.7823,80.47486,35.83908
"18809",262.79562,80.66041,36.039467
"18810",262.80896,80.76051,36.16021
"18811",262.8223,80.73853,36.161995
"18812",262.83563,80.57496,36.0215
"18813",262.84897,80.26734,35.73185
"18814",262.8623,79.835205,35.308067
"18815",262.87564,79.29565,34.76336
"18816",262.88898,78.675514,34.121216
"18817",262.9023,78.00412,33.408432
"18818",262.91565,77.30831,32.650253
"18819",262.929,76.61738,31.875204
"18820",262.94232,75.95087,31.102985
"18821",262.95566,75.3283,30.353884
"18822",262.969,74.759445,29.639038
"18823",262.98233,74.251625,28.967451
"18824",262.99567,73.80728,28.343472
"18825",263.009,73.41909,27.761757
"18826",263.02234,73.091934,27.228947
"18827",263.03568,72.833145,26.75428
"18828",263.049,72.64759,26.34476
"18829",263.06235,72.54017,26.007576
"18830",263.07568,72.50843,25.742718
"18831",263.08902,72.54505,25.545227
"18832",263.10236,72.63294,25.40015
"18833",263.1157,72.7599,25.29689
"18834",263.12903,72.90883,25.219563
"18835",263.14236,73.06752,25.156654
"18836",263.1557,73.22377,25.096264
"18837",263.16904,73.38491,25.045647
"18838",263.18237,73.62417,25.078182
"18839",263.1957,74.1149,25.369667
"18840",263.20905,75.09148,26.162334
"18841",263.22238,76.74189,27.659357
"18842",263.23572,79.11009,29.925743
"18843",263.24905,82.06668,32.854523
"18844",263.2624,85.30648,36.158905
"18845",263.27573,88.44129,39.459545
"18846",263.28906,91.11467,42.396713
"18847",263.3024,93.10933,44.73871
"18848",263.31573,94.3447,46.38375
"18849",263.32907,94.84276,47.33008
"18850",263.3424,94.6865,47.637657
"18851",263.35574,94.012665,47.422775
"18852",263.36908,92.96773,46.815735
"18853",263.38242,91.71526,45.968513
"18854",263.39575,90.389565,45.00892
"18855",263.4091,89.10048,44.044506
"18856",263.42242,87.9115,43.139915
"18857",263.43576,86.83971,42.315357
"18858",263.4491,85.855804,41.545197
"18859",263.46243,84.928055,40.80044
"18860",263.47577,84.03693,40.063316
"18861",263.4891,83.19951,39.35205
"18862",263.50244,82.459755,38.71228
"18863",263.51578,81.87381,38.2032
"18864",263.5291,81.480736,37.868683
"18865",263.54245,81.28542,37.719643
"18866",263.5558,81.253685,37.728073
"18867",263.56912,81.31716,37.830727
"18868",263.58246,81.4197,37.974426
"18869",263.5958,81.48562,38.08471
"18870",263.60913,81.46853,38.114044
"18871",263.62247,81.33669,38.0281
"18872",263.6358,81.08034,37.813515
"18873",263.64914,80.706795,37.473732
"18874",263.66248,80.22339,37.012413
"18875",263.6758,79.65453,36.45054
"18876",263.68915,79.02464,35.809853
"18877",263.70248,78.35569,35.11042
"18878",263.71582,77.6672,34.370544
"18879",263.72916,76.99092,33.62137
"18880",263.7425,76.34638,32.882797
"18881",263.75583,75.74822,32.170464
"18882",263.76917,75.20134,31.490713
"18883",263.7825,74.71305,30.852467
"18884",263.79584,74.28336,30.25756
"18885",263.80917,73.919586,29.715137
"18886",263.8225,73.616844,29.222382
"18887",263.83585,73.38735,28.793415
"18888",263.84918,73.233536,28.432953
"18889",263.86252,73.145645,28.13361
"18890",263.87585,73.12367,27.897438
"18891",263.8892,73.15541,27.71429
"18892",263.90253,73.231094,27.57608
"18893",263.91586,73.32632,27.459774
"18894",263.9292,73.42153,27.346436
"18895",263.94254,73.50698,27.226307
"18896",263.95587,73.63149,27.147911
"18897",263.9692,73.93179,27.249195
"18898",263.98254,74.63004,27.757812
"18899",263.99588,75.95331,28.913265
"18900",264.00922,78.011444,30.844942
"18901",264.02255,80.743416,33.51477
"18902",264.0359,83.92462,36.719208
"18903",264.04922,87.18883,40.106056
"18904",264.06256,90.15762,43.299503
"18905",264.0759,92.53559,45.994896
"18906",264.08923,94.168915,48.01996
"18907",264.10257,95.01854,49.312363
"18908",264.1159,95.14305,49.906204
"18909",264.12924,94.67185,49.908226
"18910",264.14258,93.75876,49.45363
"18911",264.1559,92.58442,48.70925
"18912",264.16925,91.300224,47.81832
"18913",264.1826,90.020905,46.892136
"18914",264.19592,88.8246,46.008984
"18915",264.20926,87.728386,45.188538
"18916",264.2226,86.70298,44.404644
"18917",264.23593,85.714195,43.625328
"18918",264.24927,84.735176,42.82488
"18919",264.2626,83.775696,42.013374
"18920",264.27594,82.88945,41.245117
"18921",264.28928,82.144806,40.590767
"18922",264.3026,81.5906,40.103584
"18923",264.31595,81.25124,39.813934
"18924",264.32928,81.09987,39.70166
"18925",264.34262,81.077896,39.714058
"18926",264.35596,81.109634,39.77948
"18927",264.3693,81.13161,39.83613
"18928",264.38263,81.08522,39.825104
"18929",264.39597,80.92409,39.697884
"18930",264.4093,80.62867,39.431343
"18931",264.42264,80.198975,39.021294
"18932",264.43597,79.64965,38.478188
"18933",264.4493,79.00755,37.82514
"18934",264.46265,78.30198,37.088554
"18935",264.47598,77.56954,36.303055
"18936",264.48932,76.83223,35.48979
"18937",264.50266,76.112,34.67057
"18938",264.516,75.4284,33.86547
"18939",264.52933,74.79607,33.09028
"18940",264.54266,74.22476,32.35635
"18941",264.556,73.724266,31.675377
"18942",264.56934,73.29458,31.049572
"18943",264.58267,72.94301,30.488457
"18944",264.596,72.66468,29.989597
"18945",264.60934,72.464485,29.560173
"18946",264.62268,72.33021,29.19041
"18947",264.63602,72.26917,28.889694
"18948",264.64935,72.26917,28.648106
"18949",264.6627,72.318,28.455345
"18950",264.67603,72.39857,28.295849
"18951",264.68936,72.49622,28.15596
"18952",264.7027,72.59144,28.016682
"18953",264.71603,72.67689,27.870613
"18954",264.72937,72.796524,27.761402
"18955",264.7427,73.08461,27.824379
"18956",264.75604,73.763336,28.286999
"18957",264.76938,75.06218,29.390945
"18958",264.7827,77.103226,31.277685
"18959",264.79605,79.852295,33.93623
"18960",264.8094,83.09209,37.171406
"18961",264.82272,86.47349,40.649433
"18962",264.83606,89.583885,43.962128
"18963",264.8494,92.103455,46.781193
"18964",264.86273,93.85886,48.914825
"18965",264.87607,94.801254,50.290314
"18966",264.8894,94.9868,50.9384
"18967",264.90274,94.55222,50.97216
"18968",264.91608,93.6733,50.547997
"18969",264.9294,92.53559,49.837578
"18970",264.94275,91.29534,48.989067
"18971",264.9561,90.06973,48.11644
"18972",264.96942,88.92714,47.288525
"18973",264.98276,87.869995,46.510353
"18974",264.9961,86.854355,45.74065
"18975",265.00943,85.83627,44.936768
"18976",265.02277,84.78157,44.06445
"18977",265.0361,83.70733,43.139633
"18978",265.04944,82.67216,42.220314
"18979",265.06277,81.75906,41.390724
"18980",265.0761,81.03639,40.723022
"18981",265.08945,80.52857,40.24759
"18982",265.10278,80.22339,39.958923
"18983",265.11612,80.06958,39.812096
"18984",265.12946,80.0061,39.750793
"18985",265.1428,79.96704,39.71192
"18986",265.15613,79.88159,39.625443
"18987",265.16946,79.7058,39.445953
"18988",265.1828,79.40307,39.134026
"18989",265.19614,78.97337,38.685677
"18990",265.20947,78.416725,38.096947
"18991",265.2228,77.769745,37.40049
"18992",265.23615,77.0544,36.615448
"18993",265.24948,76.3122,35.781204
"18994",265.26282,75.56512,34.918877
"18995",265.27615,74.84001,34.055183
"18996",265.2895,74.15152,33.20544
"18997",265.30283,73.52163,32.392784
"18998",265.31616,72.96254,31.631245
"18999",265.3295,72.481575,30.930359
"19000",265.34283,72.08118,30.29501
"19001",265.35617,71.763794,29.730164
"19002",265.3695,71.536736,29.245724
"19003",265.38284,71.38781,28.832321
"19004",265.39618,71.309685,28.485065
"19005",265.40952,71.292595,28.196404
"19006",265.42285,71.329216,27.960918
"19007",265.4362,71.40246,27.763199
"19008",265.44952,71.502556,27.594624
"19009",265.46286,71.6173,27.443825
"19010",265.4762,71.724724,27.289288
"19011",265.48953,71.81995,27.125908
"19012",265.50287,71.905396,26.95573
"19013",265.5162,72.027466,26.824844
"19014",265.52954,72.32777,26.876003
"19015",265.54288,73.02846,27.336937
"19016",265.5562,74.34196,28.432575
"19017",265.56955,76.3708,30.2846
"19018",265.5829,79.05882,32.859215
"19019",265.59622,82.178986,35.949966
"19020",265.60956,85.38949,39.22856
"19021",265.6229,88.326546,42.33404
"19022",265.63623,90.721596,44.989296
"19023",265.64957,92.44526,47.048008
"19024",265.6629,93.470665,48.462326
"19025",265.67624,93.84665,49.25927
"19026",265.68958,93.68795,49.53328
"19027",265.7029,93.12886,49.40194
"19028",265.71625,92.31098,48.99434
"19029",265.72958,91.35638,48.424454
"19030",265.74292,90.35783,47.780792
"19031",265.75626,89.34951,47.096157
"19032",265.7696,88.33387,46.37269
"19033",265.78293,87.276726,45.575977
"19034",265.79626,86.15854,44.68519
"19035",265.8096,84.97688,43.695988
"19036",265.82294,83.773254,42.64789
"19037",265.83627,82.62089,41.613434
"19038",265.8496,81.60525,40.679695
"19039",265.86295,80.80446,39.92907
"19040",265.87628,80.2478,39.397552
"19041",265.88962,79.91577,39.073265
"19042",265.90295,79.76196,38.916824
"19043",265.9163,79.71313,38.86055
"19044",265.92963,79.68627,38.82473
"19045",265.94296,79.61303,38.741684
"19046",265.9563,79.44457,38.561134
"19047",265.96964,79.151596,38.2508
"19048",265.98297,78.72678,37.799477
"19049",265.9963,78.17746,37.210365
"19050",266.00964,77.53536,36.511314
"19051",266.02298,76.82979,35.72872
"19052",266.03632,76.09979,34.89966
"19053",266.04965,75.372246,34.050232
"19054",266.063,74.67643,33.2098
"19055",266.07632,74.022125,32.389133
"19056",266.08966,73.42153,31.60173
"19057",266.103,72.87465,30.84927
"19058",266.11633,72.39124,30.143196
"19059",266.12967,71.97131,29.485493
"19060",266.143,71.6173,28.880585
"19061",266.15634,71.32433,28.325657
"19062",266.16968,71.09972,27.829926
"19063",266.183,70.941025,27.3931
"19064",266.19635,70.84825,27.017235
"19065",266.2097,70.818954,26.701946
"19066",266.22302,70.85069,26.446777
"19067",266.23636,70.92882,26.238987
"19068",266.2497,71.04112,26.067818
"19069",266.26303,71.1754,25.92213
"19070",266.27637,71.309685,25.780647
"19071",266.2897,71.431755,25.631145
"19072",266.30304,71.54162,25.473251
"19073",266.31638,71.66857,25.33588
"19074",266.3297,71.92493,25.331879
"19075",266.34305,72.52308,25.677685
"19076",266.35638,73.70718,26.628128
"19077",266.36972,75.62371,28.348011
"19078",266.38306,78.26292,30.850458
"19079",266.3964,81.43923,33.97249
"19080",266.40973,84.81331,37.39154
"19081",266.42307,87.97986,40.708508
"19082",266.4364,90.614174,43.592194
"19083",266.44974,92.53803,45.847744
"19084",266.46307,93.70504,47.406563
"19085",266.4764,94.15427,48.284073
"19086",266.48975,94.0029,48.575027
"19087",266.50308,93.399864,48.409584
"19088",266.51642,92.49653,47.924995
"19089",266.52975,91.42718,47.246162
"19090",266.5431,90.301674,46.47776
"19091",266.55643,89.18349,45.6815
"19092",266.56976,88.079956,44.864952
"19093",266.5831,86.96422,44.001713
"19094",266.59644,85.80698,43.062103
"19095",266.60977,84.596016,42.03261
"19096",266.6231,83.35577,40.93599
"19097",266.63644,82.16434,39.849426
"19098",266.64978,81.11696,38.869682
"19099",266.66312,80.29664,38.084267
"19100",266.67645,79.73266,37.529556
"19101",266.6898,79.412834,37.201378
"19102",266.70312,79.276115,37.04631
"19103",266.71646,79.24925,36.996826
"19104",266.7298,79.237045,36.96116
"19105",266.74313,79.17601,36.87628
"19106",266.75647,79.01488,36.6894
"19107",266.7698,78.729225,36.372963
"19108",266.78314,78.30198,35.906006
"19109",266.79648,77.7551,35.30606
"19110",266.8098,77.11543,34.596245
"19111",266.82315,76.40986,33.80053
"19112",266.8365,75.67254,32.95102
"19113",266.84982,74.94011,32.08336
"19114",266.86316,74.24429,31.229422
"19115",266.8765,73.602196,30.40746
"19116",266.88983,73.03578,29.641113
"19117",266.90317,72.54505,28.93275
"19118",266.9165,72.130005,28.284737
"19119",266.92984,71.783325,27.69212
"19120",266.94318,71.500114,27.152138
"19121",266.9565,71.27795,26.664349
"19122",266.96985,71.116806,26.230644
"19123",266.9832,71.01915,25.855389
"19124",266.99652,70.98253,25.538116
"19125",267.00986,70.99962,25.27341
"19126",267.0232,71.07286,25.065392
"19127",267.03653,71.19249,24.906048
"19128",267.04987,71.35851,24.796837
"19129",267.0632,71.5465,24.714779
"19130",267.07654,71.73693,24.641037
"19131",267.08987,71.90784,24.553722
"19132",267.1032,72.042114,24.43512
"19133",267.11655,72.13245,24.276768
"19134",267.12988,72.21057,24.109032
"19135",267.14322,72.396126,24.051167
"19136",267.15656,72.89174,24.309158
"19137",267.1699,73.92935,25.124638
"19138",267.18323,75.66033,26.665909
"19139",267.19656,78.0676,28.93756
"19140",267.2099,80.96559,31.775166
"19141",267.22324,84.00763,34.847378
"19142",267.23657,86.80553,37.770515
"19143",267.2499,89.037,40.214664
"19144",267.26324,90.548256,42.008324
"19145",267.27658,91.30755,43.097248
"19146",267.28992,91.39056,43.533615
"19147",267.30325,90.92424,43.423256
"19148",267.3166,90.06485,42.90525
"19149",267.32993,88.98329,42.138218
"19150",267.34326,87.818726,41.25438
"19151",267.3566,86.676125,40.356113
"19152",267.36993,85.60677,39.49539
"19153",267.38327,84.62287,38.686703
"19154",267.3966,83.69512,37.90342
"19155",267.40994,82.78691,37.11068
"19156",267.42328,81.88846,36.299316
"19157",267.4366,81.03395,35.503822
"19158",267.44995,80.27955,34.78173
"19159",267.4633,79.68627,34.19719
"19160",267.47662,79.310295,33.81141
"19161",267.48996,79.15648,33.63604
"19162",267.5033,79.183334,33.636536
"19163",267.51663,79.32006,33.74774
"19164",267.52997,79.49828,33.904716
"19165",267.5433,79.63744,34.0282
"19166",267.55664,79.68627,34.065697
"19167",267.56998,79.603264,33.972885
"19168",267.5833,79.381096,33.73832
"19169",267.59665,79.02464,33.362526
"19170",267.61,78.553444,32.860847
"19171",267.62332,77.996796,32.258995
"19172",267.63666,77.38644,31.586037
"19173",267.65,76.749214,30.86714
"19174",267.66333,76.11444,30.13078
"19175",267.67667,75.50164,29.396555
"19176",267.69,74.94011,28.69445
"19177",267.70334,74.44694,28.043158
"19178",267.71667,74.03189,27.454578
"19179",267.73,73.69009,26.92627
"19180",267.74335,73.41421,26.453205
"19181",267.75668,73.196915,26.030106
"19182",267.77002,73.03334,25.653934
"19183",267.78336,72.921036,25.323921
"19184",267.7967,72.85756,25.039227
"19185",267.81003,72.850235,24.8087
"19186",267.82336,72.886856,24.621891
"19187",267.8367,72.96498,24.47773
"19188",267.85004,73.06996,24.362865
"19189",267.86337,73.19447,24.270813
"19190",267.8767,73.323875,24.187542
"19191",267.89005,73.44839,24.103424
"19192",267.90338,73.55581,24.006107
"19193",267.9167,73.6437,23.892616
"19194",267.93002,73.70229,23.752575
"19195",267.94336,73.78287,23.636345
"19196",267.9567,74.00992,23.66911
"19197",267.97003,74.615395,24.087395
"19198",267.98337,75.81415,25.117878
"19199",267.9967,77.70382,26.876741
"19200",268.01004,80.198975,29.30014
"19201",268.02338,83.018845,32.12623
"19202",268.0367,85.7728,34.974518
"19203",268.05005,88.07263,37.454754
"19204",268.0634,89.6791,39.31349
"19205",268.07672,90.53361,40.47047
"19206",268.09006,90.69962,40.96566
"19207",268.1034,90.31144,40.91184
"19208",268.11673,89.51797,40.440598
"19209",268.13007,88.47791,39.69798
"19210",268.1434,87.33532,38.82032
"19211",268.15674,86.20981,37.924038
"19212",268.17007,85.17708,37.085365
"19213",268.1834,84.281075,36.351147
"19214",268.19675,83.50225,35.70611
"19215",268.21008,82.79912,35.11242
"19216",268.22342,82.127716,34.52849
"19217",268.23676,81.46609,33.93335
"19218",268.2501,80.833755,33.346832
"19219",268.26343,80.289314,32.828445
"19220",268.27676,79.888916,32.437088
"19221",268.2901,79.67895,32.223648
"19222",268.30344,79.66186,32.196526
"19223",268.31677,79.79614,32.320244
"19224",268.3301,80.0061,32.523834
"19225",268.34344,80.216064,32.733986
"19226",268.35678,80.35279,32.877464
"19227",268.37012,80.365,32.900696
"19228",268.38345,80.22827,32.775375
"19229",268.3968,79.94263,32.496864
"19230",268.41013,79.53246,32.084908
"19231",268.42346,79.027084,31.564919
"19232",268.4368,78.46067,30.968102
"19233",268.45013,77.86984,30.32917
"19234",268.46347,77.29366,29.686424
"19235",268.4768,76.74433,29.052519
"19236",268.49014,76.24628,28.452724
"19237",268.50348,75.80438,27.893526
"19238",268.5168,75.41863,27.376663
"19239",268.53015,75.08171,26.896574
"19240",268.5435,74.79851,26.459675
"19241",268.55682,74.57145,26.07007
"19242",268.57016,74.40055,25.72953
"19243",268.5835,74.288246,25.442242
"19244",268.59683,74.229645,25.205147
"19245",268.61017,74.22232,25.017498
"19246",268.6235,74.25651,24.871132
"19247",268.63684,74.319984,24.755123
"19248",268.65018,74.407875,24.665512
"19249",268.6635,74.50797,24.590855
"19250",268.67685,74.60563,24.516884
"19251",268.6902,74.68864,24.431316
"19252",268.70352,74.74967,24.32637
"19253",268.71686,74.78874,24.201366
"19254",268.7302,74.844894,24.094667
"19255",268.74353,75.04021,24.128883
"19256",268.75687,75.59197,24.525656
"19257",268.7702,76.71259,25.508526
"19258",268.78354,78.47532,27.16852
"19259",268.79688,80.77028,29.415834
"19260",268.8102,83.32159,31.991213
"19261",268.82355,85.74593,34.51936
"19262",268.83688,87.67223,36.62522
"19263",268.85022,88.89296,38.085705
"19264",268.86356,89.38857,38.859222
"19265",268.8769,89.26406,39.028103
"19266",268.89023,88.66834,38.721886
"19267",268.90356,87.75525,38.079678
"19268",268.9169,86.67368,37.240463
"19269",268.93024,85.55306,36.328396
"19270",268.94357,84.491035,35.439903
"19271",268.9569,83.54864,34.637848
"19272",268.97025,82.76494,33.965042
"19273",268.98358,82.13016,33.416664
"19274",268.99692,81.602806,32.95588
"19275",269.01025,81.13405,32.53721
"19276",269.0236,80.69215,32.130745
"19277",269.03693,80.28443,31.74466
"19278",269.05026,79.94507,31.414185
"19279",269.0636,79.71313,31.180527
"19280",269.07693,79.62768,31.086113
"19281",269.09027,79.68627,31.133072
"19282",269.1036,79.85474,31.291733
"19283",269.11694,80.079346,31.511803
"19284",269.13028,80.291756,31.726692
"19285",269.14362,80.43824,31.882294
"19286",269.15695,80.482185,31.939934
"19287",269.1703,80.40406,31.876877
"19288",269.18362,80.19409,31.679535
"19289",269.19696,79.871826,31.363335
"19290",269.2103,79.45678,30.944283
"19291",269.22363,78.9807,30.451225
"19292",269.23697,78.470436,29.909111
"19293",269.2503,77.95773,29.34861
"19294",269.26364,77.46212,28.789177
"19295",269.27698,76.998245,28.245993
"19296",269.2903,76.5832,27.73714
"19297",269.30365,76.21698,27.264147
"19298",269.317,75.90448,26.833427
"19299",269.33032,75.64324,26.444204
"19300",269.34366,75.43572,26.100536
"19301",269.357,75.27459,25.79677
"19302",269.37033,75.15495,25.529465
"19303",269.38367,75.071945,25.29505
"19304",269.397,75.028,25.097103
"19305",269.41034,75.02312,24.936846
"19306",269.42368,75.052414,24.810616
"19307",269.437,75.11833,24.721922
"19308",269.45035,75.20622,24.65726
"19309",269.46368,75.30877,24.610003
"19310",269.47702,75.40887,24.5635
"19311",269.49036,75.491875,24.503035
"19312",269.5037,75.56756,24.43784
"19313",269.51703,75.699394,24.431162
"19314",269.53036,76.053406,24.65078
"19315",269.5437,76.84444,25.31848
"19316",269.55704,78.21896,26.594395
"19317",269.57037,80.15259,28.472363
"19318",269.5837,82.44511,30.76965
"19319",269.59705,84.75227,33.153225
"19320",269.61038,86.70298,35.25244
"19321",269.62372,88.0238,36.782734
"19322",269.63705,88.63416,37.643837
"19323",269.6504,88.61219,37.89168
"19324",269.66373,88.09949,37.64811
"19325",269.67706,87.26208,37.06381
"19326",269.6904,86.236664,36.265335
"19327",269.70374,85.14534,35.368908
"19328",269.71707,84.085754,34.470116
"19329",269.7304,83.13115,33.64319
"19330",269.74374,82.31815,32.92804
"19331",269.75708,81.654076,32.336403
"19332",269.77042,81.11452,31.848534
"19333",269.78375,80.66041,31.429253
"19334",269.7971,80.25269,31.042175
"19335",269.81042,79.88159,30.67897
"19336",269.82376,79.54955,30.343231
"19337",269.8371,79.29565,30.075249
"19338",269.85043,79.149155,29.906746
"19339",269.86377,79.12962,29.860626
"19340",269.8771,79.22484,29.928642
"19341",269.89044,79.40307,30.08265
"19342",269.90378,79.61303,30.273956
"19343",269.9171,79.798584,30.447418
"19344",269.93045,79.91577,30.558311
"19345",269.9438,79.937744,30.577652
"19346",269.95712,79.85718,30.49514
"19347",269.97046,79.676506,30.310005
"19348",269.9838,79.415276,30.038666
"19349",269.99713,79.093,29.69812
"19350",270.01047,78.73167,29.308441
"19351",270.0238,78.348366,28.885506
"19352",270.03714,77.960175,28.445702
"19353",270.05048,77.574425,27.996208
"19354",270.0638,77.21309,27.559072
"19355",270.07715,76.88106,27.13995
"19356",270.09048,76.58808,26.749506
"19357",270.10382,76.33662,26.391418
"19358",270.11716,76.12421,26.064528
"19359",270.1305,75.94354,25.762745
"19360",270.14383,75.79706,25.489496
"19361",270.15717,75.684746,25.245842
"19362",270.1705,75.60174,25.027983
"19363",270.18384,75.545586,24.834385
"19364",270.19717,75.50652,24.656122
"19365",270.2105,75.48455,24.493729
"19366",270.22385,75.48211,24.35018
"19367",270.23718,75.494316,24.221203
"19368",270.25052,75.51873,24.104815
"19369",270.26385,75.55535,24.001396
"19370",270.2772,75.596855,23.904005
"19371",270.29053,75.63348,23.803028
"19372",270.30386,75.667656,23.700754
"19373",270.3172,75.68719,23.5849
"19374",270.33054,75.684746,23.447683
"19375",270.34387,75.64568,23.27377
"19376",270.3572,75.59197,23.083986
"19377",270.37054,75.62371,22.977974
"19378",270.38388,75.95575,23.173254
"19379",270.39722,76.81026,23.901379
"19380",270.41055,78.28245,25.27389
"19381",270.4239,80.27711,27.214876
"19382",270.43723,82.528114,29.474543
"19383",270.45056,84.66926,31.69469
"19384",270.4639,86.348976,33.520325
"19385",270.47723,87.36462,34.73437
"19386",270.49057,87.71618,35.31608
"19387",270.5039,87.52819,35.36922
"19388",270.51724,86.94469,35.020973
"19389",270.53058,86.11215,34.40546
"19390",270.5439,85.155106,33.63942
"19391",270.55725,84.173645,32.819057
"19392",270.5706,83.250786,32.026627
"19393",270.58392,82.442665,31.320093
"19394",270.59726,81.77615,30.729916
"19395",270.6106,81.248795,30.25806
"19396",270.62393,80.833755,29.882046
"19397",270.63727,80.49439,29.568737
"19398",270.6506,80.19409,29.283886
"19399",270.66394,79.92798,29.023838
"19400",270.67728,79.708244,28.801853
"19401",270.6906,79.5642,28.648693
"19402",270.70395,79.5227,28.59357
"19403",270.7173,79.588615,28.644573
"19404",270.73062,79.74731,28.79041
"19405",270.74396,79.96216,28.997364
"19406",270.7573,80.18677,29.22079
"19407",270.77063,80.37476,29.414623
"19408",270.78397,80.48951,29.54108
"19409",270.7973,80.50904,29.575909
"19410",270.81064,80.42603,29.508808
"19411",270.82397,80.257576,29.353664
"19412",270.8373,80.01099,29.115124
"19413",270.85065,79.71313,28.817608
"19414",270.86398,79.381096,28.476612
"19415",270.87732,79.03441,28.110584
"19416",270.89066,78.68528,27.731281
"19417",270.904,78.34348,27.3484
"19418",270.91733,78.011444,26.964596
"19419",270.93066,77.696495,26.587505
"19420",270.944,77.3962,26.215227
"19421",270.95734,77.117874,25.85553
"19422",270.97067,76.86885,25.51644
"19423",270.984,76.65156,25.201298
"19424",270.99734,76.46601,24.911112
"19425",271.01068,76.3122,24.646866
"19426",271.02402,76.190125,24.409544
"19427",271.03735,76.09735,24.197712
"19428",271.0507,76.0412,24.019602
"19429",271.06403,76.02655,23.88124
"19430",271.07736,76.04852,23.779043
"19431",271.0907,76.09979,23.70683
"19432",271.10403,76.18036,23.665514
"19433",271.11737,76.282906,23.648697
"19434",271.1307,76.40009,23.649725
"19435",271.14404,76.52705,23.66418
"19436",271.15738,76.66132,23.689928
"19437",271.17072,76.79317,23.717438
"19438",271.18405,76.90791,23.73197
"19439",271.1974,77.00557,23.732998
"19440",271.21072,77.07881,23.712664
"19441",271.22406,77.13252,23.675087
"19442",271.2374,77.171585,23.62454
"19443",271.25073,77.20088,23.565449
"19444",271.26407,77.222855,23.499949
"19445",271.2774,77.23018,23.420486
"19446",271.29074,77.21553,23.31928
"19447",271.30408,77.20088,23.217617
"19448",271.3174,77.27169,23.200953
"19449",271.33075,77.611046,23.455048
"19450",271.3441,78.43137,24.20072
"19451",271.35742,79.835205,25.555532
"19452",271.37076,81.75418,27.469358
"19453",271.3841,83.95392,29.723915
"19454",271.39743,86.06821,31.961763
"19455",271.41077,87.74792,33.831104
"19456",271.4241,88.76845,35.093758
"19457",271.43744,89.10536,35.704685
"19458",271.45078,88.866104,35.74997
"19459",271.4641,88.20935,35.37028
"19460",271.47745,87.28161,34.69908
"19461",271.49078,86.219574,33.864597
"19462",271.50412,85.11604,32.95543
"19463",271.51746,84.04913,32.048397
"19464",271.5308,83.072556,31.198355
"19465",271.54413,82.22781,30.44963
"19466",271.55746,81.529564,29.821
"19467",271.5708,80.96559,29.304825
"19468",271.58414,80.516365,28.885773
"19469",271.59747,80.15503,28.540573
"19470",271.6108,79.87915,28.269539
"19471",271.62415,79.70336,28.089973
"19472",271.63748,79.65453,28.031876
"19473",271.65082,79.742424,28.10897
"19474",271.66415,79.96704,28.325539
"19475",271.6775,80.291756,28.649223
"19476",271.69083,80.66529,29.031876
"19477",271.70416,81.02907,29.416443
"19478",271.7175,81.32937,29.748901
"19479",271.73083,81.53445,29.995522
"19480",271.74417,81.62478,30.133804
"19481",271.7575,81.59548,30.155281
"19482",271.77084,81.45876,30.06842
"19483",271.78418,81.22926,29.884506
"19484",271.79752,80.936295,29.629951
"19485",271.81085,80.6067,29.329613
"19486",271.8242,80.26002,29.001892
"19487",271.83752,79.91333,28.66333
"19488",271.85086,79.57641,28.3237
"19489",271.8642,79.256584,27.990639
"19490",271.87753,78.95628,27.667107
"19491",271.89087,78.677956,27.356163
"19492",271.9042,78.4387,27.075592
"19493",271.91754,78.23605,26.824158
"19494",271.93088,78.065155,26.598137
"19495",271.9442,77.92111,26.393631
"19496",271.95755,77.803925,26.21148
"19497",271.9709,77.713585,26.052513
"19498",271.98422,77.65255,25.920027
"19499",271.99756,77.61349,25.807606
"19500",272.0109,77.593956,25.713495
"19501",272.02423,77.5964,25.640747
"19502",272.03757,77.61837,25.587606
"19503",272.0509,77.65499,25.5498
"19504",272.06424,77.71114,25.532671
"19505",272.07758,77.78439,25.534393
"19506",272.0909,77.857635,25.538399
"19507",272.10425,77.92111,25.534927
"19508",272.11758,77.97482,25.523674
"19509",272.13092,78.01633,25.501892
"19510",272.14426,78.04562,25.4692
"19511",272.1576,78.07004,25.43254
"19512",272.17093,78.08957,25.391762
"19513",272.18427,78.10422,25.34671
"19514",272.1976,78.12131,25.304558
"19515",272.21094,78.133514,25.258057
"19516",272.22427,78.14572,25.211937
"19517",272.2376,78.150604,25.158875
"19518",272.25095,78.150604,25.101082
"19519",272.26428,78.14572,25.038406
"19520",272.27762,78.204315,25.039055
"19521",272.29095,78.49729,25.275917
"19522",272.3043,79.24925,25.980919
"19523",272.31763,80.601814,27.31002
"19524",272.33096,82.547646,29.274658
"19525",272.3443,84.87923,31.685854
"19526",272.35764,87.24498,34.204082
"19527",272.37097,89.24696,36.432472
"19528",272.3843,90.58488,38.059353
"19529",272.39764,91.18059,38.98584
"19530",272.41098,91.11223,39.266876
"19531",272.42432,90.53605,39.037956
"19532",272.43765,89.62295,38.454105
"19533",272.451,88.514534,37.646408
"19534",272.46432,87.32311,36.721066
"19535",272.47766,86.1268,35.7536
"19536",272.491,84.99153,34.809795
"19537",272.50433,83.966125,33.940376
"19538",272.51767,83.08232,33.18051
"19539",272.531,82.34989,32.544403
"19540",272.54434,81.761505,32.02945
"19541",272.55768,81.28298,31.605972
"19542",272.571,80.88258,31.245667
"19543",272.58435,80.55543,30.94609
"19544",272.5977,80.308846,30.716866
"19545",272.61102,80.16235,30.580025
"19546",272.62436,80.14282,30.565567
"19547",272.6377,80.257576,30.684784
"19548",272.65103,80.482185,30.917442
"19549",272.66437,80.77028,31.220604
"19550",272.6777,81.06569,31.540085
"19551",272.69104,81.31716,31.82486
"19552",272.70438,81.48318,32.032036
"19553",272.7177,81.54665,32.14186
"19554",272.73105,81.497826,32.141365
"19555",272.7444,81.35134,32.041687
"19556",272.75772,81.12428,31.856857
"19557",272.77106,80.83864,31.606346
"19558",272.7844,80.51881,31.312721
"19559",272.79773,80.17456,30.984688
"19560",272.81107,79.82056,30.636139
"19561",272.8244,79.46166,30.271637
"19562",272.83774,79.10765,29.900803
"19563",272.85107,78.768295,29.533562
"19564",272.8644,78.45823,29.185005
"19565",272.87775,78.1799,28.858498
"19566",272.89108,77.93576,28.55748
"19567",272.90442,77.73556,28.29277
"19568",272.91776,77.56954,28.05599
"19569",272.9311,77.44015,27.850643
"19570",272.94443,77.34249,27.67299
"19571",272.95776,77.27169,27.519142
"19572",272.9711,77.22041,27.382605
"19573",272.98444,77.188675,27.264004
"19574",272.99777,77.17403,27.1615
"19575",273.0111,77.17891,27.078072
"19576",273.02444,77.205765,27.016768
"19577",273.03778,77.24971,26.973392
"19578",273.05112,77.30099,26.938723
"19579",273.06445,77.35714,26.91053
"19580",273.0778,77.40841,26.87921
"19581",273.09113,77.452354,26.842167
"19582",273.10446,77.49142,26.801615
"19583",273.1178,77.53292,26.764725
"19584",273.13113,77.56954,26.724249
"19585",273.14447,77.611046,26.6898
"19586",273.1578,77.659874,26.663973
"19587",273.17114,77.71114,26.642113
"19588",273.18448,77.75998,26.619421
"19589",273.1978,77.803925,26.593365
"19590",273.21115,77.84787,26.568684
"19591",273.2245,77.98215,26.635708
"19592",273.23782,78.416725,27.007229
"19593",273.25116,79.381096,27.922123
"19594",273.2645,80.99489,29.516575
"19595",273.27783,83.192184,31.74496
"19596",273.29117,85.714195,34.366726
"19597",273.3045,88.16785,36.998947
"19598",273.31784,90.1503,39.236645
"19599",273.33118,91.41497,40.818512
"19600",273.3445,91.92767,41.687935
"19601",273.35785,91.790955,41.923958
"19602",273.3712,91.17326,41.674736
"19603",273.38452,90.23819,41.08883
"19604",273.39786,89.12489,40.295475
"19605",273.4112,87.93591,39.391647
"19606",273.42453,86.746925,38.450657
"19607",273.43787,85.62142,37.535995
"19608",273.4512,84.60578,36.696026
"19609",273.46454,83.72686,35.961037
"19610",273.47787,82.99931,35.349953
"19611",273.4912,82.41093,34.855293
"19612",273.50455,81.92752,34.447227
"19613",273.51788,81.512474,34.092415
"19614",273.53122,81.15602,33.783226
"19615",273.54456,80.86061,33.52394
"19616",273.5579,80.6482,33.338425
"19617",273.57123,80.54322,33.2537
"19618",273.58456,80.56031,33.287766
"19619",273.5979,80.689705,33.43467
"19620",273.61124,80.89235,33.658867
"19621",273.62457,81.12184,33.916245
"19622",273.6379,81.33669,34.166153
"19623",273.65125,81.48806,34.35929
"19624",273.66458,81.54665,34.464386
"19625",273.67792,81.497826,34.46389
"19626",273.69125,81.3489,34.36177
"19627",273.7046,81.11452,34.16954
"19628",273.71793,80.814224,33.904076
"19629",273.73126,80.47242,33.587715
"19630",273.7446,80.1062,33.23626
"19631",273.75793,79.73266,32.866035
"19632",273.77127,79.361565,32.486588
"19633",273.7846,79.00023,32.1053
"19634",273.79794,78.66331,31.737137
"19635",273.81128,78.35813,31.39019
"19636",273.82462,78.08469,31.065437
"19637",273.83795,77.838104,30.759003
"19638",273.8513,77.61593,30.469269
"19639",273.86462,77.42306,30.201895
"19640",273.87796,77.25948,29.95779
"19641",273.8913,77.1252,29.737864
"19642",273.90463,77.02022,29.543045
"19643",273.91797,76.946976,29.376684
"19644",273.9313,76.89815,29.232449
"19645",273.94464,76.86153,29.098894
"19646",273.95798,76.839554,28.978844
"19647",273.9713,76.83467,28.875196
"19648",273.98465,76.85176,28.79337
"19649",273.998,76.8835,28.726725
"19650",274.01132,76.929886,28.67572
"19651",274.02466,76.98604,28.635931
"19652",274.038,77.04707,28.60278
"19653",274.05133,77.103226,28.566652
"19654",274.06467,77.15938,28.53228
"19655",274.078,77.205765,28.489897
"19656",274.09134,77.24483,28.441639
"19657",274.10468,77.27657,28.387285
"19658",274.118,77.30099,28.326591
"19659",274.13135,77.31808,28.259336
"19660",274.14468,77.33517,28.192616
"19661",274.15802,77.37667,28.150843
"19662",274.17136,77.56222,28.25441
"19663",274.1847,78.12131,28.737318
"19664",274.19803,79.2517,29.809002
"19665",274.21136,81.02663,31.560543
"19666",274.2247,83.33135,33.89735
"19667",274.23804,85.88022,36.55032
"19668",274.25137,88.28016,39.134018
"19669",274.2647,90.17471,41.287327
"19670",274.27805,91.37347,42.80404
"19671",274.29138,91.878845,43.66484
"19672",274.30472,91.79828,43.95549
"19673",274.31805,91.27093,43.796837
"19674",274.3314,90.43351,43.311638
"19675",274.34473,89.40566,42.609837
"19676",274.35806,88.29481,41.792908
"19677",274.3714,87.17906,40.936375
"19678",274.38474,86.12192,40.103577
"19679",274.39807,85.16243,39.3354
"19680",274.4114,84.32258,38.656876
"19681",274.42474,83.59991,38.069283
"19682",274.43808,82.97978,37.561653
"19683",274.45142,82.43778,37.11277
"19684",274.46475,81.96414,36.71531
"19685",274.4781,81.55642,36.368965
"19686",274.49142,81.234146,36.09533
"19687",274.50476,81.02907,35.928818
"19688",274.5181,80.96315,35.895058
"19689",274.53143,81.03151,35.993515
"19690",274.54477,81.20973,36.20397
"19691",274.5581,81.449,36.48104
"19692",274.57144,81.688255,36.76558
"19693",274.58478,81.883575,37.013657
"19694",274.5981,81.99344,37.18238
"19695",274.61145,82.00809,37.259323
"19696",274.6248,81.91531,37.2293
"19697",274.63812,81.72488,37.098717
"19698",274.65146,81.446556,36.8743
"19699",274.6648,81.10475,36.577698
"19700",274.67813,80.723885,36.231354
"19701",274.69147,80.325935,35.856026
"19702",274.7048,79.92798,35.468254
"19703",274.71814,79.53979,35.077812
"19704",274.73148,79.168686,34.69233
"19705",274.7448,78.81468,34.312347
"19706",274.75815,78.47532,33.935944
"19707",274.77148,78.16037,33.57335
"19708",274.78482,77.8674,33.222893
"19709",274.79816,77.60128,32.89013
"19710",274.8115,77.36202,32.575912
"19711",274.82483,77.15938,32.290833
"19712",274.83817,76.98604,32.028725
"19713",274.8515,76.841995,31.790495
"19714",274.86484,76.71992,31.569729
"19715",274.87817,76.62226,31.36957
"19716",274.8915,76.54902,31.190773
"19717",274.90485,76.490425,31.024336
"19718",274.91818,76.45136,30.875599
"19719",274.93152,76.42939,30.742731
"19720",274.94485,76.42451,30.626266
"19721",274.9582,76.42939,30.519415
"19722",274.97153,76.4416,30.42004
"19723",274.98486,76.46601,30.333254
"19724",274.9982,76.49775,30.254555
"19725",275.01154,76.53681,30.184172
"19726",275.02487,76.57343,30.112568
"19727",275.0382,76.60761,30.039667
"19728",275.05154,76.63203,29.958069
"19729",275.06488,76.65156,29.87235
"19730",275.07822,76.700386,29.81654
"19731",275.09155,76.925,29.938044
"19732",275.1049,77.52071,30.43766
"19733",275.11823,78.66575,31.505217
"19734",275.13156,80.4065,33.204273
"19735",275.1449,82.63554,35.44601
"19736",275.15823,85.09163,37.984463
"19737",275.17157,87.432976,40.484924
"19738",275.1849,89.34463,42.628857
"19739",275.19824,90.65568,44.231926
"19740",275.21158,91.34173,45.250965
"19741",275.2249,91.45403,45.717697
"19742",275.23825,91.09758,45.719185
"19743",275.2516,90.389565,45.35797
"19744",275.26492,89.44717,44.740246
"19745",275.27826,88.377815,43.966118
"19746",275.2916,87.2694,43.11951
"19747",275.30493,86.187836,42.265114
"19748",275.31827,85.17708,41.447727
"19749",275.3316,84.263985,40.69642
"19750",275.34494,83.441216,40.006897
"19751",275.35828,82.69413,39.367348
"19752",275.3716,82.01297,38.77038
"19753",275.38495,81.40261,38.222923
"19754",275.3983,80.88991,37.75405
"19755",275.41162,80.51392,37.405876
"19756",275.42496,80.306404,37.214417
"19757",275.4383,80.28687,37.20446
"19758",275.45163,80.44068,37.367233
"19759",275.46497,80.71168,37.652
"19760",275.4783,81.03395,37.996513
"19761",275.49164,81.339134,38.334007
"19762",275.50497,81.57107,38.607788
"19763",275.5183,81.685814,38.77163
"19764",275.53165,81.67605,38.814545
"19765",275.54498,81.54177,38.732643
"19766",275.55832,81.30007,38.539124
"19767",275.57166,80.96559,38.24527
"19768",275.585,80.56519,37.875046
"19769",275.59833,80.111084,37.4386
"19770",275.61166,79.63012,36.961105
"19771",275.625,79.13695,36.456375
"19772",275.63834,78.64622,35.938675
"19773",275.65167,78.167694,35.417847
"19774",275.665,77.71603,34.90892
"19775",275.67834,77.29366,34.415184
"19776",275.69168,76.912796,33.949745
"19777",275.70502,76.575874,33.51635
"19778",275.71835,76.27802,33.111496
"19779",275.7317,76.019226,32.73639
"19780",275.74503,75.792175,32.38494
"19781",275.75836,75.58953,32.050804
"19782",275.7717,75.41131,31.734755
"19783",275.78503,75.25506,31.435108
"19784",275.79837,75.11833,31.150103
"19785",275.8117,75.003586,30.882805
"19786",275.82504,74.90349,30.62657
"19787",275.83838,74.8156,30.379414
"19788",275.8517,74.74235,30.144152
"19789",275.86505,74.68864,29.92614
"19790",275.8784,74.65934,29.730862
"19791",275.89172,74.6569,29.561523
"19792",275.90506,74.67643,29.414082
"19793",275.9184,74.70817,29.279457
"19794",275.93173,74.74967,29.15559
"19795",275.94507,74.78874,29.030586
"19796",275.9584,74.82048,28.899473
"19797",275.97174,74.861984,28.779118
"19798",275.98508,75.03044,28.787012
"19799",275.9984,75.526054,29.127327
"19800",276.01175,76.56367,30.02513
"19801",276.0251,78.260475,31.614552
"19802",276.03842,80.56031,33.860027
"19803",276.05176,83.245895,36.56312
"19804",276.0651,85.96567,39.384327
"19805",276.07843,88.3534,41.95849
"19806",276.09177,90.15274,44.01887
"19807",276.1051,91.28069,45.464096
"19808",276.11844,91.756775,46.2927
"19809",276.13177,91.65667,46.559998
"19810",276.1451,91.10002,46.367622
"19811",276.15845,90.213776,45.828255
"19812",276.17178,89.112686,45.046345
"19813",276.18512,87.89929,44.11772
"19814",276.19846,86.64927,43.11455
"19815",276.2118,85.42855,42.101624
"19816",276.22513,84.266426,41.109142
"19817",276.23846,83.17998,40.15602
"19818",276.2518,82.178986,39.254402
"19819",276.26514,81.26101,38.40452
"19820",276.27847,80.44068,37.623596
"19821",276.2918,79.74731,36.943993
"19822",276.30515,79.22972,36.41851
"19823",276.31848,78.93431,36.09903
"19824",276.33182,78.8806,36.012016
"19825",276.34515,79.046616,36.14305
"19826",276.3585,79.38598,36.45262
"19827",276.37183,79.815674,36.86313
"19828",276.38516,80.2478,37.289497
"19829",276.3985,80.618904,37.668343
"19830",276.41183,80.88747,37.956245
"19831",276.42517,81.024185,38.120697
"19832",276.4385,81.01686,38.14538
"19833",276.45184,80.867935,38.02823
"19834",276.46518,80.59693,37.784348
"19835",276.47852,80.22095,37.427017
"19836",276.49185,79.764404,36.97738
"19837",276.5052,79.25414,36.459755
"19838",276.51852,78.7219,35.904205
"19839",276.53186,78.1799,35.322266
"19840",276.5452,77.645226,34.730713
"19841",276.55853,77.137405,34.149307
"19842",276.57187,76.65888,33.58133
"19843",276.5852,76.21698,33.03502
"19844",276.59854,75.809265,32.509087
"19845",276.61188,75.44549,32.01435
"19846",276.6252,75.12077,31.547308
"19847",276.63855,74.83757,31.11163
"19848",276.6519,74.59342,30.706156
"19849",276.66522,74.390785,30.334564
"19850",276.67856,74.22476,29.993252
"19851",276.6919,74.09537,29.68338
"19852",276.70523,74.00748,29.410969
"19853",276.71857,73.96597,29.182198
"19854",276.7319,73.95865,28.98631
"19855",276.74524,73.987946,28.826813
"19856",276.75858,74.04166,28.692646
"19857",276.7719,74.11734,28.58213
"19858",276.78525,74.20523,28.486187
"19859",276.79858,74.305336,28.405205
"19860",276.81192,74.41276,28.334667
"19861",276.82526,74.56657,28.313873
"19862",276.8386,74.90593,28.48344
"19863",276.85193,75.6701,29.088419
"19864",276.86526,77.0544,30.33741
"19865",276.8786,79.1223,32.313263
"19866",276.89194,81.77615,34.93969
"19867",276.90527,84.74738,37.966423
"19868",276.9186,87.64538,41.01277
"19869",276.93195,90.108795,43.715107
"19870",276.94528,91.92523,45.847443
"19871",276.95862,93.02632,47.321198
"19872",276.97195,93.436485,48.138435
"19873",276.9853,93.241165,48.363007
"19874",276.99863,92.56977,48.1054
"19875",277.01196,91.55413,47.482567
"19876",277.0253,90.31388,46.603386
"19877",277.03864,88.95888,45.57069
"19878",277.05197,87.572136,44.463913
"19879",277.0653,86.21225,43.340656
"19880",277.07864,84.92073,42.24327
"19881",277.09198,83.717094,41.19341
"19882",277.10532,82.60136,40.19383
"19883",277.11865,81.57839,39.252155
"19884",277.132,80.67017,38.39326
"19885",277.14532,79.91333,37.65736
"19886",277.15866,79.361565,37.102886
"19887",277.172,79.05882,36.780193
"19888",277.18533,79.01488,36.706837
"19889",277.19867,79.202866,36.86404
"19890",277.212,79.554436,37.1907
"19891",277.22534,79.97681,37.599148
"19892",277.23868,80.38941,38.01103
"19893",277.252,80.71412,38.347904
"19894",277.26535,80.91188,38.56798
"19895",277.2787,80.96071,38.645306
"19896",277.29202,80.86549,38.580112
"19897",277.30536,80.635994,38.37766
"19898",277.3187,80.291756,38.053295
"19899",277.33203,79.85718,37.627834
"19900",277.34537,79.34936,37.11555
"19901",277.3587,78.78783,36.533688
"19902",277.37204,78.19455,35.90253
"19903",277.38538,77.5964,35.24796
"19904",277.3987,77.00801,34.58446
"19905",277.41205,76.44404,33.92699
"19906",277.42538,75.90936,33.281193
"19907",277.43872,75.41619,32.660187
"19908",277.45206,74.96208,32.062836
"19909",277.4654,74.55192,31.495237
"19910",277.47873,74.1857,30.958767
"19911",277.49207,73.87564,30.46701
"19912",277.5054,73.61196,30.011944
"19913",277.51874,73.40688,29.607239
"19914",277.53207,73.2604,29.254719
"19915",277.5454,73.17494,28.958649
"19916",277.55875,73.13588,28.706303
"19917",277.57208,73.14809,28.504005
"19918",277.58542,73.199356,28.341152
"19919",277.59875,73.28481,28.214088
"19920",277.6121,73.392235,28.11166
"19921",277.62543,73.514305,28.027237
"19922",277.63876,73.633934,27.944187
"19923",277.6521,73.74624,27.857552
"19924",277.66544,73.882965,27.798847
"19925",277.67877,74.16861,27.893333
"19926",277.6921,74.83757,28.380062
"19927",277.70544,76.12421,29.505373
"19928",277.71878,78.133514,31.393562
"19929",277.73212,80.81178,34.013504
"19930",277.74545,83.9173,37.144386
"19931",277.7588,87.07164,40.421143
"19932",277.77213,89.881744,43.452236
"19933",277.78546,92.0766,45.955894
"19934",277.7988,93.53414,47.790833
"19935",277.81213,94.25193,48.931564
"19936",277.82547,94.29099,49.416
"19937",277.8388,93.768524,49.340126
"19938",277.85214,92.81636,48.81823
"19939",277.86548,91.56634,47.96872
"19940",277.8788,90.142975,46.906807
"19941",277.89215,88.639046,45.719845
"19942",277.9055,87.14,44.49077
"19943",277.91882,85.697105,43.271
"19944",277.93216,84.34699,42.098923
"19945",277.9455,83.09697,40.98474
"19946",277.95883,81.951935,39.936485
"19947",277.97217,80.92897,38.974518
"19948",277.9855,80.06958,38.144157
"19949",277.99884,79.42504,37.501793
"19950",278.01218,79.04173,37.100517
"19951",278.0255,78.92943,36.958267
"19952",278.03885,79.06859,37.063972
"19953",278.0522,79.38598,37.352257
"19954",278.06552,79.801025,37.748116
"19955",278.07886,80.218506,38.159378
"19956",278.0922,80.570076,38.517776
"19957",278.10553,80.8069,38.772415
"19958",278.11887,80.89723,38.887962
"19959",278.1322,80.8362,38.854965
"19960",278.14554,80.62623,38.671127
"19961",278.15887,80.28443,38.3489
"19962",278.1722,79.835205,37.90856
"19963",278.18555,79.29565,37.363853
"19964",278.19888,78.69016,36.73636
"19965",278.21222,78.04562,36.050888
"19966",278.22556,77.39376,35.33795
"19967",278.2389,76.754105,34.61685
"19968",278.25223,76.138855,33.90017
"19969",278.26556,75.56756,33.208214
"19970",278.2789,75.03288,32.535027
"19971",278.29224,74.53483,31.88175
"19972",278.30557,74.08316,31.259296
"19973",278.3189,73.687645,30.678879
"19974",278.33224,73.34341,30.137379
"19975",278.34558,73.06264,29.64859
"19976",278.35892,72.85756,29.226719
"19977",278.37225,72.72816,28.874115
"19978",278.3856,72.66468,28.583393
"19979",278.39893,72.66468,28.354164
"19980",278.41226,72.71839,28.178646
"19981",278.4256,72.81117,28.043877
"19982",278.43893,72.92836,27.936413
"19983",278.45227,73.057755,27.844818
"19984",278.4656,73.2018,27.771915
"19985",278.47894,73.44839,27.80606
"19986",278.49228,73.987946,28.14088
"19987",278.5056,75.05974,29.024796
"19988",278.51895,76.83467,30.645346
"19989",278.5323,79.32494,33.0367
"19990",278.54562,82.374306,36.06497
"19991",278.55896,85.645836,39.410694
"19992",278.5723,88.73914,42.680435
"19993",278.58563,91.31487,45.529263
"19994",278.59897,93.18501,47.75299
"19995",278.6123,94.29832,49.278328
"19996",278.62564,94.676735,50.10357
"19997",278.63898,94.40818,50.293663
"19998",278.6523,93.62203,49.95777
"19999",278.66565,92.472115,49.233543
"20000",278.679,91.08537,48.236557
"20001",278.69232,89.58633,47.08393
"20002",278.70566,88.07507,45.87225
"20003",278.719,86.61509,44.66461
"20004",278.73233,85.24544,43.501682
"20005",278.74567,83.96857,42.388733
"20006",278.759,82.791794,41.335976
"20007",278.77234,81.71999,40.351418
"20008",278.78568,80.78737,39.47254
"20009",278.799,80.0354,38.74518
"20010",278.81235,79.51049,38.221375
"20011",278.82568,79.24193,37.937515
"20012",278.83902,79.217514,37.889412
"20013",278.85236,79.398186,38.04563
"20014",278.8657,79.708244,38.336884
"20015",278.87903,80.062256,38.681778
"20016",278.89236,80.38453,39.005997
"20017",278.9057,80.61646,39.249947
"20018",278.91904,80.71412,39.366867
"20019",278.93237,80.655525,39.33059
"20020",278.9457,80.44312,39.13867
"20021",278.95905,80.08911,38.798508
"20022",278.97238,79.61547,38.327652
"20023",278.98572,79.04906,37.74922
"20024",278.99905,78.42405,37.094498
"20025",279.0124,77.769745,36.390945
"20026",279.02573,77.11543,35.66694
"20027",279.03906,76.47578,34.93714
"20028",279.0524,75.862976,34.21421
"20029",279.06573,75.2868,33.50875
"20030",279.07907,74.757,32.831673
"20031",279.0924,74.27848,32.189304
"20032",279.10574,73.85855,31.590576
"20033",279.11908,73.49966,31.03976
"20034",279.13242,73.2018,30.538765
"20035",279.14575,72.96254,30.087063
"20036",279.1591,72.78676,29.69136
"20037",279.17242,72.674446,29.353634
"20038",279.18576,72.62318,29.07344
"20039",279.1991,72.63294,28.85268
"20040",279.21243,72.68177,28.671288
"20041",279.22577,72.75746,28.518284
"20042",279.2391,72.84779,28.382286
"20043",279.25244,73.00893,28.319912
"20044",279.26578,73.39712,28.489632
"20045",279.2791,74.249176,29.13535
"20046",279.29245,75.76288,30.469337
"20047",279.3058,78.01633,32.590378
"20048",279.31912,80.91432,35.426384
"20049",279.33246,84.18097,38.721603
"20050",279.3458,87.43786,42.109146
"20051",279.35913,90.304115,45.207836
"20052",279.37247,92.52827,47.75399
"20053",279.3858,93.98825,49.605484
"20054",279.39914,94.676735,50.731102
"20055",279.41248,94.659645,51.17266
"20056",279.4258,94.05417,51.0253
"20057",279.43915,93.01167,50.421997
"20058",279.45248,91.68108,49.498024
"20059",279.46582,90.20889,48.39087
"20060",279.47916,88.70496,47.205967
"20061",279.4925,87.25231,46.025345
"20062",279.50583,85.8851,44.88477
"20063",279.51917,84.61555,43.799126
"20064",279.5325,83.424126,42.751938
"20065",279.54584,82.31327,41.748085
"20066",279.55917,81.307396,40.8145
"20067",279.5725,80.45533,40.00329
"20068",279.58585,79.80835,39.370537
"20069",279.59918,79.3933,38.9495
"20070",279.61252,79.20775,38.744987
"20071",279.62585,79.217514,38.729996
"20072",279.6392,79.364006,38.852036
"20073",279.65253,79.57641,39.044563
"20074",279.66586,79.78882,39.243736
"20075",279.6792,79.94751,39.39583
"20076",279.69254,80.008545,39.455223
"20077",279.70587,79.93286,39.379807
"20078",279.7192,79.71313,39.157974
"20079",279.73254,79.35668,38.792564
"20080",279.74588,78.88304,38.29882
"20081",279.75922,78.314186,37.69506
"20082",279.77255,77.68429,37.01248
"20083",279.7859,77.02754,36.28337
"20084",279.79922,76.36347,35.526413
"20085",279.81256,75.72137,34.770668
"20086",279.8259,75.11345,34.029045
"20087",279.83923,74.55192,33.314808
"20088",279.85257,74.03677,32.62941
"20089",279.8659,73.57778,31.984066
"20090",279.87924,73.179825,31.385414
"20091",279.89258,72.84535,30.83781
"20092",279.9059,72.57435,30.343224
"20093",279.91925,72.37415,29.910976
"20094",279.9326,72.23987,29.538383
"20095",279.94592,72.1593,29.215313
"20096",279.95926,72.13489,28.945877
"20097",279.9726,72.1593,28.724506
"20098",279.98593,72.217896,28.538078
"20099",279.99927,72.29359,28.370579
"20100",280.0126,72.379036,28.215202
"20101",280.02594,72.49622,28.094234
"20102",280.03928,72.77211,28.135628
"20103",280.0526,73.42397,28.561619
"20104",280.06595,74.683754,29.615898
"20105",280.07928,76.68818,31.45419
"20106",280.09262,79.415276,34.077793
"20107",280.10596,82.65995,37.304195
"20108",280.1193,86.06088,40.78825
"20109",280.13263,89.215225,44.131996
"20110",280.14597,91.79828,47.003025
"20111",280.1593,93.62203,49.195473
"20112",280.17264,94.62791,50.627037
"20113",280.18597,94.85741,51.31366
"20114",280.1993,94.42771,51.34826
"20115",280.21265,93.504845,50.87626
"20116",280.22598,92.25239,50.04583
"20117",280.23932,90.83147,49.007797
"20118",280.25266,89.3666,47.881416
"20119",280.266,87.94812,46.755642
"20120",280.27933,86.61753,45.67343
"20121",280.29266,85.38705,44.649746
"20122",280.306,84.244446,43.67549
"20123",280.31934,83.177536,42.74122
"20124",280.33267,82.18875,41.85173
"20125",280.346,81.304955,41.03633
"20126",280.35934,80.570076,40.34223
"20127",280.37268,80.0354,39.82537
"20128",280.38602,79.72289,39.51397
"20129",280.39935,79.61303,39.395447
"20130",280.4127,79.66918,39.439507
"20131",280.42603,79.83032,39.59031
"20132",280.43936,80.025635,39.78032
"20133",280.4527,80.177,39.932487
"20134",280.46603,80.23804,39.999054
"20135",280.47937,80.17212,39.940575
"20136",280.4927,79.96216,39.735992
"20137",280.50604,79.603264,39.375916
"20138",280.51938,79.11253,38.872787
"20139",280.5327,78.519264,38.251785
"20140",280.54605,77.855194,37.541443
"20141",280.5594,77.152054,36.77128
"20142",280.57272,76.4416,35.971825
"20143",280.58606,75.74578,35.16481
"20144",280.5994,75.08659,34.37268
"20145",280.61273,74.46891,33.60145
"20146",280.62607,73.9025,32.86219
"20147",280.6394,73.39468,32.163822
"20148",280.65274,72.952774,31.515503
"20149",280.66608,72.57679,30.919292
"20150",280.6794,72.271614,30.382141
"20151",280.69275,72.047,29.916012
"20152",280.7061,71.902954,29.523438
"20153",280.71942,71.83215,29.199604
"20154",280.73276,71.82971,28.941917
"20155",280.7461,71.88098,28.737865
"20156",280.75943,71.973755,28.57692
"20157",280.77277,72.09827,28.450611
"20158",280.7861,72.23987,28.345284
"20159",280.79944,72.393684,28.256596
"20160",280.81277,72.535286,28.1605
"20161",280.8261,72.674446,28.066387
"20162",280.83945,72.89174,28.054756
"20163",280.85278,73.375145,28.316029
"20164",280.86612,74.38834,29.1222
"20165",280.87946,76.14862,30.707111
"20166",280.8928,78.73167,33.1698
"20167",280.90613,82.01785,36.41635
"20168",280.91946,85.697105,40.15866
"20169",280.9328,89.31777,43.957363
"20170",280.94614,92.45991,47.39068
"20171",280.95947,94.837875,50.15802
"20172",280.9728,96.31739,52.10122
"20173",280.98615,96.903336,53.197083
"20174",280.99948,96.708015,53.52999
"20175",281.01282,95.90234,53.246445
"20176",281.02615,94.67918,52.520226
"20177",281.0395,93.22652,51.52629
"20178",281.05283,91.700615,50.41372
"20179",281.06616,90.21622,49.294968
"20180",281.0795,88.83925,48.237255
"20181",281.09283,87.57702,47.25125
"20182",281.10617,86.40513,46.316143
"20183",281.1195,85.28451,45.395683
"20184",281.13284,84.19318,44.469494
"20185",281.14618,83.140915,43.54827
"20186",281.15952,82.16678,42.672287
"20187",281.17285,81.322044,41.895264
"20188",281.1862,80.65064,41.265175
"20189",281.19952,80.16724,40.8021
"20190",281.21286,79.85474,40.494827
"20191",281.2262,79.674065,40.309616
"20192",281.23953,79.57397,40.199333
"20193",281.25287,79.49584,40.107895
"20194",281.2662,79.39086,39.98716
"20195",281.27954,79.202866,39.78013
"20196",281.29288,78.907455,39.45981
"20197",281.3062,78.49729,39.015503
"20198",281.31955,77.977264,38.448517
"20199",281.3329,77.366905,37.77495
"20200",281.34622,76.6955,37.021263
"20201",281.35956,75.98749,36.209984
"20202",281.3729,75.264824,35.36193
"20203",281.38623,74.55436,34.503494
"20204",281.39957,73.8732,33.652157
"20205",281.4129,73.23842,32.825912
"20206",281.42624,72.66956,32.045757
"20207",281.43958,72.17151,31.318626
"20208",281.4529,71.75403,30.656506
"20209",281.46625,71.40734,30.052132
"20210",281.47958,71.133896,29.510166
"20211",281.49292,70.92638,29.025581
"20212",281.50626,70.77501,28.590664
"20213",281.5196,70.67979,28.20716
"20214",281.53293,70.640724,27.876842
"20215",281.54626,70.65537,27.599014
"20216",281.5596,70.711525,27.363148
"20217",281.57294,70.79942,27.160782
"20218",281.58627,70.91417,26.98801
"20219",281.5996,71.046005,26.835915
"20220",281.61295,71.19005,26.700146
"20221",281.62628,71.34142,26.57621
"20222",281.63962,71.49767,26.46188
"20223",281.65295,71.658806,26.357315
"20224",281.6663,71.817505,26.255352
"20225",281.67963,71.95911,26.14125
"20226",281.69296,72.07141,26.002277
"20227",281.7063,72.164185,25.847282
"20228",281.71964,72.325325,25.763554
"20229",281.73297,72.7599,25.958298
"20230",281.7463,73.760895,26.733036
"20231",281.75964,75.58709,28.364258
"20232",281.77298,78.348366,30.98763
"20233",281.78632,81.92508,34.51273
"20234",281.79965,85.977875,38.625683
"20235",281.813,90.01846,42.85308
"20236",281.82632,93.56344,46.711132
"20237",281.83966,96.273445,49.844997
"20238",281.853,97.99222,52.072315
"20239",281.86633,98.71488,53.357235
"20240",281.87967,98.5684,53.795593
"20241",281.893,97.738304,53.54576
"20242",281.90634,96.4419,52.80368
"20243",281.91968,94.889145,51.764732
"20244",281.933,93.24849,50.589363
"20245",281.94635,91.65911,49.414
"20246",281.9597,90.179596,48.298836
"20247",281.97302,88.83681,47.27416
"20248",281.98636,87.60143,46.314934
"20249",281.9997,86.434425,45.38547
"20250",282.01303,85.30404,44.45616
"20251",282.02637,84.21515,43.533024
"20252",282.0397,83.192184,42.641785
"20253",282.05304,82.27909,41.828445
"20254",282.06638,81.514915,41.13549
"20255",282.0797,80.92897,40.596886
"20256",282.09305,80.516365,40.21331
"20257",282.10638,80.24536,39.958443
"20258",282.11972,80.06958,39.79033
"20259",282.13306,79.923096,39.64602
"20260",282.1464,79.7522,39.472717
"20261",282.15973,79.51049,39.223267
"20262",282.17307,79.166245,38.863724
"20263",282.1864,78.712135,38.38356
"20264",282.19974,78.16281,37.79399
"20265",282.21307,77.5256,37.099365
"20266",282.2264,76.82979,36.326233
"20267",282.23975,76.09247,35.489845
"20268",282.25308,75.34295,34.618217
"20269",282.26642,74.60807,33.73781
"20270",282.27975,73.917145,32.878384
"20271",282.2931,73.28237,32.05352
"20272",282.30643,72.71839,31.279613
"20273",282.31976,72.22522,30.558891
"20274",282.3331,71.8053,29.896008
"20275",282.34644,71.448845,29.28347
"20276",282.35977,71.15587,28.72327
"20277",282.3731,70.93126,28.222282
"20278",282.38644,70.77501,27.782635
"20279",282.39978,70.68711,27.406456
"20280",282.41312,70.65049,27.078808
"20281",282.42645,70.660255,26.796402
"20282",282.4398,70.70908,26.553364
"20283",282.45312,70.78722,26.341156
"20284",282.46646,70.88487,26.150913
"20285",282.4798,70.994736,25.97593
"20286",282.49313,71.11192,25.811703
"20287",282.50647,71.22667,25.648697
"20288",282.5198,71.3341,25.48196
"20289",282.53314,71.42443,25.301483
"20290",282.54648,71.49767,25.106739
"20291",282.5598,71.56115,24.904518
"20292",282.57315,71.61242,24.692074
"20293",282.5865,71.66369,24.481232
"20294",282.59982,71.71252,24.26955
"20295",282.61316,71.766235,24.064285
"20296",282.6265,71.82483,23.865574
"20297",282.63983,71.888306,23.673576
"20298",282.65317,71.95911,23.490887
"20299",282.6665,72.03235,23.31285
"20300",282.67984,72.10803,23.139545
"20301",282.69318,72.18616,22.971046
"20302",282.7065,72.25941,22.800114
"20303",282.71985,72.31312,22.61193
"20304",282.7332,72.342415,22.401012
"20305",282.74652,72.379036,22.198334
"20306",282.75986,72.59388,22.175022
"20307",282.7732,73.30923,22.658928
"20308",282.78653,74.85954,24.000156
"20309",282.79987,77.4255,26.405474
"20310",282.8132,80.96803,29.867554
"20311",282.82654,85.19905,34.128822
"20312",282.83987,89.618065,38.710308
"20313",282.8532,93.678185,43.07099
"20314",282.86655,96.96681,46.787064
"20315",282.87988,99.27886,49.629326
"20316",282.89322,100.558174,51.5111
"20317",282.90656,100.86336,52.458725
"20318",282.9199,100.34333,52.590675
"20319",282.93323,99.19829,52.08136
"20320",282.94656,97.63821,51.121223
"20321",282.9599,95.86084,49.89505
"20322",282.97324,94.03464,48.5645
"20323",282.98657,92.2768,47.245247
"20324",282.9999,90.65812,46.010216
"20325",283.01324,89.195694,44.880856
"20326",283.02658,87.869995,43.84252
"20327",283.03992,86.65659,42.875057
"20328",283.05325,85.54574,41.97222
"20329",283.0666,84.54719,41.146976
"20330",283.07993,83.69268,40.43457
"20331",283.09326,83.0164,39.873688
"20332",283.1066,82.52567,39.47722
"20333",283.11993,82.2034,39.23387
"20334",283.13327,82.005646,39.104973
"20335",283.1466,81.87625,39.038254
"20336",283.15994,81.75418,38.974815
"20337",283.17328,81.58572,38.861168
"20338",283.1866,81.339134,38.66414
"20339",283.19995,80.990005,38.356857
"20340",283.2133,80.53101,37.928802
"20341",283.22662,79.98169,37.396072
"20342",283.23996,79.35424,36.76805
"20343",283.2533,78.67307,36.066704
"20344",283.26663,77.95529,35.307457
"20345",283.27997,77.225296,34.513565
"20346",283.2933,76.50263,33.704193
"20347",283.30664,75.81171,32.903976
"20348",283.31998,75.174484,32.13587
"20349",283.3333,74.60319,31.413778
"20350",283.34665,74.10025,30.742191
"20351",283.36,73.66567,30.123245
"20352",283.37332,73.29702,29.556644
"20353",283.38666,72.98451,29.034668
"20354",283.4,72.7306,28.56152
"20355",283.41333,72.52796,28.131714
"20356",283.42667,72.376595,27.746845
"20357",283.44,72.26429,27.396309
"20358",283.45334,72.19104,27.081318
"20359",283.46667,72.15442,26.800667
"20360",283.48,72.15442,26.555492
"20361",283.49335,72.17639,26.33229
"20362",283.50668,72.22278,26.13419
"20363",283.52002,72.28626,25.954636
"20364",283.53336,72.361946,25.789265
"20365",283.5467,72.44251,25.631142
"20366",283.56003,72.535286,25.487743
"20367",283.57336,72.62806,25.347244
"20368",283.5867,72.71351,25.20232
"20369",283.60004,72.79164,25.05275
"20370",283.61337,72.86,24.895847
"20371",283.6267,72.92348,24.736198
"20372",283.64005,72.97475,24.566326
"20373",283.65338,73.02113,24.393173
"20374",283.66672,73.06508,24.219028
"20375",283.68005,73.10658,24.043816
"20376",283.6934,73.15053,23.872341
"20377",283.70673,73.19447,23.70224
"20378",283.72006,73.25063,23.545727
"20379",283.7334,73.321434,23.40561
"20380",283.74673,73.402,23.27747
"20381",283.76007,73.494774,23.164055
"20382",283.7734,73.58999,23.05598
"20383",283.78674,73.68032,22.946
"20384",283.80008,73.75601,22.8242
"20385",283.81342,73.83658,22.70964
"20386",283.82675,74.06851,22.748966
"20387",283.8401,74.74479,23.239883
"20388",283.85342,76.1828,24.513668
"20389",283.86676,78.572975,26.784555
"20390",283.8801,81.88602,30.053003
"20391",283.89343,85.86557,34.091496
"20392",283.90677,90.05264,38.46187
"20393",283.9201,93.924774,42.648144
"20394",283.93344,97.076675,46.235195
"20395",283.94678,99.29595,48.988117
"20396",283.9601,100.523994,50.81916
"20397",283.97345,100.80965,51.746185
"20398",283.9868,100.27009,51.856926
"20399",284.00012,99.09331,51.313583
"20400",284.01346,97.47219,50.28913
"20401",284.0268,95.5996,48.962547
"20402",284.04013,93.6318,47.48223
"20403",284.05347,91.70306,45.979485
"20404",284.0668,89.884186,44.526337
"20405",284.08014,88.20691,43.15794
"20406",284.09348,86.68589,41.893387
"20407",284.1068,85.32845,40.744884
"20408",284.12015,84.14679,39.729736
"20409",284.13348,83.18486,38.897392
"20410",284.14682,82.48661,38.298668
"20411",284.16016,82.06668,37.956444
"20412",284.1735,81.90799,37.862335
"20413",284.18683,81.95926,37.97323
"20414",284.20016,82.13992,38.21512
"20415",284.2135,82.36942,38.51149
"20416",284.22684,82.579384,38.795494
"20417",284.24017,82.69901,38.995728
"20418",284.2535,82.686806,39.067863
"20419",284.26685,82.513466,38.978485
"20420",284.28018,82.176544,38.720108
"20421",284.29352,81.685814,38.297394
"20422",284.30685,81.07057,37.734833
"20423",284.3202,80.35767,37.05539
"20424",284.33353,79.57885,36.287743
"20425",284.34686,78.77074,35.46647
"20426",284.3602,77.95529,34.61261
"20427",284.37354,77.16914,33.762566
"20428",284.38687,76.42451,32.929466
"20429",284.4002,75.7409,32.134125
"20430",284.41354,75.12077,31.380903
"20431",284.42688,74.57389,30.681545
"20432",284.44022,74.092926,30.031013
"20433",284.45355,73.6852,29.438694
"20434",284.4669,73.34585,28.902
"20435",284.48022,73.07973,28.427937
"20436",284.49356,72.87709,28.00904
"20437",284.5069,72.73792,27.647282
"20438",284.52023,72.65247,27.334892
"20439",284.53357,72.61341,27.06622
"20440",284.5469,72.620735,26.842712
"20441",284.56024,72.6598,26.651173
"20442",284.57358,72.72816,26.49015
"20443",284.5869,72.813614,26.348362
"20444",284.60025,72.90883,26.219002
"20445",284.6136,73.00404,26.092617
"20446",284.62692,73.091934,25.961884
"20447",284.64026,73.16518,25.819248
"20448",284.6536,73.231094,25.671577
"20449",284.66693,73.287254,25.516209
"20450",284.68027,73.33364,25.352821
"20451",284.6936,73.36782,25.178677
"20452",284.70694,73.392235,24.995834
"20453",284.72028,73.411766,24.808872
"20454",284.7336,73.42153,24.612755
"20455",284.74695,73.4313,24.416943
"20456",284.76028,73.43862,24.218994
"20457",284.77362,73.445946,24.021275
"20458",284.78696,73.44839,23.818901
"20459",284.8003,73.43862,23.604397
"20460",284.81363,73.40444,23.365173
"20461",284.82697,73.35073,23.10535
"20462",284.8403,73.3605,22.907326
"20463",284.85364,73.70229,23.041637
"20464",284.86697,74.75456,23.897102
"20465",284.8803,76.81758,25.796202
"20466",284.89365,79.94995,28.82912
"20467",284.90698,83.95392,32.831524
"20468",284.92032,88.39002,37.39119
"20469",284.93365,92.68696,41.950314
"20470",284.947,96.324715,45.984535
"20471",284.96033,99.03227,49.20224
"20472",284.97366,100.731514,51.49624
"20473",284.987,101.434654,52.847237
"20474",285.00034,101.239334,53.321747
"20475",285.01367,100.29694,53.043083
"20476",285.027,98.793015,52.17343
"20477",285.04034,96.91554,50.88324
"20478",285.05368,94.84032,49.336624
"20479",285.06702,92.716255,47.676323
"20480",285.08035,90.65568,46.01313
"20481",285.0937,88.71961,44.410053
"20482",285.10703,86.94469,42.907616
"20483",285.12036,85.333336,41.513287
"20484",285.1337,83.895325,40.241943
"20485",285.14703,82.66483,39.13318
"20486",285.16037,81.67361,38.225227
"20487",285.1737,80.9778,37.58172
"20488",285.18704,80.59693,37.231407
"20489",285.20038,80.533455,37.186584
"20490",285.2137,80.719,37.3888
"20491",285.22705,81.06569,37.757957
"20492",285.2404,81.46609,38.191658
"20493",285.25372,81.829865,38.60125
"20494",285.26706,82.07645,38.905014
"20495",285.2804,82.15457,39.048027
"20496",285.29373,82.04959,39.010376
"20497",285.30707,81.75418,38.779015
"20498",285.3204,81.2781,38.35775
"20499",285.33374,80.655525,37.775116
"20500",285.34708,79.91333,37.053406
"20501",285.3604,79.09056,36.22793
"20502",285.37375,78.221405,35.330353
"20503",285.3871,77.34005,34.393417
"20504",285.40042,76.46601,33.436256
"20505",285.41376,75.62371,32.48352
"20506",285.4271,74.830246,31.553297
"20507",285.44043,74.10513,30.66663
"20508",285.45377,73.45571,29.832993
"20509",285.4671,72.884415,29.057186
"20510",285.48044,72.396126,28.346535
"20511",285.49377,71.99817,27.710957
"20512",285.5071,71.68566,27.148392
"20513",285.52045,71.45861,26.661518
"20514",285.53378,71.309685,26.245674
"20515",285.54712,71.236435,25.900852
"20516",285.56046,71.22911,25.619667
"20517",285.5738,71.27306,25.38953
"20518",285.58713,71.360954,25.204704
"20519",285.60046,71.483025,25.056805
"20520",285.6138,71.622185,24.92981
"20521",285.62714,71.77112,24.816936
"20522",285.64047,71.92493,24.713593
"20523",285.6538,72.07141,24.60773
"20524",285.66714,72.20813,24.496681
"20525",285.68048,72.33265,24.377705
"20526",285.69382,72.444954,24.250404
"20527",285.70715,72.54261,24.111965
"20528",285.7205,72.62562,23.96193
"20529",285.73383,72.7013,23.807163
"20530",285.74716,72.77211,23.649887
"20531",285.7605,72.83803,23.489933
"20532",285.77383,72.89906,23.327156
"20533",285.78717,72.96254,23.168728
"20534",285.8005,73.02113,23.0074
"20535",285.81384,73.057755,22.825932
"20536",285.82718,73.06508,22.61631
"20537",285.8405,73.10658,22.441097
"20538",285.85385,73.43862,22.557716
"20539",285.8672,74.459145,23.373196
"20540",285.88052,76.507515,25.248413
"20541",285.89386,79.66674,28.298498
"20542",285.9072,83.7293,32.350647
"20543",285.92053,88.24597,36.983856
"20544",285.93387,92.60151,41.59708
"20545",285.9472,96.256355,45.64572
"20546",285.96054,98.91753,48.814903
"20547",285.97388,100.53376,51.02231
"20548",285.9872,101.153885,52.28411
"20549",286.00055,100.88045,52.67173
"20550",286.0139,99.862366,52.30616
"20551",286.02722,98.27787,51.34236
"20552",286.04056,96.307625,49.9433
"20553",286.0539,94.115204,48.26049
"20554",286.06723,91.8349,46.421288
"20555",286.08057,89.57168,44.52791
"20556",286.0939,87.39147,42.646816
"20557",286.10724,85.34066,40.82699
"20558",286.12057,83.43389,39.087116
"20559",286.1339,81.70779,37.46832
"20560",286.14725,80.22095,36.034847
"20561",286.16058,79.063705,34.88451
"20562",286.17392,78.32151,34.113056
"20563",286.18726,78.048065,33.78716
"20564",286.2006,78.22873,33.906826
"20565",286.21393,78.77318,34.395924
"20566",286.22726,79.53002,35.11443
"20567",286.2406,80.33814,35.907864
"20568",286.25394,81.06813,36.64842
"20569",286.26727,81.62966,37.24333
"20570",286.2806,81.97635,37.64094
"20571",286.29395,82.08377,37.810123
"20572",286.30728,81.9617,37.75317
"20573",286.32062,81.617455,37.470226
"20574",286.33395,81.08034,36.983654
"20575",286.3473,80.38209,36.319164
"20576",286.36063,79.5642,35.513218
"20577",286.37396,78.66331,34.598705
"20578",286.3873,77.70626,33.599888
"20579",286.40063,76.732124,32.554073
"20580",286.41397,75.775085,31.494913
"20581",286.4273,74.85222,30.440018
"20582",286.44064,73.98306,29.409994
"20583",286.45398,73.18715,28.426052
"20584",286.46732,72.47913,27.505135
"20585",286.48065,71.85657,26.647541
"20586",286.494,71.329216,25.865707
"20587",286.50732,70.90196,25.167492
"20588",286.52066,70.57481,24.556023
"20589",286.534,70.345314,24.031994
"20590",286.54733,70.20859,23.59356
"20591",286.56067,70.16708,23.246075
"20592",286.574,70.203705,22.975418
"20593",286.58734,70.31602,22.781597
"20594",286.60068,70.48936,22.652313
"20595",286.614,70.711525,22.577274
"20596",286.62735,70.963,22.538483
"20597",286.6407,71.24376,22.536839
"20598",286.65402,71.536736,22.556183
"20599",286.66736,71.82239,22.577358
"20600",286.6807,72.09338,22.592804
"20601",286.69403,72.33753,22.58987
"20602",286.70737,72.552376,22.565262
"20603",286.7207,72.73792,22.51807
"20604",286.73404,72.901505,22.454712
"20605",286.74738,73.05531,22.386692
"20606",286.7607,73.2018,22.316154
"20607",286.77405,73.33364,22.235554
"20608",286.78738,73.43618,22.129768
"20609",286.80072,73.497215,21.985683
"20610",286.81406,73.51675,21.802002
"20611",286.8274,73.585106,21.667759
"20612",286.84073,74.019684,21.90187
"20613",286.85406,75.29168,22.98698
"20614",286.8674,77.72823,25.2764
"20615",286.88074,81.33181,28.808983
"20616",286.89407,85.78012,33.298912
"20617",286.9074,90.51652,38.21594
"20618",286.92075,94.86473,42.89279
"20619",286.93408,98.29252,46.785103
"20620",286.94742,100.59968,49.663902
"20621",286.96075,101.85214,51.560104
"20622",286.9741,102.17197,52.56281
"20623",286.98743,101.67635,52.76007
"20624",287.00076,100.509346,52.270447
"20625",287.0141,98.83208,51.234093
"20626",287.02744,96.798355,49.78887
"20627",287.04077,94.54246,48.057922
"20628",287.0541,92.174255,46.144173
"20629",287.06744,89.78165,44.13201
"20630",287.08078,87.432976,42.089016
"20631",287.09412,85.16731,40.055634
"20632",287.10745,83.02373,38.07353
"20633",287.1208,81.05592,36.200214
"20634",287.13412,79.34203,34.51932
"20635",287.14746,78.00412,33.160847
"20636",287.1608,77.16914,32.2635
"20637",287.17413,76.94209,31.947985
"20638",287.18747,77.332726,32.243057
"20639",287.2008,78.23605,33.063034
"20640",287.21414,79.449455,34.221313
"20641",287.22748,80.73853,35.493187
"20642",287.2408,81.89334,36.671074
"20643",287.25415,82.774704,37.611603
"20644",287.2675,83.33868,38.262283
"20645",287.28082,83.580376,38.608315
"20646",287.29416,83.53399,38.673813
"20647",287.3075,83.23125,38.481506
"20648",287.32083,82.703896,38.05513
"20649",287.33417,81.98123,37.41696
"20650",287.3475,81.10719,36.604836
"20651",287.36084,80.11841,35.65065
"20652",287.37418,79.05882,34.594765
"20653",287.3875,77.96994,33.47647
"20654",287.40085,76.88838,32.331474
"20655",287.41418,75.84833,31.194181
