"","Time..s.","PPG.trace","Preprocessed.PPG"
"6501",97.58593,74.28092,73.36297
"6502",97.599266,73.74868,72.65201
"6503",97.6126,73.29946,72.00744
"6504",97.62594,72.93324,71.43183
"6505",97.639275,72.64271,70.92046
"6506",97.65261,72.413216,70.46106
"6507",97.66595,72.22766,70.03842
"6508",97.67928,72.07141,69.63928
"6509",97.69262,71.94202,69.262115
"6510",97.705956,71.82483,68.89311
"6511",97.71929,71.71984,68.53265
"6512",97.73263,71.639275,68.19333
"6513",97.745964,71.64416,67.936935
"6514",97.7593,71.88342,67.915085
"6515",97.77264,72.60853,68.38655
"6516",97.78597,74.073395,69.62044
"6517",97.79931,76.41474,71.77658
"6518",97.812645,79.554436,74.80424
"6519",97.82598,83.211716,78.44759
"6520",97.83932,86.94469,82.28093
"6521",97.85265,90.29191,85.84517
"6522",97.86599,92.894485,88.76937
"6523",97.879326,94.5864,90.86424
"6524",97.89266,95.35546,92.08913
"6525",97.906,95.29687,92.51039
"6526",97.919334,94.55955,92.2511
"6527",97.93267,93.31686,91.463394
"6528",97.94601,91.737236,90.29993
"6529",97.95934,89.94522,88.8747
"6530",97.97268,88.01892,87.25919
"6531",97.986015,86.00473,85.49559
"6532",97.99935,83.93927,83.617775
"6533",98.01269,81.90555,81.70715
"6534",98.026024,80.03784,79.898994
"6535",98.03936,78.49973,78.36207
"6536",98.0527,77.43282,77.248276
"6537",98.06603,76.91524,76.65047
"6538",98.07937,76.92012,76.55895
"6539",98.092705,77.33761,76.880196
"6540",98.10604,77.98703,77.44642
"6541",98.11938,78.692604,78.08909
"6542",98.13271,79.31762,78.67325
"6543",98.14605,79.766846,79.10115
"6544",98.159386,79.991455,79.318474
"6545",98.17272,79.98169,79.30844
"6546",98.18606,79.75952,79.0857
"6547",98.199394,79.36645,78.68511
"6548",98.21273,78.84642,78.14529
"6549",98.22607,78.24094,77.50375
"6550",98.2394,77.591515,76.79936
"6551",98.25274,76.927444,76.06003
"6552",98.266075,76.282906,75.31947
"6553",98.27941,75.67498,74.59539
"6554",98.29275,75.125656,73.91091
"6555",98.30608,74.63737,73.2703
"6556",98.31942,74.212555,72.67791
"6557",98.332756,73.83414,72.11864
"6558",98.34609,73.497215,71.589035
"6559",98.35943,73.196915,71.085526
"6560",98.372765,72.93324,70.60926
"6561",98.3861,72.708626,70.16381
"6562",98.39944,72.52552,69.75285
"6563",98.41277,72.38636,69.38011
"6564",98.42611,72.318,69.07382
"6565",98.439445,72.4181,68.93385
"6566",98.45278,72.901505,69.18033
"6567",98.46612,74.02945,70.08645
"6568",98.479454,75.98993,71.86035
"6569",98.49279,78.78783,74.532936
"6570",98.50613,82.22781,77.93504
"6571",98.51946,85.924164,81.70101
"6572",98.5328,89.40566,85.36764
"6573",98.546135,92.2768,88.53271
"6574",98.55947,94.295876,90.93543
"6575",98.57281,95.39941,92.48571
"6576",98.58614,95.638664,93.2062
"6577",98.59948,95.13817,93.19441
"6578",98.612816,94.07126,92.60057
"6579",98.62615,92.59907,91.56811
"6580",98.63949,90.86809,90.23085
"6581",98.652824,88.971085,88.67348
"6582",98.66616,86.96422,86.94696
"6583",98.6795,84.88655,85.08692
"6584",98.69283,82.811325,83.1644
"6585",98.70617,80.85573,81.29665
"6586",98.719505,79.18089,79.64856
"6587",98.73284,77.94064,78.38271
"6588",98.74618,77.2375,77.61522
"6589",98.759514,77.07637,77.36776
"6590",98.77285,77.36202,77.56205
"6591",98.78619,77.93576,78.05335
"6592",98.79952,78.6096,78.66268
"6593",98.81286,79.234604,79.24424
"6594",98.826195,79.708244,79.69396
"6595",98.83953,79.974365,79.950966
"6596",98.85287,80.01343,79.98923
"6597",98.8662,79.84497,79.82119
"6598",98.87954,79.500725,79.4721
"6599",98.892876,79.012436,78.96821
"6600",98.90621,78.42649,78.3514
"6601",98.91955,77.786835,77.662575
"6602",98.932884,77.134964,76.94154
"6603",98.94622,76.50019,76.21724
"6604",98.95956,75.90204,75.50972
"6605",98.97289,75.35027,74.829895
"6606",98.98623,74.85222,74.18654
"6607",98.999565,74.407875,73.58133
"6608",99.0129,74.01724,73.015945
"6609",99.02624,73.6852,72.49695
"6610",99.03957,73.40444,72.01885
"6611",99.05291,73.17006,71.57836
"6612",99.066246,72.97719,71.17206
"6613",99.07958,72.80873,70.78414
"6614",99.09292,72.67933,70.430016
"6615",99.106255,72.62562,70.14754
"6616",99.11959,72.77699,70.06847
"6617",99.13293,73.36782,70.43358
"6618",99.14626,74.67887,71.53738
"6619",99.1596,76.876175,73.5684
"6620",99.172935,79.937744,76.53235
"6621",99.18627,83.62432,80.21698
"6622",99.19961,87.50866,84.21458
"6623",99.212944,91.10246,88.04303
"6624",99.22628,93.99802,91.28554
"6625",99.23962,95.98291,93.70787
"6626",99.25295,97.005875,95.2303
"6627",99.26629,97.145035,95.900894
"6628",99.279625,96.53956,95.8312
"6629",99.29296,95.38232,95.19082
"6630",99.3063,93.839325,94.128525
"6631",99.31963,92.06195,92.78363
"6632",99.33297,90.142975,91.24159
"6633",99.346306,88.14099,89.55658
"6634",99.35964,86.0975,87.7675
"6635",99.37298,84.07599,85.93653
"6636",99.386314,82.178986,84.1669
"6637",99.39965,80.54566,82.60167
"6638",99.41299,79.30785,81.38091
"6639",99.42632,78.551,80.60243
"6640",99.43966,78.277565,80.283714
"6641",99.452995,78.41428,80.36661
"6642",99.46633,78.81712,80.719894
"6643",99.47967,79.33471,81.200516
"6644",99.493004,79.82788,81.6729
"6645",99.50634,80.198975,82.03861
"6646",99.51968,80.36744,82.213295
"6647",99.53301,80.30396,82.1613
"6648",99.54635,79.99878,81.865616
"6649",99.559685,79.47631,81.34311
"6650",99.57302,78.77318,80.62361
"6651",99.58636,77.93332,79.745415
"6652",99.59969,77.01045,78.757965
"6653",99.61303,76.068054,77.722145
"6654",99.626366,75.15251,76.68373
"6655",99.6397,74.30778,75.687515
"6656",99.65304,73.565575,74.76743
"6657",99.666374,72.935684,73.93647
"6658",99.67971,72.41566,73.19569
"6659",99.69305,71.9884,72.53142
"6660",99.70638,71.64416,71.93681
"6661",99.71972,71.37316,71.40469
"6662",99.733055,71.17052,70.932465
"6663",99.74639,71.03624,70.52226
"6664",99.75973,70.96788,70.17378
"6665",99.77306,70.97276,69.89641
"6666",99.7864,71.08751,69.72905
"6667",99.799736,71.4464,69.80943
"6668",99.81307,72.271614,70.36734
"6669",99.82641,73.82437,71.67859
"6670",99.839745,76.25361,73.91484
"6671",99.85308,79.517815,77.06197
"6672",99.86642,83.35577,80.88486
"6673",99.87975,87.33288,84.966835
"6674",99.89309,90.95598,88.81909
"6675",99.906425,93.839325,92.044815
"6676",99.91976,95.78027,94.41824
"6677",99.9331,96.74464,95.87574
"6678",99.946434,96.82033,96.4747
"6679",99.95977,96.16113,96.34114
"6680",99.97311,94.95018,95.63522
"6681",99.98644,93.35348,94.505714
"6682",99.99978,91.5053,93.07484
"6683",100.013115,89.50088,91.429955
"6684",100.02645,87.39147,89.617455
"6685",100.03979,85.22102,87.67799
"6686",100.05312,83.06035,85.68047
"6687",100.06646,81.03639,83.75215
"6688",100.079796,79.28344,82.031586
"6689",100.09313,77.94064,80.6664
"6690",100.10647,77.08125,79.74265
"6691",100.119804,76.70527,79.27546
"6692",100.13314,76.715034,79.18227
"6693",100.14648,76.96895,79.33353
"6694",100.15981,77.31075,79.58061
"6695",100.17315,77.61593,79.80175
"6696",100.186485,77.789276,79.9006
"6697",100.19982,77.79172,79.833954
"6698",100.21316,77.611046,79.584274
"6699",100.226494,77.2546,79.153175
"6700",100.23983,76.754105,78.56689
"6701",100.25317,76.14618,77.85753
"6702",100.2665,75.44549,77.03641
"6703",100.27984,74.68864,76.13723
"6704",100.293175,73.90738,75.189995
"6705",100.30651,73.13832,74.230545
"6706",100.31985,72.40345,73.28125
"6707",100.33318,71.74181,72.38222
"6708",100.34652,71.15343,71.53577
"6709",100.359856,70.6334,70.73929
"6710",100.37319,70.15976,69.97294
"6711",100.38653,69.72274,69.22841
"6712",100.399864,69.3077,68.4922
"6713",100.4132,68.90486,67.755226
"6714",100.42654,68.52155,67.02519
"6715",100.43987,68.172424,66.31736
"6716",100.45321,67.879456,65.65478
"6717",100.466545,67.70855,65.1051
"6718",100.47988,67.8233,64.83575
"6719",100.49322,68.492256,65.124176
"6720",100.50655,69.98642,66.25872
"6721",100.51989,72.42054,68.37991
"6722",100.533226,75.70672,71.42923
"6723",100.54656,79.5642,75.15255
"6724",100.5599,83.54864,79.12337
"6725",100.573235,87.18883,82.87445
"6726",100.58657,90.125885,86.036156
"6727",100.59991,92.1889,88.41561
"6728",100.61324,93.33639,89.944
"6729",100.62658,93.62203,90.64641
"6730",100.639915,93.16304,90.613106
"6731",100.65325,92.14252,90.00393
"6732",100.66659,90.7338,88.97467
"6733",100.679924,89.08827,87.66457
"6734",100.69326,87.2987,86.15901
"6735",100.7066,85.42123,84.50963
"6736",100.71993,83.51202,82.76983
"6737",100.73327,81.64675,81.01431
"6738",100.746605,79.954834,79.373856
"6739",100.75994,78.5803,77.99791
"6740",100.77328,77.659874,77.03312
"6741",100.78661,77.2546,76.55472
"6742",100.79995,77.33761,76.55193
"6743",100.813286,77.79172,76.922844
"6744",100.82662,78.45335,77.515465
"6745",100.83996,79.15648,78.170265
"6746",100.853294,79.766846,78.75427
"6747",100.86663,80.19653,79.176674
"6748",100.87997,80.40406,79.39034
"6749",100.8933,80.377205,79.376114
"6750",100.90664,80.130615,79.14131
"6751",100.919975,79.693596,78.708374
"6752",100.93331,79.11009,78.115295
"6753",100.94665,78.42161,77.399
"6754",100.959984,77.679405,76.607475
"6755",100.97332,76.93233,75.78788
"6756",100.98666,76.21454,74.97423
"6757",100.99999,75.55535,74.19675
"6758",101.01333,74.97185,73.47435
"6759",101.026665,74.459145,72.80452
"6760",101.04,74.00748,72.1797
"6761",101.05334,73.60464,71.5896
"6762",101.06667,73.23842,71.02353
"6763",101.08001,72.90639,70.4802
"6764",101.093346,72.60853,69.96067
"6765",101.10668,72.34974,69.4709
"6766",101.12002,72.13245,69.01454
"6767",101.133354,71.97131,68.607544
"6768",101.14669,71.91516,68.30049
"6769",101.16003,72.12756,68.26024
"6770",101.17336,72.88197,68.76863
"6771",101.1867,74.461586,70.12581
"6772",101.200035,77.00069,72.49184
"6773",101.21337,80.4065,75.803925
"6774",101.22671,84.368965,79.77909
"6775",101.24004,88.40955,83.95621
"6776",101.25338,92.015564,87.82501
"6777",101.266716,94.81102,90.99596
"6778",101.28005,96.62745,93.27523
"6779",101.29339,97.45754,94.62493
"6780",101.306725,97.394066,95.107
"6781",101.32006,96.58839,94.84489
"6782",101.3334,95.23338,94.00827
"6783",101.34673,93.504845,92.755775
"6784",101.36007,91.53704,91.21
"6785",101.373405,89.41543,89.44892
"6786",101.38674,87.183945,87.51167
"6787",101.40008,84.89632,85.44854
"6788",101.413414,82.6453,83.35053
"6789",101.42675,80.59205,81.379944
"6790",101.44009,78.91966,79.72606
"6791",101.45342,77.78439,78.55703
"6792",101.46676,77.261925,77.965324
"6793",101.480095,77.31075,77.92859
"6794",101.49343,77.77707,78.31087
"6795",101.50677,78.45823,78.92256
"6796",101.5201,79.149155,79.56531
"6797",101.53344,79.710686,80.10025
"6798",101.546776,80.05493,80.435455
"6799",101.56011,80.15015,80.53239
"6800",101.57345,80.00366,80.390594
"6801",101.586784,79.64721,80.034256
"6802",101.60012,79.1223,79.49832
"6803",101.61346,78.470436,78.81903
"6804",101.62679,77.74288,78.04368
"6805",101.64013,76.981155,77.21142
"6806",101.653465,76.21942,76.35535
"6807",101.6668,75.47967,75.49745
"6808",101.68014,74.76677,74.643295
"6809",101.693474,74.0856,73.79859
"6810",101.70681,73.43618,72.96435
"6811",101.720146,72.82338,72.14643
"6812",101.73348,72.26917,71.36796
"6813",101.74682,71.783325,70.64052
"6814",101.760155,71.380486,69.98091
"6815",101.77349,71.07042,69.40149
"6816",101.78683,70.8629,68.91492
"6817",101.80016,70.77989,68.54637
"6818",101.8135,70.94591,68.424255
"6819",101.826836,71.60265,68.798065
"6820",101.84017,73.0309,69.9639
"6821",101.85351,75.39422,72.109436
"6822",101.866844,78.643776,75.215065
"6823",101.88018,82.49882,79.027725
"6824",101.89352,86.505226,83.11222
"6825",101.90685,90.1503,86.96058
"6826",101.92019,93.04341,90.17089
"6827",101.933525,94.98924,92.52433
"6828",101.94686,95.9707,93.974205
"6829",101.9602,96.05371,94.5563
"6830",101.97353,95.38476,94.38902
"6831",101.98687,94.12985,93.61489
"6832",102.000206,92.46235,92.38895
"6833",102.01354,90.51652,90.832565
"6834",102.02688,88.38758,89.03227
"6835",102.040215,86.117035,87.023834
"6836",102.05355,83.76593,84.863884
"6837",102.06689,81.43435,82.64999
"6838",102.08022,79.290764,80.55122
"6839",102.09356,77.53292,78.77122
"6840",102.106895,76.33906,77.50026
"6841",102.12023,75.80682,76.85362
"6842",102.13357,75.89227,76.80804
"6843",102.146904,76.439156,77.226555
"6844",102.16024,77.23262,77.908745
"6845",102.17358,78.05051,78.64015
"6846",102.18691,78.72678,79.25551
"6847",102.20025,79.16136,79.6503
"6848",102.213585,79.310295,79.773026
"6849",102.22692,79.19066,79.631836
"6850",102.24026,78.83421,79.2501
"6851",102.25359,78.28977,78.66923
"6852",102.26693,77.60616,77.932175
"6853",102.280266,76.83711,77.08832
"6854",102.2936,76.019226,76.17159
"6855",102.30694,75.18913,75.2171
"6856",102.320274,74.36881,74.246445
"6857",102.33361,73.58022,73.28188
"6858",102.34695,72.84535,72.3464
"6859",102.36028,72.181274,71.45874
"6860",102.37362,71.59777,70.630905
"6861",102.386955,71.10948,69.88005
"6862",102.40029,70.72373,69.21648
"6863",102.41363,70.43809,68.640945
"6864",102.42696,70.25742,68.16147
"6865",102.4403,70.240326,67.83991
"6866",102.453636,70.54307,67.83766
"6867",102.46697,71.45129,68.45035
"6868",102.48031,73.23598,69.967896
"6869",102.493645,76.02167,72.54221
"6870",102.50698,79.69848,76.0947
"6871",102.52032,83.92706,80.313866
"6872",102.53365,88.1947,84.70422
"6873",102.54699,91.97894,88.74455
"6874",102.560326,94.89647,92.03642
"6875",102.57366,96.78859,94.39406
"6876",102.587,97.6553,95.78541
"6877",102.600334,97.59426,96.2761
"6878",102.61367,96.76662,95.998276
"6879",102.62701,95.36523,95.12084
"6880",102.64034,93.561,93.796776
"6881",102.65368,91.493095,92.15266
"6882",102.667015,89.24452,90.263245
"6883",102.68035,86.87633,88.183945
"6884",102.69369,84.437325,85.95982
"6885",102.70702,82.03006,83.69122
"6886",102.72036,79.82544,81.55004
"6887",102.733696,78.02121,79.74036
"6888",102.74703,76.773636,78.43095
"6889",102.76037,76.16083,77.717316
"6890",102.773705,76.14374,77.58025
"6891",102.78704,76.56855,77.88456
"6892",102.80038,77.21797,78.42675
"6893",102.81371,77.88937,79.011215
"6894",102.82705,78.433815,79.4897
"6895",102.840385,78.75853,79.76547
"6896",102.85372,78.82445,79.792595
"6897",102.86706,78.643776,79.57519
"6898",102.880394,78.25803,79.147064
"6899",102.89373,77.713585,78.54818
"6900",102.90707,77.05684,77.819984
"6901",102.9204,76.33662,77.00779
"6902",102.93374,75.58221,76.1389
"6903",102.947075,74.81804,75.23668
"6904",102.96041,74.06607,74.32278
"6905",102.97375,73.338524,73.4098
"6906",102.98708,72.64515,72.508255
"6907",103.00042,72.00061,71.63388
"6908",103.013756,71.414665,70.79796
"6909",103.02709,70.89952,70.01453
"6910",103.04043,70.46006,69.29068
"6911",103.053764,70.098724,68.63122
"6912",103.0671,69.83261,68.05569
"6913",103.08044,69.732506,67.63785
"6914",103.09377,70.00839,67.59287
"6915",103.10711,70.98741,68.25965
"6916",103.120445,72.955215,69.945816
"6917",103.13378,76.00214,72.77259
"6918",103.14712,79.954834,76.60036
"6919",103.16045,84.40803,81.05214
"6920",103.17379,88.80751,85.58937
"6921",103.187126,92.60395,89.66104
"6922",103.20046,95.45312,92.90408
"6923",103.2138,97.230484,95.16436
"6924",103.227135,97.96536,96.43769
"6925",103.24047,97.77249,96.80624
"6926",103.25381,96.83009,96.41923
"6927",103.26714,95.34081,95.45589
"6928",103.28048,93.49264,94.08711
"6929",103.293816,91.4345,92.45062
"6930",103.30715,89.249405,90.622856
"6931",103.32049,86.98375,88.64624
"6932",103.333824,84.67414,86.55487
"6933",103.34716,82.41581,84.442604
"6934",103.3605,80.35035,82.45264
"6935",103.37383,78.6511,80.764336
"6936",103.38717,77.471886,79.54297
"6937",103.400505,76.88106,78.87314
"6938",103.41384,76.82735,78.72196
"6939",103.42718,77.15694,78.95241
"6940",103.44051,77.679405,79.38603
"6941",103.45385,78.19943,79.83354
"6942",103.467186,78.5803,80.15814
"6943",103.48052,78.73899,80.27247
"6944",103.49386,78.64622,80.14029
"6945",103.507195,78.311745,79.76351
"6946",103.52053,77.77463,79.17364
"6947",103.53387,77.08125,78.41072
"6948",103.5472,76.282906,77.521164
"6949",103.56054,75.41375,76.53585
"6950",103.573875,74.5153,75.49408
"6951",103.58721,73.619286,74.426674
"6952",103.60055,72.75014,73.35813
"6953",103.613884,71.922485,72.303925
"6954",103.62722,71.16319,71.292206
"6955",103.64056,70.486916,70.33978
"6956",103.65389,69.910736,69.46632
"6957",103.66723,69.44198,68.68227
"6958",103.680565,69.083084,67.99343
"6959",103.6939,68.82918,67.39837
"6960",103.70724,68.67536,66.89546
"6961",103.72057,68.65583,66.52203
"6962",103.73391,68.926834,66.43853
"6963",103.747246,69.78378,66.94944
"6964",103.76058,71.551384,68.39778
"6965",103.77392,74.4152,70.997574
"6966",103.787254,78.29221,74.700066
"6967",103.80059,82.847946,79.20243
"6968",103.81393,87.5404,83.98388
"6969",103.82726,91.78363,88.46275
"6970",103.8406,95.12352,92.17088
"6971",103.853935,97.359886,94.87986
"6972",103.86727,98.47318,96.53565
"6973",103.88061,98.57084,97.210594
"6974",103.89394,97.81644,97.03653
"6975",103.90728,96.42481,96.20167
"6976",103.920616,94.60105,94.89118
"6977",103.93395,92.506294,93.25271
"6978",103.94729,90.245514,91.38275
"6979",103.960625,87.87488,89.33229
"6980",103.97396,85.42855,87.13205
"6981",103.9873,82.9749,84.84804
"6982",104.00063,80.65308,82.61919
"6983",104.01397,78.64866,80.63517
"6984",104.027306,77.13985,79.08413
"6985",104.04064,76.24628,78.10118
"6986",104.05398,75.9704,77.708
"6987",104.067314,76.20477,77.81645
"6988",104.08065,76.75899,78.25207
"6989",104.09399,77.42794,78.81974
"6990",104.10732,78.028534,79.33996
"6991",104.12066,78.43626,79.68607
"6992",104.133995,78.58762,79.788574
"6993",104.14733,78.47532,79.63213
"6994",104.16067,78.118866,79.228035
"6995",104.174,77.56222,78.6126
"6996",104.18734,76.8542,77.82841
"6997",104.200676,76.033875,76.909775
"6998",104.21401,75.13786,75.889824
"6999",104.22735,74.19791,74.79793
"7000",104.240685,73.248184,73.66689
"7001",104.25402,72.318,72.52572
"7002",104.26736,71.42687,71.39453
"7003",104.28069,70.59922,70.298965
"7004",104.29403,69.85458,69.26055
"7005",104.307365,69.205154,68.294075
"7006",104.3207,68.65827,67.40985
"7007",104.33404,68.21393,66.61108
"7008",104.347374,67.86969,65.89852
"7009",104.36071,67.6231,65.27286
"7010",104.37405,67.510796,64.77377
"7011",104.38738,67.65484,64.52753
"7012",104.40072,68.33845,64.82535
"7013",104.414055,69.9205,66.04298
"7014",104.42739,72.654915,68.4624
"7015",104.44073,76.53193,72.10988
"7016",104.45406,81.25613,76.7257
"7017",104.4674,86.30259,81.81142
"7018",104.480736,91.04143,86.74721
"7019",104.49407,94.93797,90.9888
"7020",104.50741,97.71877,94.23641
"7021",104.520744,99.33257,96.40392
"7022",104.53408,99.862366,97.53786
"7023",104.54742,99.46685,97.76304
"7024",104.56075,98.34623,97.250755
"7025",104.57409,96.7129,96.19074
"7026",104.587425,94.73777,94.73789
"7027",104.60076,92.55024,93.01092
"7028",104.6141,90.21866,91.07153
"7029",104.62743,87.77966,88.95187
"7030",104.64077,85.2723,86.68762
"7031",104.654106,82.80156,84.38164
"7032",104.66744,80.5359,82.20352
"7033",104.68078,78.6511,80.33547
"7034",104.694115,77.30831,78.95053
"7035",104.70745,76.578316,78.13642
"7036",104.72079,76.419624,77.870804
"7037",104.73412,76.67841,78.01771
"7038",104.74746,77.16182,78.397316
"7039",104.760796,77.67452,78.82133
"7040",104.77413,78.07736,79.1515
"7041",104.78747,78.277565,79.29162
"7042",104.800804,78.24094,79.201164
"7043",104.81414,77.97482,78.88008
"7044",104.82748,77.50851,78.35048
"7045",104.84081,76.88594,77.650055
"7046",104.85415,76.15106,76.81786
"7047",104.867485,75.34539,75.891914
"7048",104.88082,74.50065,74.90172
"7049",104.89416,73.653465,73.88268
"7050",104.90749,72.8307,72.861595
"7051",104.92083,72.06653,71.87338
"7052",104.934166,71.38537,70.944305
"7053",104.9475,70.80675,70.09648
"7054",104.96084,70.32334,69.32579
"7055",104.974174,69.927826,68.62788
"7056",104.98751,69.59823,67.98352
"7057",105.00085,69.315025,67.37526
"7058",105.01418,69.06355,66.78988
"7059",105.02752,68.82674,66.211296
"7060",105.040855,68.60212,65.63751
"7061",105.05419,68.40681,65.08601
"7062",105.06753,68.32624,64.64316
"7063",105.080864,68.60944,64.561554
"7064",105.0942,69.65438,65.250534
"7065",105.10754,71.83948,67.11233
"7066",105.12087,75.284355,70.302185
"7067",105.13421,79.79126,74.66173
"7068",105.147545,84.874344,79.73829
"7069",105.16088,89.881744,84.89801
"7070",105.17422,94.17624,89.50131
"7071",105.18755,97.374535,93.14262
"7072",105.20089,99.3814,95.69244
"7073",105.214226,100.27009,97.18679
"7074",105.22756,100.18219,97.73233
"7075",105.2409,99.3106,97.49143
"7076",105.254234,97.86771,96.65199
"7077",105.26757,96.04883,95.39148
"7078",105.28091,94.01022,93.8544
"7079",105.29424,91.85199,92.13399
"7080",105.30758,89.61318,90.26556
"7081",105.320915,87.31579,88.26858
"7082",105.33425,85.013504,86.194916
"7083",105.34759,82.82109,84.15917
"7084",105.36092,80.89723,82.32347
"7085",105.37426,79.40551,80.85979
"7086",105.387596,78.44846,79.88416
"7087",105.40093,78.028534,79.41575
"7088",105.41427,78.04562,79.37123
"7089",105.427605,78.331276,79.59581
"7090",105.44094,78.71458,79.92696
"7091",105.45428,79.03929,80.21151
"7092",105.46761,79.19798,80.34018
"7093",105.48095,79.13695,80.25408
"7094",105.494286,78.84642,79.936584
"7095",105.50762,78.345924,79.40004
"7096",105.52096,77.66476,78.66718
"7097",105.534294,76.839554,77.769005
"7098",105.54763,75.90204,76.73273
"7099",105.56097,74.89128,75.59391
"7100",105.5743,73.831696,74.37468
"7101",105.58764,72.779434,73.12966
"7102",105.600975,71.78577,71.910355
"7103",105.61431,70.88487,70.75276
"7104",105.62765,70.11337,69.69641
"7105",105.64098,69.50301,68.77709
"7106",105.65432,69.06111,68.00716
"7107",105.667656,68.79256,67.39676
"7108",105.68099,68.68513,66.939095
"7109",105.69433,68.70466,66.605034
"7110",105.707664,68.80965,66.35704
"7111",105.721,68.95369,66.15138
"7112",105.73434,69.09529,65.947784
"7113",105.74767,69.205154,65.71687
"7114",105.76101,69.27108,65.44546
"7115",105.774345,69.29061,65.12971
"7116",105.78768,69.27108,64.775505
"7117",105.80102,69.263756,64.4329
"7118",105.814354,69.41512,64.24876
"7119",105.82769,70.05722,64.560074
"7120",105.84103,71.63683,65.82897
"7121",105.85436,74.476234,68.40703
"7122",105.8677,78.57786,72.33604
"7123",105.881035,83.60967,77.32341
"7124",105.89437,88.98085,82.80739
"7125",105.90771,93.98337,88.09056
"7126",105.92104,98.03616,92.58034
"7127",105.93438,100.86336,95.97116
"7128",105.947716,102.4625,98.22228
"7129",105.96105,102.95079,99.41252
"7130",105.97439,102.49668,99.67563
"7131",105.987724,101.30526,99.187225
"7132",106.00106,99.58892,98.13667
"7133",106.0144,97.53811,96.69801
"7134",106.02773,95.28466,94.99263
"7135",106.04107,92.909134,93.09475
"7136",106.054405,90.44816,91.037186
"7137",106.06774,87.92859,88.844124
"7138",106.08108,85.42855,86.59186
"7139",106.09441,83.07744,84.410385
"7140",106.10775,81.04616,82.47527
"7141",106.121086,79.49096,80.95277
"7142",106.13442,78.49973,79.94563
"7143",106.14776,78.06271,79.46173
"7144",106.161095,78.06271,79.40119
"7145",106.17443,78.328835,79.60677
"7146",106.18777,78.675514,79.90123
"7147",106.2011,78.9514,80.13573
"7148",106.21444,79.0515,80.20306
"7149",106.227776,78.92699,80.048904
"7150",106.24111,78.56809,79.65648
"7151",106.25445,77.98947,79.03311
"7152",106.267784,77.23018,78.21099
"7153",106.28112,76.32197,77.216225
"7154",106.29446,75.301445,76.080765
"7155",106.30779,74.21011,74.842606
"7156",106.32113,73.094376,73.54594
"7157",106.334465,71.99573,72.23149
"7158",106.3478,70.95323,70.93886
"7159",106.36114,70.01083,69.713745
"7160",106.37447,69.19539,68.586136
"7161",106.38781,68.52155,67.57465
"7162",106.401146,68.00397,66.698364
"7163",106.41448,67.649956,65.969475
"7164",106.42782,67.44732,65.3809
"7165",106.441154,67.37652,64.91782
"7166",106.45449,67.40826,64.55508
"7167",106.46783,67.49615,64.24947
"7168",106.48116,67.58892,63.9515
"7169",106.4945,67.64507,63.619804
"7170",106.507835,67.630424,63.219063
"7171",106.52117,67.53033,62.732414
"7172",106.53451,67.354546,62.166954
"7173",106.547844,67.125046,61.542282
"7174",106.56118,66.90288,60.91777
"7175",106.57452,66.844284,60.44989
"7176",106.58785,67.3106,60.50509
"7177",106.60119,68.795,61.59294
"7178",106.614525,71.692986,64.14077
"7179",106.62786,76.02655,68.21474
"7180",106.6412,81.427025,73.49104
"7181",106.65453,87.21324,79.32185
"7182",106.66787,92.57954,84.91356
"7183",106.681206,96.866714,89.59385
"7184",106.69454,99.77692,93.031136
"7185",106.70788,101.35897,95.23122
"7186",106.721214,101.803314,96.343025
"7187",106.73455,101.31747,96.53853
"7188",106.74789,100.10651,95.99374
"7189",106.76122,98.3682,94.88376
"7190",106.77456,96.271,93.360565
"7191",106.787895,93.93942,91.53745
"7192",106.80123,91.439384,89.47302
"7193",106.81457,88.80263,87.19375
"7194",106.8279,86.07065,84.73685
"7195",106.84124,83.33868,82.19458
"7196",106.854576,80.782486,79.74272
"7197",106.86791,78.63157,77.61626
"7198",106.88125,77.0959,76.03783
"7199",106.894585,76.29511,75.146286
"7200",106.90792,76.209656,74.94505
"7201",106.92126,76.68818,75.30513
"7202",106.93459,77.47677,75.99023
"7203",106.94793,78.31663,76.751236
"7204",106.961266,79.00023,77.38223
"7205",106.9746,79.398186,77.74895
"7206",106.98794,79.45434,77.78629
"7207",107.001274,79.17845,77.493355
"7208",107.01461,78.6218,76.91103
"7209",107.02795,77.840546,76.08671
"7210",107.04128,76.88594,75.06462
"7211",107.05462,75.81415,73.895515
"7212",107.067955,74.67887,72.62943
"7213",107.08129,73.52651,71.31079
"7214",107.09463,72.40589,69.98788
"7215",107.10796,71.360954,68.70563
"7216",107.1213,70.435646,67.510345
"7217",107.134636,69.66659,66.4424
"7218",107.14797,69.065994,65.51888
"7219",107.16131,68.65339,64.76459
"7220",107.174644,68.43122,64.187836
"7221",107.18798,68.384834,63.779922
"7222",107.20132,68.48737,63.519485
"7223",107.21465,68.69489,63.367233
"7224",107.22799,68.95369,63.272743
"7225",107.241325,69.205154,63.17901
"7226",107.25466,69.41024,63.046753
"7227",107.268,69.52987,62.835453
"7228",107.281334,69.5494,62.527794
"7229",107.29467,69.471275,62.12309
"7230",107.30801,69.31991,61.6427
"7231",107.32134,69.1783,61.16734
"7232",107.33468,69.30282,60.953682
"7233",107.348015,70.15976,61.476337
"7234",107.36135,72.26917,63.278244
"7235",107.37469,75.88739,66.65488
"7236",107.38802,80.82643,71.4654
"7237",107.40136,86.50034,77.16514
"7238",107.414696,92.088806,82.95673
"7239",107.42803,96.79347,88.03918
"7240",107.44137,100.11871,91.88921
"7241",107.454704,101.9913,94.39051
"7242",107.46804,102.62119,95.70763
"7243",107.48138,102.26719,96.06053
"7244",107.49471,101.153885,95.64308
"7245",107.50805,99.46929,94.619545
"7246",107.521385,97.36477,93.123436
"7247",107.53472,94.97215,91.27347
"7248",107.54806,92.36469,89.13389
"7249",107.56139,89.59609,86.751686
"7250",107.57473,86.72251,84.177986
"7251",107.588066,83.86359,81.52914
"7252",107.6014,81.19997,78.98625
"7253",107.61474,78.96605,76.78983
"7254",107.628075,77.39376,75.185234
"7255",107.64141,76.627144,74.33717
"7256",107.65475,76.67841,74.28304
"7257",107.66808,77.40353,74.90436
"7258",107.68142,78.52415,75.94384
"7259",107.694756,79.742424,77.116
"7260",107.70809,80.79225,78.157776
"7261",107.72143,81.48806,78.87834
"7262",107.734764,81.739525,79.17631
"7263",107.7481,81.55398,79.04512
"7264",107.76144,80.98512,78.524826
"7265",107.77477,80.111084,77.68157
"7266",107.78811,79.01732,76.59128
"7267",107.801445,77.769745,75.312996
"7268",107.81478,76.43183,73.90539
"7269",107.82812,75.05974,72.42179
"7270",107.84145,73.71206,70.91973
"7271",107.85479,72.45716,69.46834
"7272",107.868126,71.360954,68.13641
"7273",107.88146,70.467384,66.97287
"7274",107.8948,69.81064,66.01823
"7275",107.908134,69.39315,65.28232
"7276",107.92147,69.18318,64.74088
"7277",107.93481,69.14168,64.36135
"7278",107.94814,69.23445,64.1148
"7279",107.96148,69.420006,63.96393
"7280",107.974815,69.65682,63.87012
"7281",107.98815,69.91562,63.805695
"7282",108.00149,70.16708,63.742023
"7283",108.014824,70.40147,63.66913
"7284",108.02816,70.67246,63.64017
"7285",108.0415,71.21202,63.888245
"7286",108.05483,72.444954,64.84656
"7287",108.06817,74.84001,67.00552
"7288",108.081505,78.59983,70.604095
"7289",108.09484,83.51934,75.47985
"7290",108.10818,89.022354,81.09284
"7291",108.12151,94.3325,86.68494
"7292",108.13485,98.71244,91.51277
"7293",108.148186,101.72274,95.107834
"7294",108.16152,103.31945,97.38338
"7295",108.17486,103.707634,98.50029
"7296",108.188194,103.12657,98.660095
"7297",108.20153,101.788666,98.04489
"7298",108.21487,99.859924,96.79704
"7299",108.24154,94.75487,92.85892
"7300",108.254875,91.74944,90.31458
"7301",108.26821,88.51209,87.444405
"7302",108.28155,85.138016,84.336334
"7303",108.29488,81.78348,81.14236
"7304",108.30822,78.6804,78.09501
"7305",108.321556,76.11688,75.49026
"7306",108.33489,74.35905,73.61108
"7307",108.34823,73.57778,72.653534
"7308",108.361565,73.77554,72.650604
"7309",108.3749,74.76921,73.44976
"7310",108.38824,76.25849,74.77558
"7311",108.40157,77.891815,76.291985
"7312",108.41491,79.35424,77.68853
"7313",108.428246,80.43824,78.75235
"7314",108.44158,81.05348,79.38129
"7315",108.45492,81.20485,79.565575
"7316",108.468254,80.96071,79.359085
"7317",108.48159,80.40406,78.83246
"7318",108.49493,79.61303,78.054054
"7319",108.50826,78.66819,77.09712
"7320",108.5216,77.62325,76.01057
"7321",108.534935,76.53193,74.84497
"7322",108.54827,75.43816,73.64283
"7323",108.56161,74.373695,72.43581
"7324",108.57494,73.34829,71.23458
"7325",108.58828,72.37171,70.05014
"7326",108.601616,71.45373,68.89377
"7327",108.61495,70.60166,67.77463
"7328",108.62829,69.81796,66.69723
"7329",108.641624,69.1075,65.66857
"7330",108.65496,68.48005,64.70073
"7331",108.6683,67.92584,63.786522
"7332",108.68163,67.44732,62.93068
"7333",108.69497,67.0518,62.14289
"7334",108.708305,66.84184,61.528297
"7335",108.72164,67.09819,61.37345
"7336",108.73498,68.3238,62.195877
"7337",108.748314,71.02159,64.528786
"7338",108.76165,75.36004,68.586655
"7339",108.77499,81.01198,74.0936
"7340",108.78832,87.26208,80.37532
"7341",108.80166,93.224075,86.564255
"7342",108.814995,98.0972,91.85063
"7343",108.82833,101.46395,95.78292
"7344",108.84167,103.35119,98.340904
"7345",108.855,104.027466,99.7469
"7346",108.86834,103.7467,100.216995
"7347",108.881676,102.711525,99.923904
"7348",108.89501,101.1075,99.02962
"7349",108.90835,99.08354,97.66527
"7350",108.921684,96.74952,95.927605
"7351",108.93502,94.18356,93.88507
"7352",108.94836,91.41741,91.56216
"7353",108.96169,88.48768,88.98922
"7354",108.97503,85.504234,86.27101
"7355",108.988365,82.64042,83.5792
"7356",109.0017,80.14038,81.161674
"7357",109.01504,78.24338,79.26906
"7358",109.02837,77.100784,78.07157
"7359",109.04171,76.73945,77.61964
"7360",109.055046,77.02998,77.80828
"7361",109.06838,77.730675,78.41616
"7362",109.08172,78.56565,79.18022
"7363",109.095055,79.28832,79.85807
"7364",109.10839,79.73022,80.277725
"7365",109.12173,79.80347,80.342545
"7366",109.13506,79.500725,80.03366
"7367",109.1484,78.873276,79.39061
"7368",109.161736,77.98459,78.46671
"7369",109.17507,76.91768,77.33682
"7370",109.18841,75.74578,76.0686
"7371",109.201744,74.547035,74.736916
"7372",109.21508,73.402,73.42148
"7373",109.22842,72.37415,72.18745
"7374",109.24175,71.505,71.07999
"7375",109.25509,70.81163,70.121155
"7376",109.268425,70.28916,69.311554
"7377",109.28176,69.91318,68.6321
"7378",109.2951,69.6495,68.05321
"7379",109.30843,69.468834,67.54909
"7380",109.32177,69.35409,67.10524
"7381",109.335106,69.278404,66.69687
"7382",109.34844,69.22713,66.31054
"7383",109.36178,69.20027,65.94703
"7384",109.375114,69.24666,65.65592
"7385",109.38845,69.559166,65.632385
"7386",109.40179,70.538185,66.285126
"7387",109.41512,72.64759,68.09885
"7388",109.42846,76.138855,71.36035
"7389",109.441795,80.86061,75.96145
"7390",109.45513,86.30503,81.43276
"7391",109.46847,91.73968,87.06444
"7392",109.481804,96.410164,92.10179
"7393",109.49514,99.825745,96.03019
"7394",109.50848,101.86923,98.69323
"7395",109.52181,102.68223,100.18964
"7396",109.53515,102.47227,100.68849
"7397",109.548485,101.4493,100.36778
"7398",109.56182,99.79889,99.38766
"7399",109.57516,97.70168,97.909164
"7400",109.58849,95.30175,96.06241
"7401",109.60183,92.699165,93.938
"7402",109.615166,89.952545,91.588234
"7403",109.6285,87.10338,89.05009
"7404",109.64184,84.244446,86.41313
"7405",109.655174,81.52224,83.82356
"7406",109.66851,79.14427,81.493164
"7407",109.68185,77.3254,79.64755
"7408",109.69518,76.23163,78.4702
"7409",109.70852,75.90692,78.02773
"7410",109.721855,76.25849,78.251396
"7411",109.73519,77.08125,78.95724
"7412",109.74853,78.116425,79.9012
"7413",109.76186,79.11253,80.83845
"7414",109.7752,79.88403,81.582214
"7415",109.788536,80.325935,82.02049
"7416",109.80187,80.39918,82.10392
"7417",109.81521,80.128174,81.84539
"7418",109.828545,79.56176,81.28298
"7419",109.84188,78.76097,80.4685
"7420",109.85522,77.7966,79.46541
"7421",109.86855,76.717476,78.31743
"7422",109.88189,75.56756,77.06493
"7423",109.895226,74.38346,75.742325
"7424",109.90856,73.196915,74.380264
"7425",109.9219,72.03479,73.00555
"7426",109.935234,70.923935,71.64578
"7427",109.94857,69.88876,70.32698
"7428",109.96191,68.95369,69.07593
"7429",109.97524,68.1236,67.900635
"7430",109.98858,67.405815,66.811714
"7431",110.001915,66.7979,65.81023
"7432",110.01525,66.29252,64.89228
"7433",110.02859,65.89212,64.06352
"7434",110.04192,65.601585,63.332115
"7435",110.05526,65.46731,62.747887
"7436",110.068596,65.64065,62.46708
"7437",110.08193,66.47074,62.848442
"7438",110.09527,68.42634,64.38125
"7439",110.108604,71.84192,67.43515
"7440",110.12194,76.67109,72.009384
"7441",110.13528,82.47929,77.713554
"7442",110.14861,88.5536,83.86534
"7443",110.16195,94.09323,89.67227
"7444",110.175285,98.47318,94.49264
"7445",110.18862,101.437096,98.03384
"7446",110.20196,103.05821,100.32486
"7447",110.215294,103.53918,101.5264
"7448",110.22863,103.080185,101.80301
"7449",110.24197,101.88144,101.325516
"7450",110.2553,100.12848,100.25635
"7451",110.26864,97.987335,98.74422
"7452",110.281975,95.56542,96.88441
"7453",110.29531,92.93355,94.73895
"7454",110.30865,90.11856,92.32814
"7455",110.32198,87.166855,89.69264
"7456",110.33532,84.18097,86.93072
"7457",110.348656,81.33669,84.217094
"7458",110.36199,78.856186,81.77836
"7459",110.37533,76.9543,79.84073
"7460",110.388664,75.772644,78.563896
"7461",110.402,75.31121,77.97036
"7462",110.41534,75.44549,77.958115
"7463",110.42867,75.95087,78.32117
"7464",110.44201,76.578316,78.82208
"7465",110.455345,77.12276,79.2596
"7466",110.46868,77.452354,79.49928
"7467",110.48202,77.50851,79.47582
"7468",110.49535,77.296104,79.18556
"7469",110.50869,76.85176,78.65672
"7470",110.522026,76.23895,77.94553
"7471",110.53536,75.50164,77.09069
"7472",110.5487,74.683754,76.13223
"7473",110.562035,73.81949,75.10184
"7474",110.57537,72.94301,74.03222
"7475",110.58871,72.0885,72.957184
"7476",110.60204,71.28527,71.90672
"7477",110.61538,70.56992,70.91904
"7478",110.628716,69.96445,70.01887
"7479",110.64205,69.4786,69.219406
"7480",110.65539,69.09041,68.50242
"7481",110.668724,68.78035,67.85143
"7482",110.68206,68.51179,67.232254
"7483",110.6954,68.24811,66.609566
"7484",110.70873,67.964905,65.959114
"7485",110.72207,67.647514,65.265625
"7486",110.735405,67.28619,64.51828
"7487",110.74874,66.90776,63.742546
"7488",110.76208,66.62455,63.0502
"7489",110.77541,66.72709,62.734756
"7490",110.78875,67.71099,63.30388
"7491",110.802086,70.04013,65.248985
"7492",110.81542,73.85855,68.75616
"7493",110.82876,78.890366,73.596054
"7494",110.842094,84.51301,79.18402
"7495",110.85543,89.93057,84.742615
"7496",110.86877,94.42527,89.547646
"7497",110.8821,97.60647,93.179634
"7498",110.89544,99.457085,95.58045
"7499",110.908775,100.16754,96.89894
"7500",110.92211,99.95514,97.31677
"7501",110.93545,99.01274,96.99797
"7502",110.948784,97.52346,96.10284
"7503",110.96212,95.64843,94.77541
"7504",110.97546,93.51217,93.12817
"7505",110.98879,91.17082,91.209076
"7506",111.00213,88.65125,89.0386
"7507",111.015465,85.994965,86.652664
"7508",111.0288,83.30938,84.15442
"7509",111.04214,80.780045,81.7285
"7510",111.05547,78.641335,79.61417
"7511",111.06881,77.117874,78.04825
"7512",111.082146,76.3415,77.18181
"7513",111.09548,76.29511,77.021095
"7514",111.10882,76.805374,77.41558
"7515",111.122154,77.62081,78.13119
"7516",111.13549,78.47532,78.91135
"7517",111.14883,79.151596,79.53998
"7518",111.16216,79.517815,79.879684
"7519",111.1755,79.5227,79.8695
"7520",111.188835,79.17357,79.505455
"7521",111.20217,78.51438,78.82044
"7522",111.21551,77.58907,77.84871
"7523",111.22884,76.456245,76.64054
"7524",111.24218,75.174484,75.24804
"7525",111.255516,73.81949,73.74225
"7526",111.26885,72.46693,72.19655
"7527",111.28219,71.199814,70.69403
"7528",111.295525,70.08652,69.305725
"7529",111.30886,69.18318,68.09259
"7530",111.3222,68.50446,67.07584
"7531",111.33553,68.04547,66.257614
"7532",111.34887,67.77936,65.61792
"7533",111.362206,67.667046,65.12371
"7534",111.37554,67.66949,64.740746
"7535",111.38888,67.74517,64.4311
"7536",111.402214,67.862366,64.16533
"7537",111.41555,67.9942,63.917862
"7538",111.42889,68.140686,63.689163
"7539",111.44222,68.3238,63.50167
"7540",111.45556,68.680244,63.493233
"7541",111.468895,69.51522,63.974464
"7542",111.48223,71.27306,65.404655
"7543",111.49557,74.29313,68.15201
"7544",111.5089,78.58274,72.26328
"7545",111.52224,83.77814,77.41439
"7546",111.535576,89.23476,82.989075
"7547",111.54891,94.20065,88.24356
"7548",111.56225,98.0679,92.55458
"7549",111.575584,100.560616,95.611916
"7550",111.58892,101.74227,97.43609
"7551",111.60226,101.81308,98.18634
"7552",111.61559,100.9781,98.03302
"7553",111.62893,99.43267,97.14315
"7554",111.642265,97.355,95.67275
"7555",111.6556,94.88182,93.74191
"7556",111.66894,92.10101,91.42616
"7557",111.682274,89.0663,88.76961
"7558",111.69561,85.841156,85.82779
"7559",111.70895,82.530556,82.69972
"7560",111.72228,79.32983,79.57807
"7561",111.73562,76.5124,76.7397
"7562",111.748955,74.38102,74.49934
"7563",111.76229,73.16518,73.1079
"7564",111.77563,72.94545,72.67459
"7565",111.78896,73.619286,73.127975
"7566",111.8023,74.915695,74.22499
"7567",111.815636,76.50019,75.650604
"7568",111.82897,78.04318,77.08423
"7569",111.84231,79.30297,78.28287
"7570",111.855644,80.15747,79.115585
"7571",111.86898,80.57984,79.54288
"7572",111.88232,80.604256,79.58541
"7573",111.89565,80.29908,79.29912
"7574",111.90899,79.742424,78.75181
"7575",111.922325,78.99779,77.99912
"7576",111.93566,78.12619,77.09621
"7577",111.949,77.18623,76.097694
"7578",111.96233,76.22919,75.05272
"7579",111.97567,75.2868,73.99249
"7580",111.989006,74.38834,72.946754
"7581",112.00234,73.54116,71.92421
"7582",112.01568,72.740364,70.92158
"7583",112.029015,71.973755,69.9281
"7584",112.04235,71.236435,68.93996
"7585",112.05569,70.521095,67.95076
"7586",112.06902,69.83505,66.9685
"7587",112.08236,69.190506,66.006294
"7588",112.095695,68.60456,65.08255
"7589",112.10903,68.11139,64.23327
"7590",112.12237,67.845276,63.595634
"7591",112.135704,68.13092,63.501442
"7592",112.14904,69.4493,64.44891
"7593",112.16238,72.181274,66.85117
"7594",112.17571,76.35859,70.78415
"7595",112.18905,81.600365,75.91213
"7596",112.202385,87.22301,81.584785
"7597",112.21572,92.43061,87.018105
"7598",112.22906,96.585945,91.5619
"7599",112.24239,99.40093,94.895195
"7600",112.25573,100.929276,97.029816
"7601",112.269066,101.37606,98.13064
"7602",112.2824,100.946365,98.36894
"7603",112.29574,99.82086,97.89801
"7604",112.309074,98.16556,96.86211
"7605",112.32241,96.12451,95.38873
"7606",112.33575,93.785614,93.55373
"7607",112.34908,91.19768,91.39659
"7608",112.36242,88.394905,88.94375
"7609",112.375755,85.47738,86.28856
"7610",112.38909,82.61845,83.60079
"7611",112.40243,80.062256,81.12643
"7612",112.415764,78.07248,79.138596
"7613",112.4291,76.841995,77.84788
"7614",112.44244,76.42939,77.336586
"7615",112.45577,76.717476,77.51309
"7616",112.46911,77.47433,78.167366
"7617",112.482445,78.4094,79.02351
"7618",112.49578,79.25414,79.81855
"7619",112.50912,79.82056,80.36166
"7620",112.52245,80.02075,80.556244
"7621",112.53579,79.83765,80.37379
"7622",112.549126,79.30785,79.83892
"7623",112.56246,78.49241,79.00185
"7624",112.5758,77.45724,77.91956
"7625",112.589134,76.26093,76.6438
"7626",112.60247,74.969406,75.23543
"7627",112.61581,73.65591,73.764725
"7628",112.62914,72.39124,72.30181
"7629",112.64248,71.24864,70.92143
"7630",112.655815,70.276955,69.67627
"7631",112.66915,69.51034,68.605804
"7632",112.68249,68.943924,67.711586
"7633",112.69582,68.56794,66.9901
"7634",112.70916,68.3653,66.43021
"7635",112.722496,68.30183,66.00314
"7636",112.73583,68.34577,65.68152
"7637",112.74917,68.48249,65.45404
"7638",112.762505,68.699776,65.3114
"7639",112.77584,69.10506,65.36355
"7640",112.78918,69.993744,65.911766
"7641",112.80251,71.79797,67.4033
"7642",112.81585,74.84001,70.189026
"7643",112.829185,79.1223,74.31007
"7644",112.84252,84.28596,79.4463
"7645",112.85586,89.71328,85.00755
"7646",112.869194,94.66209,90.2599
"7647",112.88253,98.54398,94.59999
"7648",112.89587,101.085526,97.72103
"7649",112.9092,102.32578,99.62021
"7650",112.92254,102.43076,100.42287
"7651",112.935875,101.60067,100.29373
"7652",112.94921,100.04303,99.41111
"7653",112.96255,97.950714,97.94514
"7654",112.97588,95.49218,96.04756
"7655",112.98922,92.76265,93.80216
"7656",113.002556,89.82803,91.26638
"7657",113.01589,86.72495,88.47043
"7658",113.02923,83.53887,85.4945
"7659",113.042564,80.4358,82.502014
"7660",113.0559,77.662315,79.74215
"7661",113.06924,75.48699,77.493774
"7662",113.08257,74.1149,75.98065
"7663",113.09591,73.62661,75.30846
"7664",113.109245,73.93912,75.4218
"7665",113.12258,74.82536,76.118645
"7666",113.13592,75.999695,77.13127
"7667",113.149254,77.18623,78.1928
"7668",113.16259,78.18234,79.10098
"7669",113.17593,78.86595,79.72779
"7670",113.18926,79.19066,80.01706
"7671",113.2026,79.17113,79.97224
"7672",113.215935,78.85863,79.633835
"7673",113.22927,78.30686,79.0464
"7674",113.24261,77.576866,78.2635
"7675",113.25594,76.72236,77.33327
"7676",113.26928,75.792175,76.30066
"7677",113.282616,74.81804,75.19503
"7678",113.29595,73.814606,74.02966
"7679",113.30929,72.79408,72.81585
"7680",113.322624,71.763794,71.56038
"7681",113.33596,70.748146,70.28735
"7682",113.3493,69.77402,69.0241
"7683",113.36263,68.88289,67.81341
"7684",113.37597,68.11627,66.69938
"7685",113.389305,67.50591,65.71765
"7686",113.40264,67.05913,64.880424
"7687",113.41598,66.78569,64.20258
"7688",113.42931,66.775925,63.77987
"7689",113.44265,67.29839,63.889084
"7690",113.455986,68.795,64.98876
"7691",113.46932,71.63683,67.48044
"7692",113.48266,75.894714,71.476974
"7693",113.495995,81.25613,76.7101
"7694",113.50933,87.115585,82.60881
"7695",113.52267,92.71381,88.4294
"7696",113.536,97.3843,93.49719
"7697",113.54934,100.77791,97.43406
"7698",113.562675,102.86778,100.17324
"7699",113.57601,103.78577,101.80585
"7700",113.58935,103.70031,102.4637
"7701",113.602684,102.79942,102.30345
"7702",113.61602,101.27596,101.49248
"7703",113.62936,99.317924,100.19931
"7704",113.64269,97.06691,98.55198
"7705",113.65603,94.61326,96.63167
"7706",113.669365,92.0058,94.48087
"7707",113.6827,89.288475,92.13873
"7708",113.69604,86.554054,89.69458
"7709",113.70937,83.946594,87.29193
"7710",113.72271,81.651634,85.1203
"7711",113.736046,79.84985,83.37013
"7712",113.74938,78.65354,82.16913
"7713",113.76272,78.06271,81.536224
"7714",113.776054,77.96994,81.38291
"7715",113.78939,78.18967,81.5392
"7716",113.80273,78.519264,81.812225
"7717",113.81606,78.785385,82.032074
"7718",113.8294,78.870834,82.07957
"7719",113.842735,78.709694,81.88314
"7720",113.85607,78.2971,81.43022
"7721",113.86941,77.64767,80.72758
"7722",113.882744,76.807816,79.81422
"7723",113.89608,75.81659,78.723236
"7724",113.90942,74.73502,77.51094
"7725",113.92275,73.6144,76.22579
"7726",113.93609,72.52796,74.939804
"7727",113.949425,71.53918,73.717514
"7728",113.96276,70.69688,72.61081
"7729",113.9761,70.03281,71.65601
"7730",113.98943,69.55184,70.86357
"7731",114.00277,69.22713,70.21235
"7732",114.016106,69.02693,69.6755
"7733",114.02944,68.90486,69.21052
"7734",114.04278,68.80965,68.76858
"7735",114.056114,68.7071,68.31633
"7736",114.06945,68.58259,67.83891
"7737",114.08279,68.45319,67.35272
"7738",114.09612,68.387276,66.925964
"7739",114.10946,68.628975,66.80476
"7740",114.122795,69.576256,67.3967
"7741",114.13613,71.622185,69.11688
"7742",114.14947,74.93523,72.16812
"7743",114.1628,79.361565,76.43619
"7744",114.17614,84.437325,81.492
"7745",114.189476,89.49355,86.68689
"7746",114.20281,93.8613,91.35131
"7747",114.21615,97.09621,95.01939
"7748",114.229485,99.06645,97.52389
"7749",114.24282,99.83307,98.88633
"7750",114.25616,99.56451,99.23755
"7751",114.26949,98.4683,98.75273
"7752",114.28283,96.7715,97.633064
"7753",114.296165,94.67918,96.06485
"7754",114.3095,92.36225,94.20665
"7755",114.32284,89.92813,92.15885
"7756",114.336174,87.4403,89.98128
"7757",114.34951,84.95247,87.72595
"7758",114.36285,82.55009,85.47833
"7759",114.37618,80.377205,83.38514
"7760",114.38952,78.60227,81.621994
"7761",114.402855,77.36935,80.34539
"7762",114.41619,76.74433,79.63817
"7763",114.42953,76.69062,79.48272
"7764",114.44286,77.069046,79.75773
"7765",114.4562,77.67696,80.274055
"7766",114.469536,78.32395,80.84845
"7767",114.48287,78.84398,81.3161
"7768",114.49621,79.13451,81.5705
"7769",114.509544,79.12962,81.538574
"7770",114.52288,78.81224,81.19399
"7771",114.53622,78.19455,80.539185
"7772",114.54955,77.313194,79.60141
"7773",114.56289,76.20233,78.406586
"7774",114.576225,74.915695,77.001274
"7775",114.58956,73.50454,75.43124
"7776",114.6029,72.03723,73.76095
"7777",114.616234,70.589455,72.06433
"7778",114.62957,69.23445,70.415245
"7779",114.64291,68.035706,68.88007
"7780",114.65624,67.03227,67.502754
"7781",114.66958,66.24124,66.30648
"7782",114.682915,65.6553,65.29057
"7783",114.69625,65.24513,64.43214
"7784",114.70959,64.9839,63.709816
"7785",114.72292,64.84474,63.101402
"7786",114.73626,64.80568,62.588737
"7787",114.749596,64.84718,62.15542
"7788",114.76293,64.97414,61.808846
"7789",114.77627,65.19386,61.559013
"7790",114.789604,65.56008,61.46254
"7791",114.80294,66.28031,61.73152
"7792",114.81628,67.73785,62.760315
"7793",114.82961,70.330666,64.96994
"7794",114.84295,74.232086,68.56919
"7795",114.856285,79.28588,73.44274
"7796",114.86962,85.00862,79.143166
"7797",114.88296,90.704506,84.99557
"7798",114.89629,95.66796,90.29354
"7799",114.90963,99.42779,94.54299
"7800",114.922966,101.82773,97.55005
"7801",114.9363,102.941025,99.34546
"7802",114.94964,102.93858,100.05992
"7803",114.962975,102.01572,99.85388
"7804",114.97631,100.38972,98.91588
"7805",114.98965,98.26322,97.42656
"7806",115.00298,95.79492,95.528984
"7807",115.01632,93.07027,93.29792
"7808",115.029655,90.13809,90.77419
"7809",115.04299,87.04234,87.99526
"7810",115.05633,83.87579,85.04878
"7811",115.069664,80.81178,82.10589
"7812",115.083,78.07736,79.396835
"7813",115.09634,75.92157,77.18096
"7814",115.10967,74.50553,75.637474
"7815",115.12301,73.87076,74.831
"7816",115.136345,73.9025,74.6712
"7817",115.14968,74.390785,74.96895
"7818",115.16302,75.08415,75.48703
"7819",115.17635,75.76288,76.01214
"7820",115.18969,76.265816,76.38267
"7821",115.203026,76.52216,76.52232
"7822",115.21636,76.50996,76.401436
"7823",115.2297,76.26093,76.04335
"7824",115.243034,75.81903,75.484604
"7825",115.25637,75.24284,74.77776
"7826",115.26971,74.58854,73.9748
"7827",115.28304,73.9025,73.11965
"7828",115.29638,73.22865,72.255264
"7829",115.309715,72.61097,71.42598
"7830",115.32305,72.08606,70.670166
"7831",115.33639,71.68566,70.02246
"7832",115.349724,71.42199,69.49896
"7833",115.36306,71.29015,69.09906
"7834",115.376396,71.258415,68.795135
"7835",115.38973,71.27306,68.536606
"7836",115.40307,71.275505,68.26633
"7837",115.416405,71.219345,67.93753
"7838",115.42974,71.05821,67.502
"7839",115.44308,70.76036,66.92471
"7840",115.45641,70.30381,66.17943
"7841",115.46975,69.698326,65.270935
"7842",115.483086,68.99275,64.24343
"7843",115.49642,68.3238,63.2305
"7844",115.50976,68.01129,62.55311
"7845",115.523094,68.577705,62.744873
"7846",115.53643,70.521095,64.331314
"7847",115.54977,74.04166,67.55566
"7848",115.5631,78.89769,72.225494
"7849",115.57644,84.49348,77.786835
"7850",115.589775,90.055084,83.48886
"7851",115.60311,94.84032,88.58832
"7852",115.61645,98.37553,92.58729
"7853",115.62978,100.56794,95.353935
"7854",115.64312,101.55184,96.98058
"7855",115.656456,101.50301,97.60525
"7856",115.66979,100.61433,97.38853
"7857",115.68313,99.09819,96.51659
"7858",115.696465,97.164566,95.17978
"7859",115.7098,94.95018,93.501785
"7860",115.72314,92.542915,91.561714
"7861",115.73647,89.98428,89.39505
"7862",115.74981,87.35485,87.07763
"7863",115.763145,84.79378,84.7464
"7864",115.77648,82.50614,82.60857
"7865",115.78982,80.706795,80.887535
"7866",115.803154,79.56176,79.76459
"7867",115.81649,79.12474,79.31387
"7868",115.82983,79.31274,79.47452
"7869",115.84316,79.92554,80.06584
"7870",115.8565,80.706795,80.84477
"7871",115.869835,81.42947,81.58953
"7872",115.88317,81.92508,82.129814
"7873",115.89651,82.09842,82.36331
"7874",115.90984,81.92264,82.253105
"7875",115.92318,81.41726,81.80781
"7876",115.936516,80.62379,81.058624
"7877",115.94985,79.5935,80.04783
"7878",115.96319,78.37278,78.81441
"7879",115.976524,77.01289,77.40367
"7880",115.98986,75.57488,75.872314
"7881",116.0032,74.124664,74.28381
"7882",116.01653,72.72083,72.69638
"7883",116.02987,71.414665,71.162735
"7884",116.043205,70.25742,69.7372
"7885",116.05654,69.27596,68.45128
"7886",116.06988,68.48737,67.32756
"7887",116.08321,67.894104,66.37452
"7888",116.09655,67.493706,65.59581
"7889",116.109886,67.283745,64.995026
"7890",116.12322,67.25201,64.5659
"7891",116.13656,67.3814,64.29692
"7892",116.149895,67.67681,64.198
"7893",116.16323,68.19928,64.335365
"7894",116.17657,69.16121,64.92852
"7895",116.1899,70.91905,66.34765
"7896",116.20324,73.795074,68.939896
"7897",116.216576,77.8674,72.81832
"7898",116.22991,82.88457,77.768845
"7899",116.24325,88.326546,83.300964
"7900",116.256584,93.521935,88.75656
"7901",116.26992,97.848175,93.50536
"7902",116.28326,100.9366,97.15154
"7903",116.29659,102.71885,99.58806
"7904",116.30993,103.3048,100.88397
"7905",116.323265,102.86778,101.17523
"7906",116.3366,101.60067,100.62274
"7907",116.34994,99.71099,99.40808
"7908",116.36327,97.37209,97.68515
"7909",116.37661,94.71824,95.57417
"7910",116.389946,91.81537,93.13125
"7911",116.40328,88.707405,90.39252
"7912",116.41662,85.47494,87.43216
"7913",116.429955,82.262,84.39031
"7914",116.44329,79.29809,81.497086
"7915",116.45663,76.839554,79.01662
"7916",116.46996,75.106125,77.184425
"7917",116.4833,74.20767,76.13304
"7918",116.496635,74.08316,75.82752
"7919",116.50997,74.53971,76.099174
"7920",116.52331,75.30633,76.69516
"7921",116.536644,76.121765,77.36392
"7922",116.54998,76.78096,77.901924
"7923",116.56332,77.17403,78.1944
"7924",116.57665,77.25948,78.19154
"7925",116.58999,77.069046,77.91547
"7926",116.603325,76.654,77.40883
"7927",116.61666,76.085144,76.73541
"7928",116.63,75.41863,75.94656
"7929",116.64333,74.6984,75.08317
"7930",116.65667,73.953766,74.17286
"7931",116.670006,73.214005,73.244156
"7932",116.68334,72.50599,72.32408
"7933",116.69668,71.84924,71.43315
"7934",116.710014,71.25353,70.58273
"7935",116.72335,70.74082,69.79669
"7936",116.73669,70.32334,69.08986
"7937",116.75002,69.996185,68.460304
"7938",116.76336,69.754486,67.90598
"7939",116.776695,69.58846,67.419785
"7940",116.79003,69.488365,66.99432
"7941",116.80337,69.4786,66.65607
"7942",116.8167,69.69344,66.542114
"7943",116.83004,70.46494,66.99153
"7944",116.843376,72.198364,68.42698
"7945",116.85671,75.14763,71.13245
"7946",116.87005,79.259026,75.09221
"7947",116.883385,84.16632,79.97635
"7948",116.89672,89.251854,85.19208
"7949",116.91006,93.82956,90.05891
"7950",116.92339,97.36477,94.02629
"7951",116.93673,99.630424,96.834595
"7952",116.950066,100.646065,98.463684
"7953",116.9634,100.55085,99.01366
"7954",116.97674,99.53277,98.63779
"7955",116.990074,97.80423,97.519646
"7956",117.00341,95.57763,95.84943
"7957",117.01675,93.02876,93.78736
"7958",117.03008,90.27482,91.44057
"7959",117.04342,87.39147,88.87831
"7960",117.056755,84.44953,86.16736
"7961",117.07009,81.55154,83.40841
"7962",117.08343,78.87572,80.781075
"7963",117.09676,76.63935,78.509575
"7964",117.1101,75.0573,76.8225
"7965",117.123436,74.25651,75.867256
"7966",117.13677,74.229645,75.66091
"7967",117.15011,74.827805,76.07875
"7968",117.163445,75.81415,76.903465
"7969",117.17678,76.927444,77.885956
"7970",117.19012,77.94797,78.81046
"7971",117.20345,78.7219,79.52027
"7972",117.21679,79.17845,79.93688
"7973",117.230125,79.29809,80.030846
"7974",117.24346,79.11009,79.820915
"7975",117.2568,78.658424,79.34144
"7976",117.270134,77.98215,78.62324
"7977",117.28347,77.137405,77.71544
"7978",117.29681,76.16571,76.65429
"7979",117.31014,75.11589,75.48465
"7980",117.32348,74.019684,74.23582
"7981",117.336815,72.903946,72.9332
"7982",117.35015,71.78821,71.59571
"7983",117.36349,70.69688,70.24776
"7984",117.37682,69.6495,68.90965
"7985",117.39016,68.67536,67.61206
"7986",117.403496,67.79889,66.38169
"7987",117.41683,67.04204,65.24355
"7988",117.43017,66.41215,64.208725
"7989",117.443504,65.916534,63.28849
"7990",117.45684,65.616234,62.54808
"7991",117.47018,65.73586,62.218216
"7992",117.48351,66.70512,62.741714
"7993",117.49685,68.96834,64.58947
"7994",117.510185,72.723274,67.999664
"7995",117.52352,77.77219,72.82118
"7996",117.53686,83.57061,78.54999
"7997",117.55019,89.35195,84.44291
"7998",117.56353,94.35691,89.74012
"7999",117.576866,98.106964,93.93883
"8000",117.5902,100.48249,96.880196
"8001",117.60354,101.610435,98.64822
"8002",117.616875,101.67391,99.38702
"8003",117.63021,100.88533,99.27574
"8004",117.64355,99.44488,98.48795
"8005",117.65688,97.5552,97.205925
"8006",117.67022,95.37255,95.57188
"8007",117.683556,92.997025,93.67674
"8008",117.69689,90.477455,91.56333
"8009",117.71023,87.852905,89.266205
"8010",117.723564,85.21614,86.87485
"8011",117.7369,82.71122,84.53293
"8012",117.75024,80.51881,82.42524
"8013",117.76357,78.82201,80.74465
"8014",117.77691,77.733116,79.61895
"8015",117.790245,77.264366,79.07936
"8016",117.80358,77.30343,79.032936
"8017",117.81692,77.6672,79.31244
"8018",117.83025,78.15549,79.72783
"8019",117.84359,78.58762,80.102325
"8020",117.856926,78.82689,80.297455
"8021",117.87026,78.80003,80.23394
"8022",117.8836,78.4802,79.87661
"8023",117.896935,77.87717,79.22608
"8024",117.91027,77.02022,78.302795
"8025",117.92361,75.95819,77.14765
"8026",117.93694,74.74235,75.805504
"8027",117.95028,73.43374,74.332596
"8028",117.963615,72.10315,72.796814
"8029",117.97695,70.81651,71.2634
"8030",117.99029,69.63485,69.794754
"8031",118.003624,68.607,68.44299
"8032",118.01696,67.76959,67.24955
"8033",118.0303,67.142136,66.23989
"8034",118.04363,66.72465,65.42059
"8035",118.05697,66.50492,64.78601
"8036",118.070305,66.45121,64.31058
"8037",118.08364,66.52445,63.96042
"8038",118.09698,66.70512,63.71997
"8039",118.11031,66.99809,63.59748
"8040",118.12365,67.527885,63.720963
"8041",118.136986,68.61433,64.41765
"8042",118.15032,70.68223,66.129745
"8043",118.16366,74.01724,69.17358
"8044",118.176994,78.59495,73.56432
"8045",118.19033,84.04669,78.97216
"8046",118.20367,89.74502,84.79694
"8047",118.217,94.95506,90.31152
"8048",118.23034,99.09575,94.919556
"8049",118.243675,101.89365,98.31419
"8050",118.25701,103.36584,100.470566
"8051",118.27035,103.65148,101.48639
"8052",118.28368,102.94347,101.51749
"8053",118.29702,101.468834,100.75984
"8054",118.310356,99.44732,99.409225
"8055",118.32369,97.074234,97.64387
"8056",118.33703,94.48142,95.584625
"8057",118.350365,91.74944,93.30519
"8058",118.3637,88.90761,90.83053
"8059",118.37704,85.994965,88.19624
"8060",118.39037,83.09941,85.48803
"8061",118.40371,80.37965,82.86512
"8062",118.417046,78.03586,80.533195
"8063",118.43038,76.25361,78.68957
"8064",118.44372,75.14763,77.466515
"8065",118.457054,74.70817,76.87542
"8066",118.47039,74.82292,76.82481
"8067",118.48373,75.299,77.13911
"8068",118.49706,75.9411,77.6343
"8069",118.5104,76.56855,78.13491
"8070",118.523735,77.06172,78.52085
"8071",118.53707,77.349815,78.717125
"8072",118.55041,77.41085,78.69534
"8073",118.56374,77.24727,78.45085
"8074",118.57708,76.89082,78.008385
"8075",118.590416,76.37568,77.39608
"8076",118.60375,75.755554,76.6627
"8077",118.61709,75.06706,75.84157
"8078",118.630424,74.36149,74.98184
"8079",118.64376,73.66567,74.109825
"8080",118.6571,73.00893,73.255135
"8081",118.67043,72.39857,72.42631
"8082",118.68377,71.84192,71.63211
"8083",118.697105,71.33654,70.871796
"8084",118.71044,70.87755,70.142075
"8085",118.72378,70.44785,69.42731
"8086",118.737114,70.02792,68.70887
"8087",118.75045,69.60311,67.97243
"8088",118.76379,69.15633,67.20074
"8089",118.77712,68.682686,66.38823
"8090",118.79046,68.20416,65.55604
"8091",118.803795,67.81598,64.79923
"8092",118.81713,67.76715,64.36965
"8093",118.83047,68.50446,64.724686
"8094",118.8438,70.49668,66.357666
"8095",118.85714,73.953766,69.51777
"8096",118.870476,78.69993,74.07499
"8097",118.88381,84.2298,79.56423
"8098",118.89715,89.79874,85.26535
"8099",118.910484,94.64988,90.42271
"8100",118.92382,98.285194,94.51583
"8101",118.93716,100.55085,97.3529
"8102",118.95049,101.52743,98.97169
"8103",118.96383,101.38827,99.50526
"8104",118.977165,100.35798,99.14335
"8105",118.9905,98.67094,98.09249
"8106",119.00384,96.55909,96.56411
"8107",119.01717,94.203094,94.725586
"8108",119.03051,91.71526,92.6816
"8109",119.043846,89.15419,90.48663
"8110",119.05718,86.56626,88.18477
"8111",119.07052,84.02472,85.84842
"8112",119.083855,81.654076,83.603546
"8113",119.09719,79.622795,81.623955
"8114",119.11053,78.08957,80.07894
"8115",119.12386,77.154495,79.08417
"8116",119.1372,76.8127,78.65345
"8117",119.150536,76.964066,78.705215
"8118",119.16387,77.43038,79.07666
"8119",119.17721,78.02609,79.59207
"8120",119.190544,78.58274,80.087036
"8121",119.20388,78.9807,80.440704
"8122",119.21722,79.14183,80.569984
"8123",119.23055,79.03929,80.44063
"8124",119.24389,78.675514,80.04683
"8125",119.257225,78.07492,79.40485
"8126",119.27056,77.26681,78.536575
"8127",119.2839,76.28535,77.4697
"8128",119.29723,75.157394,76.22567
"8129",119.31057,73.92203,74.838974
"8130",119.323906,72.62318,73.35019
"8131",119.33724,71.31701,71.81349
"8132",119.35058,70.05478,70.27992
"8133",119.363914,68.89754,68.81189
"8134",119.37725,67.88434,67.45174
"8135",119.39059,67.0396,66.22838
"8136",119.40392,66.35355,65.13732
"8137",119.41726,65.80667,64.16399
"8138",119.430595,65.36477,63.27854
"8139",119.44393,65.00099,62.457413
"8140",119.45727,64.67628,61.66398
"8141",119.470604,64.37354,60.882378
"8142",119.48394,64.10254,60.123047
"8143",119.49728,63.882812,59.406525
"8144",119.51061,63.785152,58.805202
"8145",119.52395,64.009766,58.5231
"8146",119.537285,64.98634,58.999985
"8147",119.55062,67.22026,60.764725
"8148",119.56396,71.02159,64.16669
"8149",119.57729,76.28779,69.15231
"8150",119.59063,82.511024,75.259544
"8151",119.603966,88.91737,81.74436
"8152",119.6173,94.65232,87.75798
"8153",119.63064,99.09331,92.65685
"8154",119.643974,102.02304,96.18325
"8155",119.65731,103.534294,98.38272
"8156",119.67065,103.834595,99.41847
"8157",119.68398,103.15343,99.48213
"8158",119.69732,101.715416,98.76767
"8159",119.710655,99.74273,97.47359
"8160",119.72399,97.411156,95.75897
"8161",119.73733,94.83055,93.722466
"8162",119.75066,92.0473,91.40267
"8163",119.764,89.093155,88.825005
"8164",119.777336,86.0267,86.04271
"8165",119.79067,82.99443,83.19877
"8166",119.80401,80.2063,80.50421
"8167",119.817345,77.908905,78.213264
"8168",119.83068,76.30244,76.54145
"8169",119.84402,75.46258,75.586044
"8170",119.85735,75.32342,75.30509
"8171",119.87069,75.69451,75.530045
"8172",119.884026,76.32685,76.02784
"8173",119.89736,76.9836,76.5698
"8174",119.9107,77.48165,76.973595
"8175",119.924034,77.71114,77.12439
"8176",119.93737,77.63546,76.97718
"8177",119.95071,77.26925,76.53708
"8178",119.96404,76.64179,75.82429
"8179",119.97738,75.80682,74.88438
"8180",119.990715,74.81804,73.76456
"8181",120.00405,73.7438,72.52838
"8182",120.01739,72.65003,71.23911
"8183",120.03072,71.60998,69.969376
"8184",120.04406,70.69199,68.7892
"8185",120.057396,69.942474,67.7488
"8186",120.07073,69.39071,66.88274
"8187",120.08407,69.0367,66.19718
"8188",120.097404,68.87312,65.691
"8189",120.11074,68.86824,65.3384
"8190",120.12408,68.980545,65.10284
"8191",120.13741,69.16609,64.94402
"8192",120.15075,69.38094,64.82031
"8193",120.164085,69.58358,64.6911
"8194",120.17742,69.747154,64.52916
"8195",120.19076,69.85214,64.31374
"8196",120.204094,69.88144,64.02592
"8197",120.21743,69.83505,63.663326
"8198",120.23077,69.749596,63.260216
"8199",120.2441,69.79111,62.981403
"8200",120.25744,70.34043,63.2117
"8201",120.270775,71.9176,64.48701
"8202",120.28411,74.898605,67.21544
"8203",120.29745,79.27123,71.42865
"8204",120.31078,84.61799,76.75263
"8205",120.32412,90.228424,82.50738
"8206",120.337456,95.28466,87.883255
"8207",120.35079,99.156784,92.233025
"8208",120.36413,101.58358,95.25847
"8209",120.377464,102.643166,96.99254
"8210",120.3908,102.54307,97.60004
"8211",120.40414,101.49813,97.25957
"8212",120.41747,99.70855,96.1418
"8213",120.43081,97.36721,94.41635
"8214",120.444145,94.625465,92.21733
"8215",120.45748,91.59075,89.63966
"8216",120.47082,88.343636,86.75476
"8217",120.48415,84.97444,83.6463
"8218",120.49749,81.62234,80.449646
"8219",120.510826,78.51438,77.39239
"8220",120.52416,75.91913,74.75071
"8221",120.5375,74.09781,72.801865
"8222",120.550835,73.214005,71.73362
"8223",120.56417,73.28481,71.59237
"8224",120.57751,74.14908,72.24679
"8225",120.59084,75.528496,73.44337
"8226",120.60418,77.09834,74.87348
"8227",120.617516,78.56321,76.24767
"8228",120.63085,79.72289,77.36246
"8229",120.64419,80.462654,78.09356
"8230",120.657524,80.765396,78.41076
"8231",120.67086,80.66285,78.33213
"8232",120.6842,80.216064,77.90606
"8233",120.69753,79.48852,77.185265
"8234",120.71087,78.54856,76.229324
"8235",120.724205,77.45968,75.095085
"8236",120.73754,76.28535,73.84137
"8237",120.75088,75.08171,72.52165
"8238",120.76421,73.89761,71.18386
"8239",120.77755,72.77211,69.86766
"8240",120.790886,71.727165,68.59685
"8241",120.80422,70.77501,67.38617
"8242",120.81756,69.91806,66.24094
"8243",120.830894,69.15877,65.16658
"8244",120.84423,68.4947,64.16372
"8245",120.85757,67.92096,63.23044
"8246",120.8709,67.43511,62.36712
"8247",120.88424,67.02251,61.56186
"8248",120.897575,66.69047,60.824272
"8249",120.91091,66.492714,60.210594
"8250",120.92425,66.597694,59.89347
"8251",120.937584,67.39117,60.26812
"8252",120.95092,69.41512,61.89805
"8253",120.96426,73.03334,65.185486
"8254",120.97759,78.184784,70.119225
"8255",120.99093,84.35676,76.234474
"8256",121.004265,90.736244,82.75011
"8257",121.0176,96.43702,88.78639
"8258",121.03094,100.790115,93.653145
"8259",121.04427,103.54894,97.06166
"8260",121.05761,104.84291,99.09154
"8261",121.070946,104.938126,99.96309
"8262",121.08428,104.076294,99.88057
"8263",121.09762,102.467384,99.02405
"8264",121.110954,100.29694,97.55571
"8265",121.12429,97.70901,95.60205
"8266",121.13763,94.78172,93.22817
"8267",121.15096,91.561455,90.46983
"8268",121.1643,88.10437,87.37405
"8269",121.177635,84.51789,84.04083
"8270",121.19097,81.00954,80.67366
"8271",121.20431,77.8674,77.56307
"8272",121.21764,75.39422,75.02325
"8273",121.23098,73.82193,73.30703
"8274",121.244316,73.2433,72.53534
"8275",121.25765,73.55825,72.639145
"8276",121.27099,74.50797,73.387566
"8277",121.284325,75.755554,74.463524
"8278",121.29766,76.978714,75.55405
"8279",121.311,77.93088,76.4118
"8280",121.32433,78.47532,76.89158
"8281",121.33767,78.59251,76.96112
"8282",121.351006,78.32395,76.64858
"8283",121.36434,77.733116,76.00537
"8284",121.37768,76.895706,75.09712
"8285",121.391014,75.88251,73.986916
"8286",121.40435,74.75212,72.72786
"8287",121.41769,73.568016,71.37976
"8288",121.43102,72.39857,70.009315
"8289",121.44436,71.3048,68.67801
"8290",121.457695,70.3209,67.42238
"8291",121.47103,69.47616,66.27516
"8292",121.48437,68.77791,65.24804
"8293",121.4977,68.23346,64.3529
"8294",121.51104,67.83307,63.5848
"8295",121.524376,67.55962,62.931137
"8296",121.53771,67.405815,62.388565
"8297",121.55105,67.352104,61.941284
"8298",121.564384,67.405815,61.599747
"8299",121.57772,67.67925,61.479614
"8300",121.59106,68.492256,61.907593
"8301",121.60439,70.35752,63.41324
"8302",121.61773,73.69985,66.45424
"8303",121.631065,78.56809,71.1256
"8304",121.6444,84.542305,77.05507
"8305",121.65774,90.88518,83.53989
"8306",121.671074,96.705574,89.70045
"8307",121.68441,101.261314,94.77824
"8308",121.69775,104.22278,98.40411
"8309",121.71108,105.66811,100.606415
"8310",121.72442,105.85855,101.59898
"8311",121.737755,105.057755,101.60626
"8312",121.75109,103.49035,100.821915
"8313",121.76443,101.35409,99.41972
"8314",121.77776,98.81743,97.55038
"8315",121.7911,95.98535,95.30634
"8316",121.804436,92.92378,92.744316
"8317",121.81777,89.703514,89.92792
"8318",121.83111,86.42222,86.94986
"8319",121.844444,83.26299,83.991325
"8320",121.85778,80.45777,81.28807
"8321",121.87112,78.25559,79.1002
"8322",121.88445,76.841995,77.63209
"8323",121.89779,76.28535,76.97675
"8324",121.911125,76.49287,77.06819
"8325",121.92446,77.24483,77.710556
"8326",121.9378,78.27024,78.64987
"8327",121.95113,79.30297,79.62855
"8328",121.96447,80.14038,80.444176
"8329",121.977806,80.66041,80.96859
"8330",121.99114,80.816666,81.145485
"8331",122.00448,80.61402,80.96836
"8332",122.017815,80.093994,80.46752
"8333",122.03115,79.293205,79.66967
"8334",122.04449,78.25559,78.60997
"8335",122.05782,77.01778,77.31764
"8336",122.07116,75.60662,75.81329
"8337",122.084496,74.06119,74.13057
"8338",122.09783,72.430305,72.3141
"8339",122.11117,70.77257,70.419815
"8340",122.124504,69.149,68.50789
"8341",122.13784,67.62554,66.64533
"8342",122.15118,66.2559,64.888985
"8343",122.16451,65.074234,63.277817
"8344",122.17785,64.095215,61.832367
"8345",122.191185,63.318836,60.558964
"8346",122.20452,62.735332,59.454174
"8347",122.21786,62.39353,58.572853
"8348",122.23119,62.488747,58.117867
"8349",122.24453,63.45556,58.537453
"8350",122.257866,65.86282,60.427704
"8351",122.2712,70.04013,64.16322
"8352",122.28454,75.81903,69.630875
"8353",122.297874,82.564735,76.245926
"8354",122.31121,89.37148,83.13282
"8355",122.32455,95.311516,89.365715
"8356",122.33788,99.74761,94.2803
"8357",122.35122,102.52598,97.67577
"8358",122.364555,103.86389,99.71762
"8359",122.37789,104.044556,100.64403
"8360",122.39123,103.312126,100.662994
"8361",122.404564,101.87167,99.95105
"8362",122.4179,99.9234,98.686264
"8363",122.43124,97.61379,96.99926
"8364",122.44457,95.04295,94.97885
"8365",122.45791,92.26215,92.668144
"8366",122.471245,89.32021,90.1094
"8367",122.48458,86.29771,87.37815
"8368",122.49792,83.346,84.623245
"8369",122.51125,80.67994,82.061745
"8370",122.52459,78.52415,79.9272
"8371",122.537926,77.04219,78.399124
"8372",122.55126,76.282906,77.54741
"8373",122.5646,76.15839,77.30673
"8374",122.577934,76.470894,77.49919
"8375",122.59127,76.97627,77.89429
"8376",122.60461,77.44747,78.270996
"8377",122.61794,77.72091,78.46467
"8378",122.63128,77.71114,78.38368
"8379",122.644615,77.3962,77.997215
"8380",122.65795,76.80049,77.32014
"8381",122.67129,75.96063,76.380295
"8382",122.68462,74.93523,75.22866
"8383",122.69796,73.795074,73.93024
"8384",122.711296,72.61585,72.55711
"8385",122.72463,71.4757,71.1862
"8386",122.73797,70.435646,69.87976
"8387",122.751305,69.539635,68.68486
"8388",122.76464,68.795,67.613335
"8389",122.77798,68.19928,66.66746
"8390",122.79131,67.7232,65.8226
"8391",122.80465,67.34478,65.06053
"8392",122.817986,67.04204,64.36231
"8393",122.83132,66.78569,63.701027
"8394",122.84466,66.55863,63.06102
"8395",122.857994,66.36576,62.448105
"8396",122.87133,66.229034,61.885307
"8397",122.88467,66.22171,61.44764
"8398",122.898,66.58549,61.380844
"8399",122.91134,67.78668,62.162834
"8400",122.924675,70.33555,64.33003
"8401",122.93801,74.47135,68.16382
"8402",122.95135,79.971924,73.49162
"8403",122.96468,86.21713,79.735954
"8404",122.97802,92.35493,86.06803
"8405",122.991356,97.54055,91.63975
"8406",123.00469,101.23445,95.88179
"8407",123.01803,103.343864,98.65478
"8408",123.031364,104.076294,100.1167
"8409",123.0447,103.69543,100.48822
"8410",123.05804,102.435646,99.96892
"8411",123.07137,100.52888,98.76326
"8412",123.08471,98.177765,97.05367
"8413",123.098045,95.55077,94.994736
"8414",123.11138,92.74799,92.67792
"8415",123.12472,89.83292,90.16122
"8416",123.138054,86.85924,87.49482
"8417",123.15139,83.94171,84.79164
"8418",123.16473,81.24635,82.21946
"8419",123.17806,78.975815,79.98787
"8420",123.1914,77.31808,78.29813
"8421",123.204735,76.383,77.27924
"8422",123.21807,76.14618,76.92939
"8423",123.23141,76.44892,77.1117
"8424",123.24474,77.069046,77.62086
"8425",123.25808,77.7673,78.22752
"8426",123.271416,78.33616,78.72661
"8427",123.28475,78.65354,78.992
"8428",123.29809,78.65598,78.95236
"8429",123.311424,78.345924,78.6003
"8430",123.32476,77.752655,77.955345
"8431",123.3381,76.925,77.057465
"8432",123.35143,75.90448,75.94085
"8433",123.36477,74.75212,74.66051
"8434",123.378105,73.51675,73.26114
"8435",123.39144,72.26673,71.808525
"8436",123.40478,71.06065,70.36078
"8437",123.41811,69.95224,68.97301
"8438",123.43145,68.98299,67.68976
"8439",123.444786,68.17975,66.54224
"8440",123.45812,67.562065,65.55517
"8441",123.47146,67.13237,64.736786
"8442",123.484795,66.87602,64.07832
"8443",123.49813,66.76372,63.555893
"8444",123.51147,66.75151,63.13005
"8445",123.5248,66.78813,62.752655
"8446",123.53814,66.83452,62.38617
"8447",123.551476,66.85893,61.99916
"8448",123.56481,66.83452,61.564087
"8449",123.57815,66.758835,61.07698
"8450",123.591484,66.66361,60.56797
"8451",123.60482,66.67094,60.15853
"8452",123.61816,67.122604,60.193665
"8453",123.63149,68.60944,61.278084
"8454",123.64483,71.68566,63.998344
"8455",123.658165,76.49531,68.54817
"8456",123.6715,82.65507,74.59841
"8457",123.68484,89.3666,81.392914
"8458",123.69817,95.658195,87.97722
"8459",123.71151,100.66804,93.47638
"8460",123.724846,103.96155,97.415764
"8461",123.73818,105.59731,99.80032
"8462",123.75152,105.863434,100.86636
"8463",123.764854,105.04555,100.856705
"8464",123.77819,103.38537,99.9792
"8465",123.79153,101.1075,98.43213
"8466",123.80486,98.409706,96.39394
"8467",123.8182,95.450676,94.010216
"8468",123.831535,92.335396,91.37777
"8469",123.84487,89.1371,88.56496
"8470",123.85821,85.94614,85.65953
"8471",123.871544,82.896774,82.79598
"8472",123.88488,80.201416,80.19115
"8473",123.89822,78.08713,78.08315
"8474",123.91155,76.734566,76.670815
"8475",123.92489,76.21942,76.05363
"8476",123.938225,76.45869,76.17475
"8477",123.95156,77.23506,76.84046
"8478",123.9649,78.25803,77.77703
"8479",123.97823,79.256584,78.721146
"8480",123.99157,80.028076,79.469406
"8481",124.004906,80.448006,79.89021
"8482",124.01824,80.47486,79.93107
"8483",124.03158,80.130615,79.60166
"8484",124.044914,79.47143,78.946556
"8485",124.05825,78.56565,78.02426
"8486",124.07159,77.47921,76.893
"8487",124.08492,76.27558,75.610596
"8488",124.09826,75.003586,74.22221
"8489",124.111595,73.71206,72.77455
"8490",124.12493,72.45716,71.32316
"8491",124.13827,71.29015,69.92044
"8492",124.1516,70.27451,68.632614
"8493",124.16494,69.454185,67.50836
"8494",124.178276,68.858475,66.58309
"8495",124.19161,68.48005,65.85649
"8496",124.20495,68.28962,65.30606
"8497",124.218285,68.23834,64.88883
"8498",124.23162,68.265205,64.54814
"8499",124.24496,68.30671,64.22293
"8500",124.25829,68.32136,63.87216
"8501",124.27163,68.282295,63.46814
"8502",124.284966,68.17731,62.99697
"8503",124.2983,68.01373,62.463936
"8504",124.31164,67.828186,61.903816
"8505",124.324974,67.72564,61.4209
"8506",124.33831,68.01129,61.322975
"8507",124.35165,69.20271,62.139748
"8508",124.36498,71.87366,64.473274
"8509",124.37832,76.263374,68.60904
"8510",124.391655,82.08133,74.31023
"8511",124.40499,88.59754,80.89148
"8512",124.41833,94.872055,87.43466
"8513",124.43166,100.018616,93.045975
"8514",124.445,103.51232,97.16526
"8515",124.458336,105.32632,99.71402
"8516",124.47167,105.738914,100.91806
"8517",124.48501,105.05043,101.03392
"8518",124.498344,103.505,100.27132
"8519",124.51168,101.315025,98.81587
"8520",124.52502,98.66605,96.83299
"8521",124.53835,95.6997,94.44995
"8522",124.55169,92.51118,91.752045
"8523",124.565025,89.17616,88.80801
"8524",124.57836,85.78256,85.70116
"8525",124.5917,82.48905,82.58835
"8526",124.605034,79.520256,79.697334
"8527",124.61837,77.14229,77.304375
"8528",124.63171,75.57244,75.645226
"8529",124.64504,74.92302,74.857445
"8530",124.65838,75.13054,74.90631
"8531",124.671715,75.97772,75.601326
"8532",124.68505,77.16182,76.65973
"8533",124.69839,78.36057,77.76979
"8534",124.71172,79.32494,78.68293
"8535",124.72506,79.90845,79.24534
"8536",124.738396,80.05737,79.3914
"8537",124.75173,79.79126,79.12708
"8538",124.76507,79.185776,78.515076
"8539",124.778404,78.32151,77.62537
"8540",124.79174,77.281456,76.53286
"8541",124.80508,76.121765,75.288216
"8542",124.81841,74.90593,73.95119
"8543",124.83175,73.67788,72.56395
"8544",124.845085,72.49378,71.18229
"8545",124.85842,71.40246,69.8564
"8546",124.87176,70.452736,68.638
"8547",124.88509,69.678795,67.565704
"8548",124.89843,69.09041,66.65478
"8549",124.911766,68.663155,65.8866
"8550",124.9251,68.370186,65.23935
"8551",124.93844,68.16998,64.67571
"8552",124.951775,68.02594,64.16198
"8553",124.96511,67.90875,63.6706
"8554",124.97845,67.80621,63.19021
"8555",124.99178,67.70367,62.706604
"8556",125.00512,67.60845,62.227127
"8557",125.018456,67.57427,61.80571
"8558",125.03179,67.78424,61.627373
"8559",125.04513,68.648506,62.109894
"8560",125.058464,70.750595,63.857246
"8561",125.0718,74.50065,67.31825
"8562",125.08514,79.83765,72.4834
"8563",125.09847,86.202484,78.84316
"8564",125.11181,92.72114,85.55564
"8565",125.125145,98.439,91.67104
"8566",125.13848,102.65049,96.45875
"8567",125.15182,105.11879,99.63487
"8568",125.16515,106.03189,101.33293
"8569",125.17849,105.70962,101.82416
"8570",125.191826,104.43763,101.35559
"8571",125.20516,102.44785,100.129486
"8572",125.2185,99.93805,98.32118
"8573",125.231834,97.07179,96.07799
"8574",125.24517,93.96384,93.503525
"8575",125.25851,90.69474,90.6708
"8576",125.27184,87.31579,87.62606
"8577",125.28518,83.94415,84.48305
"8578",125.298515,80.762955,81.4251
"8579",125.31185,78.009,78.69499
"8580",125.32519,75.928894,76.552666
"8581",125.338524,74.71061,75.20716
"8582",125.35186,74.39811,74.72937
"8583",125.3652,74.864426,75.02063
"8584",125.37853,75.85565,75.85137
"8585",125.39187,77.0544,76.92061
"8586",125.405205,78.170135,77.9443
"8587",125.41854,78.992905,78.709885
"8588",125.43188,79.40795,79.09346
"8589",125.44521,79.38842,79.05543
"8590",125.45855,78.98558,78.63348
"8591",125.471886,78.28001,77.8962
"8592",125.48522,77.3547,76.917145
"8593",125.49856,76.27802,75.757805
"8594",125.511894,75.11345,74.47692
"8595",125.52523,73.90982,73.12059
"8596",125.53857,72.71839,71.738846
"8597",125.5519,71.58068,70.37358
"8598",125.56524,70.555275,69.08507
"8599",125.578575,69.68612,67.92076
"8600",125.59191,69.00008,66.91241
"8601",125.60525,68.49958,66.06816
"8602",125.61858,68.16754,65.37673
"8603",125.63192,67.964905,64.80433
"8604",125.645256,67.84772,64.31104
"8605",125.65859,67.774475,63.85804
"8606",125.67193,67.70855,63.410065
"8607",125.685265,67.62798,62.94539
"8608",125.6986,67.51324,62.444016
"8609",125.71194,67.3814,61.921967
"8610",125.72527,67.32525,61.47148
"8611",125.73861,67.62554,61.375687
"8612",125.751945,68.81209,62.17553
"8613",125.76528,71.505,64.518814
"8614",125.77862,75.99725,68.745605
"8615",125.791954,82.02762,74.65089
"8616",125.80529,88.8539,81.54053
"8617",125.81863,95.48974,88.45305
"8618",125.83196,100.980545,94.42791
"8619",125.8453,104.740364,98.84337
"8620",125.858635,106.71305,101.58919
"8621",125.87197,107.19646,102.90738
"8622",125.88531,106.52506,103.08588
"8623",125.89864,104.97719,102.36691
"8624",125.91198,102.77501,100.94527
"8625",125.925316,100.121155,99.00313
"8626",125.93865,97.164566,96.67532
"8627",125.95199,94.01511,94.062256
"8628",125.965324,90.736244,91.22137
"8629",125.97866,87.39391,88.21455
"8630",125.992,84.09796,85.14966
"8631",126.00533,81.03395,82.21371
"8632",126.01867,78.42649,79.63856
"8633",126.032005,76.49531,77.6582
"8634",126.04534,75.38445,76.43783
"8635",126.05868,75.0988,76.00794
"8636",126.072014,75.4992,76.25518
"8637",126.08535,76.33906,76.95439
"8638",126.09869,77.32296,77.82389
"8639",126.11202,78.20187,78.61915
"8640",126.12536,78.79515,79.156235
"8641",126.138695,79.01976,79.34319
"8642",126.15203,78.86839,79.161194
"8643",126.16537,78.38499,78.642426
"8644",126.1787,77.64767,77.85464
"8645",126.19204,76.72236,76.85582
"8646",126.205376,75.665215,75.69625
"8647",126.21871,74.52262,74.4182
"8648",126.23205,73.34341,73.06782
"8649",126.245384,72.16907,71.68546
"8650",126.25872,71.05333,70.32501
"8651",126.27206,70.047455,69.03955
"8652",126.28539,69.20271,67.88379
"8653",126.29873,68.543526,66.887184
"8654",126.312065,68.08209,66.06773
"8655",126.3254,67.791565,65.40477
"8656",126.33874,67.63531,64.867
"8657",126.35207,67.55962,64.404915
"8658",126.36541,67.523,63.97953
"8659",126.378746,67.48882,63.555443
"8660",126.39208,67.43511,63.110756
"8661",126.40542,67.35943,62.642418
"8662",126.418755,67.26177,62.149742
"8663",126.43209,67.16167,61.651566
"8664",126.44543,67.16167,61.250366
"8665",126.45876,67.55962,61.247124
"8666",126.4721,68.9073,62.20604
"8667",126.485435,71.80286,64.754944
"8668",126.49877,76.49531,69.19124
"8669",126.51211,82.6746,75.26101
"8670",126.525444,89.566795,82.236786
"8671",126.53878,96.17334,89.142296
"8672",126.55212,101.56161,95.03598
"8673",126.56545,105.20668,99.35485
"8674",126.57879,107.10368,102.039566
"8675",126.592125,107.55779,103.34067
"8676",126.60546,106.90105,103.545105
"8677",126.6188,105.38979,102.87451
"8678",126.63213,103.236435,101.51459
"8679",126.64547,100.62409,99.62839
"8680",126.658806,97.69924,97.34804
"8681",126.67214,94.55955,94.761444
"8682",126.68548,91.266045,91.92293
"8683",126.698814,87.887085,88.896034
"8684",126.71215,84.54719,85.80261
"8685",126.72549,81.43435,82.83187
"8686",126.73882,78.7805,80.22285
"8687",126.75216,76.805374,78.20961
"8688",126.765495,75.65789,76.962296
"8689",126.77883,75.34783,76.51655
"8690",126.79217,75.736015,76.75935
"8691",126.805504,76.58076,77.47085
"8692",126.81884,77.58907,78.372314
"8693",126.83218,78.502174,79.210075
"8694",126.84551,79.132065,79.79316
"8695",126.85885,79.38354,80.01751
"8696",126.872185,79.24437,79.85908
"8697",126.88552,78.76097,79.352066
"8698",126.89886,78.00656,78.55894
"8699",126.91219,77.051956,77.54204
"8700",126.92553,75.96307,76.36103
"8701",126.938866,74.78142,75.05322
"8702",126.9522,73.55825,73.66698
"8703",126.96554,72.342415,72.24984
"8704",126.978874,71.18761,70.85573
"8705",126.99221,70.14023,69.53296
"8706",127.00555,69.241776,68.326385
"8707",127.01888,68.51911,67.267525
"8708",127.03222,67.97223,66.36186
"8709",127.045555,67.59869,65.61245
"8710",127.05889,67.371635,64.997856
"8711",127.07223,67.25201,64.48359
"8712",127.08556,67.19829,64.031494
"8713",127.0989,67.16655,63.5997
"8714",127.112236,67.13237,63.164474
"8715",127.12557,67.07622,62.706207
"8716",127.13891,67.00542,62.231537
"8717",127.152245,66.92485,61.74489
"8718",127.16558,66.8687,61.280136
"8719",127.17892,66.97124,60.97232
"8720",127.19225,67.57183,61.165764
"8721",127.20559,69.27108,62.47663
"8722",127.218925,72.63538,65.50565
"8723",127.23226,77.80148,70.441605
"8724",127.2456,84.33723,76.908646
"8725",127.258934,91.38567,84.09263
"8726",127.27227,97.91165,90.97441
"8727",127.28561,103.028915,96.65141
"8728",127.29894,106.31022,100.652374
"8729",127.31228,107.85077,103.01512
"8730",127.325615,107.99725,104.031944
"8731",127.33895,107.06706,103.97667
"8732",127.35229,105.31167,103.06712
"8733",127.36562,102.94347,101.489914
"8734",127.37896,100.14801,99.41144
"8735",127.392296,97.074234,96.967285
"8736",127.40563,93.822235,94.248856
"8737",127.41897,90.45304,91.31161
"8738",127.432304,87.0399,88.22513
"8739",127.44564,83.70489,85.11011
"8740",127.45898,80.63355,82.15455
"8741",127.47231,78.06027,79.60107
"8742",127.48565,76.20233,77.68251
"8743",127.498985,75.194016,76.55552
"8744",127.51232,75.018234,76.22955
"8745",127.52566,75.52361,76.579254
"8746",127.538994,76.44404,77.359795
"8747",127.55233,77.49874,78.303375
"8748",127.56567,78.42405,79.15052
"8749",127.579,79.0515,79.72872
"8750",127.59234,79.30053,79.94811
"8751",127.605675,79.1638,79.78953
"8752",127.61901,78.6804,79.27999
"8753",127.63235,77.92355,78.48191
"8754",127.64568,76.96895,77.46242
"8755",127.65902,75.88251,76.28126
"8756",127.672356,74.71549,74.98557
"8757",127.68569,73.50942,73.614365
"8758",127.69903,72.31068,72.21279
"8759",127.712364,71.15831,70.82013
"8760",127.7257,70.08896,69.47447
"8761",127.73904,69.14656,68.22235
"8762",127.75237,68.367744,67.10436
"8763",127.76571,67.76471,66.13782
"8764",127.779045,67.337456,65.32821
"8765",127.79238,67.06889,64.66394
"8766",127.80572,66.932175,64.12312
"8767",127.81905,66.880905,63.663483
"8768",127.83239,66.88335,63.25595
"8769",127.845726,66.90288,62.865585
"8770",127.85906,66.92485,62.47827
"8771",127.8724,66.92973,62.074554
"8772",127.885735,66.915085,61.65146
"8773",127.89907,66.880905,61.208374
"8774",127.91241,66.85893,60.77643
"8775",127.92574,66.99321,60.500046
"8776",127.93908,67.66216,60.762535
"8777",127.952415,69.49081,62.20562
"8778",127.96575,73.05043,65.43683
"8779",127.97909,78.45579,70.625015
"8780",127.992424,85.22102,77.341995
"8781",128.00577,92.437935,84.72206
"8782",128.0191,99.04448,91.71729
"8783",128.03244,104.15442,97.42237
"8784",128.04578,107.369804,101.39258
"8785",128.05911,108.81758,103.69566
"8786",128.07245,108.87373,104.65237
"8787",128.08578,107.87274,104.55368
"8788",128.09912,106.05875,103.61071
"8789",128.11246,103.6466,102.01289
"8790",128.1258,100.824295,99.92955
"8791",128.13913,97.7261,97.48211
"8792",128.15247,94.4448,94.75475
"8793",128.1658,91.03899,91.80034
"8794",128.17914,87.57946,88.68578
"8795",128.19247,84.190735,85.53392
"8796",128.20581,81.06325,82.53739
"8797",128.21915,78.433815,79.941185
"8798",128.23248,76.51484,77.97327
"8799",128.24582,75.44305,76.792564
"8800",128.25916,75.208664,76.41578
"8801",128.27249,75.66033,76.71772
"8802",128.28583,76.54902,77.470795
"8803",128.29916,77.58175,78.39568
"8804",128.3125,78.5095,79.24786
"8805",128.32584,79.151596,79.84338
"8806",128.33917,79.42016,80.085434
"8807",128.35251,79.29809,79.945244
"8808",128.36584,78.83177,79.45699
"8809",128.37918,78.08713,78.67584
"8810",128.39252,77.14717,77.67611
"8811",128.40585,76.07294,76.512726
"8812",128.41919,74.92302,75.24009
"8813",128.43253,73.73647,73.89489
"8814",128.44586,72.55482,72.5175
"8815",128.4592,71.40734,71.13736
"8816",128.47253,70.33555,69.79704
"8817",128.48587,69.3785,68.53798
"8818",128.4992,68.57282,67.400375
"8819",128.51254,67.93317,66.40362
"8820",128.52588,67.46197,65.55533
"8821",128.53922,67.156784,64.85833
"8822",128.55255,66.99565,64.295845
"8823",128.56589,66.95903,63.852837
"8824",128.57922,67.0103,63.496574
"8825",128.59256,67.11528,63.195625
"8826",128.6059,67.23247,62.910164
"8827",128.61923,67.33257,62.611282
"8828",128.63257,67.388725,62.271576
"8829",128.6459,67.388725,61.877472
"8830",128.65924,67.3399,61.43454
"8831",128.67258,67.27154,60.97055
"8832",128.68591,67.29107,60.592316
"8833",128.69925,67.72076,60.624847
"8834",128.71259,69.149,61.669365
"8835",128.72592,72.217896,64.39916
"8836",128.73926,77.19112,69.129196
"8837",128.7526,83.736626,75.58693
"8838",128.76593,91.01213,82.9792
"8839",128.77927,97.950714,90.26192
"8840",128.7926,103.55627,96.42843
"8841",128.80594,107.27703,100.88533
"8842",128.81927,109.13252,103.59323
"8843",128.83261,109.47921,104.85031
"8844",128.84595,108.68574,104.978065
"8845",128.85928,107.02556,104.21432
"8846",128.87262,104.723274,102.756584
"8847",128.88596,101.96689,100.7728
"8848",128.89929,98.91264,98.405014
"8849",128.91263,95.6704,95.75379
"8850",128.92596,92.301216,92.874306
"8851",128.9393,88.868546,89.82605
"8852",128.95264,85.47494,86.70958
"8853",128.96597,82.28397,83.689705
"8854",128.97931,79.520256,80.99736
"8855",128.99265,77.40597,78.86808
"8856",129.00598,76.10956,77.49061
"8857",129.01932,75.65545,76.914925
"8858",129.03265,75.9411,77.06481
"8859",129.04599,76.732124,77.729
"8860",129.05933,77.74532,78.640076
"8861",129.07266,78.70725,79.53155
"8862",129.086,79.42016,80.204056
"8863",129.09933,79.77417,80.53995
"8864",129.11267,79.73266,80.49138
"8865",129.126,79.33227,80.082634
"8866",129.13934,78.63157,79.36107
"8867",129.15268,77.71114,78.39788
"8868",129.16602,76.63203,77.24724
"8869",129.17935,75.44793,75.95789
"8870",129.19269,74.21011,74.57783
"8871",129.20602,72.95766,73.14444
"8872",129.21936,71.73693,71.70364
"8873",129.2327,70.59678,70.30527
"8874",129.24603,69.58114,68.99577
"8875",129.25937,68.72175,67.81079
"8876",129.2727,68.04059,66.77718
"8877",129.28604,67.54009,65.902954
"8878",129.29938,67.210495,65.18398
"8879",129.31271,67.02983,64.603645
"8880",129.32605,66.96147,64.12997
"8881",129.33939,66.968796,63.729836
"8882",129.35272,67.0103,63.364113
"8883",129.36606,67.054245,63.00213
"8884",129.3794,67.08354,62.62687
"8885",129.39273,67.09575,62.235435
"8886",129.40607,67.090866,61.827293
"8887",129.4194,67.06645,61.399467
"8888",129.43274,67.03471,60.963554
"8889",129.44608,67.054245,60.57792
"8890",129.45941,67.34478,60.463898
"8891",129.47275,68.38972,61.113358
"8892",129.48608,70.855576,63.216393
"8893",129.49942,75.18425,67.25931
"8894",129.51276,81.25124,73.17581
"8895",129.5261,88.360725,80.324394
"8896",129.53943,95.499504,87.72444
"8897",129.55276,101.610435,94.31973
"8898",129.5661,105.96597,99.35059
"8899",129.57944,108.39033,102.58638
"8900",129.59277,109.17647,104.25972
"8901",129.60611,108.7248,104.71982
"8902",129.61945,107.338066,104.230736
"8903",129.63278,105.25063,102.99762
"8904",129.64612,102.65537,101.19144
"8905",129.65945,99.71343,98.95747
"8906",129.67279,96.53956,96.39964
"8907",129.68613,93.21675,93.5937
"8908",129.69946,89.79874,90.58871
"8909",129.7128,86.37583,87.472015
"8910",129.72614,83.10185,84.39728
"8911",129.73947,80.17944,81.5718
"8912",129.7528,77.838104,79.23607
"8913",129.76614,76.25849,77.5889
"8914",129.77948,75.53338,76.746864
"8915",129.79282,75.596855,76.67076
"8916",129.80615,76.25605,77.19236
"8917",129.81949,77.23018,78.04949
"8918",129.83282,78.24582,78.97858
"8919",129.84616,79.07591,79.75385
"8920",129.8595,79.56664,80.215706
"8921",129.87283,79.66186,80.29738
"8922",129.88617,79.37377,79.998726
"8923",129.8995,78.76341,79.3688
"8924",129.91284,77.90402,78.470764
"8925",129.92618,76.87129,77.372536
"8926",129.93951,75.72869,76.132164
"8927",129.95285,74.52262,74.79262
"8928",129.96619,73.29214,73.39097
"8929",129.97952,72.09094,71.980156
"8930",129.99286,70.963,70.60506
"8931",130.0062,69.95224,69.31189
"8932",130.01953,69.09529,68.140945
"8933",130.03287,68.4239,67.12878
"8934",130.0462,67.93561,66.27873
"8935",130.05954,67.62066,65.58677
"8936",130.07288,67.457085,65.03634
"8937",130.08621,67.39605,64.583336
"8938",130.09955,67.39605,64.18946
"8939",130.11288,67.4107,63.810234
"8940",130.12622,67.41314,63.41926
"8941",130.13956,67.39117,63.003944
"8942",130.1529,67.34478,62.56353
"8943",130.16623,67.27642,62.099693
"8944",130.17957,67.20073,61.62639
"8945",130.1929,67.17143,61.197113
"8946",130.20624,67.34722,60.972008
"8947",130.21957,68.1358,61.36519
"8948",130.23291,70.14755,63.00618
"8949",130.24625,73.88541,66.43614
"8950",130.25958,79.37377,71.73343
"8951",130.27292,86.07065,78.410736
"8952",130.28625,93.048294,85.57809
"8953",130.29959,99.27886,92.216415
"8954",130.31293,103.94202,97.48203
"8955",130.32626,106.73258,101.02078
"8956",130.3396,107.83124,102.954834
"8957",130.35294,107.613945,103.60727
"8958",130.36627,106.40299,103.259254
"8959",130.37961,104.43519,102.11655
"8960",130.39294,101.910736,100.3557
"8961",130.40628,98.99321,98.12288
"8962",130.41962,95.81445,95.53766
"8963",130.43295,92.455025,92.67243
"8964",130.44629,88.98573,89.59236
"8965",130.45963,85.49447,86.3819
"8966",130.47296,82.13992,83.19905
"8967",130.4863,79.14183,80.26783
"8968",130.49963,76.74433,77.84351
"8969",130.51297,75.15251,76.149956
"8970",130.5263,74.46403,75.30999
"8971",130.53964,74.62272,75.295685
"8972",130.55298,75.41619,75.92112
"8973",130.56631,76.5539,76.91559
"8974",130.57965,77.733116,77.987114
"8975",130.59299,78.70725,78.89041
"8976",130.60632,79.32006,79.46282
"8977",130.61966,79.50561,79.62712
"8978",130.633,79.28588,79.391945
"8979",130.64633,78.71458,78.798325
"8980",130.65967,77.87717,77.920746
"8981",130.673,76.85664,76.833885
"8982",130.68634,75.72137,75.60038
"8983",130.69968,74.52262,74.26793
"8984",130.71301,73.31167,72.88581
"8985",130.72635,72.12024,71.485374
"8986",130.73969,70.98985,70.10875
"8987",130.75302,69.96445,68.80177
"8988",130.76636,69.083084,67.6068
"8989",130.7797,68.370186,66.55274
"8990",130.79303,67.83063,65.64975
"8991",130.80637,67.46197,64.900795
"8992",130.8197,67.23979,64.286804
"8993",130.83304,67.125046,63.7733
"8994",130.84637,67.07866,63.32457
"8995",130.85971,67.05913,62.901245
"8996",130.87305,67.04692,62.484634
"8997",130.88638,67.02251,62.055435
"8998",130.89972,66.981,61.608383
"8999",130.91306,66.91753,61.13806
"9000",130.92639,66.83452,60.646225
"9001",130.93973,66.75395,60.154236
"9002",130.95306,66.83452,59.82086
"9003",130.9664,67.46197,60.03689
"9004",130.97974,69.28573,61.468834
"9005",130.99307,72.88197,64.730255
"9006",131.00641,78.36057,69.98642
"9007",131.01974,85.21126,76.78587
"9008",131.03308,92.47944,84.2169
"9009",131.04642,99.07622,91.20367
"9010",131.05975,104.10315,96.82673
"9011",131.07309,107.17937,100.65617
"9012",131.08643,108.45869,102.78485
"9013",131.09976,108.35615,103.57165
"9014",131.1131,107.21843,103.32006
"9015",131.12643,105.29214,102.24435
"9016",131.13977,102.784775,100.52736
"9017",131.1531,99.85748,98.31209
"9018",131.16644,96.64454,95.71969
"9019",131.17978,93.241165,92.83646
"9020",131.19312,89.723045,89.732124
"9021",131.20645,86.19516,86.50809
"9022",131.21979,82.811325,83.31785
"9023",131.23312,79.78638,80.38075
"9024",131.24646,77.35226,77.93996
"9025",131.2598,75.718925,76.223885
"9026",131.27313,74.984055,75.35523
"9027",131.28647,75.10368,75.318115
"9028",131.2998,75.88983,75.951256
"9029",131.31314,77.06172,76.994705
"9030",131.32648,78.311745,78.15291
"9031",131.33981,79.38842,79.17683
"9032",131.35315,80.111084,79.88038
"9033",131.36649,80.40162,80.174385
"9034",131.37982,80.272224,80.05754
"9035",131.39316,79.781494,79.57532
"9036",131.4065,79.00267,78.789665
"9037",131.41983,78.02609,77.78192
"9038",131.43317,76.92256,76.61671
"9039",131.4465,75.76044,75.35841
"9040",131.45984,74.57877,74.044266
"9041",131.47318,73.42397,72.720055
"9042",131.48651,72.342415,71.433
"9043",131.49985,71.37072,70.222
"9044",131.51318,70.54063,69.12224
"9045",131.52652,69.88144,68.16744
"9046",131.53986,69.400475,67.37027
"9047",131.55319,69.07088,66.709435
"9048",131.56653,68.85359,66.15061
"9049",131.57986,68.699776,65.64847
"9050",131.5932,68.575264,65.17082
"9051",131.60654,68.46052,64.69905
"9052",131.61987,68.34577,64.223694
"9053",131.63321,68.24078,63.75451
"9054",131.64655,68.14557,63.291817
"9055",131.65988,68.07477,62.850563
"9056",131.67322,68.11139,62.51452
"9057",131.68655,68.51179,62.543396
"9058",131.69989,69.771576,63.444176
"9059",131.71323,72.48646,65.83942
"9060",131.72656,76.95674,70.074905
"9061",131.7399,82.94316,75.966225
"9062",131.75323,89.71572,82.83076
"9063",131.76657,96.3003,89.718956
"9064",131.7799,101.747154,95.67519
"9065",131.79324,105.477684,100.08532
"9066",131.80658,107.41863,102.82245
"9067",131.81992,107.8703,104.13095
"9068",131.83325,107.18425,104.31585
"9069",131.84659,105.62173,103.60284
"9070",131.85992,103.39269,102.174484
"9071",131.87326,100.68757,100.20038
"9072",131.8866,97.64797,97.80727
"9073",131.89993,94.374,95.08479
"9074",131.91327,90.94377,92.10375
"9075",131.9266,87.430534,88.93251
"9076",131.93994,83.95636,85.69054
"9077",131.95328,80.70191,82.55972
"9078",131.96661,77.91379,79.79353
"9079",131.97995,75.83124,77.64579
"9080",131.99329,74.62028,76.30456
"9081",132.00662,74.30778,75.823944
"9082",132.01996,74.76677,76.10506
"9083",132.0333,75.733574,76.908325
"9084",132.04663,76.893265,77.93469
"9085",132.05997,77.95529,78.899635
"9086",132.0733,78.71702,79.597466
"9087",132.08664,79.07347,79.913826
"9088",132.09998,79.009995,79.821396
"9089",132.11331,78.572975,79.35344
"9090",132.12665,77.84299,78.57886
"9091",132.13998,76.895706,77.56417
"9092",132.15332,75.80438,76.37584
"9093",132.16666,74.62272,75.063065
"9094",132.18,73.39712,73.669426
"9095",132.19333,72.17639,72.24236
"9096",132.20667,71.00694,70.82843
"9097",132.22,69.93027,69.47072
"9098",132.23334,68.98299,68.208755
"9099",132.24667,68.19928,67.080765
"9100",132.26001,67.59869,66.1114
"9101",132.27335,67.18608,65.31125
"9102",132.28668,66.94438,64.66911
"9103",132.30002,66.846725,64.16347
"9104",132.31335,66.85405,63.75975
"9105",132.32669,66.92485,63.41974
"9106",132.34003,67.017624,63.103912
"9107",132.35336,67.11528,62.795868
"9108",132.3667,67.20805,62.485992
"9109",132.38004,67.29107,62.16926
"9110",132.39337,67.369194,61.850227
"9111",132.40671,67.47906,61.565376
"9112",132.42004,67.76959,61.46463
"9113",132.43338,68.61677,61.929604
"9114",132.44672,70.62852,63.585625
"9115",132.46005,74.339516,67.00376
"9116",132.47339,79.82544,72.3128
"9117",132.48672,86.58335,79.065254
"9118",132.50006,93.71725,86.40488
"9119",132.5134,100.1944,93.31069
"9120",132.52673,105.17494,98.92231
"9121",132.54007,108.29023,102.82431
"9122",132.5534,109.69161,105.109764
"9123",132.56674,109.747765,106.09378
"9124",132.58008,108.773636,106.04927
"9125",132.59341,107.00847,105.18328
"9126",132.60675,104.65736,103.676186
"9127",132.62009,101.90097,101.69034
"9128",132.63342,98.880905,99.354675
"9129",132.64676,95.675285,96.73908
"9130",132.6601,92.34516,93.89881
"9131",132.67343,88.95888,90.898315
"9132",132.68677,85.65072,87.87012
"9133",132.7001,82.60868,85.00466
"9134",132.71344,80.06958,82.54708
"9135",132.72678,78.25071,80.730385
"9136",132.74011,77.27657,79.701584
"9137",132.75345,77.11543,79.45534
"9138",132.76678,77.59884,79.8486
"9139",132.78012,78.45335,80.628075
"9140",132.79346,79.398186,81.52458
"9141",132.8068,80.181885,82.289474
"9142",132.82013,80.64332,82.75659
"9143",132.83347,80.71656,82.84994
"9144",132.8468,80.4065,82.56227
"9145",132.86014,79.764404,81.93288
"9146",132.87347,78.870834,81.031944
"9147",132.88681,77.7966,79.922424
"9148",132.90015,76.610054,78.66702
"9149",132.91348,75.36004,77.31107
"9150",132.92682,74.08316,75.8892
"9151",132.94016,72.8185,74.43964
"9152",132.95349,71.605095,73.001816
"9153",132.96683,70.47959,71.61397
"9154",132.98016,69.4786,70.31546
"9155",132.9935,68.61677,69.12483
"9156",133.00684,67.894104,68.04644
"9157",133.02017,67.29839,67.07242
"9158",133.03351,66.80766,66.18476
"9159",133.04684,66.40482,65.36966
"9160",133.06018,66.07767,64.61765
"9161",133.07352,65.82376,63.928673
"9162",133.08685,65.63821,63.30011
"9163",133.10019,65.52346,62.736557
"9164",133.11353,65.54055,62.301254
"9165",133.12686,65.865265,62.17411
"9166",133.1402,66.90776,62.774895
"9167",133.15353,69.23445,64.69245
"9168",133.16687,73.22865,68.35023
"9169",133.1802,78.785385,73.69536
"9170",133.19354,85.32113,80.193146
"9171",133.20688,91.966736,87.005035
"9172",133.22021,97.78958,93.20184
"9173",133.23355,102.10605,98.074234
"9174",133.24689,104.71351,101.37251
"9175",133.26022,105.80972,103.24103
"9176",133.27356,105.69985,103.93771
"9177",133.2869,104.637825,103.6788
"9178",133.30023,102.84337,102.65428
"9179",133.31357,100.523994,101.04877
"9180",133.3269,97.84085,99.006996
"9181",133.34024,94.91844,96.64211
"9182",133.35358,91.827576,94.01745
"9183",133.36691,88.62684,91.186325
"9184",133.38025,85.39681,88.22589
"9185",133.39359,82.28397,85.2817
"9186",133.40692,79.49096,82.56006
"9187",133.42026,77.242386,80.29558
"9188",133.4336,75.72869,78.69571
"9189",133.44693,75.020676,77.85422
"9190",133.46027,75.0573,77.73524
"9191",133.4736,75.64324,78.166725
"9192",133.48694,76.51972,78.90706
"9193",133.50027,77.42794,79.70652
"9194",133.51361,78.15793,80.35613
"9195",133.52695,78.590065,80.730705
"9196",133.54028,78.677956,80.774536
"9197",133.55362,78.43626,80.49152
"9198",133.56696,77.908905,79.915306
"9199",133.58029,77.1667,79.10776
"9200",133.59363,76.26093,78.11345
"9201",133.60696,75.24773,76.9834
"9202",133.6203,74.17349,75.76066
"9203",133.63364,73.08949,74.49458
"9204",133.64697,72.05432,73.24346
"9205",133.66031,71.11925,72.06009
"9206",133.67365,70.32578,70.989105
"9207",133.68698,69.70077,70.06177
"9208",133.70032,69.239334,69.27848
"9209",133.71365,68.91463,68.6175
"9210",133.72699,68.68513,68.04158
"9211",133.74033,68.51667,67.51953
"9212",133.75366,68.37995,67.02396
"9213",133.767,68.24811,66.528984
"9214",133.78033,68.10651,66.020134
"9215",133.79367,67.96002,65.501976
"9216",133.807,67.845276,65.01098
"9217",133.82034,67.89899,64.68485
"9218",133.83368,68.472725,64.88043
"9219",133.84702,70.08896,66.13644
"9220",133.86035,73.18227,68.92002
"9221",133.87369,77.80148,73.32619
"9222",133.88702,83.546196,79.0022
"9223",133.90036,89.688866,85.255684
"9224",133.9137,95.35546,91.22506
"9225",133.92703,99.81598,96.165436
"9226",133.94037,102.7335,99.7022
"9227",133.9537,104.17395,101.85307
"9228",133.96704,104.36927,102.80383
"9229",133.98038,103.55871,102.75481
"9230",133.99371,101.96445,101.89676
"9231",134.00705,99.791565,100.41026
"9232",134.02039,97.22804,98.465225
"9233",134.03372,94.40818,96.18374
"9234",134.04706,91.41985,93.64567
"9235",134.0604,88.32899,90.911674
"9236",134.07373,85.20882,88.05179
"9237",134.08707,82.19852,85.20426
"9238",134.1004,79.49828,82.57273
"9239",134.11374,77.330284,80.38905
"9240",134.12708,75.877625,78.85297
"9241",134.14041,75.21355,78.06007
"9242",134.15375,75.264824,77.96177
"9243",134.16708,75.841,78.38998
"9244",134.18042,76.67597,79.09498
"9245",134.19376,77.52804,79.84317
"9246",134.20709,78.204315,80.4422
"9247",134.22043,78.59983,80.7816
"9248",134.23376,78.67063,80.80865
"9249",134.2471,78.43137,80.52785
"9250",134.26044,77.925995,79.97345
"9251",134.27377,77.21065,79.19329
"9252",134.28711,76.33173,78.22721
"9253",134.30045,75.34295,77.123795
"9254",134.31378,74.29069,75.926
"9255",134.32712,73.22133,74.67823
"9256",134.34045,72.183716,73.42879
"9257",134.35379,71.22423,72.22504
"9258",134.36713,70.38438,71.11095
"9259",134.38046,69.70565,70.13173
"9260",134.3938,69.20271,69.30709
"9261",134.40714,68.8658,68.63276
"9262",134.42047,68.67292,68.091934
"9263",134.4338,68.58015,67.64519
"9264",134.44714,68.53376,67.24193
"9265",134.46048,68.48737,66.83722
"9266",134.47382,68.41169,66.401764
"9267",134.48715,68.29694,65.92488
"9268",134.50049,68.14313,65.40534
"9269",134.51382,67.96002,64.85171
"9270",134.52716,67.79401,64.30944
"9271",134.5405,67.79645,63.930443
"9272",134.55383,68.32624,64.07887
"9273",134.56717,69.94736,65.33518
"9274",134.5805,73.12123,68.19491
"9275",134.59384,77.90402,72.76274
"9276",134.60718,83.87579,78.669014
"9277",134.62051,90.287025,85.20136
"9278",134.63385,96.22949,91.4653
"9279",134.64719,100.943924,96.686905
"9280",134.66052,104.08118,100.47865
"9281",134.67386,105.70718,102.85719
"9282",134.6872,106.05386,104.00723
"9283",134.70053,105.3605,104.12805
"9284",134.71387,103.851685,103.41176
"9285",134.7272,101.76669,102.07213
"9286",134.74054,99.31548,100.30113
"9287",134.75388,96.66651,98.25577
"9288",134.76721,93.91745,96.027534
"9289",134.78055,91.12932,93.674324
"9290",134.79388,88.33387,91.22667
"9291",134.80722,85.59701,88.750244
"9292",134.82056,83.053024,86.381165
"9293",134.8339,80.86061,84.28416
"9294",134.84723,79.18089,82.63133
"9295",134.86057,78.1091,81.53394
"9296",134.8739,77.628136,80.99389
"9297",134.88724,77.61837,80.91
"9298",134.90057,77.89914,81.11635
"9299",134.91391,78.27512,81.42668
"9300",134.92725,78.5803,81.677956
"9301",134.94058,78.70481,81.7581
"9302",134.95392,78.59739,81.61021
"9303",134.96725,78.238495,81.20748
"9304",134.98059,77.642784,80.556725
"9305",134.99393,76.8542,79.69448
"9306",135.00726,75.91913,78.6611
"9307",135.0206,74.881516,77.495964
"9308",135.03394,73.79019,76.24469
"9309",135.04727,72.69642,74.95686
"9310",135.06061,71.63683,73.66904
"9311",135.07394,70.657814,72.428665
"9312",135.08728,69.78378,71.26269
"9313",135.10062,69.034256,70.1939
"9314",135.11395,68.419014,69.23598
"9315",135.12729,67.95026,68.40531
"9316",135.14062,67.62066,67.69916
"9317",135.15396,67.42779,67.11943
"9318",135.1673,67.354546,66.653305
"9319",135.18063,67.37896,66.28255
"9320",135.19397,67.457085,65.96626
"9321",135.2073,67.54742,65.66463
"9322",135.22064,67.60601,65.334076
"9323",135.23398,67.60845,64.9492
"9324",135.24731,67.53765,64.491165
"9325",135.26065,67.40093,63.964996
"9326",135.27399,67.21294,63.383278
"9327",135.28732,67.02983,62.800575
"9328",135.30066,67.0103,62.375725
"9329",135.314,67.542534,62.50203
"9330",135.32733,69.205154,63.775352
"9331",135.34067,72.44984,66.68269
"9332",135.354,77.313194,71.310104
"9333",135.36734,83.372856,77.285805
"9334",135.38068,89.85733,83.87568
"9335",135.39401,95.853516,90.17991
"9336",135.40735,100.611885,95.4337
"9337",135.42068,103.79065,99.256584
"9338",135.43402,105.45083,101.66022
"9339",135.44736,105.814606,102.819336
"9340",135.4607,105.111465,102.9229
"9341",135.47403,103.57824,102.17441
"9342",135.48737,101.454185,100.78717
"9343",135.5007,98.96147,98.9649
"9344",135.51404,96.26856,96.86453
"9345",135.52737,93.47799,94.58235
"9346",135.54071,90.64103,92.16658
"9347",135.55405,87.784546,89.64263
"9348",135.56738,84.981766,87.083115
"9349",135.58072,82.34989,84.60692
"9350",135.59406,80.0647,82.39516
"9351",135.60739,78.28489,80.61737
"9352",135.62073,77.11543,79.39432
"9353",135.63406,76.561226,78.74997
"9354",135.6474,76.52216,78.60345
"9355",135.66074,76.82735,78.79995
"9356",135.67407,77.281456,79.154915
"9357",135.68741,77.71603,79.50453
"9358",135.70074,77.994354,79.71149
"9359",135.71408,78.04318,79.69764
"9360",135.72742,77.82834,79.421646
"9361",135.74075,77.36446,78.88991
"9362",135.75409,76.67597,78.11906
"9363",135.76743,75.809265,77.148476
"9364",135.78076,74.80583,76.014084
"9365",135.7941,73.7145,74.76044
"9366",135.80743,72.584114,73.43363
"9367",135.82077,71.46349,72.08127
"9368",135.8341,70.39658,70.74759
"9369",135.84744,69.42489,69.475784
"9370",135.86078,68.57282,68.29324
"9371",135.87411,67.8526,67.21592
"9372",135.88745,67.266655,66.25037
"9373",135.90079,66.810104,65.3959
"9374",135.91412,66.475624,64.64923
"9375",135.92746,66.253456,64.004425
"9376",135.9408,66.13382,63.455208
"9377",135.95413,66.10452,62.99259
"9378",135.96747,66.15579,62.609627
"9379",135.9808,66.268105,62.289307
"9380",135.99414,66.41459,62.006668
"9381",136.00748,66.563515,61.73105
"9382",136.02081,66.685585,61.433228
"9383",136.03415,66.76128,61.092842
"9384",136.04749,66.78325,60.701103
"9385",136.06082,66.74906,60.25389
"9386",136.07416,66.67338,59.764114
"9387",136.0875,66.57572,59.25
"9388",136.10083,66.52445,58.77922
"9389",136.11417,66.736855,58.57051
"9390",136.1275,67.6939,59.113083
"9391",136.14084,70.03769,61.072304
"9392",136.15417,74.178375,64.901665
"9393",136.16751,80.01099,70.55235
"9394",136.18085,86.90318,77.44489
"9395",136.19418,93.91989,84.67732
"9396",136.20752,100.067444,91.25987
"9397",136.22086,104.62562,96.44515
"9398",136.23419,107.3991,99.98819
"9399",136.24753,108.59785,102.04316
"9400",136.26086,108.52705,102.86604
"9401",136.2742,107.43572,102.66619
"9402",136.28754,105.55825,101.64609
"9403",136.30087,103.11192,99.99846
"9404",136.31421,100.28718,97.895966
"9405",136.32755,97.232925,95.475685
"9406",136.34088,94.03952,92.82081
"9407",136.35422,90.75334,89.973366
"9408",136.36755,87.45739,87.01346
"9409",136.38089,84.2884,84.077515
"9410",136.39423,81.44167,81.3648
"9411",136.40756,79.14671,79.11489
"9412",136.4209,77.58663,77.528145
"9413",136.43423,76.83223,76.698326
"9414",136.44757,76.81026,76.57736
"9415",136.4609,77.32296,76.99039
"9416",136.47424,78.116425,77.700195
"9417",136.48758,78.941635,78.466545
"9418",136.50092,79.605705,79.09754
"9419",136.51425,79.97681,79.45632
"9420",136.52759,80.0061,79.48489
"9421",136.54092,79.70092,79.1799
"9422",136.55426,79.10521,78.574844
"9423",136.5676,78.27268,77.714355
"9424",136.58093,77.27413,76.66183
"9425",136.59427,76.16083,75.46334
"9426",136.6076,74.984055,74.166595
"9427",136.62094,73.79263,72.81843
"9428",136.63428,72.63294,71.46476
"9429",136.64761,71.553825,70.155426
"9430",136.66095,70.59922,68.936874
"9431",136.67429,69.79599,67.83987
"9432",136.68762,69.15877,66.883766
"9433",136.70096,68.70222,66.088425
"9434",136.7143,68.41413,65.44728
"9435",136.72763,68.262764,64.93385
"9436",136.74097,68.21881,64.52311
"9437",136.7543,68.24078,64.17692
"9438",136.76764,68.27497,63.843628
"9439",136.78098,68.27741,63.47966
"9440",136.79431,68.226135,63.06205
"9441",136.80765,68.10895,62.576927
"9442",136.82098,67.93317,62.02955
"9443",136.83432,67.70855,61.42784
"9444",136.84766,67.46197,60.79715
"9445",136.861,67.25933,60.202698
"9446",136.87433,67.26421,59.809433
"9447",136.88766,67.86481,60.01203
"9448",136.901,69.65926,61.42726
"9449",136.91434,73.14809,64.59293
"9450",136.92767,78.365456,69.59618
"9451",136.94101,84.81575,75.9954
"9452",136.95435,91.64202,82.97216
"9453",136.96768,97.85794,89.551895
"9454",136.98102,102.66514,94.91715
"9455",136.99435,105.72915,98.68945
"9456",137.00769,107.17937,100.94371
"9457",137.02103,107.318535,101.932236
"9458",137.03436,106.4152,101.88261
"9459",137.0477,104.689095,100.98198
"9460",137.06104,102.33555,99.39996
"9461",137.07437,99.53521,97.29761
"9462",137.0877,96.43702,94.80989
"9463",137.10104,93.14107,92.027596
"9464",137.11438,89.71572,89.01291
"9465",137.12772,86.26841,85.86922
"9466",137.14105,82.95293,82.74962
"9467",137.15439,79.9939,79.882866
"9468",137.16772,77.64767,77.536446
"9469",137.18106,76.121765,75.937035
"9470",137.1944,75.50652,75.2006
"9471",137.20773,75.73113,75.28479
"9472",137.22107,76.58564,76.0059
"9473",137.2344,77.77219,77.08575
"9474",137.24774,78.99046,78.234406
"9475",137.26108,80.00122,79.213615
"9476",137.27441,80.6482,79.860634
"9477",137.28775,80.87526,80.10795
"9478",137.30109,80.689705,79.949745
"9479",137.31442,80.15259,79.43418
"9480",137.32776,79.33715,78.62351
"9481",137.3411,78.31907,77.58472
"9482",137.35443,77.16914,76.38226
"9483",137.36777,75.9411,75.06576
"9484",137.3811,74.6984,73.69622
"9485",137.39444,73.50942,72.34157
"9486",137.40778,72.427864,71.05718
"9487",137.42111,71.49279,69.88548
"9488",137.43445,70.73106,68.857895
"9489",137.44778,70.135345,67.97253
"9490",137.46112,69.68368,67.212585
"9491",137.47446,69.33456,66.54108
"9492",137.4878,69.05623,65.92945
"9493",137.50113,68.82185,65.35308
"9494",137.51447,68.60456,64.78647
"9495",137.5278,68.387276,64.21307
"9496",137.54114,68.172424,63.635323
"9497",137.55447,67.97223,63.065514
"9498",137.56781,67.86969,62.587105
"9499",137.58115,68.09674,62.43508
"9500",137.59448,69.13924,63.1056
"9501",137.60782,71.568474,65.195435
"9502",137.62115,75.699394,69.06287
"9503",137.63449,81.32937,74.55845
"9504",137.64783,87.801636,81.07226
"9505",137.66116,94.20065,87.71507
"9506",137.6745,99.60845,93.56664
"9507",137.68784,103.42443,97.995384
"9508",137.70117,105.53872,100.84169
"9509",137.71451,106.19791,102.298965
"9510",137.72784,105.69741,102.61716
"9511",137.74118,104.2765,101.99928
"9512",137.75452,102.14267,100.6241
"9513",137.76785,99.48882,98.66222
"9514",137.78119,96.46876,96.251175
"9515",137.79453,93.2021,93.49917
"9516",137.80786,89.77188,90.481514
"9517",137.8212,86.25376,87.26877
"9518",137.83453,82.7625,83.97293
"9519",137.84787,79.483635,80.780396
"9520",137.8612,76.66621,77.94683
"9521",137.87454,74.55192,75.72836
"9522",137.88788,73.31899,74.32519
"9523",137.90121,73.01137,73.808784
"9524",137.91455,73.5021,74.08112
"9525",137.92789,74.54215,74.91812
"9526",137.94122,75.82147,76.026886
"9527",137.95456,77.049515,77.12435
"9528",137.9679,78.00656,77.9892
"9529",137.98123,78.57542,78.49576
"9530",137.99457,78.72678,78.60261
"9531",138.0079,78.504616,78.34065
"9532",138.02124,77.977264,77.76657
"9533",138.03458,77.23506,76.96116
"9534",138.04791,76.351265,75.99096
"9535",138.06125,75.3991,74.924774
"9536",138.07458,74.42741,73.8093
"9537",138.08792,73.46792,72.675674
"9538",138.10126,72.55726,71.56089
"9539",138.1146,71.710075,70.481125
"9540",138.12793,70.93126,69.44325
"9541",138.14127,70.220795,68.44939
"9542",138.1546,69.58114,67.50413
"9543",138.16794,69.00252,66.599915
"9544",138.18127,68.46784,65.721565
"9545",138.19461,67.97223,64.86557
"9546",138.20795,67.510796,64.02827
"9547",138.22128,67.105515,63.232697
"9548",138.23462,66.844284,62.568512
"9549",138.24796,66.97856,62.29167
"9550",138.26129,68.01129,62.91748
"9551",138.27463,70.51133,65.04287
"9552",138.28796,74.76433,68.999344
"9553",138.3013,80.51881,74.59021
"9554",138.31464,87.078964,81.16658
"9555",138.32797,93.51705,87.82588
"9556",138.34131,98.92485,93.65609
"9557",138.35464,102.73106,98.053696
"9558",138.36798,104.86977,100.902756
"9559",138.38132,105.599754,102.40993
"9560",138.39465,105.21156,102.82173
"9561",138.40799,103.93713,102.33516
"9562",138.42133,101.96933,101.11539
"9563",138.43466,99.491264,99.32387
"9564",138.448,96.64454,97.08624
"9565",138.46133,93.5317,94.493546
"9566",138.47467,90.23331,91.61802
"9567",138.488,86.82262,88.52712
"9568",138.50134,83.42901,85.34672
"9569",138.51468,80.257576,82.28244
"9570",138.52802,77.55489,79.58781
"9571",138.54135,75.55291,77.509415
"9572",138.55469,74.40543,76.22297
"9573",138.56802,74.12955,75.772255
"9574",138.58136,74.57389,76.03315
"9575",138.5947,75.494316,76.78401
"9576",138.60803,76.60029,77.74918
"9577",138.62137,77.625694,78.66835
"9578",138.6347,78.380104,79.348564
"9579",138.64804,78.765854,79.68369
"9580",138.66138,78.77074,79.65001
"9581",138.67471,78.43626,79.277115
"9582",138.68805,77.83078,78.62277
"9583",138.70139,77.03487,77.75907
"9584",138.71472,76.11444,76.74599
"9585",138.72806,75.123215,75.63334
"9586",138.7414,74.11246,74.470184
"9587",138.75473,73.11635,73.29009
"9588",138.76807,72.166626,72.12526
"9589",138.7814,71.28527,70.999115
"9590",138.79474,70.484474,69.92598
"9591",138.80807,69.78134,68.92548
"9592",138.82141,69.16853,67.99334
"9593",138.83475,68.6363,67.12262
"9594",138.84808,68.174866,66.30607
"9595",138.86142,67.77936,65.54102
"9596",138.87476,67.50103,64.8808
"9597",138.88809,67.55474,64.543915
"9598",138.90143,68.41413,65.01439
"9599",138.91476,70.66758,66.90578
"9600",138.9281,74.634926,70.58148
"9601",138.94144,80.1355,75.9144
"9602",138.95477,86.54917,82.332306
"9603",138.96811,92.97505,88.962845
"9604",138.98145,98.4976,94.89086
"9605",138.99478,102.49668,99.467995
"9606",139.00812,104.84535,102.519684
"9607",139.02145,105.75357,104.204315
"9608",139.03479,105.50454,104.760086
"9609",139.04813,104.33753,104.39009
"9610",139.06146,102.469826,103.28293
"9611",139.0748,100.11383,101.62912
"9612",139.08813,97.43313,99.57697
"9613",139.10147,94.537575,97.226204
"9614",139.1148,91.490654,94.63358
"9615",139.12814,88.33143,91.83344
"9616",139.14148,85.13069,88.89307
"9617",139.15482,82.037384,85.96009
"9618",139.16815,79.26147,83.24784
"9619",139.18149,77.02998,80.99328
"9620",139.19482,75.526054,79.39654
"9621",139.20816,74.80583,78.53651
"9622",139.2215,74.7863,78.35466
"9623",139.23483,75.2575,78.66293
"9624",139.24817,75.95819,79.21542
"9625",139.2615,76.65156,79.782486
"9626",139.27484,77.15694,80.18323
"9627",139.28818,77.36935,80.30679
"9628",139.30151,77.26925,80.12449
"9629",139.31485,76.88838,79.65829
"9630",139.32819,76.282906,78.955574
"9631",139.34152,75.511406,78.06792
"9632",139.35486,74.63004,77.04629
"9633",139.3682,73.67544,75.923874
"9634",139.38153,72.68665,74.73745
"9635",139.39487,71.69787,73.52013
"9636",139.4082,70.73838,72.30119
"9637",139.42154,69.84482,71.1182
"9638",139.43488,69.0367,69.99273
"9639",139.44821,68.32624,68.93967
"9640",139.46155,67.72076,67.969376
"9641",139.47488,67.210495,67.075386
"9642",139.48822,66.79057,66.25579
"9643",139.50156,66.50004,65.55246
"9644",139.5149,66.512245,65.14279
"9645",139.52823,67.24223,65.45129
"9646",139.54156,69.22713,67.0375
"9647",139.5549,72.813614,70.28733
"9648",139.56824,77.90158,75.15073
"9649",139.58157,83.96124,81.14481
"9650",139.59491,90.16983,87.47719
"9651",139.60825,95.64843,93.2736
"9652",139.62158,99.75983,97.87401
"9653",139.63492,102.30137,101.03304
"9654",139.64825,103.41711,102.8457
"9655",139.66159,103.35851,103.51889
"9656",139.67493,102.35752,103.24785
"9657",139.68826,100.63874,102.22774
"9658",139.7016,98.424355,100.65831
"9659",139.71494,95.89502,98.704735
"9660",139.72827,93.18501,96.49145
"9661",139.74161,90.36027,94.078735
"9662",139.75494,87.464714,91.50694
"9663",139.76828,84.54963,88.825134
"9664",139.78162,81.72732,86.145
"9665",139.79495,79.16136,83.63302
"9666",139.80829,77.049515,81.494965
"9667",139.82162,75.55291,79.90616
"9668",139.83496,74.73258,78.94686
"9669",139.8483,74.53727,78.586945
"9670",139.86163,74.80339,78.68236
"9671",139.87497,75.32586,79.042435
"9672",139.8883,75.8996,79.47011
"9673",139.90164,76.36103,79.803406
"9674",139.91498,76.610054,79.93871
"9675",139.92831,76.60273,79.825455
"9676",139.94165,76.34638,79.462944
"9677",139.95499,75.862976,78.865364
"9678",139.96832,75.20134,78.07445
"9679",139.98166,74.40543,77.128586
"9680",139.995,73.50698,76.055305
"9681",140.00833,72.54749,74.892914
"9682",140.02167,71.551384,73.66391
"9683",140.035,70.55283,72.40134
"9684",140.04834,69.5787,71.13197
"9685",140.06168,68.648506,69.876114
"9686",140.07501,67.78912,68.661995
"9687",140.08835,67.01274,67.50402
"9688",140.10168,66.321815,66.40724
"9689",140.11502,65.71389,65.37187
"9690",140.12836,65.20363,64.41517
"9691",140.1417,64.85939,63.608543
"9692",140.15503,64.9131,63.18911
"9693",140.16837,65.84329,63.647835
"9694",140.1817,68.14313,65.50527
"9695",140.19504,72.01282,69.00443
"9696",140.20837,77.23506,73.97708
"9697",140.22171,83.20683,79.86245
"9698",140.23505,89.11513,85.87096
"9699",140.24838,94.16403,91.20471
"9700",140.26172,97.87259,95.355896
"9701",140.27505,100.157776,98.1996
"9702",140.28839,101.19295,99.8647
"9703",140.30173,101.188065,100.522095
"9704",140.31506,100.353096,100.34925
"9705",140.3284,98.89067,99.52286
"9706",140.34174,96.988785,98.2113
"9707",140.35507,94.803696,96.55711
"9708",140.36841,92.43549,94.65153
"9709",140.38174,89.935455,92.5401
"9710",140.39508,87.327995,90.243126
"9711",140.40842,84.67414,87.81827
"9712",140.42175,82.08377,85.37396
"9713",140.43509,79.727776,83.083084
"9714",140.44843,77.77707,81.12387
"9715",140.46176,76.37812,79.65546
"9716",140.4751,75.56756,78.73171
"9717",140.48843,75.28191,78.307556
"9718",140.50177,75.36492,78.243126
"9719",140.5151,75.6408,78.37416
"9720",140.52844,75.94354,78.54068
"9721",140.54178,76.14862,78.618996
"9722",140.55511,76.1828,78.53282
"9723",140.56845,76.01434,78.24508
"9724",140.58179,75.648125,77.75431
"9725",140.59512,75.106125,77.07632
"9726",140.60846,74.42008,76.23734
"9727",140.6218,73.62905,75.27194
"9728",140.63513,72.79164,74.23544
"9729",140.64847,71.95178,73.17033
"9730",140.6618,71.15343,72.12047
"9731",140.67514,70.41856,71.109146
"9732",140.68848,69.75937,70.150536
"9733",140.70181,69.17586,69.247
"9734",140.71515,68.66071,68.3936
"9735",140.72849,68.206604,67.58514
"9736",140.74182,67.80377,66.81376
"9737",140.75516,67.44244,66.07129
"9738",140.7685,67.105515,65.34194
"9739",140.78183,66.78081,64.61428
"9740",140.79517,66.49027,63.910645
"9741",140.8085,66.338905,63.337097
"9742",140.82184,66.62211,63.19339
"9743",140.83517,67.77692,63.930138
"9744",140.84851,70.15732,65.928566
"9745",140.86185,73.83414,69.2978
"9746",140.87518,78.52903,73.80001
"9747",140.88852,83.685356,78.91037
"9748",140.90186,88.60975,83.94993
"9749",140.91519,92.70649,88.31572
"9750",140.92853,95.672844,91.67915
"9751",140.94186,97.49172,93.98781
"9752",140.9552,98.29008,95.33278
"9753",140.96854,98.23392,95.84818
"9754",140.98187,97.49416,95.67824
"9755",140.99521,96.25147,94.98224
"9756",141.00854,94.66697,93.905594
"9757",141.02188,92.87251,92.56948
"9758",141.03522,90.94377,91.04301
"9759",141.04855,88.91005,89.35128
"9760",141.06189,86.78844,87.5081
"9761",141.07523,84.61799,85.54979
"9762",141.08856,82.49149,83.567604
"9763",141.1019,80.54078,81.69475
"9764",141.11523,78.9099,80.080765
"9765",141.12857,77.70382,78.84062
"9766",141.1419,76.95918,78.02423
"9767",141.15524,76.62226,77.592285
"9768",141.16858,76.575874,77.440346
"9769",141.18192,76.68574,77.44321
"9770",141.19525,76.82979,77.48369
"9771",141.20859,76.92256,77.477394
"9772",141.22192,76.893265,77.35193
"9773",141.23526,76.717476,77.079056
"9774",141.2486,76.39277,76.65177
"9775",141.26193,75.92645,76.07273
"9776",141.27527,75.335625,75.35461
"9777",141.2886,74.649574,74.5228
"9778",141.30194,73.9025,73.60852
"9779",141.31528,73.13588,72.65136
"9780",141.32861,72.39124,71.69222
"9781",141.34195,71.70519,70.7684
"9782",141.35529,71.10704,69.91104
"9783",141.36862,70.62119,69.14729
"9784",141.38196,70.25498,68.48799
"9785",141.3953,69.993744,67.92222
"9786",141.40863,69.81308,67.428856
"9787",141.42197,69.678795,66.97623
"9788",141.4353,69.55428,66.529175
"9789",141.44864,69.41268,66.06114
