"","Time..s.","PPG.trace","Preprocessed.PPG"
"35497",473.29645,78.01877,148.21529
"35498",473.30988,77.977264,148.11186
"35499",473.32306,77.95529,148.02667
"35500",473.3365,77.98947,147.99695
"35501",473.34967,78.1384,148.08304
"35502",473.3631,78.44114,148.3276
"35503",473.37628,78.92699,148.76474
"35504",473.3897,79.57397,149.37819
"35505",473.4029,80.32105,150.11195
"35506",473.41632,81.06813,150.86906
"35507",473.4295,81.72976,151.56407
"35508",473.44293,82.230255,152.11862
"35509",473.45612,82.547646,152.5057
"35510",473.46954,82.68925,152.72693
"35511",473.48273,82.69169,152.81342
"35512",473.49615,82.58915,152.795
"35513",473.50934,82.425575,152.71234
"35514",473.52277,82.23758,152.60014
"35515",473.53595,82.05936,152.49185
"35516",473.54938,81.898224,152.39508
"35517",473.56256,81.76883,152.32501
"35518",473.576,81.654076,152.26553
"35519",473.58917,81.54177,152.20493
"35520",473.6026,81.41238,152.12372
"35521",473.61578,81.25857,152.01405
"35522",473.6292,81.094986,151.8898
"35523",473.6424,80.92897,151.75801
"35524",473.65582,80.780045,151.63812
"35525",473.669,80.66285,151.5453
"35526",473.68243,80.58228,151.48546
"35527",473.69562,80.52857,151.44995
"35528",473.70905,80.499275,151.43718
"35529",473.72223,80.46998,151.4235
"35530",473.73566,80.43336,151.40157
"35531",473.74884,80.37476,151.35652
"35532",473.76227,80.28687,151.28035
"35533",473.77545,80.17456,151.177
"35534",473.78888,80.042725,151.05063
"35535",473.80206,79.886475,150.89572
"35536",473.8155,79.72045,150.72615
"35537",473.82867,79.54467,150.54163
"35538",473.8421,79.36645,150.34917
"35539",473.8553,79.1931,150.15602
"35540",473.8687,79.03685,149.97455
"35541",473.8819,78.89525,149.80284
"35542",473.89532,78.768295,149.64136
"35543",473.9085,78.658424,149.493
"35544",473.92194,78.55833,149.35097
"35545",473.93512,78.47288,149.22046
"35546",473.94855,78.397194,149.09705
"35547",473.96173,78.33616,148.98592
"35548",473.97516,78.28489,148.88264
"35549",473.98834,78.24582,148.78998
"35550",474.00177,78.21652,148.70586
"35551",474.01495,78.18967,148.62326
"35552",474.02838,78.167694,148.54471
"35553",474.04156,78.15549,148.47523
"35554",474.055,78.14572,148.40782
"35555",474.06818,78.133514,148.33766
"35556",474.0816,78.12131,148.26712
"35557",474.0948,78.1091,148.1962
"35558",474.10822,78.08957,148.11757
"35559",474.1214,78.0676,148.03589
"35560",474.13483,78.03586,147.94376
"35561",474.148,78.00168,147.84819
"35562",474.16144,77.95285,147.73691
"35563",474.17462,77.90158,147.62166
"35564",474.18805,77.86496,147.51945
"35565",474.20123,77.88449,147.47226
"35566",474.21466,78.01633,147.53798
"35567",474.22784,78.30442,147.76408
"35568",474.24127,78.77806,148.18474
"35569",474.25446,79.415276,148.78377
"35570",474.26788,80.15991,149.51013
"35571",474.28107,80.91676,150.27197
"35572",474.2945,81.58816,150.97202
"35573",474.30768,82.1033,151.53679
"35574",474.3211,82.42802,151.92723
"35575",474.3343,82.564735,152.13983
"35576",474.34772,82.54276,152.19801
"35577",474.3609,82.408485,152.1432
"35578",474.37433,82.20584,152.01582
"35579",474.3875,81.97635,151.85527
"35580",474.40094,81.75418,151.69487
"35581",474.41412,81.55154,151.54704
"35582",474.42755,81.375755,151.41975
"35583",474.44073,81.21706,151.30405
"35584",474.45416,81.06813,151.19316
"35585",474.46735,80.921646,151.08006
"35586",474.48077,80.7776,150.96483
"35587",474.49396,80.6482,150.85973
"35588",474.5074,80.550545,150.78233
"35589",474.52057,80.48951,150.73851
"35590",474.534,80.46754,150.73184
"35591",474.54718,80.479744,150.75867
"35592",474.5606,80.51148,150.8054
"35593",474.5738,80.54566,150.85558
"35594",474.58722,80.567635,150.8946
"35595",474.6004,80.56275,150.90747
"35596",474.61383,80.52369,150.886
"35597",474.627,80.448006,150.82669
"35598",474.64044,80.33326,150.72595
"35599",474.65363,80.18921,150.59232
"35600",474.66705,80.02319,150.43222
"35601",474.68024,79.852295,150.26205
"35602",474.69366,79.67895,150.08409
"35603",474.70685,79.51049,149.9056
"35604",474.72028,79.34936,149.72916
"35605",474.73346,79.200424,149.55989
"35606",474.7469,79.06859,149.40306
"35607",474.76007,78.95384,149.2592
"35608",474.7735,78.853745,149.1264
"35609",474.78668,78.77318,149.01001
"35610",474.8001,78.69993,148.89842
"35611",474.8133,78.63645,148.79431
"35612",474.82672,78.5803,148.69554
"35613",474.8399,78.538795,148.60966
"35614",474.85333,78.50706,148.53226
"35615",474.86652,78.48997,148.4685
"35616",474.87994,78.487526,148.41887
"35617",474.89313,78.487526,148.3716
"35618",474.90656,78.48997,148.32677
"35619",474.91974,78.487526,148.27713
"35620",474.93317,78.47776,148.2201
"35621",474.94635,78.46067,148.15543
"35622",474.95978,78.433815,148.08046
"35623",474.97296,78.397194,147.99489
"35624",474.9864,78.35813,147.90573
"35625",474.99957,78.31907,147.81535
"35626",475.013,78.30442,147.74817
"35627",475.02618,78.36057,147.75133
"35628",475.0396,78.538795,147.87831
"35629",475.0528,78.8806,148.17445
"35630",475.06622,79.398186,148.65706
"35631",475.0794,80.06714,149.3072
"35632",475.09283,80.8069,150.04907
"35633",475.10602,81.52712,150.79451
"35634",475.11945,82.13992,151.45503
"35635",475.13263,82.59159,151.97357
"35636",475.14606,82.85771,152.32068
"35637",475.15924,82.95293,152.5052
"35638",475.17267,82.90898,152.55354
"35639",475.18585,82.76494,152.50041
"35640",475.19928,82.56718,152.38905
"35641",475.21246,82.34989,152.252
"35642",475.2259,82.13992,152.11546
"35643",475.23907,81.951935,151.99435
"35644",475.2525,81.79324,151.89667
"35645",475.2657,81.651634,151.8111
"35646",475.2791,81.512474,151.72356
"35647",475.2923,81.36599,151.62434
"35648",475.30573,81.20973,151.51077
"35649",475.3189,81.05592,151.39478
"35650",475.33234,80.91676,151.28862
"35651",475.34552,80.80934,151.20985
"35652",475.35895,80.73609,151.1619
"35653",475.37213,80.70191,151.15073
"35654",475.38556,80.69215,151.1629
"35655",475.39874,80.68482,151.17722
"35656",475.41217,80.66773,151.18153
"35657",475.42535,80.63111,151.16579
"35658",475.43878,80.56519,151.1196
"35659",475.45197,80.46754,151.03961
"35660",475.4654,80.34791,150.9346
"35661",475.47858,80.20874,150.8063
"35662",475.492,80.05005,150.65414
"35663",475.5052,79.88403,150.48969
"35664",475.51862,79.708244,150.31027
"35665",475.5318,79.53246,150.12537
"35666",475.54523,79.35912,149.93741
"35667",475.5584,79.19554,149.7538
"35668",475.57184,79.04173,149.57484
"35669",475.58502,78.907455,149.41061
"35670",475.59845,78.78783,149.25684
"35671",475.61163,78.68284,149.11397
"35672",475.62506,78.59739,148.98735
"35673",475.63824,78.52659,148.87271
"35674",475.65167,78.467995,148.76807
"35675",475.66486,78.41428,148.66647
"35676",475.67828,78.37278,148.57541
"35677",475.69147,78.33616,148.48793
"35678",475.7049,78.311745,148.41151
"35679",475.71808,78.29221,148.33922
"35680",475.7315,78.28245,148.27608
"35681",475.7447,78.27512,148.21507
"35682",475.75812,78.2678,148.15384
"35683",475.7713,78.25803,148.08994
"35684",475.78473,78.24826,148.02573
"35685",475.7979,78.23117,147.95389
"35686",475.81134,78.2092,147.87663
"35687",475.82452,78.17746,147.78893
"35688",475.83795,78.14084,147.69534
"35689",475.85114,78.10666,147.60306
"35690",475.86456,78.08713,147.52435
"35691",475.87775,78.118866,147.4963
"35692",475.89117,78.24826,147.56691
"35693",475.90436,78.52903,147.79294
"35694",475.9178,78.99046,148.2084
"35695",475.93097,79.62768,148.81407
"35696",475.9444,80.38941,149.56416
"35697",475.95758,81.18776,150.37468
"35698",475.971,81.9202,151.14424
"35699",475.9842,82.51591,151.79996
"35700",475.99762,82.92607,152.28874
"35701",476.0108,83.1458,152.59991
"35702",476.02423,83.19951,152.75194
"35703",476.0374,83.123825,152.77625
"35704",476.05084,82.967575,152.71762
"35705",476.06403,82.77226,152.61505
"35706",476.07745,82.56718,152.4966
"35707",476.09064,82.38163,152.39128
"35708",476.10406,82.22293,152.307
"35709",476.11725,82.08865,152.2422
"35710",476.13068,81.96414,152.18297
"35711",476.14386,81.83719,152.1174
"35712",476.1573,81.69558,152.0332
"35713",476.17047,81.53689,151.9275
"35714",476.1839,81.36599,151.80464
"35715",476.19708,81.197525,151.67886
"35716",476.2105,81.05592,151.57469
"35717",476.2237,80.94606,151.49783
"35718",476.23712,80.86549,151.44684
"35719",476.2503,80.81178,151.42018
"35720",476.26373,80.77516,151.40894
"35721",476.27692,80.73609,151.39409
"35722",476.29034,80.68482,151.36583
"35723",476.30353,80.61158,151.314
"35724",476.31696,80.51148,151.23302
"35725",476.33014,80.38209,151.11961
"35726",476.34357,80.233154,150.98262
"35727",476.35675,80.06714,150.82388
"35728",476.37018,79.888916,150.64777
"35729",476.38336,79.70336,150.45874
"35730",476.3968,79.520256,150.26636
"35731",476.40997,79.34203,150.07314
"35732",476.4234,79.17357,149.88411
"35733",476.43658,79.01732,149.70203
"35734",476.45,78.87816,149.53215
"35735",476.4632,78.75365,149.37257
"35736",476.47662,78.643776,149.22375
"35737",476.4898,78.551,149.0886
"35738",476.50323,78.47288,148.96518
"35739",476.51642,78.40696,148.85153
"35740",476.52985,78.35325,148.74803
"35741",476.54303,78.314186,148.6575
"35742",476.55646,78.28489,148.57552
"35743",476.56964,78.26292,148.49994
"35744",476.58307,78.24826,148.431
"35745",476.59625,78.23361,148.3616
"35746",476.60968,78.221405,148.29419
"35747",476.62286,78.20187,148.21907
"35748",476.6363,78.187225,148.14822
"35749",476.64948,78.17258,148.07692
"35750",476.6629,78.15549,148.00272
"35751",476.6761,78.13107,147.92065
"35752",476.6895,78.099335,147.8305
"35753",476.7027,78.05783,147.7296
"35754",476.71613,78.01633,147.6274
"35755",476.7293,77.98703,147.5361
"35756",476.74274,78.011444,147.4976
"35757",476.75592,78.135956,147.55997
"35758",476.76935,78.41428,147.78004
"35759",476.78253,78.87816,148.19437
"35760",476.79596,79.517815,148.79897
"35761",476.80914,80.27711,149.54318
"35762",476.82257,81.06813,150.34286
"35763",476.83575,81.78836,151.09648
"35764",476.84918,82.35966,151.72366
"35765",476.86237,82.74052,152.17827
"35766",476.8758,82.933395,152.45679
"35767",476.88898,82.96513,152.5802
"35768",476.9024,82.879684,152.58742
"35769",476.9156,82.720985,152.5187
"35770",476.92902,82.52323,152.40599
"35771",476.9422,82.31815,152.27977
"35772",476.95563,82.11795,152.15201
"35773",476.9688,81.93729,152.03754
"35774",476.98224,81.77615,151.93695
"35775",476.99542,81.62722,151.84352
"35776",477.00885,81.478294,151.74545
"35777",477.02203,81.32693,151.64029
"35778",477.03546,81.17067,151.5255
"35779",477.04865,81.0193,151.41072
"35780",477.06207,80.88014,151.30342
"35781",477.07526,80.76784,151.21863
"35782",477.08868,80.68482,151.1596
"35783",477.10187,80.62867,151.12486
"35784",477.1153,80.59205,151.1079
"35785",477.12848,80.567635,151.10199
"35786",477.1419,80.53834,151.09044
"35787",477.1551,80.49439,151.06332
"35788",477.16852,80.428474,151.01286
"35789",477.1817,80.33326,150.93105
"35790",477.19513,80.20386,150.81206
"35791",477.2083,80.05005,150.66461
"35792",477.22174,79.87915,150.49527
"35793",477.23492,79.69848,150.31082
"35794",477.24835,79.51293,150.11584
"35795",477.26154,79.33715,149.92484
"35796",477.27496,79.168686,149.73566
"35797",477.28815,79.01488,149.55586
"35798",477.30157,78.873276,149.38347
"35799",477.31476,78.746315,149.2213
"35800",477.3282,78.626686,149.06248
"35801",477.34137,78.51682,148.9097
"35802",477.3548,78.42405,148.77057
"35803",477.36798,78.35325,148.65051
"35804",477.3814,78.29954,148.54533
"35805",477.3946,78.260475,148.45312
"35806",477.40802,78.23605,148.37434
"35807",477.4212,78.21652,148.29968
"35808",477.43463,78.204315,148.23174
"35809",477.4478,78.19699,148.16829
"35810",477.46124,78.19211,148.10706
"35811",477.47443,78.19211,148.05055
"35812",477.48785,78.187225,147.98917
"35813",477.50104,78.1799,147.92519
"35814",477.51447,78.16281,147.85121
"35815",477.52765,78.14084,147.77182
"35816",477.54108,78.11154,147.68442
"35817",477.55426,78.07248,147.58633
"35818",477.5677,78.03586,147.48947
"35819",477.58087,78.02121,147.41344
"35820",477.5943,78.07492,147.4053
"35821",477.60748,78.25071,147.52094
"35822",477.6209,78.59495,147.8105
"35823",477.6341,79.11253,148.28418
"35824",477.64752,79.783936,148.92784
"35825",477.6607,80.53101,149.66817
"35826",477.67413,81.26101,150.41476
"35827",477.68732,81.88602,151.07918
"35828",477.70074,82.340126,151.59222
"35829",477.71393,82.598915,151.92415
"35830",477.72736,82.67216,152.07861
"35831",477.74054,82.60136,152.09132
"35832",477.75397,82.42802,151.99928
"35833",477.76715,82.19852,151.84566
"35834",477.78058,81.94949,151.66534
"35835",477.79376,81.70779,151.48456
"35836",477.8072,81.48562,151.31577
"35837",477.82037,81.28542,151.162
"35838",477.8338,81.09743,151.01418
"35839",477.847,80.92653,150.87758
"35840",477.8604,80.762955,150.74297
"35841",477.8736,80.61646,150.62032
"35842",477.88702,80.49439,150.51752
"35843",477.9002,80.413826,150.45241
"35844",477.91364,80.38453,150.43605
"35845",477.92682,80.40162,150.46516
"35846",477.94025,80.445564,150.52167
"35847",477.95343,80.499275,150.58931
"35848",477.96686,80.54566,150.6513
"35849",477.98004,80.56519,150.6879
"35850",477.99347,80.550545,150.69092
"35851",478.00665,80.499275,150.65686
"35852",478.02008,80.4065,150.5797
"35853",478.03326,80.28199,150.4679
"35854",478.0467,80.128174,150.32289
"35855",478.05988,79.95972,150.15845
"35856",478.0733,79.781494,149.97897
"35857",478.0865,79.605705,149.79636
"35858",478.0999,79.43969,149.61801
"35859",478.1131,79.28588,149.44669
"35860",478.12653,79.14427,149.28276
"35861",478.1397,79.01732,149.12906
"35862",478.15314,78.9099,148.99092
"35863",478.16632,78.819565,148.86652
"35864",478.17975,78.746315,148.75638
"35865",478.19293,78.692604,148.66348
"35866",478.20636,78.65598,148.586
"35867",478.21954,78.63157,148.51958
"35868",478.23297,78.61692,148.46216
"35869",478.24615,78.607155,148.40916
"35870",478.25958,78.59983,148.3583
"35871",478.27277,78.58762,148.30234
"35872",478.2862,78.56809,148.23866
"35873",478.29938,78.54124,148.16705
"35874",478.3128,78.52659,148.10681
"35875",478.326,78.55833,148.0925
"35876",478.33942,78.6804,148.16951
"35877",478.3526,78.93919,148.38707
"35878",478.36603,79.361565,148.77629
"35879",478.3792,79.93042,149.3252
"35880",478.39264,80.59449,149.98709
"35881",478.40582,81.27322,150.6844
"35882",478.41925,81.87869,151.32967
"35883",478.43243,82.340126,151.84981
"35884",478.44586,82.62089,152.2037
"35885",478.45905,82.720985,152.38571
"35886",478.47247,82.67216,152.42192
"35887",478.48566,82.50858,152.34186
"35888",478.49908,82.27909,152.19077
"35889",478.51227,82.022736,152.00563
"35890",478.5257,81.76883,151.81494
"35891",478.53888,81.53445,151.63583
"35892",478.5523,81.31716,151.4665
"35893",478.5655,81.11452,151.30502
"35894",478.57892,80.92409,151.14943
"35895",478.5921,80.74586,151.00008
"35896",478.60553,80.587166,150.8647
"35897",478.6187,80.462654,150.75854
"35898",478.63214,80.38453,150.69489
"35899",478.64532,80.35279,150.67517
"35900",478.65875,80.35767,150.69109
"35901",478.67194,80.38941,150.73401
"35902",478.68536,80.430916,150.78769
"35903",478.69855,80.462654,150.8329
"35904",478.71198,80.4773,150.86201
"35905",478.72516,80.462654,150.86229
"35906",478.7386,80.411385,150.82549
"35907",478.75177,80.323494,150.75046
"35908",478.7652,80.201416,150.63849
"35909",478.77838,80.04761,150.49097
"35910",478.7918,79.87427,150.31912
"35911",478.805,79.691154,150.13208
"35912",478.81842,79.50805,149.93932
"35913",478.8316,79.33471,149.7506
"35914",478.84503,79.17113,149.56622
"35915",478.85822,79.027084,149.39627
"35916",478.87164,78.89769,149.23647
"35917",478.88483,78.79027,149.09459
"35918",478.89825,78.70237,148.96889
"35919",478.91144,78.63157,148.85753
"35920",478.92487,78.57786,148.76105
"35921",478.93805,78.536354,148.6751
"35922",478.95148,78.504616,148.59761
"35923",478.96466,78.4802,148.52646
"35924",478.9781,78.45823,148.45699
"35925",478.99127,78.4387,148.38927
"35926",479.0047,78.416725,148.3185
"35927",479.01788,78.399635,148.25192
"35928",479.0313,78.399635,148.2019
"35929",479.0445,78.44114,148.19339
"35930",479.05792,78.57542,148.27895
"35931",479.0711,78.84398,148.50299
"35932",479.08453,79.273674,148.89656
"35933",479.09772,79.8645,149.46469
"35934",479.11115,80.56275,150.1587
"35935",479.12433,81.29519,150.90874
"35936",479.13776,81.9617,151.61572
"35937",479.15094,82.48661,152.20193
"35938",479.16437,82.83086,152.62389
"35939",479.17755,82.98955,152.87105
"35940",479.19098,82.98711,152.96204
"35941",479.20416,82.86748,152.93576
"35942",479.2176,82.67216,152.83005
"35943",479.23077,82.44755,152.68895
"35944",479.2442,82.22293,152.54082
"35945",479.2574,82.01785,152.40521
"35946",479.2708,81.84451,152.29494
"35947",479.284,81.69558,152.20364
"35948",479.29742,81.55154,152.1126
"35949",479.3106,81.40017,152.00972
"35950",479.32404,81.23903,151.89233
"35951",479.33722,81.07057,151.7626
"35952",479.35065,80.91188,151.63737
"35953",479.36383,80.7776,151.5316
"35954",479.37726,80.6775,151.4558
"35955",479.39044,80.61158,151.41106
"35956",479.40387,80.57252,151.39111
"35957",479.41705,80.54566,151.38216
"35958",479.43048,80.51148,151.36504
"35959",479.44366,80.462654,151.3322
"35960",479.4571,80.39185,151.27586
"35961",479.47028,80.30152,151.19778
"35962",479.4837,80.19165,151.09734
"35963",479.4969,80.059814,150.9715
"35964",479.5103,79.91089,150.82443
"35965",479.5235,79.73754,150.6483
"35966",479.53693,79.54955,150.4521
"35967",479.5501,79.35668,150.24515
"35968",479.56354,79.166245,150.0346
"35969",479.57672,78.99046,149.83276
"35970",479.59015,78.83421,149.64496
"35971",479.60333,78.69749,149.4718
"35972",479.61676,78.57542,149.30902
"35973",479.62994,78.47288,149.16196
"35974",479.64337,78.380104,149.02145
"35975",479.65656,78.30686,148.89758
"35976",479.66998,78.25071,148.78851
"35977",479.68317,78.21164,148.69478
"35978",479.6966,78.18967,148.61691
"35979",479.70978,78.17746,148.54813
"35980",479.7232,78.170135,148.48384
"35981",479.7364,78.16281,148.41933
"35982",479.74982,78.14816,148.34726
"35983",479.763,78.13107,148.2723
"35984",479.77643,78.1091,148.19191
"35985",479.7896,78.08713,148.11084
"35986",479.80304,78.09689,148.06082
"35987",479.81622,78.18234,148.08679
"35988",479.82965,78.397194,148.24484
"35989",479.84283,78.78294,148.5805
"35990",479.85626,79.344475,149.104
"35991",479.86945,80.04761,149.78665
"35992",479.88287,80.80934,150.54987
"35993",479.89606,81.53689,151.3027
"35994",479.9095,82.142365,151.9562
"35995",479.92267,82.57206,152.45285
"35996",479.9361,82.80888,152.77005
"35997",479.94928,82.8748,152.92375
"35998",479.9627,82.81377,152.95256
"35999",479.9759,82.6746,152.90132
"36000",479.98932,82.50126,152.81157
"36001",480.0025,82.32304,152.71152
"36002",480.01593,82.159454,152.62053
"36003",480.0291,82.01785,152.54642
"36004",480.04254,81.898224,152.48985
"36005",480.05573,81.78592,152.43687
"36006",480.06915,81.66384,152.3706
"36007",480.08234,81.52224,152.281
"36008",480.09576,81.358665,152.16501
"36009",480.10895,81.17311,152.02191
"36010",480.12238,80.99245,151.87791
"36011",480.13556,80.833755,151.75024
"36012",480.149,80.71412,151.65666
"36013",480.16217,80.62867,151.59354
"36014",480.1756,80.57496,151.55948
"36015",480.18878,80.533455,151.53595
"36016",480.2022,80.49195,151.51112
"36017",480.2154,80.43824,151.4728
"36018",480.22882,80.360115,151.40837
"36019",480.242,80.25269,151.31221
"36020",480.25543,80.11597,151.18338
"36021",480.26862,79.954834,151.02588
"36022",480.28204,79.77905,150.8487
"36023",480.29523,79.5935,150.65623
"36024",480.30865,79.40551,150.45554
"36025",480.32184,79.2224,150.25385
"36026",480.33527,79.0515,150.05864
"36027",480.34845,78.890366,149.86786
"36028",480.36188,78.74387,149.68669
"36029",480.37506,78.6096,149.51315
"36030",480.3885,78.49241,149.35251
"36031",480.40167,78.38987,149.20285
"36032",480.4151,78.30198,149.06464
"36033",480.42828,78.23361,148.9432
"36034",480.4417,78.1799,148.83429
"36035",480.4549,78.135956,148.73346
"36036",480.46832,78.10422,148.64346
"36037",480.4815,78.082245,148.56224
"36038",480.49493,78.07004,148.4901
"36039",480.50812,78.05783,148.41757
"36040",480.52155,78.04562,148.34467
"36041",480.53473,78.02609,148.26405
"36042",480.54816,77.99924,148.1755
"36043",480.56134,77.95773,148.07147
"36044",480.57477,77.91623,147.96614
"36045",480.58795,77.88205,147.86684
"36046",480.60138,77.88205,147.80064
"36047",480.61456,77.95773,147.81013
"36048",480.628,78.16281,147.95139
"36049",480.64117,78.536354,148.26752
"36050",480.6546,79.08812,148.77354
"36051",480.6678,79.781494,149.43842
"36052",480.6812,80.54566,150.19576
"36053",480.6944,81.28298,150.95013
"36054",480.70782,81.90555,151.6128
"36055",480.721,82.35233,152.11913
"36056",480.73444,82.6038,152.4441
"36057",480.74762,82.67948,152.60117
"36058",480.76105,82.61112,152.61655
"36059",480.77423,82.45487,152.5419
"36060",480.78766,82.25468,152.41843
"36061",480.80084,82.04959,152.2838
"36062",480.81427,81.8616,152.15987
"36063",480.82745,81.69802,152.05446
"36064",480.84088,81.55398,151.96349
"36065",480.85406,81.41238,151.87045
"36066",480.8675,81.26101,151.76323
"36067",480.88068,81.094986,151.63661
"36068",480.8941,80.91676,151.49261
"36069",480.9073,80.73853,151.34303
"36070",480.92072,80.57984,151.20743
"36071",480.9339,80.45045,151.09616
"36072",480.94733,80.35767,151.01747
"36073",480.9605,80.30152,150.9725
"36074",480.97394,80.26734,150.94775
"36075",480.98712,80.2478,150.93657
"36076",481.00055,80.22095,150.91745
"36077",481.01373,80.181885,150.88528
"36078",481.02716,80.10864,150.81772
"36079",481.04034,80.008545,150.72101
"36080",481.05377,79.88159,150.59433
"36081",481.06696,79.73022,150.43925
"36082",481.08038,79.5642,150.2648
"36083",481.09357,79.38598,150.07295
"36084",481.107,79.20775,149.87553
"36085",481.12018,79.03441,149.67743
"36086",481.1336,78.87572,149.48856
"36087",481.1468,78.72678,149.30449
"36088",481.16022,78.59495,149.13286
"36089",481.1734,78.47776,148.97176
"36090",481.18683,78.37766,148.82408
"36091",481.2,78.29221,148.68793
"36092",481.21344,78.221405,148.56375
"36093",481.22662,78.16525,148.45201
"36094",481.24005,78.12375,148.35316
"36095",481.25323,78.08957,148.26035
"36096",481.26666,78.065155,148.17622
"36097",481.27985,78.05295,148.10355
"36098",481.29327,78.05295,148.0427
"36099",481.30646,78.06027,147.98917
"36100",481.3199,78.07248,147.94075
"36101",481.33307,78.07736,147.88539
"36102",481.3465,78.07248,147.82042
"36103",481.35968,78.05051,147.7382
"36104",481.3731,78.009,147.63577
"36105",481.3863,77.960175,147.52472
"36106",481.39972,77.908905,147.4097
"36107",481.4129,77.87961,147.31505
"36108",481.42633,77.91623,147.2854
"36109",481.4395,78.07492,147.37897
"36110",481.45294,78.39475,147.63864
"36111",481.46613,78.89525,148.08897
"36112",481.47955,79.554436,148.71364
"36113",481.49274,80.30152,149.4468
"36114",481.50616,81.03639,150.19109
"36115",481.51935,81.66384,150.85092
"36116",481.53278,82.11795,151.35703
"36117",481.54596,82.37675,151.682
"36118",481.5594,82.44999,151.82953
"36119",481.57257,82.36942,151.82553
"36120",481.586,82.18875,151.7189
"36121",481.59918,81.95682,151.55537
"36122",481.6126,81.71267,151.37238
"36123",481.6258,81.48806,151.2013
"36124",481.63922,81.29275,151.05249
"36125",481.6524,81.1194,150.91954
"36126",481.66583,80.95827,150.7934
"36127",481.67902,80.799576,150.66466
"36128",481.69244,80.64088,150.53094
"36129",481.70563,80.49195,150.40205
"36130",481.71906,80.37232,150.2978
"36131",481.73224,80.2942,150.23132
"36132",481.74567,80.2649,150.21123
"36133",481.75885,80.26978,150.2244
"36134",481.77228,80.29664,150.25969
"36135",481.78546,80.325935,150.29826
"36136",481.7989,80.34791,150.33043
"36137",481.81207,80.34791,150.34131
"36138",481.8255,80.31861,150.32289
"36139",481.83868,80.25269,150.26694
"36140",481.8521,80.15503,150.17717
"36141",481.8653,80.02319,150.05017
"36142",481.87872,79.8645,149.89221
"36143",481.8919,79.69604,149.71951
"36144",481.90533,79.5227,149.53667
"36145",481.91852,79.35424,149.35329
"36146",481.93195,79.19554,149.17441
"36147",481.94513,79.0515,149.00522
"36148",481.95856,78.91966,148.84373
"36149",481.97174,78.80736,148.69766
"36150",481.98517,78.70725,148.56029
"36151",481.99835,78.6218,148.43443
"36152",482.01178,78.555885,148.32544
"36153",482.02496,78.504616,148.22903
"36154",482.0384,78.47532,148.153
"36155",482.05157,78.45823,148.08826
"36156",482.065,78.45823,148.04007
"36157",482.0782,78.46555,147.9992
"36158",482.0916,78.47532,147.96101
"36159",482.1048,78.487526,147.92557
"36160",482.11823,78.49729,147.88806
"36161",482.1314,78.49485,147.83865
"36162",482.14484,78.4802,147.77696
"36163",482.15802,78.45579,147.70505
"36164",482.17145,78.4387,147.6397
"36165",482.18463,78.450905,147.6031
"36166",482.19806,78.54124,147.64502
"36167",482.21124,78.76097,147.81917
"36168",482.22467,79.14183,148.1613
"36169",482.23785,79.68139,148.67404
"36170",482.25128,80.343025,149.32571
"36171",482.26447,81.041275,150.03468
"36172",482.2779,81.68093,150.70688
"36173",482.29108,82.176544,151.25502
"36174",482.3045,82.48661,151.6331
"36175",482.3177,82.60624,151.83044
"36176",482.33112,82.564735,151.87039
"36177",482.3443,82.4036,151.78941
"36178",482.35773,82.1741,151.63503
"36179",482.3709,81.92264,151.4515
"36180",482.38434,81.68093,151.26988
"36181",482.39752,81.46853,151.11002
"36182",482.41095,81.287865,150.97525
"36183",482.42413,81.126724,150.85435
"36184",482.43756,80.97536,150.7382
"36185",482.45074,80.81911,150.61244
"36186",482.46417,80.66529,150.48422
"36187",482.47736,80.52613,150.36586
"36188",482.49078,80.42115,150.27733
"36189",482.50397,80.360115,150.22946
"36190",482.5174,80.34058,150.22119
"36191",482.53058,80.35279,150.24405
"36192",482.544,80.377205,150.2795
"36193",482.5572,80.396736,150.31082
"36194",482.57062,80.396736,150.32323
"36195",482.5838,80.36744,150.30634
"36196",482.59723,80.30396,150.25435
"36197",482.6104,80.2063,150.16618
"36198",482.62384,80.07446,150.0408
"36199",482.63702,79.920654,149.88931
"36200",482.65045,79.7522,149.71838
"36201",482.66364,79.58373,149.54218
"36202",482.67706,79.41772,149.36314
"36203",482.69025,79.259026,149.18625
"36204",482.70367,79.11253,149.0166
"36205",482.71686,78.975815,148.85214
"36206",482.7303,78.8513,148.69562
"36207",482.74347,78.74143,148.54985
"36208",482.7569,78.64866,148.41774
"36209",482.77008,78.572975,148.29982
"36210",482.7835,78.51194,148.19418
"36211",482.7967,78.46067,148.0964
"36212",482.81012,78.42405,148.01167
"36213",482.8233,78.40208,147.94044
"36214",482.83673,78.382545,147.87097
"36215",482.8499,78.37522,147.8131
"36216",482.86334,78.380104,147.7672
"36217",482.87653,78.38499,147.72145
"36218",482.88995,78.39475,147.68074
"36219",482.90314,78.40208,147.6379
"36220",482.91656,78.40696,147.59283
"36221",482.92975,78.39475,147.53084
"36222",482.94318,78.37278,147.4587
"36223",482.95636,78.34104,147.3761
"36224",482.9698,78.314186,147.2974
"36225",482.98297,78.32151,147.25203
"36226",482.9964,78.41917,147.29723
"36227",483.00958,78.65598,147.48463
"36228",483.023,79.07103,147.85768
"36229",483.0362,79.66674,148.42436
"36230",483.04962,80.40162,149.14882
"36231",483.0628,81.17799,149.93774
"36232",483.07623,81.898224,150.6948
"36233",483.08942,82.46952,151.32541
"36234",483.10284,82.84306,151.77612
"36235",483.11603,83.01152,152.03343
"36236",483.12946,83.00664,152.12267
"36237",483.14264,82.879684,152.08968
"36238",483.15607,82.67948,151.97946
"36239",483.16925,82.45243,151.83615
"36240",483.18268,82.2327,151.69305
"36241",483.19586,82.04471,151.57484
"36242",483.2093,81.89334,151.48738
"36243",483.22247,81.76883,151.42204
"36244",483.2359,81.6614,151.36989
"36245",483.24908,81.54421,151.30463
"36246",483.2625,81.41238,151.22105
"36247",483.2757,81.26101,151.11383
"36248",483.28912,81.10475,150.99698
"36249",483.3023,80.95827,150.88503
"36250",483.31573,80.831314,150.78802
"36251",483.32892,80.73121,150.7139
"36252",483.34235,80.65797,150.66351
"36253",483.35553,80.6067,150.63281
"36254",483.36896,80.56519,150.61028
"36255",483.38214,80.52369,150.58644
"36256",483.39557,80.46754,150.54666
"36257",483.40875,80.38941,150.48315
"36258",483.42218,80.28199,150.38791
"36259",483.43536,80.15259,150.26732
"36260",483.4488,80.008545,150.12805
"36261",483.46198,79.85718,149.97696
"36262",483.4754,79.70092,149.81624
"36263",483.4886,79.54223,149.6482
"36264",483.502,79.38354,149.47519
"36265",483.5152,79.22972,149.30211
"36266",483.52863,79.08324,149.13155
"36267",483.5418,78.94896,148.96861
"36268",483.55524,78.83421,148.82101
"36269",483.56842,78.73167,148.68204
"36270",483.58185,78.643776,148.5545
"36271",483.59503,78.56809,148.43643
"36272",483.60846,78.50706,148.33064
"36273",483.62164,78.45579,148.23271
"36274",483.63507,78.416725,148.14539
"36275",483.64825,78.39231,148.07149
"36276",483.66168,78.37278,148.00171
"36277",483.67487,78.363014,147.94109
"36278",483.6883,78.35813,147.88504
"36279",483.70148,78.35569,147.83128
"36280",483.7149,78.35569,147.77989
"36281",483.7281,78.35325,147.72606
"36282",483.74152,78.345924,147.66727
"36283",483.7547,78.331276,147.60092
"36284",483.76813,78.30686,147.52435
"36285",483.7813,78.26536,147.42993
"36286",483.79474,78.21896,147.32933
"36287",483.80792,78.17258,147.22728
"36288",483.82135,78.16525,147.16284
"36289",483.83453,78.23605,147.1763
"36290",483.84796,78.44602,147.33115
"36291",483.86115,78.839096,147.67566
"36292",483.87457,79.41772,148.218
"36293",483.88776,80.1355,148.91759
"36294",483.90118,80.91432,149.70065
"36295",483.91437,81.651634,150.46654
"36296",483.9278,82.2449,151.11142
"36297",483.94098,82.650185,151.58685
"36298",483.9544,82.845505,151.86499
"36299",483.9676,82.85771,151.96613
"36300",483.98102,82.738075,151.93579
"36301",483.9942,82.53544,151.81873
"36302",484.00763,82.29862,151.66115
"36303",484.0208,82.074005,151.50836
"36304",484.03424,81.881134,151.38031
"36305",484.04742,81.72976,151.28772
"36306",484.06085,81.61013,151.22215
"36307",484.07404,81.50759,151.16994
"36308",484.08746,81.40505,151.11452
"36309",484.10065,81.28054,151.03392
"36310",484.11407,81.13649,150.92989
"36311",484.12726,80.98268,150.8116
"36312",484.1407,80.831314,150.69095
"36313",484.15387,80.69703,150.58264
"36314",484.1673,80.59693,150.50433
"36315",484.18048,80.53101,150.45708
"36316",484.1939,80.49439,150.43706
"36317",484.2071,80.46998,150.4281
"36318",484.22052,80.448006,150.42082
"36319",484.2337,80.413826,150.40065
"36320",484.24713,80.35523,150.355
"36321",484.2603,80.274666,150.28554
"36322",484.27374,80.16724,150.18669
"36323",484.28693,80.0354,150.06009
"36324",484.30035,79.886475,149.91226
"36325",484.31354,79.72289,149.74513
"36326",484.32697,79.554436,149.56801
"36327",484.34015,79.38598,149.38562
"36328",484.35358,79.22972,149.21017
"36329",484.36676,79.09056,149.04694
"36330",484.3802,78.96849,148.89644
"36331",484.39337,78.85863,148.75433
"36332",484.4068,78.75609,148.61612
"36333",484.41998,78.67063,148.49179
"36334",484.4334,78.59983,148.37944
"36335",484.4466,78.54124,148.27708
"36336",484.46002,78.49729,148.18755
"36337",484.4732,78.46311,148.1064
"36338",484.48663,78.43626,148.03151
"36339",484.49982,78.41428,147.96066
"36340",484.51324,78.40208,147.8989
"36341",484.52643,78.397194,147.84407
"36342",484.53986,78.39475,147.79153
"36343",484.55304,78.399635,147.74625
"36344",484.56647,78.399635,147.69623
"36345",484.57965,78.39475,147.64133
"36346",484.59308,78.382545,147.57895
"36347",484.60626,78.37034,147.51619
"36348",484.6197,78.35081,147.44572
"36349",484.63287,78.32151,147.36488
"36350",484.6463,78.28001,147.27092
"36351",484.6595,78.23605,147.17322
"36352",484.6729,78.20187,147.08391
"36353",484.6861,78.204315,147.03015
"36354",484.69952,78.29954,147.06926
"36355",484.7127,78.54856,147.26514
"36356",484.72614,78.9807,147.65192
"36357",484.73932,79.5935,148.23286
"36358",484.75275,80.33326,148.95992
"36359",484.76593,81.09743,149.7345
"36360",484.77936,81.78348,150.45485
"36361",484.79254,82.30839,151.03549
"36362",484.80597,82.63065,151.4299
"36363",484.81915,82.75029,151.63174
"36364",484.83258,82.70634,151.67374
"36365",484.84576,82.545204,151.59718
"36366",484.8592,82.320595,151.45212
"36367",484.87238,82.074005,151.27805
"36368",484.8858,81.83719,151.10605
"36369",484.899,81.6321,150.95837
"36370",484.9124,81.461205,150.83849
"36371",484.9256,81.31716,150.74011
"36372",484.93903,81.18532,150.64943
"36373",484.9522,81.05592,150.55708
"36374",484.96564,80.92409,150.45825
"36375",484.97882,80.78981,150.35286
"36376",484.99225,80.66529,150.25302
"36377",485.00543,80.56031,150.16884
"36378",485.01886,80.49195,150.118
"36379",485.03204,80.45777,150.0992
"36380",485.04547,80.445564,150.1013
"36381",485.05865,80.44068,150.11035
"36382",485.07208,80.4358,150.11925
"36383",485.08527,80.413826,150.1109
"36384",485.0987,80.37232,150.08234
"36385",485.11188,80.30152,150.02318
"36386",485.1253,80.20386,149.93494
"36387",485.1385,80.08423,149.82169
"36388",485.15192,79.94263,149.68271
"36389",485.1651,79.79126,149.52954
"36390",485.17853,79.63256,149.36432
"36391",485.1917,79.47875,149.19902
"36392",485.20514,79.33471,149.03868
"36393",485.21832,79.20531,148.88849
"36394",485.23175,79.08568,148.74402
"36395",485.24493,78.98558,148.61534
"36396",485.25836,78.90257,148.50063
"36397",485.27155,78.82933,148.39308
"36398",485.28497,78.765854,148.29301
"36399",485.29816,78.712135,148.20073
"36400",485.31158,78.66819,148.11653
"36401",485.32477,78.63157,148.03828
"36402",485.3382,78.607155,147.9711
"36403",485.35138,78.59495,147.91536
"36404",485.3648,78.59251,147.869
"36405",485.378,78.59983,147.83234
"36406",485.39142,78.6096,147.79834
"36407",485.4046,78.61692,147.7622
"36408",485.41803,78.61936,147.72142
"36409",485.4312,78.61204,147.67094
"36410",485.44464,78.59983,147.61536
"36411",485.45782,78.57542,147.54718
"36412",485.47125,78.54368,147.47092
"36413",485.48444,78.502174,147.3839
"36414",485.49786,78.450905,147.28581
"36415",485.51105,78.399635,147.18613
"36416",485.52448,78.3679,147.10437
"36417",485.53766,78.38987,147.07533
"36418",485.5511,78.521706,147.15685
"36419",485.56427,78.81224,147.40118
"36420",485.5777,79.28588,147.8377
"36421",485.59088,79.91821,148.44772
"36422",485.6043,80.64088,149.16783
"36423",485.6175,81.356224,149.90321
"36424",485.63092,81.9617,150.55107
"36425",485.6441,82.38163,151.0323
"36426",485.65753,82.598915,151.32402
"36427",485.67072,82.62577,151.4321
"36428",485.68414,82.49882,151.3872
"36429",485.69733,82.27665,151.24313
"36430",485.71075,82.005646,151.04327
"36431",485.72394,81.72732,150.82762
"36432",485.73737,81.47097,150.62526
"36433",485.75055,81.25124,150.4515
"36434",485.76398,81.06325,150.30261
"36435",485.77716,80.902115,150.17471
"36436",485.7906,80.75075,150.05154
"36437",485.80377,80.61402,149.93828
"36438",485.8172,80.49195,149.8354
"36439",485.83038,80.39918,149.75801
"36440",485.8438,80.34791,149.71922
"36441",485.857,80.33814,149.72034
"36442",485.87042,80.36256,149.75533
"36443",485.8836,80.40406,149.80817
"36444",485.89703,80.45289,149.86963
"36445",485.91022,80.49195,149.92285
"36446",485.92365,80.51148,149.95776
"36447",485.93683,80.499275,149.96155
"36448",485.95026,80.45533,149.93321
"36449",485.96344,80.37232,149.86444
"36450",485.97687,80.255135,149.7589
"36451",485.99005,80.11597,149.6277
"36452",486.00348,79.95972,149.47507
"36453",486.01666,79.80347,149.31757
"36454",486.0301,79.64477,149.15273
"36455",486.04327,79.500725,148.99757
"36456",486.0567,79.37133,148.85257
"36457",486.0699,79.26147,148.72305
"36458",486.0833,79.166245,148.60475
"36459",486.0965,79.08568,148.49812
"36460",486.10992,79.0222,148.40607
"36461",486.1231,78.97093,148.32423
"36462",486.13654,78.93187,148.253
"36463",486.14972,78.91234,148.20009
"36464",486.16315,78.90013,148.15388
"36465",486.17633,78.90013,148.1195
"36466",486.18976,78.90257,148.08757
"36467",486.20294,78.905014,148.05571
"36468",486.21637,78.90257,148.01904
"36469",486.22955,78.89281,147.97498
"36470",486.24298,78.873276,147.92084
"36471",486.25616,78.84642,147.85876
"36472",486.2696,78.81468,147.79097
"36473",486.28278,78.79515,147.73439
"36474",486.2962,78.81712,147.7187
"36475",486.3094,78.91966,147.78427
"36476",486.3228,79.151596,147.98244
"36477",486.336,79.54223,148.34656
"36478",486.34943,80.07202,148.86205
"36479",486.3626,80.69703,149.4893
"36480",486.37604,81.339134,150.1532
"36481",486.38922,81.898224,150.75414
"36482",486.40265,82.30839,151.22362
"36483",486.41583,82.533,151.52037
"36484",486.42926,82.57694,151.64348
"36485",486.44244,82.47196,151.61903
"36486",486.45587,82.262,151.48633
"36487",486.46906,82.00076,151.29578
"36488",486.48248,81.72488,151.08241
"36489",486.49567,81.46609,150.87753
"36490",486.5091,81.23659,150.69385
"36491",486.52228,81.041275,150.53719
"36492",486.5357,80.87038,150.39883
"36493",486.5489,80.71412,150.26978
"36494",486.56232,80.570076,150.14806
"36495",486.5755,80.44312,150.03893
"36496",486.58893,80.35035,149.96
"36497",486.6021,80.29908,149.9197
"36498",486.61554,80.2942,149.92416
"36499",486.62872,80.33082,149.96999
"36500",486.64215,80.38453,150.03404
"36501",486.65533,80.44312,150.10466
"36502",486.66876,80.48707,150.16246
"36503",486.68195,80.499275,150.1899
"36504",486.69537,80.482185,150.18842
"36505",486.70856,80.430916,150.15222
"36506",486.722,80.34058,150.07536
"36507",486.73517,80.22339,149.96881
"36508",486.7486,80.08667,149.83908
"36509",486.76178,79.937744,149.69287
"36510",486.7752,79.783936,149.53711
"36511",486.7884,79.635,149.38142
"36512",486.80182,79.49096,149.22597
"36513",486.815,79.361565,149.08066
"36514",486.82843,79.24681,148.94595
"36515",486.8416,79.149155,148.82475
"36516",486.85504,79.063705,148.7127
"36517",486.86823,78.99779,148.61752
"36518",486.88165,78.94652,148.53493
"36519",486.89484,78.91234,148.46782
"36520",486.90826,78.890366,148.41185
"36521",486.92145,78.88548,148.37228
"36522",486.93488,78.887924,148.33989
"36523",486.94806,78.890366,148.30757
"36524",486.9615,78.890366,148.27289
"36525",486.97467,78.88304,148.23088
"36526",486.9881,78.86839,148.18132
"36527",487.00128,78.856186,148.13374
"36528",487.0147,78.86351,148.10532
"36529",487.0279,78.92943,148.13571
"36530",487.04132,79.09544,148.26826
"36531",487.0545,79.398186,148.54274
"36532",487.06793,79.85962,148.98537
"36533",487.08112,80.45533,149.57669
"36534",487.09454,81.12184,150.25743
"36535",487.10773,81.77371,150.94437
"36536",487.12115,82.32548,151.55156
"36537",487.13434,82.71122,152.00998
"36538",487.14777,82.90654,152.29002
"36539",487.16095,82.92851,152.40283
"36540",487.17438,82.811325,152.37717
"36541",487.18756,82.6038,152.25749
"36542",487.201,82.35233,152.0874
"36543",487.21417,82.1033,151.91188
"36544",487.2276,81.881134,151.75545
"36545",487.24078,81.69558,151.62868
"36546",487.2542,81.54665,151.53275
"36547",487.2674,81.42214,151.45657
"36548",487.28082,81.29763,151.37651
"36549",487.294,81.16579,151.28522
"36550",487.30743,81.02663,151.1825
"36551",487.32062,80.88991,151.07787
"36552",487.33405,80.765396,150.98117
"36553",487.34723,80.672615,150.91231
"36554",487.36066,80.61158,150.8723
"36555",487.37384,80.58228,150.86212
"36556",487.38727,80.57252,150.87056
"36557",487.40045,80.56519,150.88113
"36558",487.41388,80.550545,150.88416
"36559",487.42706,80.51392,150.86475
"36560",487.4405,80.45045,150.81734
"36561",487.45367,80.36256,150.74353
"36562",487.4671,80.24536,150.63766
"36563",487.4803,80.1062,150.50616
"36564",487.4937,79.954834,150.35812
"36565",487.5069,79.7937,150.19559
"36566",487.52032,79.635,150.03044
"36567",487.5335,79.48119,149.86522
"36568",487.54694,79.33959,149.7074
"36569",487.56012,79.21019,149.55736
"36570",487.57355,79.09056,149.41304
"36571",487.58673,78.9807,149.27475
"36572",487.60016,78.88548,149.14767
"36573",487.61334,78.8098,149.03716
"36574",487.62677,78.751205,148.94136
"36575",487.63995,78.70725,148.85838
"36576",487.65338,78.677956,148.78868
"36577",487.66656,78.66331,148.73271
"36578",487.68,78.660866,148.68849
"36579",487.69318,78.66575,148.65152
"36580",487.7066,78.6804,148.62447
"36581",487.7198,78.68528,148.5881
"36582",487.73322,78.68284,148.54457
"36583",487.7464,78.66575,148.48631
"36584",487.75983,78.63401,148.41287
"36585",487.773,78.59739,148.33356
"36586",487.78644,78.57786,148.27019
"36587",487.79962,78.624245,148.27213
"36588",487.81305,78.78294,148.38783
"36589",487.82623,79.10521,148.67206
"36590",487.83966,79.59838,149.13727
"36591",487.85284,80.24536,149.7717
"36592",487.86627,80.96315,150.49716
"36593",487.87946,81.66628,151.2304
"36594",487.89288,82.252235,151.86842
"36595",487.90607,82.66239,152.34897
"36596",487.9195,82.8748,152.64458
"36597",487.93268,82.90166,152.76128
"36598",487.9461,82.794235,152.74454
"36599",487.9593,82.6038,152.64142
"36600",487.97272,82.37919,152.49818
"36601",487.9859,82.15701,152.35036
"36602",487.99933,81.971466,152.23222
"36603",488.0125,81.82742,152.1498
"36604",488.02594,81.71511,152.09459
"36605",488.03912,81.619896,152.05298
"36606",488.05255,81.5198,152.00351
"36607",488.06573,81.40017,151.93138
"36608",488.07916,81.24635,151.82132
"36609",488.09235,81.07301,151.68694
"36610",488.10577,80.89967,151.54713
"36611",488.11896,80.7483,151.42387
"36612",488.1324,80.62867,151.32764
"36613",488.14557,80.550545,151.26917
"36614",488.159,80.50416,151.23999
"36615",488.17218,80.4773,151.2289
"36616",488.1856,80.45045,151.21696
"36617",488.1988,80.411385,151.19199
"36618",488.21222,80.35279,151.14626
"36619",488.2254,80.26734,151.07184
"36620",488.23883,80.15747,150.97032
"36621",488.252,80.02319,150.84097
"36622",488.26544,79.869385,150.6879
"36623",488.27863,79.708244,150.52267
"36624",488.29205,79.54711,150.35242
"36625",488.30524,79.395744,150.18689
"36626",488.31866,79.25414,150.0264
"36627",488.33185,79.12474,149.87369
"36628",488.34528,79.00023,149.72182
"36629",488.35846,78.887924,149.57826
"36630",488.3719,78.785385,149.44096
"36631",488.38507,78.70237,149.31999
"36632",488.3985,78.63401,149.21107
"36633",488.41168,78.58762,149.122
"36634",488.4251,78.551,149.04123
"36635",488.4383,78.521706,148.96664
"36636",488.45172,78.49973,148.89847
"36637",488.4649,78.485085,148.83693
"36638",488.47833,78.47776,148.78226
"36639",488.49152,78.470436,148.72736
"36640",488.50494,78.46311,148.67223
"36641",488.51813,78.450905,148.61198
"36642",488.53156,78.43137,148.54404
"36643",488.54474,78.40696,148.4706
"36644",488.55817,78.37766,148.39151
"36645",488.57135,78.34348,148.30663
"36646",488.58478,78.30442,148.21579
"36647",488.59796,78.277565,148.13594
"36648",488.6114,78.30198,148.10652
"36649",488.62457,78.43137,148.18285
"36650",488.638,78.7219,148.42435
"36651",488.65118,79.19798,148.86049
"36652",488.6646,79.84009,149.47752
"36653",488.6778,80.5774,150.20984
"36654",488.69122,81.31472,150.96521
"36655",488.7044,81.94705,151.63863
"36656",488.71783,82.408485,152.1609
"36657",488.73102,82.669716,152.4974
"36658",488.74445,82.75029,152.6614
"36659",488.75763,82.686806,152.68387
"36660",488.77106,82.52567,152.6067
"36661",488.78424,82.32304,152.483
"36662",488.79767,82.11551,152.34807
"36663",488.81085,81.92996,152.22864
"36664",488.82428,81.778595,152.13759
"36665",488.83746,81.66384,152.07841
"36666",488.8509,81.56374,152.03032
"36667",488.86407,81.463646,151.9791
"36668",488.8775,81.34646,151.90765
"36669",488.8907,81.19997,151.80324
"36670",488.9041,81.03639,151.67717
"36671",488.9173,80.87038,151.54355
"36672",488.93073,80.72144,151.42181
"36673",488.9439,80.604256,151.32718
"36674",488.95734,80.52857,151.27039
"36675",488.97052,80.48463,151.24297
"36676",488.98395,80.462654,151.23615
"36677",488.99713,80.44312,151.23108
"36678",489.01056,80.40894,151.21075
"36679",489.02374,80.35279,151.16739
"36680",489.03717,80.26734,151.09297
"36681",489.05035,80.15259,150.98657
"36682",489.06378,80.01343,150.85217
"36683",489.07697,79.85474,150.69391
"36684",489.0904,79.68139,150.51602
"36685",489.10358,79.50805,150.33272
"36686",489.117,79.34936,150.15865
"36687",489.1302,79.20531,149.99426
"36688",489.14362,79.080795,149.84491
"36689",489.1568,78.96849,149.70387
"36690",489.17023,78.86595,149.56909
"36691",489.1834,78.768295,149.43599
"36692",489.19684,78.677956,149.30716
"36693",489.21002,78.59983,149.18771
"36694",489.22345,78.536354,149.08047
"36695",489.23663,78.487526,148.9859
"36696",489.25006,78.45579,148.90689
"36697",489.26324,78.42649,148.82933
"36698",489.27667,78.4094,148.76306
"36699",489.28986,78.39475,148.6987
"36700",489.30328,78.382545,148.63632
"36701",489.31647,78.3679,148.57112
"36702",489.3299,78.35813,148.51035
"36703",489.34308,78.348366,148.44926
"36704",489.3565,78.3386,148.38788
"36705",489.3697,78.328835,148.32619
"36706",489.38312,78.3093,148.25443
"36707",489.3963,78.28245,148.17473
"36708",489.40973,78.24826,148.08687
"36709",489.4229,78.20676,147.99062
"36710",489.43634,78.16281,147.89062
"36711",489.44952,78.12375,147.79414
"36712",489.46295,78.11154,147.7233
"36713",489.47614,78.170135,147.72287
"36714",489.48956,78.35081,147.84636
"36715",489.50275,78.70481,148.14882
"36716",489.51617,79.24193,148.64546
"36717",489.52936,79.93286,149.3127
"36718",489.5428,80.70191,150.07965
"36719",489.55597,81.44167,150.84135
"36720",489.5694,82.054474,151.4992
"36721",489.58258,82.47929,151.98822
"36722",489.596,82.69413,152.28055
"36723",489.6092,82.720985,152.3916
"36724",489.62262,82.60868,152.36433
"36725",489.6358,82.408485,152.24567
"36726",489.64923,82.17166,152.0841
"36727",489.6624,81.94217,151.92249
"36728",489.67584,81.74929,151.7903
"36729",489.68903,81.58816,151.68384
"36730",489.70245,81.463646,151.60896
"36731",489.71564,81.356224,151.54729
"36732",489.72906,81.24635,151.4798
"36733",489.74225,81.11696,151.38936
"36734",489.75568,80.97536,151.28267
"36735",489.76886,80.82887,151.16667
"36736",489.7823,80.69459,151.05829
"36737",489.79547,80.59449,150.9799
"36738",489.8089,80.52613,150.93013
"36739",489.82208,80.48707,150.90752
"36740",489.8355,80.46998,150.90565
"36741",489.8487,80.45777,150.90814
"36742",489.86212,80.4358,150.90048
"36743",489.8753,80.394295,150.8726
"36744",489.88873,80.325935,150.81657
"36745",489.90192,80.22827,150.7291
"36746",489.91534,80.10376,150.61172
"36747",489.92853,79.95972,150.47092
"36748",489.94196,79.798584,150.30853
"36749",489.95514,79.63744,150.1411
"36750",489.96857,79.47875,149.97107
"36751",489.98175,79.32494,149.80096
"36752",489.99518,79.183334,149.63826
"36753",490.00836,79.05638,149.48578
"36754",490.0218,78.94652,149.34642
"36755",490.03497,78.84886,149.21584
"36756",490.0484,78.768295,149.09929
"36757",490.06158,78.70237,148.99487
"36758",490.075,78.643776,148.89572
"36759",490.0882,78.59983,148.80939
"36760",490.10162,78.56565,148.73145
"36761",490.1148,78.54124,148.6622
"36762",490.12823,78.521706,148.59708
"36763",490.14142,78.51194,148.5411
"36764",490.15485,78.504616,148.48727
"36765",490.16803,78.49973,148.43565
"36766",490.18146,78.49729,148.38632
"36767",490.19464,78.487526,148.32959
"36768",490.20807,78.47532,148.27011
"36769",490.22125,78.45823,148.20537
"36770",490.23468,78.43137,148.13033
"36771",490.24786,78.39231,148.04224
"36772",490.2613,78.345924,147.9456
"36773",490.27448,78.29221,147.8402
"36774",490.2879,78.238495,147.73311
"36775",490.3011,78.20676,147.64632
"36776",490.3145,78.238495,147.62201
"36777",490.3277,78.38499,147.71346
"36778",490.34113,78.69749,147.97548
"36779",490.3543,79.19066,148.42795
"36780",490.36774,79.835205,149.0472
"36781",490.38092,80.56275,149.76959
"36782",490.39435,81.26833,150.49277
"36783",490.40753,81.85428,151.11835
"36784",490.42096,82.25712,151.57913
"36785",490.43414,82.45731,151.84987
"36786",490.44757,82.4744,151.94376
"36787",490.46075,82.34501,151.8917
"36788",490.47418,82.12283,151.7428
"36789",490.48737,81.85916,151.54547
"36790",490.5008,81.59304,151.33745
"36791",490.51398,81.35378,151.14798
"36792",490.5274,81.15114,150.98764
"36793",490.5406,80.98268,150.85516
"36794",490.55402,80.84108,150.74428
"36795",490.5672,80.70435,150.63383
"36796",490.58063,80.567635,150.51913
"36797",490.5938,80.44068,150.40993
"36798",490.60724,80.33814,150.32117
"36799",490.62042,80.26978,150.26338
"36800",490.63385,80.24536,150.24739
"36801",490.64703,80.26246,150.27216
"36802",490.66046,80.30396,150.32187
"36803",490.67365,80.34791,150.37532
"36804",490.68707,80.37965,150.41794
"36805",490.70026,80.38209,150.43225
"36806",490.71368,80.35035,150.41246
"36807",490.72687,80.27955,150.35262
"36808",490.7403,80.177,150.2588
"36809",490.75348,80.04028,150.12762
"36810",490.7669,79.886475,149.97507
"36811",490.7801,79.72289,149.80794
"36812",490.79352,79.56176,149.63814
"36813",490.8067,79.41039,149.47307
"36814",490.82013,79.273674,149.31792
"36815",490.8333,79.151596,149.17314
"36816",490.84674,79.04173,149.03676
"36817",490.85992,78.94652,148.91159
"36818",490.87335,78.86839,148.80054
"36819",490.88654,78.802475,148.69925
"36820",490.89996,78.75365,148.61299
"36821",490.91315,78.71702,148.53741
"36822",490.92657,78.695045,148.47534
"36823",490.93976,78.69016,148.42967
"36824",490.9532,78.695045,148.39362
"36825",490.96637,78.70725,148.36504
"36826",490.9798,78.72678,148.34416
"36827",490.99298,78.73899,148.31657
"36828",491.0064,78.73899,148.27716
"36829",491.0196,78.72678,148.22554
"36830",491.03302,78.69993,148.15889
"36831",491.0462,78.65598,148.07431
"36832",491.05963,78.607155,147.98347
"36833",491.0728,78.55833,147.89111
"36834",491.08624,78.536354,147.82408
"36835",491.09943,78.57542,147.8174
"36836",491.11285,78.72434,147.9218
"36837",491.12604,79.027084,148.18468
"36838",491.13947,79.49828,148.62547
"36839",491.15265,80.113525,149.22504
"36840",491.16608,80.81178,149.92685
"36841",491.17926,81.48806,150.6285
"36842",491.1927,82.05203,151.23897
"36843",491.20587,82.43534,151.6864
"36844",491.2193,82.61356,151.94073
"36845",491.23248,82.60136,152.01021
"36846",491.2459,82.44999,151.94014
"36847",491.2591,82.213165,151.77988
"36848",491.27252,81.94461,151.58049
"36849",491.2857,81.688255,151.3849
"36850",491.29913,81.46853,151.21794
"36851",491.31232,81.290306,151.08562
"36852",491.32574,81.143814,150.97945
"36853",491.33893,81.01686,150.88824
"36854",491.35236,80.88747,150.79063
"36855",491.36554,80.75075,150.68166
"36856",491.37897,80.61402,150.56839
"36857",491.39215,80.48707,150.46063
"36858",491.40558,80.38697,150.37576
"36859",491.41876,80.32838,150.32927
"36860",491.4322,80.31373,150.32489
"36861",491.44537,80.33082,150.35179
"36862",491.4588,80.35767,150.38899
"36863",491.472,80.38209,150.42459
"36864",491.4854,80.38209,150.43654
"36865",491.4986,80.35035,150.41675
"36866",491.51202,80.27955,150.3569
"36867",491.5252,80.17944,150.26553
"36868",491.53864,80.05249,150.1442
"36869",491.55182,79.903564,149.99692
"36870",491.56525,79.742424,149.83276
"36871",491.57843,79.57885,149.66113
"36872",491.59186,79.4226,149.49171
"36873",491.60504,79.273674,149.32474
"36874",491.61847,79.13939,149.16776
"36875",491.63165,79.01732,149.01878
"36876",491.64508,78.91234,148.88309
"36877",491.65826,78.82689,148.76364
"36878",491.6717,78.75853,148.65862
"36879",491.68488,78.709694,148.57098
"36880",491.6983,78.67307,148.49403
"36881",491.7115,78.64866,148.42815
"36882",491.7249,78.63401,148.37126
"36883",491.7381,78.624245,148.3188
"36884",491.75153,78.6218,148.27336
"36885",491.7647,78.61936,148.22784
"36886",491.77814,78.61692,148.18225
"36887",491.79132,78.61448,148.13658
"36888",491.80475,78.61204,148.09084
"36889",491.81793,78.607155,148.04257
"36890",491.83136,78.60471,147.9966
"36891",491.84454,78.59739,147.94566
"36892",491.85797,78.57786,147.8823
"36893",491.87115,78.54368,147.80367
"36894",491.88458,78.49973,147.7142
"36895",491.89777,78.45823,147.62581
"36896",491.9112,78.44846,147.56786
"36897",491.92438,78.51194,147.58284
"36898",491.9378,78.69993,147.72432
"36899",491.951,79.061264,148.04503
"36900",491.96442,79.603264,148.5577
"36901",491.9776,80.2942,149.23622
"36902",491.99103,81.05592,150.00714
"36903",492.0042,81.78104,150.76526
"36904",492.01764,82.371864,151.41174
"36905",492.03082,82.76982,151.88382
"36906",492.04425,82.950485,152.15105
"36907",492.05743,82.948044,152.24081
"36908",492.07086,82.80888,152.19379
"36909",492.08405,82.58915,152.06183
"36910",492.09747,82.33524,151.88884
"36911",492.11066,82.091095,151.71767
"36912",492.12408,81.883575,151.5755
"36913",492.13727,81.71755,151.46834
"36914",492.1507,81.5906,151.39507
"36915",492.16388,81.4905,151.34468
"36916",492.1773,81.392845,151.29361
"36917",492.1905,81.27566,151.21996
"36918",492.20392,81.14137,151.12553
"36919",492.2171,80.990005,151.00984
"36920",492.23053,80.83864,150.88942
"36921",492.2437,80.709236,150.78622
"36922",492.25714,80.60914,150.7083
"36923",492.27032,80.54566,150.66386
"36924",492.28375,80.5066,150.64186
"36925",492.29694,80.479744,150.63084
"36926",492.31036,80.45289,150.61899
"36927",492.32355,80.411385,150.59164
"36928",492.33698,80.34791,150.54103
"36929",492.35016,80.255135,150.45914
"36930",492.3636,80.14038,150.35236
"36931",492.37677,80.00366,150.22003
"36932",492.3902,79.85718,150.07367
"36933",492.40338,79.7058,149.91783
"36934",492.4168,79.551994,149.75482
"36935",492.43,79.40551,149.59433
"36936",492.44342,79.26635,149.43658
"36937",492.4566,79.14183,149.28914
"36938",492.47003,79.027084,149.14757
"36939",492.48322,78.92699,149.01706
"36940",492.49664,78.84154,148.89807
"36941",492.50983,78.77074,148.79106
"36942",492.52325,78.709694,148.6916
"36943",492.53644,78.660866,148.60245
"36944",492.54987,78.6218,148.52153
"36945",492.56305,78.59739,148.45404
"36946",492.57648,78.58518,148.398
"36947",492.58966,78.57786,148.34645
"36948",492.6031,78.57542,148.29956
"36949",492.61627,78.572975,148.2526
"36950",492.6297,78.56565,148.20067
"36951",492.64288,78.551,148.14119
"36952",492.6563,78.53391,148.07881
"36953",492.6695,78.519264,148.01834
"36954",492.68292,78.50706,147.95985
"36955",492.6961,78.49241,147.89854
"36956",492.70953,78.47532,147.83434
"36957",492.72272,78.45579,147.76715
"36958",492.73615,78.43137,147.69447
"36959",492.74933,78.397194,147.61127
"36960",492.76276,78.36057,147.52455
"36961",492.77594,78.34104,147.45378
"36962",492.78937,78.37522,147.43611
"36963",492.80255,78.5095,147.5196
"36964",492.81598,78.80736,147.77089
"36965",492.82916,79.29809,148.22435
"36966",492.8426,79.96216,148.86649
"36967",492.85577,80.73121,149.63435
"36968",492.8692,81.50759,150.4336
"36969",492.8824,82.178986,151.1521
"36970",492.8958,82.669716,151.71092
"36971",492.909,82.93828,152.06291
"36972",492.92242,83.004196,152.22066
"36973",492.9356,82.90166,152.212
"36974",492.94904,82.69169,152.09271
"36975",492.96222,82.4329,151.91805
"36976",492.97565,82.17166,151.73283
"36977",492.98883,81.93973,151.56877
"36978",493.00226,81.75662,151.44629
"36979",493.01544,81.619896,151.36446
"36980",493.02887,81.51736,151.31255
"36981",493.04205,81.42458,151.2672
"36982",493.05548,81.324486,151.21162
"36983",493.06866,81.20241,151.13094
"36984",493.0821,81.058365,151.02448
"36985",493.09528,80.90456,150.90375
"36986",493.1087,80.75319,150.78065
"36987",493.1219,80.618904,150.6699
"36988",493.1353,80.51392,150.58427
"36989",493.1485,80.44068,150.5271
"36990",493.16193,80.396736,150.49693
"36991",493.1751,80.36988,150.48248
"36992",493.18854,80.34058,150.46475
"36993",493.20172,80.30152,150.43634
"36994",493.21515,80.23804,150.38228
"36995",493.22833,80.147705,150.29938
"36996",493.24176,80.028076,150.18436
"36997",493.25494,79.8938,150.05096
"36998",493.26837,79.74975,149.9036
"36999",493.28156,79.605705,149.75172
"37000",493.29498,79.46166,149.59535
"37001",493.30817,79.32006,149.43692
"37002",493.3216,79.185776,149.28139
"37003",493.33478,79.061264,149.13142
"37004",493.3482,78.9514,148.99222
"37005",493.3614,78.86107,148.86911
"37006",493.37482,78.78783,148.76027
"37007",493.388,78.729225,148.66379
"37008",493.40143,78.677956,148.5728
"37009",493.4146,78.63401,148.48753
"37010",493.42804,78.59739,148.40822
"37011",493.44122,78.572975,148.33997
"37012",493.45465,78.55833,148.28072
"37013",493.46783,78.54368,148.22101
"37014",493.48126,78.536354,148.16817
"37015",493.49445,78.52659,148.11266
"37016",493.50787,78.519264,148.05928
"37017",493.52106,78.51194,148.00568
"37018",493.5345,78.5095,147.95673
"37019",493.54767,78.50706,147.9077
"37020",493.5611,78.502174,147.85616
"37021",493.57428,78.49485,147.80202
"37022",493.5877,78.48264,147.74277
"37023",493.6009,78.46311,147.67581
"37024",493.61432,78.4387,147.60336
"37025",493.6275,78.40696,147.52283
"37026",493.64093,78.37278,147.43886
"37027",493.6541,78.34348,147.3587
"37028",493.66754,78.32639,147.28984
"37029",493.68073,78.35813,147.26927
"37030",493.69415,78.49241,147.35223
"37031",493.70734,78.78783,147.60054
"37032",493.72076,79.273674,148.04851
"37033",493.73395,79.93286,148.685
"37034",493.74738,80.70435,149.45439
"37035",493.76056,81.478294,150.25035
"37036",493.774,82.13992,150.95818
"37037",493.78717,82.60868,151.4938
"37038",493.8006,82.85771,151.82436
"37039",493.81378,82.89433,151.95029
"37040",493.8272,82.76494,151.91135
"37041",493.8404,82.52567,151.75848
"37042",493.85382,82.23758,151.54932
"37043",493.867,81.94705,151.32872
"37044",493.88043,81.688255,151.13077
"37045",493.89362,81.480736,150.97601
"37046",493.90704,81.33181,150.87337
"37047",493.92023,81.21706,150.80023
"37048",493.93365,81.11452,150.73573
"37049",493.94684,81.007095,150.66315
"37050",493.96027,80.88258,150.57011
"37051",493.97345,80.73609,150.4512
"37052",493.98688,80.59205,150.33017
"37053",494.00006,80.465096,150.22173
"37054",494.0135,80.37232,150.1435
"37055",494.02667,80.31617,150.09898
"37056",494.0401,80.28687,150.07957
"37057",494.05328,80.26978,150.07146
"37058",494.0667,80.25269,150.0628
"37059",494.0799,80.22583,150.04384
"37060",494.09332,80.17944,150.00452
"37061",494.1065,80.113525,149.94421
"37062",494.11993,80.025635,149.85986
"37063",494.13312,79.91577,149.7508
"37064",494.14655,79.78882,149.62122
"37065",494.15973,79.64965,149.47545
"37066",494.17316,79.50317,149.31801
"37067",494.18634,79.364006,149.16331
"37068",494.19977,79.22972,149.00916
"37069",494.21295,79.10521,148.86057
"37070",494.22638,78.992905,148.72029
"37071",494.23956,78.89281,148.58871
"37072",494.253,78.80492,148.46622
"37073",494.26617,78.73411,148.35806
"37074",494.2796,78.6804,148.26479
"37075",494.2928,78.64622,148.18936
"37076",494.3062,78.624245,148.12508
"37077",494.3194,78.61448,148.07231
"37078",494.33282,78.607155,148.02168
"37079",494.346,78.59739,147.96838
"37080",494.35944,78.58274,147.9099
"37081",494.37262,78.572975,147.85583
"37082",494.38605,78.56565,147.80391
"37083",494.39923,78.555885,147.74931
"37084",494.41266,78.54856,147.69685
"37085",494.42584,78.54368,147.6466
"37086",494.43927,78.538795,147.5962
"37087",494.45245,78.53147,147.54321
"37088",494.46588,78.52659,147.49243
"37089",494.47906,78.51438,147.43417
"37090",494.4925,78.49241,147.36577
"37091",494.50568,78.45335,147.27959
"37092",494.5191,78.40452,147.18242
"37093",494.5323,78.348366,147.0764
"37094",494.54572,78.314186,146.9906
"37095",494.5589,78.33372,146.95744
"37096",494.57233,78.467995,147.03964
"37097",494.5855,78.765854,147.28963
"37098",494.59894,79.259026,147.74423
"37099",494.61212,79.923096,148.38515
"37100",494.62555,80.68726,149.14691
"37101",494.63873,81.444115,149.92525
"37102",494.65216,82.07889,150.60515
"37103",494.66534,82.51835,151.10957
"37104",494.67877,82.735634,151.40556
"37105",494.69196,82.74052,151.49594
"37106",494.70538,82.579384,151.42046
"37107",494.71857,82.31083,151.23251
"37108",494.732,81.991,150.9849
"37109",494.74518,81.66384,150.71996
"37110",494.7586,81.36843,150.47655
"37111",494.7718,81.12428,150.27516
"37112",494.78522,80.93141,150.11743
"37113",494.7984,80.77272,149.98785
"37114",494.81183,80.63355,149.87283
"37115",494.825,80.5066,149.76569
"37116",494.83844,80.38453,149.65945
"37117",494.85162,80.27711,149.56406
"37118",494.86505,80.198975,149.49458
"37119",494.87823,80.15747,149.45929
"37120",494.89166,80.15747,149.4642
"37121",494.90485,80.184326,149.49597
"37122",494.91827,80.22583,149.54324
"37123",494.93146,80.2649,149.58937
"37124",494.9449,80.291756,149.62451
"37125",494.95807,80.291756,149.63364
"37126",494.9715,80.26002,149.61102
"37127",494.98468,80.19653,149.55566
"37128",494.9981,80.09888,149.46414
"37129",495.0113,79.971924,149.34027
"37130",495.02472,79.823,149.19046
"37131",495.0379,79.674065,149.036
"37132",495.05133,79.52514,148.87688
"37133",495.0645,79.38598,148.72287
"37134",495.07794,79.259026,148.57672
"37135",495.09113,79.14671,148.44125
"37136",495.10455,79.0515,148.31937
"37137",495.11774,78.97093,148.20915
"37138",495.13116,78.905014,148.11107
"37139",495.14435,78.8513,148.02313
"37140",495.15778,78.8098,147.94572
"37141",495.17096,78.77806,147.87679
"37142",495.1844,78.76097,147.8215
"37143",495.19757,78.75609,147.7779
"37144",495.211,78.76097,147.7439
"37145",495.22418,78.77562,147.71982
"37146",495.2376,78.79515,147.70108
"37147",495.2508,78.819565,147.68784
"37148",495.26422,78.839096,147.67047
"37149",495.2774,78.8513,147.6464
"37150",495.29083,78.84886,147.60805
"37151",495.30402,78.82933,147.55254
"37152",495.31744,78.79759,147.4842
"37153",495.33063,78.75853,147.40756
"37154",495.34406,78.7219,147.33214
"37155",495.35724,78.70481,147.2751
"37156",495.37067,78.746315,147.27612
"37157",495.38385,78.90257,147.3932
"37158",495.39728,79.2224,147.67873
"37159",495.41046,79.71313,148.14516
"37160",495.4239,80.35523,148.77829
"37161",495.43707,81.06813,149.50229
"37162",495.4505,81.73708,150.20462
"37163",495.46368,82.262,150.78383
"37164",495.4771,82.581825,151.17435
"37165",495.4903,82.68192,151.35513
"37166",495.50372,82.58915,151.34618
"37167",495.5169,82.36454,151.20248
"37168",495.53033,82.06424,150.97607
"37169",495.54352,81.73708,150.71342
"37170",495.55695,81.4197,150.45033
"37171",495.57013,81.13893,150.21393
"37172",495.58356,80.902115,150.01271
"37173",495.59674,80.70435,149.84314
"37174",495.61017,80.5359,149.6967
"37175",495.62335,80.38697,149.56453
"37176",495.63678,80.257576,149.44724
"37177",495.64996,80.147705,149.34541
"37178",495.6634,80.06958,149.27191
"37179",495.67657,80.03784,149.24234
"37180",495.69,80.05737,149.26306
"37181",495.7032,80.12085,149.32834
"37182",495.7166,80.21362,149.4249
"37183",495.7298,80.31373,149.53168
"37184",495.74323,80.39185,149.61961
"37185",495.7564,80.430916,149.67093
"37186",495.76984,80.41627,149.66975
"37187",495.78302,80.35767,149.62418
"37188",495.79645,80.255135,149.53282
"37189",495.80963,80.12085,149.40651
"37190",495.82306,79.96704,149.25647
"37191",495.83624,79.80591,149.0943
"37192",495.84967,79.639885,148.92221
"37193",495.86285,79.48608,148.75714
"37194",495.87628,79.34692,148.60191
"37195",495.88947,79.22972,148.46431
"37196",495.9029,79.13451,148.34502
"37197",495.91608,79.05638,148.23984
"37198",495.9295,78.992905,148.14687
"37199",495.9427,78.94408,148.06656
"37200",495.95612,78.905014,147.99449
"37201",495.9693,78.88304,147.9383
"37202",495.98273,78.8806,147.90094
"37203",495.9959,78.890366,147.87572
"37204",496.00934,78.91234,147.863
"37205",496.02252,78.94408,147.86075
"37206",496.03595,78.97337,147.85704
"37207",496.04913,78.99046,147.84204
"37208",496.06256,78.995346,147.81537
"37209",496.07574,78.9807,147.76932
"37210",496.08917,78.958725,147.71548
"37211",496.10236,78.94652,147.67073
"37212",496.11578,78.97826,147.66954
"37213",496.12897,79.10765,147.767
"37214",496.1424,79.38598,148.01744
"37215",496.15558,79.83276,148.44504
"37216",496.169,80.430916,149.03796
"37217",496.1822,81.112076,149.73259
"37218",496.19562,81.78348,150.43875
"37219",496.2088,82.34257,151.05357
"37220",496.22223,82.71366,151.49788
"37221",496.2354,82.86992,151.73894
"37222",496.24884,82.83574,151.79445
"37223",496.26202,82.6453,151.69263
"37224",496.27545,82.3621,151.4921
"37225",496.28864,82.03494,151.23875
"37226",496.30206,81.71023,150.97763
"37227",496.31525,81.409935,150.73079
"37228",496.32867,81.15602,150.52094
"37229",496.34186,80.94606,150.3471
"37230",496.3553,80.77028,150.2009
"37231",496.36847,80.621346,150.07603
"37232",496.3819,80.49195,149.96606
"37233",496.39508,80.37232,149.86182
"37234",496.4085,80.27711,149.77824
"37235",496.4217,80.218506,149.7283
"37236",496.43512,80.198975,149.7156
"37237",496.4483,80.22583,149.74869
"37238",496.46173,80.28199,149.8119
"37239",496.4749,80.35279,149.89153
"37240",496.48834,80.42115,149.97092
"37241",496.50153,80.462654,150.02559
"37242",496.51495,80.462654,150.04005
"37243",496.52814,80.41871,150.01057
"37244",496.54156,80.32838,149.93333
"37245",496.55475,80.201416,149.81664
"37246",496.56818,80.05005,149.67157
"37247",496.58136,79.8938,149.51688
"37248",496.5948,79.73022,149.34998
"37249",496.60797,79.57397,149.18529
"37250",496.6214,79.43481,149.0328
"37251",496.63458,79.31274,148.89307
"37252",496.648,79.20775,148.7666
"37253",496.6612,79.1223,148.65639
"37254",496.67462,79.05882,148.56548
"37255",496.6878,79.012436,148.48967
"37256",496.70123,78.9807,148.42706
"37257",496.71442,78.96605,148.38055
"37258",496.72784,78.96361,148.3458
"37259",496.74103,78.97093,148.32072
"37260",496.75446,78.98802,148.30565
"37261",496.76764,79.00511,148.2911
"37262",496.78107,79.009995,148.2649
"37263",496.79425,79.00755,148.2315
"37264",496.80768,78.995346,148.18828
"37265",496.82086,78.98558,148.14711
"37266",496.8343,79.00511,148.13493
"37267",496.84747,79.10521,148.20393
"37268",496.8609,79.34692,148.41768
"37269",496.87408,79.75708,148.80743
"37270",496.8875,80.32838,149.37114
"37271",496.9007,81.00954,150.06256
"37272",496.91412,81.71023,150.7948
"37273",496.9273,82.33036,151.46838
"37274",496.94073,82.78447,151.99532
"37275",496.95392,83.03105,152.32892
"37276",496.96735,83.070114,152.4627
"37277",496.98053,82.9456,152.43414
"37278",496.99396,82.701454,152.28204
"37279",497.00714,82.39628,152.0613
"37280",497.02057,82.08621,151.82611
"37281",497.03375,81.79813,151.60323
"37282",497.04718,81.55642,151.41771
"37283",497.06036,81.36599,151.27592
"37284",497.0738,81.2195,151.17212
"37285",497.08698,81.094986,151.08572
"37286",497.1004,80.98268,151.00764
"37287",497.1136,80.86305,150.91873
"37288",497.127,80.73609,150.81874
"37289",497.1402,80.61158,150.71724
"37290",497.15363,80.50416,150.62894
"37291",497.1668,80.42603,150.56657
"37292",497.18024,80.37965,150.53351
"37293",497.19342,80.365,150.53073
"37294",497.20685,80.36988,150.54703
"37295",497.22003,80.37232,150.56104
"37296",497.23346,80.365,150.56535
"37297",497.24664,80.3357,150.54747
"37298",497.26007,80.27711,150.49937
"37299",497.27325,80.18677,150.4177
"37300",497.28668,80.0647,150.30145
"37301",497.29987,79.920654,150.15942
"37302",497.3133,79.764404,150.0007
"37303",497.32648,79.603264,149.8322
"37304",497.3399,79.447014,149.66354
"37305",497.3531,79.30785,149.5071
"37306",497.36652,79.18822,149.36583
"37307",497.3797,79.08812,149.24036
"37308",497.39313,79.00511,149.12885
"37309",497.4063,78.941635,149.03427
"37310",497.41974,78.887924,148.94748
"37311",497.43292,78.84398,148.86877
"37312",497.44635,78.81468,148.80334
"37313",497.45953,78.80003,148.75165
"37314",497.47296,78.79759,148.7117
"37315",497.48615,78.81224,148.68877
"37316",497.49957,78.82933,148.66873
"37317",497.51276,78.84398,148.64679
"37318",497.52618,78.8513,148.61798
"37319",497.53937,78.84886,148.57964
"37320",497.5528,78.839096,148.53389
"37321",497.56598,78.819565,148.47807
"37322",497.5794,78.79759,148.4192
"37323",497.5926,78.79515,148.37918
"37324",497.60602,78.853745,148.40012
"37325",497.6192,79.0222,148.53275
"37326",497.63263,79.35668,148.83667
"37327",497.6458,79.869385,149.32927
"37328",497.65924,80.533455,149.98926
"37329",497.67242,81.27322,150.7457
"37330",497.68585,81.98123,151.4935
"37331",497.69904,82.547646,152.12183
"37332",497.71246,82.916306,152.5701
"37333",497.72565,83.06523,152.81017
"37334",497.73907,83.02861,152.86934
"37335",497.75226,82.85527,152.79065
"37336",497.7657,82.60868,152.63329
"37337",497.77887,82.33524,152.44138
"37338",497.7923,82.08133,152.26044
"37339",497.80548,81.8616,152.10576
"37340",497.8189,81.69558,151.99791
"37341",497.8321,81.57839,151.93372
"37342",497.84552,81.48806,151.89272
"37343",497.8587,81.39773,151.84889
"37344",497.87213,81.28298,151.77783
"37345",497.8853,81.13161,151.66655
"37346",497.89874,80.953384,151.5237
"37347",497.91193,80.77272,151.37283
"37348",497.92535,80.604256,151.22852
"37349",497.93854,80.46754,151.11069
"37350",497.95197,80.37476,151.03253
"37351",497.96515,80.31861,150.9881
"37352",497.97858,80.28443,150.96388
"37353",497.99176,80.26002,150.94836
"37354",498.0052,80.23804,150.93451
"37355",498.01837,80.19653,150.90045
"37356",498.0318,80.130615,150.84067
"37357",498.04498,80.03784,150.75198
"37358",498.0584,79.92554,150.64087
"37359",498.0716,79.79126,150.50427
"37360",498.08502,79.64721,150.3537
"37361",498.0982,79.4934,150.18886
"37362",498.11163,79.34692,150.02654
"37363",498.12482,79.20775,149.86696
"37364",498.13824,79.08568,149.72012
"37365",498.15143,78.97826,149.58412
"37366",498.16486,78.88548,149.45941
"37367",498.17804,78.80492,149.34401
"37368",498.19147,78.73899,149.24074
"37369",498.20465,78.68772,149.15005
"37370",498.21808,78.64622,149.06754
"37371",498.23126,78.6218,149.00081
"37372",498.2447,78.60471,148.94064
"37373",498.25787,78.59495,148.88727
"37374",498.2713,78.59251,148.84091
"37375",498.2845,78.59739,148.8018
"37376",498.2979,78.60471,148.76529
"37377",498.3111,78.6096,148.72656
"37378",498.32452,78.61204,148.68555
"37379",498.3377,78.6096,148.63972
"37380",498.35114,78.59739,148.58406
"37381",498.36432,78.5803,148.52313
"37382",498.37775,78.555885,148.45435
"37383",498.39093,78.52659,148.37991
"37384",498.40436,78.49241,148.29968
"37385",498.41754,78.46555,148.22571
"37386",498.43097,78.47776,148.18996
"37387",498.44415,78.57786,148.24248
"37388",498.45758,78.82445,148.44463
"37389",498.47076,79.2517,148.83514
"37390",498.4842,79.85718,149.41724
"37391",498.49738,80.58961,150.1452
"37392",498.5108,81.35134,150.92537
"37393",498.524,82.03494,151.6512
"37394",498.5374,82.55009,152.22993
"37395",498.5506,82.85527,152.6148
"37396",498.56403,82.95293,152.8017
"37397",498.5772,82.882126,152.82318
"37398",498.59064,82.69901,152.73013
"37399",498.60382,82.45731,152.57278
"37400",498.61725,82.2034,152.39566
"37401",498.63043,81.97391,152.23503
"37402",498.64386,81.78592,152.10873
"37403",498.65704,81.64431,152.02293
"37404",498.67047,81.53689,151.9669
"37405",498.68365,81.444115,151.92216
"37406",498.69708,81.339134,151.86232
"37407",498.71027,81.20973,151.77477
"37408",498.7237,81.0486,151.65144
"37409",498.73688,80.86305,151.49867
"37410",498.7503,80.67994,151.34253
"37411",498.7635,80.51881,151.20265
"37412",498.77692,80.38941,151.08948
"37413",498.7901,80.30152,151.01376
"37414",498.80353,80.2478,150.96947
"37415",498.8167,80.21362,150.94302
"37416",498.83014,80.18677,150.92285
"37417",498.84332,80.15747,150.89938
"37418",498.85675,80.111084,150.85791
"37419",498.86993,80.03784,150.78815
"37420",498.88336,79.940186,150.69168
"37421",498.89655,79.818115,150.56775
"37422",498.90997,79.674065,150.41801
"37423",498.92316,79.520256,150.25401
"37424",498.93658,79.36889,150.08765
"37425",498.94977,79.22972,149.92876
"37426",498.9632,79.10521,149.78017
"37427",498.97638,78.99779,149.64478
"37428",498.9898,78.905014,149.52068
"37429",499.003,78.83177,149.41321
"37430",499.01642,78.77074,149.31566
"37431",499.0296,78.71702,149.22353
"37432",499.04303,78.67307,149.13948
"37433",499.0562,78.63889,149.06383
"37434",499.06964,78.607155,148.98955
"37435",499.08282,78.58274,148.9216
"37436",499.09625,78.56565,148.86021
"37437",499.10944,78.55833,148.80806
"37438",499.12286,78.555885,148.76056
"37439",499.13605,78.553444,148.71298
"37440",499.14948,78.553444,148.66777
"37441",499.16266,78.551,148.62012
"37442",499.1761,78.54612,148.56995
"37443",499.18927,78.536354,148.51474
"37444",499.2027,78.52659,148.45923
"37445",499.21588,78.51194,148.39853
"37446",499.2293,78.487526,148.3276
"37447",499.2425,78.45579,148.2486
"37448",499.25592,78.41917,148.16371
"37449",499.2691,78.37766,148.0728
"37450",499.28253,78.34104,147.98547
"37451",499.29572,78.31907,147.91165
"37452",499.30914,78.345924,147.88597
"37453",499.32233,78.46555,147.9539
"37454",499.33575,78.73655,148.17694
"37455",499.34894,79.18822,148.58913
"37456",499.36237,79.815674,149.19121
"37457",499.37555,80.56275,149.93253
"37458",499.38898,81.324486,150.71185
"37459",499.40216,81.99588,151.42464
"37460",499.4156,82.48905,151.98018
"37461",499.42877,82.760056,152.32896
"37462",499.4422,82.82109,152.47626
"37463",499.45538,82.71366,152.45699
"37464",499.4688,82.496376,152.32451
"37465",499.482,82.230255,152.1364
"37466",499.49542,81.9617,151.93755
"37467",499.5086,81.72976,151.7669
"37468",499.52203,81.549095,151.6403
"37469",499.53522,81.41482,151.55444
"37470",499.54865,81.31716,151.501
"37471",499.56183,81.231705,151.45671
"37472",499.57526,81.13649,151.4
"37473",499.58844,81.00954,151.30856
"37474",499.60187,80.85329,151.18387
"37475",499.61505,80.67994,151.03719
"37476",499.62848,80.516365,150.89487
"37477",499.64166,80.37965,150.77429
"37478",499.6551,80.27711,150.68362
"37479",499.66827,80.218506,150.63368
"37480",499.6817,80.19653,150.61853
"37481",499.6949,80.184326,150.61246
"37482",499.7083,80.17212,150.60602
"37483",499.7215,80.14526,150.58453
"37484",499.73492,80.09155,150.53537
"37485",499.7481,80.008545,150.45523
"37486",499.76154,79.89868,150.34564
"37487",499.77472,79.77417,150.21796
"37488",499.78815,79.63744,150.07417
"37489",499.80133,79.4934,149.9188
"37490",499.81476,79.35668,149.76624
"37491",499.82794,79.2224,149.61185
"37492",499.84137,79.10033,149.46547
"37493",499.85455,78.99046,149.32748
"37494",499.86798,78.89769,149.20316
"37495",499.88116,78.819565,149.09058
"37496",499.8946,78.75853,148.99265
"37497",499.90778,78.70481,148.90013
"37498",499.9212,78.66575,148.82059
"37499",499.9344,78.63889,148.75203
"37500",499.9478,78.61936,148.68996
"37501",499.961,78.6096,148.63704
"37502",499.97443,78.60471,148.5887
"37503",499.9876,78.60471,148.54509
"37504",500.00104,78.60227,148.49904
"37505",500.01422,78.60227,148.45535
"37506",500.02765,78.59983,148.40923
"37507",500.04083,78.59739,148.36302
"37508",500.05426,78.590065,148.31186
"37509",500.06744,78.5803,148.25803
"37510",500.08087,78.56809,148.20145
"37511",500.09406,78.54612,148.13472
"37512",500.10748,78.51438,148.05754
"37513",500.12067,78.47288,147.9696
"37514",500.1341,78.42893,147.87793
"37515",500.14728,78.38743,147.78732
"37516",500.1607,78.37034,147.71983
"37517",500.1739,78.41917,147.71773
"37518",500.18732,78.590065,147.83922
"37519",500.2005,78.92699,148.13208
"37520",500.21393,79.44457,148.61613
"37521",500.2271,80.113525,149.26773
"37522",500.24054,80.85573,150.01349
"37523",500.25372,81.566185,150.75069
"37524",500.26715,82.142365,151.37581
"37525",500.28033,82.51591,151.8163
"37526",500.29376,82.66483,152.04385
"37527",500.30695,82.61356,152.07587
"37528",500.32037,82.41337,151.95735
"37529",500.33356,82.125275,151.74467
"37530",500.347,81.81033,151.49615
"37531",500.36017,81.51736,151.25975
"37532",500.3736,81.270775,151.0606
"37533",500.38678,81.08034,150.90987
"37534",500.4002,80.93385,150.79715
"37535",500.4134,80.81178,150.70427
"37536",500.42682,80.69459,150.61244
"37537",500.44,80.570076,150.50964
"37538",500.45343,80.44312,150.40051
"37539",500.4666,80.32838,150.29962
"37540",500.48004,80.24292,150.22443
"37541",500.49323,80.19653,150.18564
"37542",500.50665,80.18921,150.18445
"37543",500.51984,80.21362,150.21478
"37544",500.53326,80.24536,150.2532
"37545",500.54645,80.272224,150.28773
"37546",500.55988,80.274666,150.29869
"37547",500.57306,80.25025,150.28287
"37548",500.5865,80.19165,150.23209
"37549",500.59967,80.09888,150.1453
"37550",500.6131,79.97925,150.02875
"37551",500.62628,79.84009,149.88895
"37552",500.6397,79.693596,149.73746
"37553",500.6529,79.54711,149.58139
"37554",500.66632,79.40551,149.42563
"37555",500.6795,79.276115,149.27765
"37556",500.69293,79.16136,149.14027
"37557",500.70612,79.05882,149.01152
"37558",500.71954,78.97093,148.89421
"37559",500.73273,78.89769,148.7888
"37560",500.74615,78.84398,148.70064
"37561",500.75934,78.80736,148.62788
"37562",500.77277,78.78783,148.57108
"37563",500.78595,78.78294,148.5283
"37564",500.79938,78.78783,148.49515
"37565",500.81256,78.80003,148.46947
"37566",500.826,78.81468,148.44661
"37567",500.83917,78.82933,148.42421
"37568",500.8526,78.84154,148.39983
"37569",500.86578,78.84886,148.37094
"37570",500.8792,78.84886,148.33496
"37571",500.8924,78.82933,148.27945
"37572",500.90582,78.79515,148.20868
"37573",500.919,78.746315,148.1222
"37574",500.93243,78.69016,148.02686
"37575",500.94562,78.643776,147.93953
"37576",500.95905,78.63889,147.89226
"37577",500.97223,78.72434,147.93517
"37578",500.98566,78.95384,148.1248
"37579",500.99884,79.34936,148.48763
"37580",501.01227,79.903564,149.0215
"37581",501.02545,80.567635,149.68256
"37582",501.03888,81.24635,150.37901
"37583",501.05206,81.84451,151.01613
"37584",501.0655,82.27909,151.50835
"37585",501.07867,82.511024,151.81151
"37586",501.0921,82.54276,151.92172
"37587",501.1053,82.408485,151.86691
"37588",501.1187,82.16434,151.69803
"37589",501.1319,81.87381,151.47514
"37590",501.14532,81.58083,151.24072
"37591",501.1585,81.31716,151.02646
"37592",501.17194,81.0901,150.84056
"37593",501.18512,80.902115,150.68665
"37594",501.19855,80.73365,150.54637
"37595",501.21173,80.57252,150.40817
"37596",501.22516,80.41627,150.26982
"37597",501.23834,80.272224,150.1388
"37598",501.25177,80.15503,150.0301
"37599",501.26495,80.08179,149.9617
"37600",501.27838,80.059814,149.94229
"37601",501.29156,80.08423,149.96857
"37602",501.305,80.14282,150.02979
"37603",501.31818,80.21362,150.10504
"37604",501.3316,80.27711,150.1752
"37605",501.3448,80.31129,150.21805
"37606",501.35822,80.308846,150.22534
"37607",501.3714,80.26246,150.18861
"37608",501.38483,80.17456,150.10892
"37609",501.398,80.05249,149.99231
"37610",501.41144,79.90845,149.84991
"37611",501.42462,79.7522,149.6908
"37612",501.43805,79.59594,149.5268
"37613",501.45123,79.447014,149.36523
"37614",501.46466,79.30541,149.20634
"37615",501.47784,79.18089,149.06012
"37616",501.49127,79.07591,148.92953
"37617",501.50446,78.992905,148.81764
"37618",501.51788,78.93187,148.72513
"37619",501.53107,78.88304,148.64291
"37620",501.5445,78.8513,148.57626
"37621",501.55768,78.83421,148.52327
"37622",501.5711,78.83421,148.48683
"37623",501.5843,78.84398,148.46016
"37624",501.59772,78.86107,148.44112
"37625",501.6109,78.88304,148.42749
"37626",501.62433,78.89769,148.40723
"37627",501.6375,78.90257,148.37766
"37628",501.65094,78.89525,148.33603
"37629",501.66412,78.87816,148.28441
"37630",501.67755,78.84642,148.2176
"37631",501.69073,78.80736,148.14249
"37632",501.70416,78.78783,148.08568
"37633",501.71735,78.8098,148.06976
"37634",501.73077,78.924545,148.14731
"37635",501.74396,79.183334,148.37248
"37636",501.7574,79.61547,148.7791
"37637",501.77057,80.19653,149.34814
"37638",501.784,80.8777,150.03546
"37639",501.79718,81.55886,150.74405
"37640",501.8106,82.13992,151.37383
"37641",501.8238,82.53788,151.83865
"37642",501.83722,82.73075,152.11084
"37643",501.8504,82.72587,152.1913
"37644",501.86383,82.56962,152.12024
"37645",501.877,82.31815,151.94908
"37646",501.89044,82.02518,151.72855
"37647",501.90363,81.73708,151.50374
"37648",501.91705,81.47585,151.2968
"37649",501.93024,81.26345,151.13052
"37650",501.94366,81.09743,151.00398
"37651",501.95685,80.96071,150.90157
"37652",501.97028,80.833755,150.80464
"37653",501.98346,80.70191,150.69885
"37654",501.9969,80.56275,150.58163
"37655",502.01007,80.42359,150.46007
"37656",502.0235,80.306404,150.35612
"37657",502.03668,80.22827,150.28757
"37658",502.0501,80.19653,150.26297
"37659",502.0633,80.20386,150.27643
"37660",502.07672,80.235596,150.31454
"37661",502.0899,80.26734,150.35365
"37662",502.10333,80.27955,150.37422
"37663",502.11652,80.26978,150.3732
"37664",502.12994,80.22095,150.3328
"37665",502.14313,80.14038,150.25912
"37666",502.15656,80.03052,150.15366
"37667",502.16974,79.8938,150.01788
"37668",502.18317,79.744865,149.86563
"37669",502.19635,79.59594,149.70872
"37670",502.20978,79.447014,149.54716
"37671",502.22296,79.30785,149.39072
"37672",502.2364,79.183334,149.24457
"37673",502.24957,79.06859,149.1043
"37674",502.263,78.96849,148.97508
"37675",502.27618,78.88548,148.85983
"37676",502.2896,78.82445,148.76396
"37677",502.3028,78.7805,148.68327
"37678",502.31622,78.751205,148.61586
"37679",502.3294,78.73899,148.56462
"37680",502.34283,78.73655,148.52277
"37681",502.35602,78.746315,148.49304
"37682",502.36945,78.75853,148.46608
"37683",502.38263,78.77074,148.43948
"37684",502.39606,78.77806,148.40839
"37685",502.40924,78.78783,148.37996
"37686",502.42267,78.785385,148.33963
"37687",502.43585,78.77318,148.28946
"37688",502.44928,78.74876,148.2267
"37689",502.46246,78.71702,148.15585
"37690",502.4759,78.68284,148.08157
"37691",502.48907,78.67307,148.03064
"37692",502.5025,78.73411,148.0502
"37693",502.5157,78.924545,148.20108
"37694",502.5291,79.28588,148.52881
"37695",502.5423,79.82788,149.0485
"37696",502.55573,80.51148,149.72672
"37697",502.5689,81.25124,150.48247
"37698",502.58234,81.93729,151.20761
"37699",502.59552,82.47196,151.80283
"37700",502.60895,82.79912,152.20723
"37701",502.62213,82.913864,152.40945
"37702",502.63556,82.847946,152.4346
"37703",502.64874,82.652626,152.32828
"37704",502.66217,82.38651,152.14507
"37705",502.67535,82.10086,151.93399
"37706",502.68878,81.83963,151.73842
"37707",502.70197,81.62966,151.58594
"37708",502.7154,81.47341,151.48062
"37709",502.72858,81.36111,151.41437
"37710",502.742,81.27566,151.37146
"37711",502.7552,81.18532,151.32098
"37712",502.76862,81.07301,151.24573
"37713",502.7818,80.92653,151.13278
"37714",502.79523,80.762955,150.99817
"37715",502.8084,80.601814,150.86087
"37716",502.82184,80.45777,150.73564
"37717",502.83502,80.34547,150.63765
"37718",502.84845,80.274666,150.57765
"37719",502.86163,80.23071,150.54228
"37720",502.87506,80.201416,150.5202
"37721",502.88824,80.17456,150.49963
"37722",502.90167,80.13794,150.46848
"37723",502.91486,80.08667,150.42151
"37724",502.92828,80.01099,150.34854
"37725",502.94147,79.91333,150.25122
"37726",502.9549,79.798584,150.13376
"37727",502.96808,79.66674,149.99562
"37728",502.9815,79.53002,149.84848
"37729",502.9947,79.39086,149.69463
"37730",503.00812,79.25414,149.53886
"37731",503.0213,79.12718,149.3886
"37732",503.03473,79.012436,149.24657
"37733",503.0479,78.91234,149.1156
"37734",503.06134,78.82445,148.99371
"37735",503.07452,78.751205,148.88373
"37736",503.08795,78.692604,148.7861
"37737",503.10114,78.64622,148.69885
"37738",503.11456,78.60471,148.61504
"37739",503.12775,78.57542,148.54213
"37740",503.14117,78.56321,148.4854
"37741",503.15436,78.56077,148.43805
"37742",503.1678,78.56321,148.39551
"37743",503.18097,78.572975,148.36037
"37744",503.1944,78.5803,148.32309
"37745",503.20758,78.58274,148.28116
"37746",503.221,78.58518,148.2393
"37747",503.2342,78.58518,148.19508
"37748",503.24762,78.58518,148.15086
"37749",503.2608,78.57542,148.09688
"37750",503.27423,78.55833,148.03526
"37751",503.2874,78.53147,147.96335
"37752",503.30084,78.504616,147.8906
"37753",503.31403,78.47532,147.81456
"37754",503.32745,78.45579,147.74738
"37755",503.34064,78.46555,147.70888
"37756",503.35406,78.54368,147.73904
"37757",503.36725,78.751205,147.90106
"37758",503.38068,79.13695,148.24777
"37759",503.39386,79.71801,148.80186
"37760",503.4073,80.45533,149.53036
"37761",503.42047,81.26345,150.35272
"37762",503.4339,82.01785,151.1466
"37763",503.44708,82.61845,151.81026
"37764",503.4605,82.99443,152.26807
"37765",503.4737,83.13847,152.50569
"37766",503.48712,83.08476,152.55006
"37767",503.5003,82.88945,152.45116
"37768",503.51373,82.62333,152.27533
"37769",503.52692,82.34257,152.07655
"37770",503.54034,82.08377,151.89096
"37771",503.55353,81.87381,151.74612
"37772",503.56696,81.71999,151.65086
"37773",503.58014,81.61013,151.59476
"37774",503.59357,81.52224,151.55719
"37775",503.60675,81.43191,151.51443
"37776",503.62018,81.30984,151.43712
"37777",503.63336,81.15602,151.32423
"37778",503.6468,80.972916,151.17726
"37779",503.65997,80.780045,151.0148
"37780",503.6734,80.601814,150.86095
"37781",503.68658,80.45777,150.73572
"37782",503.7,80.35767,150.64993
"37783",503.7132,80.2942,150.59764
"37784",503.72662,80.26002,150.57266
"37785",503.7398,80.23804,150.5588
"37786",503.75323,80.21362,150.54184
"37787",503.76642,80.16724,150.50214
"37788",503.77985,80.09888,150.439
"37789",503.79303,80.008545,150.35175
"37790",503.80646,79.8938,150.23727
"37791",503.81964,79.76196,150.10211
"37792",503.83307,79.62035,149.95306
"37793",503.84625,79.47631,149.79715
"37794",503.85968,79.33471,149.63918
"37795",503.87286,79.200424,149.4841
"37796",503.8863,79.080795,149.33948
"37797",503.89948,78.97337,149.20332
"37798",503.9129,78.8806,149.07846
"37799",503.9261,78.80003,148.9629
"37800",503.9395,78.72434,148.84972
"37801",503.9527,78.660866,148.74637
"37802",503.96613,78.6096,148.65324
"37803",503.9793,78.56809,148.56828
"37804",503.99274,78.538795,148.49423
"37805",504.00592,78.51682,148.42659
"37806",504.01935,78.502174,148.36559
"37807",504.03253,78.49729,148.31389
"37808",504.04596,78.49241,148.26204
"37809",504.05914,78.48997,148.21248
"37810",504.07257,78.487526,148.16284
"37811",504.08575,78.487526,148.11557
"37812",504.09918,78.47776,148.05853
"37813",504.11237,78.467995,148.00119
"37814",504.1258,78.45335,147.93866
"37815",504.13898,78.4387,147.87567
"37816",504.1524,78.42161,147.80978
"37817",504.1656,78.40208,147.74092
"37818",504.17902,78.380104,147.669
"37819",504.1922,78.348366,147.58664
"37820",504.20563,78.31663,147.50328
"37821",504.2188,78.28489,147.41893
"37822",504.23224,78.28489,147.36533
"37823",504.24542,78.35813,147.38496
"37824",504.25885,78.56565,147.54117
"37825",504.27203,78.95628,147.88698
"37826",504.28546,79.54467,148.44275
"37827",504.29865,80.28687,149.17072
"37828",504.31207,81.094986,149.9878
"37829",504.32526,81.85672,150.78375
"37830",504.33868,82.46708,151.45213
"37831",504.35187,82.86015,151.9223
"37832",504.3653,83.018845,152.17038
"37833",504.37848,82.9749,152.22078
"37834",504.3919,82.78203,152.12088
"37835",504.4051,82.5037,151.92949
"37836",504.41852,82.196075,151.7001
"37837",504.4317,81.900665,151.47333
"37838",504.44513,81.651634,151.28369
"37839",504.4583,81.463646,151.14732
"37840",504.47174,81.32937,151.05879
"37841",504.48492,81.22926,151.00023
"37842",504.49835,81.13893,150.94832
"37843",504.51154,81.03639,150.88138
"37844",504.52496,80.90456,150.78194
"37845",504.53815,80.74586,150.6515
"37846",504.55157,80.587166,150.51613
"37847",504.56476,80.445564,150.39288
"37848",504.5782,80.33326,150.29451
"37849",504.59137,80.257576,150.22925
"37850",504.6048,80.21362,150.19334
"37851",504.61798,80.18921,150.1756
"37852",504.6314,80.17944,150.17175
"37853",504.6446,80.16235,150.16028
"37854",504.65802,80.13306,150.13605
"37855",504.6712,80.076904,150.08405
"37856",504.68463,79.991455,150.001
"37857",504.6978,79.87915,149.88843
"37858",504.71124,79.744865,149.75037
"37859",504.72443,79.59838,149.5959
"37860",504.73785,79.4519,149.43686
"37861",504.75104,79.310295,149.27812
"37862",504.76447,79.17845,149.12473
"37863",504.77765,79.061264,148.98186
"37864",504.79108,78.958725,148.84998
"37865",504.80426,78.86839,148.7271
"37866",504.8177,78.79271,148.61604
"37867",504.83087,78.72434,148.50995
"37868",504.8443,78.66575,148.41148
"37869",504.85748,78.61936,148.3234
"37870",504.8709,78.58518,148.24606
"37871",504.8841,78.56321,148.17987
"37872",504.89752,78.555885,148.12764
"37873",504.9107,78.553444,148.08006
"37874",504.92413,78.56077,148.04218
"37875",504.93732,78.57053,148.00696
"37876",504.95074,78.57786,147.9696
"37877",504.96393,78.58518,147.93248
"37878",504.97736,78.590065,147.89314
"37879",504.99054,78.590065,147.84908
"37880",505.00397,78.58274,147.79768
"37881",505.01715,78.572975,147.74362
"37882",505.03058,78.56077,147.68681
"37883",505.04376,78.54124,147.6223
"37884",505.0572,78.504616,147.54008
"37885",505.07037,78.46067,147.4494
"37886",505.0838,78.41184,147.35246
"37887",505.097,78.363014,147.254
"37888",505.1104,78.345924,147.18575
"37889",505.1236,78.41184,147.19997
"37890",505.13702,78.61448,147.35297
"37891",505.1502,79.00023,147.69542
"37892",505.16364,79.57641,148.24036
"37893",505.17682,80.308846,148.95955
"37894",505.19025,81.10231,149.76266
"37895",505.20343,81.83963,150.53444
"37896",505.21686,82.41581,151.1681
"37897",505.23004,82.76738,151.59517
"37898",505.24347,82.88457,151.79884
"37899",505.25665,82.79912,151.80354
"37900",505.27008,82.57206,151.66396
"37901",505.28326,82.26444,151.43672
"37902",505.2967,81.92996,151.173
"37903",505.30988,81.60769,150.91104
"37904",505.3233,81.32937,150.68297
"37905",505.3365,81.09987,150.49501
"37906",505.3499,80.91676,150.34628
"37907",505.3631,80.76784,150.22601
"37908",505.37653,80.635994,150.11816
"37909",505.3897,80.50904,150.0111
"37910",505.40314,80.38453,149.9025
"37911",505.41632,80.272224,149.80222
"37912",505.42975,80.18677,149.72527
"37913",505.44293,80.14038,149.68472
"37914",505.45636,80.13306,149.6818
"37915",505.46954,80.15991,149.7128
"37916",505.48297,80.2063,149.76419
"37917",505.49615,80.25269,149.81703
"37918",505.50958,80.27711,149.84935
"37919",505.52277,80.272224,149.85313
"37920",505.5362,80.22827,149.81769
"37921",505.54938,80.14526,149.74182
"37922",505.5628,80.03296,149.63406
"37923",505.576,79.89624,149.49838
"37924",505.58942,79.74731,149.3462
"37925",505.6026,79.59594,149.18694
"37926",505.61603,79.44457,149.02293
"37927",505.6292,79.30053,148.86153
"37928",505.64264,79.17357,148.7127
"37929",505.65582,79.063705,148.57701
"37930",505.66925,78.97093,148.45497
"37931",505.68243,78.89525,148.34712
"37932",505.69586,78.836655,148.254
"37933",505.70905,78.78783,148.16881
"37934",505.72247,78.74876,148.09186
"37935",505.73566,78.72678,148.03078
"37936",505.74908,78.71946,147.98366
"37937",505.76227,78.71946,147.94363
"37938",505.7757,78.729225,147.91338
"37939",505.78888,78.74387,147.8883
"37940",505.8023,78.76097,147.86615
"37941",505.8155,78.77562,147.84207
"37942",505.82892,78.79271,147.82089
"37943",505.8421,78.802475,147.79292
"37944",505.85553,78.79515,147.74817
"37945",505.8687,78.77074,147.6861
"37946",505.88214,78.729225,147.60617
"37947",505.89532,78.6804,147.51762
"37948",505.90875,78.6511,147.44708
"37949",505.92194,78.69016,147.44398
"37950",505.93536,78.85863,147.57152
"37951",505.94855,79.202866,147.88008
"37952",505.96198,79.73022,148.38252
"37953",505.97516,80.40162,149.04549
"37954",505.9886,81.13649,149.79291
"37955",506.00177,81.82498,150.51692
"37956",506.0152,82.3621,151.11107
"37957",506.02838,82.69169,151.51448
"37958",506.0418,82.804,151.7109
"37959",506.055,82.718544,151.71307
"37960",506.06842,82.49149,151.57098
"37961",506.0816,82.18143,151.33878
"37962",506.09503,81.83963,151.06516
"37963",506.10822,81.512474,150.79549
"37964",506.12164,81.22438,150.55466
"37965",506.13483,80.990005,150.35855
"37966",506.14825,80.797134,150.19662
"37967",506.16144,80.635994,150.0604
"37968",506.17487,80.48463,149.92891
"37969",506.18805,80.343025,149.80246
"37970",506.20148,80.216064,149.68622
"37971",506.21466,80.11597,149.59286
"37972",506.2281,80.0647,149.54523
"37973",506.24127,80.0647,149.54724
"37974",506.2547,80.1062,149.59076
"37975",506.26788,80.17944,149.66733
"37976",506.2813,80.255135,149.74863
"37977",506.2945,80.31617,149.81764
"37978",506.30792,80.34547,149.85683
"37979",506.3211,80.33814,149.8603
"37980",506.33453,80.28199,149.81473
"37981",506.34772,80.18921,149.73076
"37982",506.36115,80.059814,149.60727
"37983",506.37433,79.91089,149.4602
"37984",506.38776,79.74975,149.29628
"37985",506.40094,79.588615,149.12732
"37986",506.41437,79.43725,148.96309
"37987",506.42755,79.30053,148.80878
"37988",506.44098,79.18089,148.66728
"37989",506.45416,79.07347,148.53426
"37990",506.4676,78.97826,148.41008
"37991",506.48077,78.89769,148.29758
"37992",506.4942,78.836655,148.20209
"37993",506.5074,78.79759,148.12666
"37994",506.5208,78.7805,148.07199
"37995",506.534,78.78783,148.0412
"37996",506.54742,78.8098,148.02528
"37997",506.5606,78.836655,148.01494
"37998",506.57404,78.86351,148.00543
"37999",506.58722,78.88548,147.99188
"38000",506.60065,78.90013,147.9717
"38001",506.61383,78.90013,147.93732
"38002",506.62726,78.89281,147.89561
"38003",506.64044,78.87816,147.84636
"38004",506.65387,78.870834,147.80397
"38005",506.66705,78.89281,147.79065
"38006",506.68048,79.00267,147.8659
"38007",506.69366,79.25414,148.08621
"38008",506.7071,79.68139,148.49014
"38009",506.72028,80.272224,149.07101
"38010",506.7337,80.970474,149.77777
"38011",506.7469,81.68093,150.51855
"38012",506.7603,82.29618,151.18634
"38013",506.7735,82.735634,151.69756
"38014",506.78693,82.96025,152.00766
"38015",506.8001,82.9749,152.11482
"38016",506.81354,82.82597,152.05887
"38017",506.82672,82.56718,151.88838
"38018",506.84015,82.247345,151.64877
"38019",506.85333,81.91287,151.38454
"38020",506.86676,81.60525,151.13669
"38021",506.87994,81.34402,150.92563
"38022",506.89337,81.13649,150.7601
"38023",506.90656,80.972916,150.63205
"38024",506.91998,80.84108,150.53062
"38025",506.93317,80.71656,150.43239
"38026",506.9466,80.584724,150.32295
"38027",506.95978,80.45045,150.20695
"38028",506.9732,80.33814,150.10873
"38029",506.9864,80.255135,150.0363
"38030",506.99982,80.216064,150.0052
"38031",507.013,80.216064,150.01196
"38032",507.02643,80.24048,150.04312
"38033",507.0396,80.26734,150.0775
"38034",507.05304,80.289314,150.10783
"38035",507.06622,80.289314,150.11688
"38036",507.07965,80.26002,150.09663
"38037",507.09283,80.19653,150.04128
"38038",507.10626,80.1062,149.95709
"38039",507.11945,79.991455,149.84567
"38040",507.13287,79.85718,149.71112
"38041",507.14606,79.708244,149.55772
"38042",507.1595,79.55688,149.39723
"38043",507.17267,79.40551,149.23201
"38044",507.1861,79.256584,149.0645
"38045",507.19928,79.12718,148.91187
"38046",507.2127,79.01488,148.77228
"38047",507.2259,78.922104,148.64871
"38048",507.23932,78.84642,148.53934
"38049",507.2525,78.79515,148.45201
"38050",507.26593,78.76341,148.38261
"38051",507.2791,78.74387,148.32443
"38052",507.29254,78.73899,148.28029
"38053",507.30573,78.73899,148.24088
"38054",507.31915,78.74143,148.2039
"38055",507.33234,78.751205,148.17435
"38056",507.34576,78.765854,148.14996
"38057",507.35895,78.78294,148.12848
"38058",507.37238,78.79515,148.10265
"38059",507.38556,78.80492,148.07475
"38060",507.399,78.80003,148.03252
"38061",507.41217,78.78783,147.9828
"38062",507.4256,78.785385,147.94247
"38063",507.43878,78.819565,147.93869
"38064",507.4522,78.94896,148.03119
"38065",507.4654,79.2224,148.27177
"38066",507.47882,79.67895,148.70403
"38067",507.492,80.306404,149.32144
"38068",507.50543,81.04616,150.07077
"38069",507.51862,81.79324,150.85056
"38070",507.53204,82.44022,151.55357
"38071",507.54523,82.90654,152.09615
"38072",507.55865,83.15068,152.43112
"38073",507.57184,83.18486,152.56377
"38074",507.58527,83.04814,152.52658
"38075",507.59845,82.79668,152.37038
"38076",507.61188,82.48417,152.14526
"38077",507.62506,82.16434,151.90306
"38078",507.6385,81.87137,151.67773
"38079",507.65167,81.634544,151.49939
"38080",507.6651,81.45632,151.37225
"38081",507.67828,81.322044,151.2835
"38082",507.6917,81.21217,151.21494
"38083",507.7049,81.10231,151.14296
"38084",507.71832,80.972916,151.04802
"38085",507.7315,80.82399,150.9295
"38086",507.74493,80.672615,150.80388
"38087",507.75812,80.52857,150.68086
"38088",507.77155,80.411385,150.5802
"38089",507.78473,80.33326,150.51494
"38090",507.79816,80.291756,150.48386
"38091",507.81134,80.272224,150.47345
"38092",507.82477,80.2649,150.47464
"38093",507.83795,80.255135,150.47316
"38094",507.85138,80.22827,150.45427
"38095",507.86456,80.17212,150.40524
"38096",507.878,80.08911,150.3276
"38097",507.89117,79.98169,150.22296
"38098",507.9046,79.84985,150.09055
"38099",507.9178,79.70336,149.93936
"38100",507.9312,79.54955,149.77628
"38101",507.9444,79.395744,149.60838
"38102",507.95782,79.25414,149.44789
"38103",507.971,79.12474,149.29518
"38104",507.98444,79.012436,149.15552
"38105",507.99762,78.91722,149.02943
"38106",508.01105,78.83177,148.91014
"38107",508.02423,78.75853,148.80038
"38108",508.03766,78.69993,148.70299
"38109",508.05084,78.65354,148.61597
"38110",508.06427,78.61936,148.5397
"38111",508.07745,78.59983,148.47702
"38112",508.09088,78.59739,148.43082
"38113",508.10406,78.60471,148.3943
"38114",508.1175,78.61692,148.3629
"38115",508.13068,78.624245,148.327
"38116",508.1441,78.63401,148.29376
"38117",508.1573,78.63889,148.25595
"38118",508.17072,78.643776,148.21829
"38119",508.1839,78.63889,148.17102
"38120",508.19733,78.62913,148.11871
"38121",508.2105,78.6096,148.05634
"38122",508.22394,78.58762,147.9909
"38123",508.23712,78.57542,147.93456
"38124",508.25055,78.61692,147.93153
"38125",508.26373,78.77562,148.04701
"38126",508.27716,79.10033,148.33345
"38127",508.29034,79.61303,148.81804
"38128",508.30377,80.29908,149.49199
"38129",508.31696,81.08034,150.2826
"38130",508.33038,81.84451,151.08054
"38131",508.34357,82.48417,151.77783
"38132",508.357,82.91875,152.29004
"38133",508.37018,83.12627,152.58878
"38134",508.3836,83.123825,152.68404
"38135",508.3968,82.96513,152.62297
"38136",508.41022,82.70878,152.45927
"38137",508.4234,82.41093,152.24608
"38138",508.43683,82.12039,152.03088
"38139",508.45,81.87137,151.84813
"38140",508.46344,81.671165,151.7064
"38141",508.47662,81.52224,151.60971
"38142",508.49005,81.40505,151.5401
"38143",508.50323,81.30007,151.47903
"38144",508.51666,81.18288,151.40247
"38145",508.52985,81.041275,151.29784
"38146",508.54327,80.8777,151.16681
"38147",508.55646,80.709236,151.02577
"38148",508.5699,80.550545,150.88925
"38149",508.58307,80.42359,150.77951
"38150",508.5965,80.33082,150.69998
"38151",508.60968,80.27955,150.65906
"38152",508.6231,80.25269,150.64095
"38153",508.6363,80.23804,150.63419
"38154",508.64972,80.218506,150.6221
"38155",508.6629,80.18921,150.59964
"38156",508.67633,80.13794,150.55429
"38157",508.6895,80.05249,150.47314
"38158",508.70294,79.940186,150.36249
"38159",508.71613,79.81079,150.23123
"38160",508.72955,79.66674,150.08127
"38161",508.74274,79.517815,149.92192
"38162",508.75616,79.37133,149.76036
"38163",508.76935,79.234604,149.60399
"38164",508.78278,79.10521,149.45067
"38165",508.79596,78.98558,149.30307
"38166",508.8094,78.87816,149.16394
"38167",508.82257,78.79027,149.04099
"38168",508.836,78.71458,148.92749
"38169",508.84918,78.65598,148.82872
"38170",508.8626,78.607155,148.73788
"38171",508.8758,78.572975,148.66017
"38172",508.88922,78.551,148.5936
"38173",508.9024,78.536354,148.53366
"38174",508.91583,78.53147,148.48303
"38175",508.92902,78.536354,148.44202
"38176",508.94244,78.54612,148.40604
"38177",508.95563,78.555885,148.37036
"38178",508.96906,78.57053,148.33987
"38179",508.98224,78.5803,148.30496
"38180",508.99567,78.5803,148.26059
"38181",509.00885,78.56809,148.20401
"38182",509.02228,78.54612,148.13728
"38183",509.03546,78.51194,148.05766
"38184",509.0489,78.49241,147.99162
"38185",509.06207,78.51682,147.96892
"38186",509.0755,78.63645,148.04219
"38187",509.08868,78.90257,148.2657
"38188",509.1021,79.3518,148.68063
"38189",509.1153,79.96948,149.27806
"38190",509.12872,80.70435,150.01198
"38191",509.1419,81.449,150.77864
"38192",509.15533,82.09842,151.47334
"38193",509.16852,82.56718,152.00768
"38194",509.18195,82.82109,152.34181
"38195",509.19513,82.86015,152.46904
"38196",509.20856,82.74052,152.43878
"38197",509.22174,82.513466,152.29738
"38198",509.23517,82.24002,152.10248
"38199",509.24835,81.95682,151.88928
"38200",509.26178,81.70046,151.69408
"38201",509.27496,81.48806,151.53482
"38202",509.2884,81.324486,151.41776
"38203",509.30157,81.197525,151.33218
"38204",509.315,81.0901,151.26219
"38205",509.3282,80.98024,151.1864
"38206",509.3416,80.850845,151.08765
"38207",509.3548,80.70191,150.9653
"38208",509.36823,80.5481,150.83344
"38209",509.3814,80.411385,150.71385
"38210",509.39484,80.308846,150.62418
"38211",509.40802,80.24048,150.56546
"38212",509.42145,80.20386,150.53635
"38213",509.43463,80.184326,150.5232
"38214",509.44806,80.17456,150.5192
"38215",509.46124,80.15747,150.50757
"38216",509.47467,80.12573,150.48074
"38217",509.48785,80.07202,150.43097
"38218",509.50128,79.991455,150.35266
"38219",509.51447,79.88403,150.24496
"38220",509.5279,79.75464,150.11194
"38221",509.54108,79.60815,149.95778
"38222",509.5545,79.45434,149.79172
"38223",509.5677,79.30785,149.62817
"38224",509.58112,79.17357,149.47226
"38225",509.5943,79.05394,149.3268
"38226",509.60773,78.9514,149.19469
"38227",509.6209,78.85863,149.06914
"38228",509.63434,78.78294,148.95778
"38229",509.64752,78.71458,148.85138
"38230",509.66095,78.65598,148.75261
"38231",509.67413,78.60471,148.65933
"38232",509.68756,78.57053,148.58154
"38233",509.70074,78.54856,148.5149
"38234",509.71417,78.54124,148.4622
"38235",509.72736,78.54368,148.41905
"38236",509.74078,78.55833,148.38818
"38237",509.75397,78.57053,148.35533
"38238",509.7674,78.5803,148.32042
"38239",509.78058,78.57786,148.2736
"38240",509.794,78.56321,148.21451
"38241",509.8072,78.536354,148.14275
"38242",509.82062,78.504616,148.06526
"38243",509.8338,78.467995,147.9819
"38244",509.84723,78.44602,147.91205
"38245",509.8604,78.46311,147.88057
"38246",509.87384,78.572975,147.9424
"38247",509.88702,78.83177,148.1566
"38248",509.90045,79.26147,148.54979
"38249",509.91364,79.84985,149.1151
"38250",509.92706,80.54566,149.80621
"38251",509.94025,81.253685,150.5313
"38252",509.95367,81.87137,151.18816
"38253",509.96686,82.32548,151.70074
"38254",509.9803,82.57694,152.02489
"38255",509.99347,82.63065,152.15913
"38256",510.0069,82.52079,152.13148
"38257",510.02008,82.29618,151.98566
"38258",510.0335,82.01297,151.7742
"38259",510.0467,81.71511,151.53925
"38260",510.06012,81.43923,151.31697
"38261",510.0733,81.20729,151.13
"38262",510.08673,81.01442,150.97487
"38263",510.0999,80.85573,150.84789
"38264",510.11334,80.71656,150.73546
"38265",510.12653,80.587166,150.62846
"38266",510.13995,80.45777,150.51743
"38267",510.15314,80.33326,150.40723
"38268",510.16656,80.22827,150.31265
"38269",510.17975,80.15503,150.24655
"38270",510.19318,80.12085,150.21722
"38271",510.20636,80.12085,150.22101
"38272",510.2198,80.14282,150.24677
"38273",510.23297,80.16724,150.27563
"38274",510.2464,80.184326,150.29794
"38275",510.25958,80.17944,150.29883
"38276",510.273,80.14526,150.27026
"38277",510.2862,80.076904,150.20645
"38278",510.29962,79.97925,150.1112
"38279",510.3128,79.852295,149.98361
"38280",510.32623,79.7058,149.8325
"38281",510.33942,79.554436,149.67194
"38282",510.35284,79.40795,149.51152
"38283",510.36603,79.26879,149.35385
"38284",510.37946,79.14427,149.20648
"38285",510.39264,79.03197,149.06743
"38286",510.40607,78.92943,148.93463
"38287",510.41925,78.84154,148.81328
"38288",510.43268,78.765854,148.70139
"38289",510.44586,78.70481,148.60178
"38290",510.4593,78.66575,148.52223
"38291",510.47247,78.643776,148.45856
"38292",510.4859,78.63645,148.40884
"38293",510.49908,78.641335,148.37111
"38294",510.5125,78.6511,148.33841
"38295",510.5257,78.66331,148.30846
"38296",510.53912,78.677956,148.28133
"38297",510.5523,78.68284,148.24489
"38298",510.56573,78.68772,148.2086
"38299",510.57892,78.6804,148.16026
"38300",510.59235,78.660866,148.09949
"38301",510.60553,78.63157,148.02834
"38302",510.61896,78.607155,147.96115
"38303",510.63214,78.6096,147.92006
"38304",510.64557,78.69993,147.96693
"38305",510.65875,78.92699,148.15337
"38306",510.67218,79.3225,148.51535
"38307",510.68536,79.87671,149.04839
"38308",510.6988,80.54322,149.71104
"38309",510.71198,81.22926,150.41406
"38310",510.7254,81.832306,151.05553
"38311",510.7386,82.27421,151.55469
"38312",510.752,82.511024,151.86258
"38313",510.7652,82.545204,151.97523
"38314",510.77863,82.41825,151.92783
"38315",510.7918,82.1741,151.75925
"38316",510.80524,81.86893,151.52202
"38317",510.81842,81.55642,151.26791
"38318",510.83185,81.26833,151.02847
"38319",510.84503,81.01686,150.81664
"38320",510.85846,80.80202,150.63358
"38321",510.87164,80.621346,150.47797
"38322",510.88507,80.462654,150.3387
"38323",510.89825,80.31617,150.20668
"38324",510.91168,80.18921,150.0896
"38325",510.92487,80.09888,150.00519
"38326",510.9383,80.05737,149.96677
"38327",510.95148,80.0647,149.97589
"38328",510.9649,80.12573,150.03894
"38329",510.9781,80.21118,150.12833
"38330",510.99152,80.30152,150.22527
"38331",511.0047,80.37232,150.3055
"38332",511.01813,80.411385,150.3562
"38333",511.0313,80.39918,150.35686
"38334",511.04474,80.343025,150.31319
"38335",511.05792,80.24536,150.22624
"38336",511.07135,80.11841,150.10696
"38337",511.08453,79.96704,149.95929
"38338",511.09796,79.81079,149.802
"38339",511.11115,79.65453,149.63983
"38340",511.12457,79.50561,149.4801
"38341",511.13776,79.36889,149.32793
"38342",511.15118,79.24437,149.18369
"38343",511.16437,79.13695,149.05264
"38344",511.1778,79.044174,148.93289
"38345",511.19098,78.96849,148.82733
"38346",511.2044,78.9099,148.7365
"38347",511.2176,78.86839,148.66092
"38348",511.23102,78.84154,148.5987
"38349",511.2442,78.83177,148.55272
"38350",511.25763,78.83177,148.5162
"38351",511.2708,78.839096,148.48701
"38352",511.28424,78.84642,148.45805
"38353",511.29742,78.84886,148.42444
"38354",511.31085,78.84398,148.38358
"38355",511.32404,78.83177,148.33524
"38356",511.33746,78.82933,148.29628
"38357",511.35065,78.870834,148.3012
"38358",511.36407,79.00267,148.39774
"38359",511.37726,79.26879,148.63269
"38360",511.3907,79.69848,149.03952
"38361",511.40387,80.274666,149.60628
"38362",511.4173,80.93385,150.27405
"38363",511.43048,81.583275,150.95265
"38364",511.4439,82.127716,151.54657
"38365",511.4571,82.50126,151.9866
"38366",511.47052,82.67216,152.23567
"38367",511.4837,82.652626,152.29965
"38368",511.49713,82.493935,152.22386
"38369",511.5103,82.23758,152.04544
"38370",511.52374,81.93973,151.81752
"38371",511.53693,81.64187,151.58028
"38372",511.55035,81.373314,151.36304
"38373",511.56354,81.146255,151.1789
"38374",511.57697,80.95827,151.02673
"38375",511.59015,80.79225,150.89067
"38376",511.60358,80.63355,150.75673
"38377",511.61676,80.482185,150.62517
"38378",511.6302,80.34791,150.50597
"38379",511.64337,80.24292,150.41185
"38380",511.6568,80.17944,150.35596
"38381",511.66998,80.16724,150.34937
"38382",511.6834,80.2063,150.39365
"38383",511.6966,80.26978,150.46358
"38384",511.71002,80.3357,150.53793
"38385",511.7232,80.38941,150.60214
"38386",511.73663,80.4065,150.63141
"38387",511.74982,80.37965,150.61726
"38388",511.76324,80.31129,150.56078
"38389",511.77643,80.201416,150.46063
"38390",511.78986,80.062256,150.32776
"38391",511.80304,79.903564,150.17102
"38392",511.81647,79.73998,150.00443
"38393",511.82965,79.57397,149.83028
"38394",511.84308,79.42016,149.66315
"38395",511.85626,79.281,149.50586
"38396",511.8697,79.15892,149.36131
"38397",511.88287,79.05394,149.23004
"38398",511.8963,78.96605,149.11258
"38399",511.9095,78.89281,149.00702
"38400",511.9229,78.836655,148.91626
"38401",511.9361,78.79759,148.84084
"38402",511.94952,78.77318,148.77884
"38403",511.9627,78.75609,148.7234
"38404",511.97614,78.75609,148.68452
"38405",511.98932,78.76341,148.65297
"38406",512.00275,78.768295,148.6192
"38407",512.0159,78.765854,148.57826
"38408",512.02936,78.75365,148.52748
"38409",512.04254,78.73411,148.469
"38410",512.05597,78.72434,148.41966
"38411",512.06915,78.75609,148.41154
"38412",512.0826,78.88304,148.49962
"38413",512.09576,79.15404,148.7357
"38414",512.1092,79.59838,149.15361
"38415",512.1224,80.198975,149.74165
"38416",512.1358,80.89967,150.44858
"38417",512.149,81.60525,151.18227
"38418",512.1624,82.21805,151.84523
"38419",512.1756,82.65751,152.354
"38420",512.189,82.89433,152.67387
"38421",512.2022,82.94072,152.81071
"38422",512.21564,82.8333,152.7952
"38423",512.2288,82.62577,152.67621
"38424",512.24225,82.36942,152.50192
"38425",512.25543,82.11063,152.31717
"38426",512.26886,81.881134,152.15364
"38427",512.28204,81.69558,152.02687
"38428",512.2955,81.549095,151.93338
"38429",512.30865,81.43191,151.86461
"38430",512.3221,81.31472,151.79218
"38431",512.33527,81.18776,151.7063
"38432",512.3487,81.041275,151.59694
"38433",512.3619,80.885025,151.47324
"38434",512.3753,80.73365,151.34952
"38435",512.3885,80.604256,151.24306
"38436",512.4019,80.51148,151.16917
"38437",512.4151,80.462654,151.13634
"38438",512.4285,80.44312,151.13127
"38439",512.4417,80.4358,151.1378
"38440",512.45514,80.428474,151.1441
"38441",512.4683,80.39918,151.1282
"38442",512.48175,80.34547,151.08698
"38443",512.49493,80.26002,151.01233
"38444",512.50836,80.14526,150.9057
"38445",512.52155,80.01099,150.77597
"38446",512.535,79.86694,150.63226
"38447",512.54816,79.71313,150.47429
"38448",512.5616,79.56176,150.31395
"38449",512.57477,79.415276,150.15376
"38450",512.5882,79.27856,149.99876
"38451",512.6014,79.14427,149.84193
"38452",512.6148,79.0222,149.69312
"38453",512.628,78.907455,149.5478
"38454",512.6414,78.80492,149.41112
"38455",512.6546,78.71702,149.28587
"38456",512.668,78.64622,149.17497
"38457",512.6812,78.59495,149.08139
"38458",512.69464,78.56321,149.00574
"38459",512.7078,78.54124,148.93886
"38460",512.72125,78.52659,148.87862
"38461",512.73444,78.51682,148.8228
"38462",512.74786,78.50706,148.76668
"38463",512.76105,78.48997,148.70293
"38464",512.7745,78.47288,148.63864
"38465",512.78766,78.44846,148.5665
"38466",512.8011,78.42161,148.49115
"38467",512.8143,78.39231,148.41252
"38468",512.8277,78.38499,148.35495
"38469",512.8409,78.42893,148.34842
"38470",512.8543,78.57786,148.44824
"38471",512.8675,78.887924,148.71387
"38472",512.8809,79.378654,149.16985
"38473",512.8941,80.03052,149.80229
"38474",512.90753,80.782486,150.5552
"38475",512.9207,81.52468,151.32185
"38476",512.93414,82.15213,151.99695
"38477",512.9473,82.598915,152.51099
"38478",512.96075,82.83574,152.82903
"38479",512.97394,82.87724,152.95915
"38480",512.98737,82.76982,152.94165
"38481",513.00055,82.56962,152.828
"38482",513.014,82.33036,152.66905
"38483",513.02716,82.09354,152.50505
"38484",513.0406,81.89334,152.37029
"38485",513.0538,81.73708,152.2732
"38486",513.0672,81.62234,152.21274
"38487",513.0804,81.529564,152.17067
"38488",513.0938,81.43679,152.1257
"38489",513.107,81.322044,152.05586
"38490",513.1204,81.17555,151.95068
"38491",513.1336,81.007095,151.81897
"38492",513.14703,80.82887,151.67223
"38493",513.1602,80.66529,151.53455
"38494",513.17365,80.53101,151.42107
"38495",513.1868,80.4358,151.34245
"38496",513.20026,80.377205,151.29749
"38497",513.21344,80.343025,151.2751
"38498",513.22687,80.31861,151.26141
"38499",513.24005,80.289314,151.24208
"38500",513.2535,80.24292,151.20473
"38501",513.26666,80.16968,151.13907
"38502",513.2801,80.0647,151.0394
"38503",513.2933,79.937744,150.91446
"38504",513.3067,79.78882,150.76358
"38505",513.3199,79.63256,150.60072
"38506",513.3333,79.466545,150.42322
"38507",513.3465,79.30297,150.24297
"38508",513.3599,79.14427,150.06248
"38509",513.3731,79.00023,149.8917
"38510",513.38654,78.86839,149.7286
"38511",513.3997,78.75609,149.58093
"38512",513.41315,78.660866,149.44684
"38513",513.42633,78.57786,149.32198
"38514",513.43976,78.50706,149.20673
"38515",513.45294,78.450905,149.10391
"38516",513.4664,78.40696,149.01155
"38517",513.47955,78.37034,148.92514
"38518",513.493,78.34348,148.84735
"38519",513.50616,78.31907,148.77116
"38520",513.5196,78.29954,148.6991
"38521",513.5328,78.28001,148.62642
"38522",513.5462,78.26536,148.55801
"38523",513.5594,78.25559,148.49403
"38524",513.5728,78.24826,148.43219
"38525",513.586,78.24094,148.37012
"38526",513.5994,78.23117,148.30537
"38527",513.6126,78.21408,148.233
"38528",513.62604,78.187225,148.15033
"38529",513.6392,78.15549,148.06194
"38530",513.65265,78.116425,147.96523
"38531",513.66583,78.0798,147.86974
"38532",513.67926,78.05539,147.78531
"38533",513.69244,78.08957,147.75871
"38534",513.7059,78.23605,147.84549
"38535",513.71906,78.55833,148.11264
"38536",513.7325,79.078354,148.58762
"38537",513.74567,79.781494,149.26195
"38538",513.7591,80.59449,150.06812
"38539",513.7723,81.40749,150.8997
"38540",513.7857,82.11063,151.64682
"38541",513.7989,82.61845,152.2206
"38542",513.8123,82.90166,152.58563
"38543",513.8255,82.97246,152.74712
"38544",513.8389,82.879684,152.74724
"38545",513.8521,82.68192,152.63947
"38546",513.86554,82.43778,152.47914
"38547",513.8787,82.196075,152.31361
"38548",513.89215,81.98123,152.1674
"38549",513.90533,81.812775,152.06087
"38550",513.91876,81.6907,151.99544
"38551",513.93195,81.59548,151.95306
"38552",513.9454,81.50759,151.91504
"38553",513.95856,81.40261,151.85718
"38554",513.972,81.26589,151.7643
"38555",513.98517,81.09987,151.63783
"38556",513.9986,80.92409,151.49643
"38557",514.0118,80.762955,151.36418
"38558",514.0252,80.635994,151.26106
"38559",514.0384,80.550545,151.1955
"38560",514.0518,80.499275,151.16144
"38561",514.065,80.46998,151.14775
"38562",514.0784,80.445564,151.13803
"38563",514.0916,80.40894,151.11534
"38564",514.10504,80.35523,151.07442
"38565",514.1182,80.274666,151.00496
"38566",514.13165,80.17212,150.911
"38567",514.14484,80.04028,150.78455
"38568",514.15826,79.886475,150.63199
"38569",514.17145,79.72045,150.46242
"38570",514.1849,79.54711,150.28033
"38571",514.19806,79.37621,150.09528
"38572",514.2115,79.21507,149.91464
"38573",514.2247,79.07103,149.74606
"38574",514.2381,78.94652,149.59251
"38575",514.2513,78.84154,149.4546
"38576",514.2647,78.75365,149.3305
"38577",514.2779,78.677956,149.21587
"38578",514.2913,78.607155,149.10374
"38579",514.3045,78.54368,148.99673
"38580",514.31793,78.48264,148.89018
"38581",514.3311,78.433815,148.79393
"38582",514.34454,78.39475,148.70592
"38583",514.3577,78.365456,148.62645
"38584",514.37115,78.345924,148.55583
"38585",514.38434,78.33372,148.49193
"38586",514.39777,78.32151,148.42764
"38587",514.41095,78.3093,148.36298
"38588",514.4244,78.2971,148.29793
"38589",514.43756,78.28001,148.22762
"38590",514.451,78.260475,148.15433
"38591",514.4642,78.238495,148.07799
"38592",514.4776,78.21408,147.99852
"38593",514.4908,78.187225,147.91585
"38594",514.5042,78.167694,147.83966
"38595",514.5174,78.1384,147.7531
"38596",514.5308,78.10422,147.66074
"38597",514.544,78.065155,147.56242
"38598",514.55743,78.02609,147.46289
"38599",514.5706,77.98947,147.36458
"38600",514.58405,77.98703,147.2993
"38601",514.5972,78.06271,147.31207
"38602",514.61066,78.277565,147.46638
"38603",514.62384,78.6804,147.81538
"38604",514.63727,79.28588,148.37962
"38605",514.65045,80.05493,149.12636
"38606",514.6639,80.89479,149.96793
"38607",514.67706,81.69314,150.79424
"38608",514.6905,82.337685,151.4917
"38609",514.7037,82.76494,151.992
"38610",514.7171,82.96025,152.27373
"38611",514.7303,82.95293,152.35892
"38612",514.7437,82.794235,152.29251
"38613",514.7569,82.55009,152.13568
"38614",514.7703,82.27665,151.94194
"38615",514.7835,82.01297,151.7494
"38616",514.79694,81.78836,151.5877
"38617",514.8101,81.61013,151.46536
"38618",514.82355,81.47097,151.37653
"38619",514.83673,81.35134,151.30287
"38620",514.85016,81.23659,151.23035
"38621",514.86334,81.109634,151.14204
"38622",514.8768,80.970474,151.03757
"38623",514.88995,80.82399,150.92142
"38624",514.9034,80.69215,150.81532
"38625",514.91656,80.587166,150.73198
"38626",514.93,80.52125,150.68442
"38627",514.9432,80.48707,150.66653
"38628",514.9566,80.4773,150.672
"38629",514.9698,80.47486,150.68448
"38630",514.9832,80.462654,150.68712
"38631",514.9964,80.430916,150.66985
"38632",515.0098,80.36744,150.61984
"38633",515.023,80.27711,150.541
"38634",515.03644,80.16235,150.4349
"38635",515.0496,80.02319,150.30081
"38636",515.06305,79.86694,150.1453
"38637",515.07623,79.70092,149.97511
"38638",515.08966,79.53002,149.79486
"38639",515.10284,79.364006,149.61415
"38640",515.1163,79.21263,149.4429
"38641",515.12946,79.078354,149.28401
"38642",515.1429,78.958725,149.13557
"38643",515.15607,78.8513,148.9956
"38644",515.1695,78.76097,148.86937
"38645",515.1827,78.6804,148.75008
"38646",515.1961,78.61204,148.64047
"38647",515.2093,78.555885,148.54094
"38648",515.2227,78.51438,148.4543
"38649",515.2359,78.485085,148.37857
"38650",515.2493,78.467995,148.31413
"38651",515.2625,78.46067,148.25893
"38652",515.27594,78.45823,148.20837
"38653",515.2891,78.45335,148.1553
"38654",515.30255,78.44602,148.09964
"38655",515.31573,78.43137,148.03642
"38656",515.32916,78.41428,147.9703
"38657",515.34235,78.39231,147.89877
"38658",515.3558,78.37034,147.82655
"38659",515.36896,78.345924,147.7512
"38660",515.3824,78.32639,147.67998
"38661",515.39557,78.30442,147.6057
"38662",515.409,78.28001,147.52829
"38663",515.4222,78.24826,147.4428
"38664",515.4356,78.2092,147.34898
"38665",515.4488,78.15793,147.24174
"38666",515.4622,78.12619,147.15244
"38667",515.4754,78.15793,147.12561
"38668",515.48883,78.31663,147.22675
"38669",515.502,78.65354,147.51105
"38670",515.51544,79.19798,148.01341
"38671",515.5286,79.920654,148.71101
"38672",515.54205,80.73365,149.52153
"38673",515.55524,81.52468,150.3355
"38674",515.56866,82.18631,151.04477
"38675",515.58185,82.63798,151.56476
"38676",515.5953,82.85527,151.86449
"38677",515.60846,82.86015,151.9586
"38678",515.6219,82.701454,151.88928
"38679",515.6351,82.4329,151.70515
"38680",515.6485,82.11307,151.46135
"38681",515.6617,81.7908,151.20512
"38682",515.6751,81.497826,150.96811
"38683",515.6883,81.25124,150.76834
"38684",515.7017,81.0486,150.6048
"38685",515.7149,80.87526,150.46423
