"","Time..s.","PPG.trace","Preprocessed.PPG"
"12857",171.51666,79.30297,91.68763
"12858",171.52997,79.603264,91.96614
"12859",171.54327,79.99634,92.34682
"12860",171.55658,80.44068,92.791046
"12861",171.56989,80.8777,93.24184
"12862",171.58331,81.25857,93.65013
"12863",171.59662,81.54665,93.97755
"12864",171.60992,81.72488,94.2041
"12865",171.62335,81.79813,94.33125
"12866",171.63666,81.7908,94.38012
"12867",171.64996,81.72976,94.37504
"12868",171.66327,81.64431,94.34364
"12869",171.67657,81.55154,94.30225
"12870",171.69,81.47097,94.27017
"12871",171.70331,81.409935,94.255104
"12872",171.71661,81.36843,94.25766
"12873",171.73004,81.339134,94.271126
"12874",171.74335,81.30251,94.27635
"12875",171.75665,81.253685,94.26823
"12876",171.76996,81.18288,94.236595
"12877",171.78326,81.094986,94.18567
"12878",171.79669,80.99245,94.11735
"12879",171.81,80.885025,94.04094
"12880",171.8233,80.78493,93.9685
"12881",171.83673,80.69459,93.90269
"12882",171.85004,80.61646,93.84627
"12883",171.86334,80.5481,93.79717
"12884",171.87665,80.48951,93.75571
"12885",171.88995,80.4358,93.71729
"12886",171.90338,80.377205,93.67232
"12887",171.91669,80.31129,93.61819
"12888",171.93,80.235596,93.55222
"12889",171.94342,80.15015,93.47414
"12890",171.95673,80.05493,93.38361
"12891",171.97003,79.95239,93.28279
"12892",171.98334,79.84741,93.17632
"12893",171.99664,79.742424,93.06657
"12894",172.01007,79.639885,92.95598
"12895",172.02338,79.54223,92.84707
"12896",172.03668,79.447014,92.73755
"12897",172.05011,79.35424,92.627495
"12898",172.06342,79.26879,92.521866
"12899",172.07672,79.19066,92.42088
"12900",172.09003,79.12474,92.32967
"12901",172.10333,79.06615,92.24373
"12902",172.11676,79.01732,92.16572
"12903",172.13007,78.975815,92.093506
"12904",172.14337,78.93919,92.02488
"12905",172.1568,78.905014,91.95755
"12906",172.1701,78.873276,91.891594
"12907",172.18341,78.84398,91.82709
"12908",172.19672,78.81224,91.759224
"12909",172.21002,78.79027,91.700134
"12910",172.22345,78.78783,91.65989
"12911",172.23676,78.84154,91.67572
"12912",172.25006,78.97337,91.771355
"12913",172.26349,79.20531,91.97121
"12914",172.2768,79.534904,92.27597
"12915",172.2901,79.94263,92.66916
"12916",172.3034,80.37965,93.104385
"12917",172.31671,80.797134,93.53374
"12918",172.33014,81.146255,93.90777
"12919",172.34344,81.40261,94.19994
"12920",172.35675,81.55398,94.39514
"12921",172.37018,81.60769,94.49741
"12922",172.38348,81.5906,94.53056
"12923",172.39679,81.532005,94.521675
"12924",172.4101,81.45632,94.493866
"12925",172.4234,81.38552,94.468575
"12926",172.43683,81.33181,94.45816
"12927",172.45013,81.30007,94.46804
"12928",172.46344,81.28054,94.489136
"12929",172.47687,81.26101,94.50962
"12930",172.49017,81.22682,94.51484
"12931",172.50348,81.16579,94.49214
"12932",172.51678,81.075455,94.43824
"12933",172.53009,80.96071,94.3571
"12934",172.54352,80.8362,94.26261
"12935",172.55682,80.71412,94.166664
"12936",172.57013,80.604256,94.07912
"12937",172.58356,80.51148,94.005226
"12938",172.59686,80.4358,93.945526
"12939",172.61017,80.37232,93.89567
"12940",172.62347,80.31861,93.85359
"12941",172.63678,80.26246,93.807396
"12942",172.6502,80.201416,93.754555
"12943",172.66351,80.13306,93.69249
"12944",172.67682,80.05249,93.61608
"12945",172.69025,79.96216,93.52739
"12946",172.70355,79.869385,93.43343
"12947",172.71686,79.77173,93.331696
"12948",172.73016,79.674065,93.2269
"12949",172.74347,79.569084,93.11173
"12950",172.7569,79.45922,92.9884
"12951",172.7702,79.34936,92.86164
"12952",172.78351,79.24193,92.73388
"12953",172.79694,79.14183,92.61009
"12954",172.81024,79.0515,92.49294
"12955",172.82355,78.97337,92.38518
"12956",172.83685,78.905014,92.28474
"12957",172.85016,78.84642,92.191925
"12958",172.86359,78.80003,92.10949
"12959",172.87689,78.765854,92.03781
"12960",172.8902,78.73899,91.97238
"12961",172.90363,78.709694,91.90368
"12962",172.91693,78.68284,91.8365
"12963",172.93024,78.658424,91.77093
"12964",172.94354,78.626686,91.697266
"12965",172.95685,78.59251,91.62017
"12966",172.97028,78.56077,91.54445
"12967",172.98358,78.54124,91.47994
"12968",172.99689,78.536354,91.429474
"12969",173.01031,78.58274,91.43012
"12970",173.02362,78.70481,91.507904
"12971",173.03693,78.92943,91.69205
"12972",173.05023,79.25414,91.98331
"12973",173.06354,79.66186,92.367714
"12974",173.07697,80.111084,92.80637
"12975",173.09027,80.552986,93.25175
"12976",173.10358,80.92897,93.64501
"12977",173.117,81.20729,93.95236
"12978",173.13031,81.3782,94.160995
"12979",173.14362,81.45144,94.277306
"12980",173.15692,81.446556,94.31778
"12981",173.17023,81.39773,94.314156
"12982",173.18365,81.32693,94.28703
"12983",173.19696,81.25857,94.26014
"12984",173.21027,81.20485,94.24575
"12985",173.2237,81.16579,94.24434
"12986",173.237,81.14137,94.256355
"12987",173.2503,81.1194,94.27005
"12988",173.26361,81.08034,94.26597
"12989",173.27692,81.01442,94.23381
"12990",173.29034,80.92409,94.17518
"12991",173.30365,80.81178,94.09175
"12992",173.31696,80.69459,93.99992
"12993",173.33038,80.584724,93.911766
"12994",173.34369,80.48707,93.83238
"12995",173.357,80.413826,93.77436
"12996",173.3703,80.360115,93.73358
"12997",173.3836,80.31373,93.69845
"12998",173.39703,80.26734,93.661865
"12999",173.41034,80.22095,93.623825
"13000",173.42365,80.15991,93.569695
"13001",173.43707,80.08911,93.50389
"13002",173.45038,80.008545,93.42611
"13003",173.46368,79.91821,93.336044
"13004",173.47699,79.823,93.23827
"13005",173.4903,79.71801,93.127754
"13006",173.50372,79.60815,93.00908
"13007",173.51703,79.49828,92.88697
"13008",173.53033,79.3933,92.76631
"13009",173.54376,79.293205,92.647255
"13010",173.55707,79.202866,92.53483
"13011",173.57037,79.1223,92.42935
"13012",173.58368,79.04906,92.32868
"13013",173.59698,78.97826,92.228165
"13014",173.61041,78.91234,92.13032
"13015",173.62372,78.84886,92.03285
"13016",173.63702,78.79027,91.938286
"13017",173.65045,78.73899,91.849205
"13018",173.66376,78.70237,91.77318
"13019",173.67706,78.67063,91.70089
"13020",173.69037,78.64622,91.63493
"13021",173.70367,78.624245,91.570656
"13022",173.7171,78.59983,91.50325
"13023",173.73041,78.57786,91.43752
"13024",173.74371,78.56077,91.37599
"13025",173.75714,78.54612,91.31637
"13026",173.77045,78.52659,91.2514
"13027",173.78375,78.504616,91.18339
"13028",173.79706,78.47776,91.1098
"13029",173.81036,78.44846,91.032936
"13030",173.82379,78.43137,90.96736
"13031",173.8371,78.450905,90.937874
"13032",173.8504,78.53147,90.97003
"13033",173.86383,78.69993,91.0926
"13034",173.87714,78.975815,91.32786
"13035",173.89044,79.3518,91.67184
"13036",173.90375,79.798584,92.098366
"13037",173.91705,80.272224,92.56571
"13038",173.93048,80.709236,93.01123
"13039",173.94379,81.07301,93.39717
"13040",173.95709,81.33181,93.6895
"13041",173.97052,81.478294,93.8776
"13042",173.98383,81.529564,93.97507
"13043",173.99713,81.51003,94.003334
"13044",174.01044,81.449,93.98949
"13045",174.02374,81.373314,93.95908
"13046",174.03717,81.30251,93.9312
"13047",174.05048,81.24391,93.9133
"13048",174.06378,81.20241,93.91067
"13049",174.07721,81.17067,93.916504
"13050",174.09052,81.13405,93.916466
"13051",174.10382,81.08034,93.89819
"13052",174.11713,81.004654,93.85627
"13053",174.13043,80.91676,93.799774
"13054",174.14386,80.82155,93.73321
"13055",174.15717,80.723885,93.66122
"13056",174.17047,80.64088,93.60083
"13057",174.1839,80.57496,93.55494
"13058",174.1972,80.51881,93.516754
"13059",174.21051,80.47242,93.48658
"13060",174.22382,80.430916,93.45984
"13061",174.23712,80.38697,93.42936
"13062",174.25055,80.34058,93.395065
"13063",174.26385,80.28443,93.349556
"13064",174.27716,80.218506,93.29252
"13065",174.29059,80.13794,93.21878
"13066",174.3039,80.04761,93.13276
"13067",174.3172,79.94507,93.03171
"13068",174.3305,79.84009,92.92501
"13069",174.34381,79.73266,92.812584
"13070",174.35724,79.62524,92.69681
"13071",174.37054,79.52514,92.585
"13072",174.38385,79.42748,92.4725
"13073",174.39728,79.33471,92.36184
"13074",174.41058,79.2517,92.25804
"13075",174.42389,79.17357,92.156525
"13076",174.4372,79.10521,92.06234
"13077",174.4505,79.044174,91.97334
"13078",174.46393,78.99779,91.89709
"13079",174.47723,78.96117,91.82915
"13080",174.49054,78.92943,91.764946
"13081",174.50397,78.905014,91.70708
"13082",174.51727,78.88304,91.65089
"13083",174.53058,78.86107,91.59401
"13084",174.54388,78.836655,91.534004
"13085",174.55719,78.81712,91.47812
"13086",174.57062,78.79759,91.42162
"13087",174.58392,78.7805,91.36696
"13088",174.59723,78.75365,91.301994
"13089",174.61066,78.71946,91.22886
"13090",174.62396,78.68284,91.15222
"13091",174.63727,78.64866,91.07688
"13092",174.65057,78.626686,91.01268
"13093",174.66388,78.64622,90.989296
"13094",174.6773,78.73411,91.03488
"13095",174.69061,78.91478,91.175995
"13096",174.70392,79.19798,91.425285
"13097",174.71735,79.571526,91.773766
"13098",174.73065,80.00366,92.19251
"13099",174.74396,80.44068,92.62965
"13100",174.75726,80.82887,93.03161
"13101",174.77057,81.129166,93.3578
"13102",174.784,81.324486,93.58841
"13103",174.7973,81.409935,93.71525
"13104",174.81061,81.40505,93.754425
"13105",174.82404,81.339134,93.732414
"13106",174.83734,81.24391,93.67904
"13107",174.85065,81.143814,93.61781
"13108",174.86395,81.05592,93.56567
"13109",174.87726,80.987564,93.530304
"13110",174.89069,80.92897,93.50257
"13111",174.90399,80.87282,93.47545
"13112",174.9173,80.8069,93.436806
"13113",174.93073,80.72877,93.38389
"13114",174.94403,80.638435,93.31633
"13115",174.95734,80.550545,93.24839
"13116",174.97064,80.47242,93.18747
"13117",174.98395,80.413826,93.14364
"13118",174.99738,80.37232,93.11507
"13119",175.01068,80.34547,93.099846
"13120",175.02399,80.33082,93.09599
"13121",175.03741,80.31373,93.08924
"13122",175.05072,80.2942,93.07951
"13123",175.06403,80.272224,93.066734
"13124",175.07733,80.235596,93.03861
"13125",175.09064,80.18677,92.99715
"13126",175.10406,80.12085,92.937065
"13127",175.11737,80.0354,92.85539
"13128",175.13068,79.9353,92.7564
"13129",175.1441,79.82544,92.644516
"13130",175.15741,79.710686,92.52431
"13131",175.17072,79.59838,92.40296
"13132",175.18402,79.49584,92.28787
"13133",175.19733,79.40307,92.179344
"13134",175.21075,79.3225,92.080124
"13135",175.22406,79.24681,91.98326
"13136",175.23737,79.183334,91.89625
"13137",175.2508,79.12718,91.814575
"13138",175.2641,79.080795,91.74091
"13139",175.2774,79.03685,91.66824
"13140",175.29071,79.00511,91.60641
"13141",175.30402,78.975815,91.54602
"13142",175.31744,78.95628,91.494484
"13143",175.33075,78.93431,91.439896
"13144",175.34406,78.91478,91.38706
"13145",175.35748,78.887924,91.326294
"13146",175.37079,78.86107,91.26469
"13147",175.3841,78.82689,91.194916
"13148",175.3974,78.79515,91.12652
"13149",175.4107,78.77318,91.066895
"13150",175.42413,78.77074,91.026115
"13151",175.43744,78.81224,91.029205
"13152",175.45074,78.922104,91.10195
"13153",175.46417,79.12474,91.270905
"13154",175.47748,79.42748,91.546295
"13155",175.49078,79.818115,91.91904
"13156",175.50409,80.25269,92.34793
"13157",175.5174,80.68238,92.785515
"13158",175.53082,81.05104,93.1755
"13159",175.54413,81.3196,93.476906
"13160",175.55743,81.47097,93.66951
"13161",175.57086,81.51736,93.76186
"13162",175.58417,81.480736,93.77266
"13163",175.59747,81.392845,93.73104
"13164",175.61078,81.28542,93.667145
"13165",175.62408,81.17555,93.59744
"13166",175.63751,81.08034,93.53896
"13167",175.65082,81.00221,93.4946
"13168",175.66412,80.938736,93.46244
"13169",175.67755,80.8777,93.43074
"13170",175.69086,80.81178,93.39225
"13171",175.70416,80.73609,93.34193
"13172",175.71747,80.6482,93.27704
"13173",175.73077,80.56275,93.211845
"13174",175.7442,80.48707,93.15375
"13175",175.7575,80.42603,93.10793
"13176",175.77081,80.38209,93.0773
"13177",175.78424,80.35523,93.062386
"13178",175.79755,80.33814,93.0564
"13179",175.81085,80.31617,93.04499
"13180",175.82416,80.291756,93.03046
"13181",175.83746,80.257576,93.005394
"13182",175.85089,80.2063,92.962166
"13183",175.8642,80.14038,92.902695
"13184",175.8775,80.05737,92.82407
"13185",175.89093,79.96216,92.73065
"13186",175.90424,79.86206,92.62937
"13187",175.91754,79.75464,92.51764
"13188",175.93085,79.64721,92.40254
"13189",175.94415,79.54467,92.28898
"13190",175.95758,79.44457,92.17465
"13191",175.97089,79.34936,92.06208
"13192",175.98419,79.259026,91.951416
"13193",175.99762,79.17845,91.84769
"13194",176.01093,79.10765,91.75121
"13195",176.02423,79.046616,91.66229
"13196",176.03754,78.99046,91.57635
"13197",176.05084,78.94408,91.49841
"13198",176.06427,78.907455,91.428795
"13199",176.07758,78.87816,91.36536
"13200",176.09088,78.856186,91.30833
"13201",176.10431,78.82933,91.24573
"13202",176.11761,78.802475,91.18229
"13203",176.13092,78.77562,91.11801
"13204",176.14423,78.746315,91.050446
"13205",176.15753,78.72434,90.989296
"13206",176.17096,78.72678,90.95187
"13207",176.18427,78.77318,90.95848
"13208",176.19757,78.89281,91.03977
"13209",176.211,79.10277,91.21513
"13210",176.2243,79.41772,91.502045
"13211",176.23761,79.82788,91.89401
"13212",176.25092,80.28687,92.347626
"13213",176.26422,80.743416,92.81313
"13214",176.27765,81.146255,93.239204
"13215",176.29095,81.449,93.57777
"13216",176.30426,81.636986,93.811035
"13217",176.31769,81.71511,93.940315
"13218",176.331,81.705345,93.984146
"13219",176.3443,81.63943,93.97152
"13220",176.3576,81.54665,93.92998
"13221",176.37091,81.45144,93.883095
"13222",176.38434,81.36599,93.843
"13223",176.39764,81.30251,93.82221
"13224",176.41095,81.25613,93.81653
"13225",176.42438,81.22194,93.821594
"13226",176.43768,81.18288,93.82072
"13227",176.45099,81.126724,93.80153
"13228",176.4643,81.05348,93.7635
"13229",176.4776,80.955826,93.69876
"13230",176.49103,80.83864,93.61144
"13231",176.50433,80.723885,93.522896
"13232",176.51764,80.61646,93.438095
"13233",176.53107,80.52613,93.36703
"13234",176.54437,80.45777,93.31511
"13235",176.55768,80.40162,93.27326
"13236",176.57098,80.35523,93.239426
"13237",176.58429,80.30152,93.196815
"13238",176.59772,80.24048,93.145195
"13239",176.61102,80.16724,93.07947
"13240",176.62433,80.08423,93.001686
"13241",176.63776,79.991455,92.911545
"13242",176.65106,79.8938,92.81362
"13243",176.66437,79.78882,92.70532
"13244",176.67767,79.68383,92.593735
"13245",176.69098,79.57885,92.478874
"13246",176.7044,79.47875,92.365616
"13247",176.71771,79.37621,92.24679
"13248",176.73102,79.27856,92.12964
"13249",176.74445,79.185776,92.01431
"13250",176.75775,79.10033,91.90342
"13251",176.77106,79.01732,91.7923
"13252",176.78436,78.94408,91.68835
"13253",176.79767,78.87816,91.58943
"13254",176.8111,78.82201,91.49822
"13255",176.8244,78.77562,91.41502
"13256",176.8377,78.73899,91.34013
"13257",176.85114,78.712135,91.27387
"13258",176.86444,78.69016,91.211655
"13259",176.87775,78.675514,91.156075
"13260",176.89105,78.658424,91.097595
"13261",176.90436,78.641335,91.03858
"13262",176.91779,78.6218,90.97659
"13263",176.93109,78.60227,90.913994
"13264",176.9444,78.57786,90.8459
"13265",176.95782,78.551,90.774605
"13266",176.97113,78.536354,90.714676
"13267",176.98444,78.551,90.683586
"13268",176.99774,78.63157,90.71887
"13269",177.01105,78.8098,90.85434
"13270",177.02448,79.10765,91.115
"13271",177.03778,79.51049,91.48995
"13272",177.05109,79.98901,91.95318
"13273",177.06451,80.49439,92.45821
"13274",177.07782,80.953384,92.932655
"13275",177.09113,81.324486,93.33355
"13276",177.10443,81.58083,93.63129
"13277",177.11774,81.71999,93.81985
"13278",177.13116,81.75906,93.91267
"13279",177.14447,81.72488,93.93345
"13280",177.15778,81.64919,93.91167
"13281",177.1712,81.55642,93.87043
"13282",177.18451,81.47341,93.83606
"13283",177.19781,81.41238,93.82107
"13284",177.21112,81.373314,93.82614
"13285",177.22443,81.35378,93.849525
"13286",177.23785,81.339134,93.87718
"13287",177.25116,81.31472,93.894615
"13288",177.26447,81.26101,93.88199
"13289",177.2779,81.180435,93.84082
"13290",177.2912,81.07301,93.77029
"13291",177.3045,80.9485,93.679306
"13292",177.31781,80.81911,93.57955
"13293",177.33112,80.69947,93.48551
"13294",177.34454,80.59449,93.40239
"13295",177.35785,80.50904,93.33552
"13296",177.37115,80.43824,93.280624
"13297",177.38458,80.37476,93.23084
"13298",177.39789,80.31373,93.18152
"13299",177.4112,80.25025,93.127846
"13300",177.4245,80.177,93.062416
"13301",177.4378,80.096436,92.98738
"13302",177.45123,80.0061,92.90006
"13303",177.46454,79.91089,92.80504
"13304",177.47784,79.80835,92.699715
"13305",177.49127,79.70336,92.58874
"13306",177.50458,79.5935,92.469604
"13307",177.51788,79.48119,92.3446
"13308",177.53119,79.37621,92.223404
"13309",177.5445,79.281,92.108696
"13310",177.55792,79.19554,92.00077
"13311",177.57123,79.11742,91.89751
"13312",177.58453,79.046616,91.799126
"13313",177.59796,78.98314,91.70586
"13314",177.61127,78.91722,91.60816
"13315",177.62457,78.853745,91.51085
"13316",177.63788,78.802475,91.42376
"13317",177.65118,78.75609,91.33995
"13318",177.66461,78.71702,91.26201
"13319",177.67792,78.69016,91.19506
"13320",177.69122,78.67063,91.1346
"13321",177.70465,78.6511,91.073524
"13322",177.71796,78.63401,91.01428
"13323",177.73126,78.61448,90.952065
"13324",177.74457,78.59495,90.88924
"13325",177.75787,78.572975,90.82336
"13326",177.7713,78.551,90.75679
"13327",177.7846,78.52659,90.687096
"13328",177.79791,78.502174,90.61664
"13329",177.81134,78.4802,90.54786
"13330",177.82465,78.4802,90.50037
"13331",177.83795,78.53391,90.506584
"13332",177.85126,78.67307,90.59993
"13333",177.86456,78.922104,90.807495
"13334",177.87799,79.28832,91.14003
"13335",177.8913,79.74731,91.576775
"13336",177.9046,80.25025,92.07182
"13337",177.91803,80.73365,92.56304
"13338",177.93134,81.143814,92.99613
"13339",177.94464,81.444115,93.33218
"13340",177.95795,81.62722,93.56041
"13341",177.97125,81.7029,93.68694
"13342",177.98468,81.69314,93.73039
"13343",177.99799,81.636986,93.72715
"13344",178.01129,81.55154,93.692856
"13345",178.02472,81.46609,93.65589
"13346",178.03802,81.39773,93.63335
"13347",178.05133,81.3489,93.6282
"13348",178.06464,81.31716,93.63861
"13349",178.07794,81.290306,93.652916
"13350",178.09137,81.253685,93.65662
"13351",178.10468,81.197525,93.63963
"13352",178.11798,81.12184,93.60137
"13353",178.13141,81.024185,93.53877
"13354",178.14471,80.91188,93.45847
"13355",178.15802,80.797134,93.37222
"13356",178.17133,80.69215,93.292145
"13357",178.18463,80.59937,93.221
"13358",178.19806,80.51881,93.159164
"13359",178.21136,80.45289,93.10946
"13360",178.22467,80.394295,93.06502
"13361",178.2381,80.34058,93.02363
"13362",178.2514,80.28199,92.97568
"13363",178.26471,80.22095,92.92345
"13364",178.27802,80.15015,92.85955
"13365",178.29132,80.06714,92.781235
"13366",178.30475,79.96948,92.68568
"13367",178.31805,79.86206,92.5773
"13368",178.33136,79.74975,92.46068
"13369",178.34479,79.64233,92.345436
"13370",178.3581,79.537346,92.22928
"13371",178.3714,79.43969,92.117165
"13372",178.3847,79.34692,92.00688
"13373",178.39801,79.259026,91.89858
"13374",178.41144,79.17601,91.79241
"13375",178.42474,79.10277,91.69342
"13376",178.43805,79.03929,91.601906
"13377",178.45148,78.98802,91.520615
"13378",178.46478,78.94408,91.445045
"13379",178.47809,78.90257,91.370544
"13380",178.4914,78.856186,91.28986
"13381",178.5047,78.80736,91.20529
"13382",178.51813,78.75853,91.119194
"13383",178.53143,78.71946,91.04133
"13384",178.54474,78.69016,90.972015
"13385",178.55817,78.67307,90.913994
"13386",178.57147,78.66331,90.86276
"13387",178.58478,78.65598,90.81367
"13388",178.59808,78.64622,90.7619
"13389",178.61139,78.63157,90.70495
"13390",178.62482,78.61692,90.64754
"13391",178.63812,78.59739,90.584785
"13392",178.65143,78.57786,90.52142
"13393",178.66486,78.555885,90.45501
"13394",178.67816,78.54124,90.39523
"13395",178.69147,78.553444,90.361855
"13396",178.70477,78.6218,90.38501
"13397",178.71808,78.77074,90.490875
"13398",178.7315,79.029526,90.71125
"13399",178.74481,79.3933,91.0447
"13400",178.75812,79.84253,91.47497
"13401",178.77155,80.32838,91.955894
"13402",178.78485,80.79225,92.43003
"13403",178.79816,81.18288,92.84541
"13404",178.81146,81.46853,93.16803
"13405",178.82477,81.636986,93.38238
"13406",178.8382,81.69558,93.49213
"13407",178.8515,81.66628,93.515816
"13408",178.8648,81.58572,93.48732
"13409",178.87823,81.478294,93.42945
"13410",178.89154,81.36843,93.36578
"13411",178.90485,81.27566,93.31577
"13412",178.91815,81.214615,93.29459
"13413",178.93146,81.17311,93.291046
"13414",178.94489,81.13893,93.293526
"13415",178.95819,81.09987,93.290054
"13416",178.9715,81.04372,93.26827
"13417",178.98492,80.96559,93.22276
"13418",178.99823,80.87526,93.162605
"13419",179.01154,80.78493,93.099625
"13420",179.02484,80.70435,93.04358
"13421",179.03815,80.635994,92.99723
"13422",179.05157,80.5774,92.95851
"13423",179.06488,80.52613,92.925285
"13424",179.07819,80.4773,92.8929
"13425",179.09161,80.42603,92.856544
"13426",179.10492,80.36988,92.813705
"13427",179.11823,80.308846,92.76423
"13428",179.13153,80.24536,92.710396
"13429",179.14484,80.17456,92.64726
"13430",179.15826,80.096436,92.57459
"13431",179.17157,80.0061,92.487274
"13432",179.18488,79.91089,92.39225
"13433",179.1983,79.81079,92.28937
"13434",179.21161,79.710686,92.18335
"13435",179.22491,79.60815,92.07177
"13436",179.23822,79.51049,91.96187
"13437",179.25153,79.41772,91.8538
"13438",179.26495,79.327385,91.74527
"13439",179.27826,79.24681,91.64368
"13440",179.29156,79.17845,91.55178
"13441",179.305,79.11742,91.46507
"13442",179.3183,79.061264,91.38134
"13443",179.3316,79.01488,91.30562
"13444",179.34491,78.975815,91.23577
"13445",179.35822,78.93919,91.167145
"13446",179.37164,78.907455,91.10226
"13447",179.38495,78.8806,91.04126
"13448",179.39825,78.86107,90.98675
"13449",179.41168,78.84642,90.93651
"13450",179.42499,78.82933,90.88337
"13451",179.4383,78.81468,90.83214
"13452",179.4516,78.802475,90.78289
"13453",179.4649,78.78294,90.72594
"13454",179.47833,78.76097,90.66593
"13455",179.49164,78.73655,90.60279
"13456",179.50494,78.709694,90.53645
"13457",179.51837,78.68528,90.47172
"13458",179.53168,78.66819,90.41354
"13459",179.54498,78.6804,90.38413
"13460",179.55829,78.75609,90.41859
"13461",179.5716,78.922104,90.54573
"13462",179.58502,79.19066,90.7806
"13463",179.59833,79.56664,91.131294
"13464",179.61163,80.01343,91.56454
"13465",179.62506,80.482185,92.033714
"13466",179.63837,80.90944,92.476036
"13467",179.65167,81.25124,92.84626
"13468",179.66498,81.48318,93.117294
"13469",179.67828,81.600365,93.28083
"13470",179.69171,81.619896,93.35037
"13471",179.70502,81.56863,93.349724
"13472",179.71832,81.47097,93.30109
"13473",179.73175,81.35134,93.227425
"13474",179.74506,81.234146,93.15246
"13475",179.75836,81.129166,93.086044
"13476",179.77167,81.04616,93.03832
"13477",179.78497,80.9778,93.002655
"13478",179.7984,80.92409,92.9795
"13479",179.8117,80.86549,92.94978
"13480",179.82501,80.80202,92.91335
"13481",179.83844,80.73609,92.87249
"13482",179.85175,80.66773,92.82713
"13483",179.86505,80.604256,92.78452
"13484",179.87836,80.550545,92.749695
"13485",179.89166,80.51148,92.72784
"13486",179.90509,80.479744,92.71208
"13487",179.9184,80.45777,92.7051
"13488",179.9317,80.44068,92.70232
"13489",179.94513,80.42359,92.699
"13490",179.95844,80.39185,92.6805
"13491",179.97174,80.34791,92.648796
"13492",179.98505,80.291756,92.603516
"13493",179.99835,80.216064,92.53694
"13494",180.01178,80.12573,92.45336
"13495",180.02509,80.03296,92.36452
"13496",180.03839,79.93286,92.26545
"13497",180.05182,79.835205,92.165695
"13498",180.06512,79.742424,92.067764
"13499",180.07843,79.65942,91.97671
"13500",180.09174,79.58373,91.89038
"13501",180.10504,79.51049,91.80413
"13502",180.11847,79.43969,91.71803
"13503",180.13177,79.37621,91.63705
"13504",180.14508,79.31518,91.55652
"13505",180.15851,79.259026,91.478966
"13506",180.17181,79.21263,91.40942
"13507",180.18512,79.17357,91.34575
"13508",180.19843,79.13939,91.28574
"13509",180.21173,79.11009,91.22955
"13510",180.22516,79.08568,91.17733
"13511",180.23846,79.061264,91.124344
"13512",180.25177,79.03685,91.070595
"13513",180.2652,79.009995,91.01364
"13514",180.2785,78.98314,90.95585
"13515",180.29181,78.95384,90.894775
"13516",180.30511,78.93187,90.84011
"13517",180.31842,78.93919,90.81406
"13518",180.33185,79.00023,90.84194
"13519",180.34515,79.14671,90.957184
"13520",180.35846,79.3933,91.17711
"13521",180.37189,79.7351,91.49995
"13522",180.3852,80.13794,91.89451
"13523",180.3985,80.56031,92.32119
"13524",180.4118,80.94606,92.72445
"13525",180.42511,81.25124,93.0592
"13526",180.43854,81.45388,93.300934
"13527",180.45184,81.549095,93.44158
"13528",180.46515,81.55398,93.49487
"13529",180.47858,81.48318,93.47263
"13530",180.49188,81.36843,93.404236
"13531",180.50519,81.234146,93.31271
"13532",180.5185,81.10475,93.221886
"13533",180.5318,80.99245,93.144104
"13534",180.54523,80.902115,93.084785
"13535",180.55853,80.82643,93.03729
"13536",180.57184,80.75807,92.99476
"13537",180.58527,80.689705,92.95008
"13538",180.59857,80.61158,92.89351
"13539",180.61188,80.5359,92.83694
"13540",180.62518,80.465096,92.78288
"13541",180.63849,80.40894,92.741264
"13542",180.65192,80.37232,92.71742
"13543",180.66522,80.35767,92.71441
"13544",180.67853,80.35767,92.725586
"13545",180.69196,80.360115,92.739204
"13546",180.70526,80.360115,92.75046
"13547",180.71857,80.35523,92.75683
"13548",180.73187,80.32838,92.74107
"13549",180.74518,80.28199,92.70495
"13550",180.7586,80.216064,92.647835
"13551",180.77191,80.1355,92.57402
"13552",180.78522,80.04028,92.48304
"13553",180.79865,79.940186,92.3842
"13554",180.81195,79.84009,92.282234
"13555",180.82526,79.742424,92.17957
"13556",180.83856,79.65209,92.08119
"13557",180.85187,79.5642,91.98243
"13558",180.8653,79.48608,91.890686
"13559",180.8786,79.41772,91.80627
"13560",180.8919,79.35912,91.72948
"13561",180.90533,79.30541,91.65574
"13562",180.91864,79.259026,91.58765
"13563",180.93195,79.217514,91.52298
"13564",180.94525,79.18089,91.46191
"13565",180.95856,79.149155,91.40457
"13566",180.97198,79.1223,91.35113
"13567",180.98529,79.097885,91.299286
"13568",180.9986,79.07103,91.24424
"13569",181.01202,79.046616,91.190796
"13570",181.02533,79.03441,91.148796
"13571",181.03864,79.05394,91.13815
"13572",181.05194,79.12962,91.18427
"13573",181.06525,79.293205,91.320656
"13574",181.07867,79.55688,91.56224
"13575",181.09198,79.91333,91.90485
"13576",181.10529,80.325935,92.31474
"13577",181.11871,80.7483,92.74729
"13578",181.13202,81.126724,93.1491
"13579",181.14532,81.42214,93.47973
"13580",181.15863,81.61013,93.71216
"13581",181.17194,81.6907,93.84304
"13582",181.18536,81.67361,93.878784
"13583",181.19867,81.58816,93.845634
"13584",181.21198,81.461205,93.76831
"13585",181.2254,81.3196,93.67237
"13586",181.23871,81.18776,93.581764
"13587",181.25201,81.08278,93.5139
"13588",181.26532,80.99733,93.46229
"13589",181.27863,80.92653,93.42265
"13590",181.29205,80.86305,93.38813
"13591",181.30536,80.797134,93.34918
"13592",181.31866,80.723885,93.30084
"13593",181.33209,80.64332,93.2429
"13594",181.3454,80.56275,93.182434
"13595",181.3587,80.49195,93.12922
"13596",181.37201,80.4358,93.08844
"13597",181.38531,80.396736,93.062996
"13598",181.39874,80.377205,93.05586
"13599",181.41205,80.36744,93.057884
"13600",181.42535,80.360115,93.06204
"13601",181.43878,80.34058,93.053764
"13602",181.45209,80.308846,93.03267
"13603",181.4654,80.26002,92.99349
"13604",181.4787,80.19165,92.93325
"13605",181.492,80.111084,92.85867
"13606",181.50543,80.02075,92.77181
"13607",181.51874,79.920654,92.67236
"13608",181.53204,79.82056,92.569786
"13609",181.54547,79.72289,92.466515
"13610",181.55878,79.62524,92.3602
"13611",181.57208,79.53246,92.255714
"13612",181.58539,79.44457,92.15321
"13613",181.5987,79.364006,92.05529
"13614",181.61212,79.290764,91.96217
"13615",181.62543,79.22484,91.874084
"13616",181.63873,79.17113,91.79615
"13617",181.65216,79.12474,91.72386
"13618",181.66547,79.08568,91.65745
"13619",181.67877,79.05394,91.59714
"13620",181.69208,79.027084,91.54072
"13621",181.70538,79.00267,91.4859
"13622",181.71881,78.992905,91.44497
"13623",181.73212,79.01976,91.44035
"13624",181.74542,79.114975,91.50494
"13625",181.75885,79.31274,91.67504
"13626",181.77216,79.61791,91.95874
"13627",181.78546,80.01831,92.3472
"13628",181.79877,80.47486,92.80432
"13629",181.81207,80.92897,93.27327
"13630",181.8255,81.3196,93.69293
"13631",181.8388,81.61013,94.0247
"13632",181.85211,81.78348,94.24836
"13633",181.86554,81.84451,94.36513
"13634",181.87885,81.81766,94.39591
"13635",181.89215,81.73708,94.37214
"13636",181.90546,81.62722,94.31656
"13637",181.91876,81.514915,94.255104
"13638",181.93219,81.41482,94.20235
"13639",181.9455,81.33425,94.16599
"13640",181.9588,81.27566,94.14909
"13641",181.97223,81.234146,94.147446
"13642",181.98553,81.1902,94.14207
"13643",181.99884,81.13405,94.12311
"13644",182.01215,81.05348,94.07798
"13645",182.02545,80.95094,94.00836
"13646",182.03888,80.831314,93.91845
"13647",182.05219,80.71168,93.82479
"13648",182.06549,80.60914,93.74449
"13649",182.07892,80.52369,93.67808
"13650",182.09222,80.46021,93.63097
"13651",182.10553,80.40894,93.59408
"13652",182.11884,80.36256,93.56047
"13653",182.13214,80.31861,93.527855
"13654",182.14557,80.26734,93.48654
"13655",182.15887,80.20874,93.436295
"13656",182.17218,80.14038,93.37446
"13657",182.18561,80.05737,93.29584
"13658",182.19891,79.957275,93.19753
"13659",182.21222,79.852295,93.09122
"13660",182.22552,79.73998,92.97429
"13661",182.23883,79.63012,92.8563
"13662",182.25226,79.52514,92.73976
"13663",182.26556,79.429924,92.62971
"13664",182.27887,79.33959,92.52156
"13665",182.2923,79.25414,92.415474
"13666",182.3056,79.17845,92.316475
"13667",182.31891,79.11009,92.22244
"13668",182.33221,79.046616,92.13116
"13669",182.34552,78.98802,92.04277
"13670",182.35895,78.93919,91.96232
"13671",182.37225,78.89525,91.88522
"13672",182.38556,78.84642,91.80187
"13673",182.39899,78.802475,91.72188
"13674",182.4123,78.765854,91.647835
"13675",182.4256,78.751205,91.59462
"13676",182.4389,78.77806,91.58245
"13677",182.45221,78.88304,91.64925
"13678",182.46564,79.097885,91.829185
"13679",182.47894,79.41772,92.12083
"13680",182.49225,79.83765,92.52256
"13681",182.50568,80.31129,92.99113
"13682",182.51898,80.782486,93.47205
"13683",182.53229,81.18776,93.90178
"13684",182.5456,81.495384,94.24652
"13685",182.5589,81.68337,94.48124
"13686",182.57233,81.76395,94.61442
"13687",182.58563,81.75174,94.65733
"13688",182.59894,81.688255,94.64859
"13689",182.61237,81.600365,94.61346
"13690",182.62567,81.51736,94.58046
"13691",182.63898,81.449,94.55952
"13692",182.65228,81.40505,94.56085
"13693",182.66559,81.375755,94.57546
"13694",182.67902,81.3489,94.5916
"13695",182.69232,81.31228,94.59713
"13696",182.70563,81.253685,94.579544
"13697",182.71906,81.16579,94.53082
"13698",182.73236,81.05104,94.45251
"13699",182.74567,80.919205,94.353516
"13700",182.75897,80.780045,94.24308
"13701",182.77228,80.64576,94.13317
"13702",182.7857,80.53101,94.038605
"13703",182.79901,80.43824,93.962425
"13704",182.81232,80.36256,93.90044
"13705",182.82574,80.29908,93.84829
"13706",182.83905,80.24048,93.799034
"13707",182.85236,80.17944,93.745514
"13708",182.86566,80.1062,93.67788
"13709",182.87897,80.02319,93.59819
"13710",182.8924,79.93042,93.50614
"13711",182.9057,79.82788,93.40143
"13712",182.919,79.72045,93.28862
"13713",182.93243,79.61059,93.17002
"13714",182.94574,79.49828,93.04555
"13715",182.95905,79.38842,92.920006
"13716",182.97235,79.28344,92.79591
"13717",182.98566,79.185776,92.67586
"13718",182.99908,79.09544,92.56008
"13719",183.01239,79.01732,92.45369
"13720",183.0257,78.94408,92.34974
"13721",183.03912,78.87816,92.250824
"13722",183.05243,78.81468,92.15229
"13723",183.06573,78.75853,92.0591
"13724",183.07904,78.712135,91.97391
"13725",183.09235,78.675514,91.89704
"13726",183.10577,78.64622,91.826355
"13727",183.11908,78.624245,91.76208
"13728",183.13239,78.607155,91.701996
"13729",183.14581,78.58762,91.63894
"13730",183.15912,78.56321,91.57039
"13731",183.17242,78.536354,91.498634
"13732",183.18573,78.51682,91.433365
"13733",183.19904,78.52415,91.39434
"13734",183.21246,78.59983,91.423904
"13735",183.22577,78.77562,91.55594
"13736",183.23907,79.06859,91.810646
"13737",183.2525,79.47875,92.1917
"13738",183.26581,79.96948,92.666145
"13739",183.27911,80.47242,93.16813
"13740",183.29242,80.92409,93.63456
"13741",183.30573,81.27566,94.01501
"13742",183.31915,81.50759,94.286804
"13743",183.33246,81.619896,94.44622
"13744",183.34576,81.63943,94.51637
"13745",183.35919,81.60525,94.533424
"13746",183.3725,81.54665,94.524994
"13747",183.3858,81.48806,94.51473
"13748",183.39911,81.446556,94.51973
"13749",183.41241,81.42458,94.54296
"13750",183.42584,81.4197,94.582596
"13751",183.43915,81.41482,94.62208
"13752",183.45245,81.392845,94.64432
"13753",183.46588,81.33669,94.63169
"13754",183.47919,81.24635,94.58312
"13755",183.4925,81.12428,94.5
"13756",183.5058,80.98512,94.39597
"13757",183.5191,80.84352,94.28516
"13758",183.53253,80.709236,94.17723
"13759",183.54584,80.58961,94.079765
"13760",183.55914,80.48463,93.99321
"13761",183.57257,80.39918,93.922905
"13762",183.58588,80.33082,93.86702
"13763",183.59918,80.274666,93.821205
"13764",183.61249,80.218506,93.77363
"13765",183.6258,80.15747,93.71942
"13766",183.63922,80.08179,93.64866
"13767",183.65253,79.9939,93.563324
"13768",183.66583,79.8938,93.463036
"13769",183.67926,79.78638,93.352295
"13770",183.69257,79.67162,93.230865
"13771",183.70587,79.55932,93.1083
"13772",183.71918,79.44213,92.97734
"13773",183.73248,79.327385,92.84516
"13774",183.74591,79.219955,92.71671
"13775",183.75922,79.11986,92.59224
"13776",183.77252,79.027084,92.47196
"13777",183.78595,78.94652,92.36099
"13778",183.79926,78.873276,92.25483
"13779",183.81256,78.81712,92.16347
"13780",183.82587,78.765854,92.07523
"13781",183.83917,78.7219,91.992714
"13782",183.8526,78.6804,91.91127
"13783",183.8659,78.643776,91.83341
"13784",183.87921,78.60471,91.75197
"13785",183.89264,78.56809,91.671745
"13786",183.90594,78.53391,91.59282
"13787",183.91925,78.502174,91.51527
"13788",183.93256,78.467995,91.43428
"13789",183.94586,78.433815,91.35223
"13790",183.95929,78.40696,91.27643
"13791",183.9726,78.397194,91.21688
"13792",183.9859,78.43626,91.20586
"13793",183.99933,78.551,91.271736
"13794",184.01263,78.77318,91.44863
"13795",184.02594,79.11253,91.74965
"13796",184.03925,79.54467,92.15405
"13797",184.05255,80.028076,92.62323
"13798",184.06598,80.50416,93.10019
"13799",184.07928,80.907,93.51878
"13800",184.09259,81.20485,93.84498
"13801",184.10602,81.38796,94.06574
"13802",184.11932,81.47097,94.19212
"13803",184.13263,81.47097,94.23809
"13804",184.14594,81.42458,94.23767
"13805",184.15924,81.36355,94.22115
"13806",184.17267,81.30007,94.20029
"13807",184.18597,81.25124,94.192085
"13808",184.19928,81.2195,94.19944
"13809",184.2127,81.19997,94.21802
"13810",184.22601,81.17555,94.2311
"13811",184.23932,81.129166,94.22145
"13812",184.25262,81.05592,94.183495
"13813",184.26593,80.953384,94.11395
"13814",184.27936,80.82155,94.01191
"13815",184.29266,80.68482,93.900856
"13816",184.30597,80.55543,93.79286
"13817",184.3194,80.44312,93.697914
"13818",184.3327,80.35279,93.62143
"13819",184.34601,80.28687,93.566536
"13820",184.35931,80.235596,93.52422
"13821",184.37262,80.19165,93.48764
"13822",184.38605,80.147705,93.449684
"13823",184.39935,80.096436,93.40303
"13824",184.41266,80.0354,93.34501
"13825",184.42609,79.957275,93.26799
"13826",184.43939,79.869385,93.178764
"13827",184.4527,79.766846,93.07214
"13828",184.466,79.65942,92.95743
"13829",184.47931,79.551994,92.83936
"13830",184.49274,79.44213,92.7155
"13831",184.50604,79.33959,92.59553
"13832",184.51935,79.23949,92.474785
"13833",184.53278,79.149155,92.36069
"13834",184.54608,79.063705,92.24865
"13835",184.55939,78.98802,92.14371
"13836",184.5727,78.922104,92.046165
"13837",184.586,78.870834,91.96121
"13838",184.59943,78.82933,91.88442
"13839",184.61273,78.79271,91.81122
"13840",184.62604,78.75853,91.73931
"13841",184.63947,78.73167,91.67365
"13842",184.65277,78.69993,91.60228
"13843",184.66608,78.67063,91.53236
"13844",184.67938,78.643776,91.46396
"13845",184.69269,78.6218,91.399605
"13846",184.70612,78.60227,91.337006
"13847",184.71942,78.58274,91.273796
"13848",184.73273,78.56321,91.20998
"13849",184.74615,78.538795,91.14066
"13850",184.75946,78.51194,91.068146
"13851",184.77277,78.48997,90.99967
"13852",184.78607,78.49729,90.95981
"13853",184.79938,78.57053,90.98609
"13854",184.8128,78.73655,91.10744
"13855",184.82611,79.01488,91.34628
"13856",184.83942,79.40551,91.70613
"13857",184.85284,79.869385,92.15143
"13858",184.86615,80.35035,92.62831
"13859",184.87946,80.78493,93.07384
"13860",184.89276,81.12428,93.43772
"13861",184.90607,81.341576,93.69015
"13862",184.9195,81.44167,93.83217
"13863",184.9328,81.446556,93.8821
"13864",184.9461,81.38552,93.86627
"13865",184.95953,81.29519,93.81924
"13866",184.97284,81.20241,93.76693
"13867",184.98615,81.1194,93.7215
"13868",184.99945,81.058365,93.69544
"13869",185.01276,81.00954,93.67969
"13870",185.02618,80.96315,93.66485
"13871",185.03949,80.90456,93.63635
"13872",185.0528,80.82643,93.586494
"13873",185.06622,80.72877,93.514656
"13874",185.07953,80.62379,93.43245
"13875",185.09283,80.52369,93.351845
"13876",185.10614,80.44068,93.2852
"13877",185.11945,80.37965,93.23794
"13878",185.13287,80.33814,93.2083
"13879",185.14618,80.31373,93.19445
"13880",185.15948,80.2942,93.18472
"13881",185.17291,80.272224,93.17194
"13882",185.18622,80.24292,93.151146
"13883",185.19952,80.198975,93.11479
"13884",185.21283,80.13794,93.059975
"13885",185.22614,80.05737,92.98372
"13886",185.23956,79.9646,92.89274
"13887",185.25287,79.86206,92.78909
"13888",185.26617,79.75708,92.6798
"13889",185.2796,79.64721,92.56234
"13890",185.29291,79.54223,92.446335
"13891",185.30621,79.44213,92.33193
"13892",185.31952,79.3518,92.22417
"13893",185.33282,79.26635,92.11846
"13894",185.34625,79.19066,92.019844
"13895",185.35956,79.12718,91.931076
"13896",185.37286,79.06615,91.842766
"13897",185.38629,79.009995,91.75743
"13898",185.3996,78.95628,91.67278
"13899",185.4129,78.91478,91.59866
"13900",185.42621,78.88304,91.53301
"13901",185.43951,78.86107,91.476135
"13902",185.45294,78.84886,91.42834
"13903",185.46625,78.836655,91.38016
"13904",185.47955,78.82445,91.3316
"13905",185.49298,78.80492,91.27533
"13906",185.50629,78.77806,91.21113
"13907",185.51959,78.74876,91.14364
"13908",185.5329,78.71702,91.0728
"13909",185.5462,78.692604,91.00829
"13910",185.55963,78.692604,90.96744
"13911",185.57294,78.74876,90.982735
"13912",185.58624,78.890366,91.08524
"13913",185.59967,79.14183,91.30203
"13914",185.61298,79.49828,91.63167
"13915",185.62628,79.93042,92.04813
"13916",185.63959,80.38697,92.5025
"13917",185.6529,80.816666,92.94429
"13918",185.66632,81.15602,93.309166
"13919",185.67963,81.38796,93.57723
"13920",185.69293,81.50759,93.740234
"13921",185.70636,81.52224,93.801994
"13922",185.71967,81.463646,93.79097
"13923",185.73297,81.36355,93.73661
"13924",185.74628,81.25124,93.666916
"13925",185.75958,81.15114,93.60591
"13926",185.77301,81.07057,93.56132
"13927",185.78632,81.01198,93.53618
"13928",185.79962,80.96071,93.51653
"13929",185.81305,80.907,93.49284
"13930",185.82635,80.831314,93.4455
"13931",185.83966,80.73853,93.3787
"13932",185.85297,80.62867,93.291916
"13933",185.86627,80.52125,93.20414
"13934",185.8797,80.42359,93.12277
"13935",185.893,80.35279,93.06521
"13936",185.90631,80.308846,93.03229
"13937",185.91974,80.291756,93.02485
"13938",185.93304,80.27955,93.02176
"13939",185.94635,80.2649,93.01585
"13940",185.95966,80.24048,92.9997
"13941",185.97296,80.198975,92.96571
"13942",185.98639,80.1355,92.908455
"13943",185.9997,80.05737,92.834564
"13944",186.013,79.96948,92.74847
"13945",186.02643,79.871826,92.64986
"13946",186.03973,79.76929,92.54331
"13947",186.05304,79.65942,92.42623
"13948",186.06635,79.54955,92.305725
"13949",186.07965,79.449455,92.19155
"13950",186.09308,79.35424,92.07913
"13951",186.10638,79.26391,91.96862
"13952",186.11969,79.18822,91.86993
"13953",186.13312,79.12474,91.78108
"13954",186.14642,79.07103,91.70002
"13955",186.15973,79.02464,91.6246
"13956",186.17303,78.98558,91.55506
"13957",186.18634,78.9514,91.48918
"13958",186.19977,78.91966,91.424675
"13959",186.21307,78.89281,91.36406
"13960",186.22638,78.86839,91.305046
"13961",186.2398,78.84642,91.24771
"13962",186.25311,78.82445,91.18969
"13963",186.26642,78.80003,91.12854
"13964",186.27972,78.77318,91.064186
"13965",186.29303,78.74387,90.996544
"13966",186.30646,78.71946,90.93288
"13967",186.31976,78.71946,90.89286
"13968",186.33307,78.765854,90.89924
"13969",186.3465,78.89769,90.99251
"13970",186.3598,79.13695,91.19732
"13971",186.37311,79.49096,91.52436
"13972",186.38641,79.937744,91.95524
"13973",186.39972,80.42359,92.43914
"13974",186.41315,80.89235,92.921135
"13975",186.42645,81.28298,93.33965
"13976",186.43976,81.55886,93.655624
"13977",186.45319,81.71511,93.86059
"13978",186.46649,81.75906,93.95814
"13979",186.4798,81.71999,93.97404
"13980",186.4931,81.634544,93.94234
"13981",186.50641,81.53445,93.89332
"13982",186.51984,81.43923,93.846054
"13983",186.53314,81.36843,93.82023
"13984",186.54645,81.322044,93.816605
"13985",186.55988,81.290306,93.82618
"13986",186.57318,81.25857,93.83476
"13987",186.58649,81.21217,93.8277
"13988",186.5998,81.13893,93.792336
"13989",186.6131,81.03883,93.72783
"13990",186.62653,80.91432,93.63578
"13991",186.63983,80.78981,93.53984
"13992",186.65314,80.67017,93.444885
"13993",186.66656,80.57252,93.36817
"13994",186.67987,80.49439,93.30794
"13995",186.69318,80.430916,93.25991
"13996",186.70648,80.377205,93.219666
"13997",186.71979,80.323494,93.17774
"13998",186.73322,80.2649,93.12926
"13999",186.74652,80.198975,93.07161
"14000",186.75983,80.12573,93.004585
"14001",186.77325,80.042725,92.92551
"14002",186.78656,79.95239,92.83651
"14003",186.79987,79.852295,92.734924
"14004",186.81317,79.74731,92.62532
"14005",186.82648,79.64233,92.51244
"14006",186.8399,79.54223,92.40117
"14007",186.85321,79.44457,92.28921
"14008",186.86652,79.3518,92.17908
"14009",186.87994,79.26391,92.07093
"14010",186.89325,79.18089,91.96491
"14011",186.90656,79.10033,91.85875
"14012",186.91986,79.029526,91.759834
"14013",186.93317,78.96361,91.66359
"14014",186.9466,78.905014,91.57261
"14015",186.9599,78.85863,91.492004
"14016",186.9732,78.819565,91.417274
"14017",186.98663,78.785385,91.34621
"14018",186.99994,78.75609,91.27895
"14019",187.01324,78.72678,91.21078
"14020",187.02655,78.70481,91.14902
"14021",187.03986,78.68284,91.08657
"14022",187.05328,78.66331,91.02588
"14023",187.06659,78.643776,90.96458
"14024",187.0799,78.624245,90.902664
"14025",187.09332,78.59739,90.83282
"14026",187.10663,78.572975,90.76457
"14027",187.11993,78.553444,90.70045
"14028",187.13324,78.551,90.6528
"14029",187.14655,78.58762,90.64414
"14030",187.15997,78.695045,90.70743
"14031",187.17328,78.90257,90.874176
"14032",187.18658,79.22972,91.16703
"14033",187.20001,79.66918,91.58242
"14034",187.21332,80.177,92.0799
"14035",187.22662,80.69215,92.60058
"14036",187.23993,81.146255,93.07632
"14037",187.25323,81.495384,93.461266
"14038",187.26666,81.71511,93.72772
"14039",187.27997,81.8201,93.88631
"14040",187.29327,81.82742,93.95051
"14041",187.3067,81.77615,93.956345
"14042",187.32,81.69314,93.92883
"14043",187.33331,81.60769,93.89629
"14044",187.34662,81.54177,93.880615
"14045",187.35992,81.495384,93.88241
"14046",187.37335,81.47341,93.907166
"14047",187.38666,81.463646,93.94344
"14048",187.39996,81.446556,93.97209
"14049",187.41339,81.40749,93.97823
"14050",187.4267,81.33669,93.951416
"14051",187.44,81.22926,93.88576
"14052",187.45331,81.092545,93.78745
"14053",187.46661,80.94362,93.67267
"14054",187.48004,80.80202,93.560555
"14055",187.49335,80.6775,93.4611
"14056",187.50665,80.57496,93.37973
"14057",187.52008,80.49683,93.31957
"14058",187.53339,80.430916,93.26918
"14059",187.54669,80.37476,93.226494
"14060",187.56,80.31617,93.17961
"14061",187.5733,80.2478,93.121124
"14062",187.58673,80.16724,93.0483
"14063",187.60004,80.076904,92.963196
"14064",187.61334,79.974365,92.86306
"14065",187.62677,79.86206,92.749954
"14066",187.64008,79.7522,92.63578
"14067",187.65338,79.64233,92.518166
"14068",187.66669,79.53246,92.397125
"14069",187.68,79.429924,92.279976
"14070",187.69342,79.33471,92.16695
"14071",187.70673,79.23949,92.050934
"14072",187.72003,79.149155,91.93684
"14073",187.73346,79.06615,91.82724
"14074",187.74677,78.99046,91.722374
"14075",187.76007,78.922104,91.62247
"14076",187.77338,78.86107,91.52775
"14077",187.78668,78.8098,91.44089
"14078",187.80011,78.765854,91.35975
"14079",187.81342,78.72678,91.28211
"14080",187.82672,78.692604,91.208145
"14081",187.84015,78.66819,91.142876
"14082",187.85345,78.64866,91.081726
"14083",187.86676,78.63401,91.02485
"14084",187.88007,78.6218,90.969955
"14085",187.89337,78.607155,90.91224
"14086",187.9068,78.58274,90.8443
"14087",187.9201,78.56077,90.77804
"14088",187.93341,78.53391,90.70621
"14089",187.94684,78.51194,90.63842
"14090",187.96014,78.49241,90.57239
"14091",187.97345,78.47776,90.51063
"14092",187.98676,78.46311,90.44841
"14093",188.00006,78.44114,90.37841
"14094",188.01349,78.41917,90.307724
"14095",188.0268,78.4094,90.24856
"14096",188.0401,78.433815,90.22327
"14097",188.05353,78.52415,90.264656
"14098",188.06683,78.71702,90.41141
"14099",188.08014,79.03197,90.686264
"14100",188.09344,79.466545,91.09059
"14101",188.10675,79.98413,91.59151
"14102",188.12018,80.533455,92.140335
"14103",188.13348,81.04372,92.66727
"14104",188.14679,81.45876,93.11493
"14105",188.16022,81.74929,93.45104
"14106",188.17352,81.91043,93.66685
"14107",188.18683,81.96414,93.78026
"14108",188.20013,81.934845,93.81234
"14109",188.21344,81.8616,93.79956
"14110",188.22687,81.77615,93.772285
"14111",188.24017,81.69802,93.74966
"14112",188.25348,81.64431,93.74901
"14113",188.2669,81.61257,93.768654
"14114",188.28021,81.59548,93.801956
"14115",188.29352,81.58572,93.84205
"14116",188.30682,81.5613,93.86719
"14117",188.32013,81.51003,93.86471
"14118",188.33356,81.427025,93.82889
"14119",188.34686,81.31716,93.76362
"14120",188.36017,81.18776,93.67538
"14121",188.3736,81.05104,93.575775
"14122",188.3869,80.921646,93.479225
"14123",188.4002,80.81178,93.39816
"14124",188.41351,80.72144,93.33319
"14125",188.42682,80.64332,93.27761
"14126",188.44025,80.5774,93.2318
"14127",188.45355,80.51392,93.18636
"14128",188.46686,80.45045,93.13895
"14129",188.48029,80.377205,93.07978
"14130",188.49359,80.29908,93.01344
"14131",188.5069,80.20874,92.93245
"14132",188.5202,80.1062,92.83643
"14133",188.53351,79.99634,92.72989
"14134",188.54694,79.88159,92.61503
"14135",188.56024,79.764404,92.49414
"14136",188.57355,79.64965,92.372025
"14137",188.58698,79.53979,92.25121
"14138",188.60028,79.43725,92.13429
"14139",188.61359,79.34203,92.02149
"14140",188.62689,79.25414,91.91304
"14141",188.6402,79.166245,91.801834
"14142",188.65363,79.08568,91.69521
"14143",188.66693,79.01488,91.59584
"14144",188.68024,78.94896,91.49914
"14145",188.69366,78.89525,91.41258
"14146",188.70697,78.8513,91.334114
"14147",188.72028,78.81224,91.259155
"14148",188.73358,78.7805,91.1903
"14149",188.74689,78.74387,91.11556
"14150",188.76031,78.712135,91.04457
"14151",188.77362,78.68528,90.97747
"14152",188.78693,78.66331,90.91441
"14153",188.80035,78.643776,90.85311
"14154",188.81366,78.62913,90.79608
"14155",188.82697,78.61448,90.738594
"14156",188.84027,78.59495,90.675766
"14157",188.85358,78.57786,90.61477
"14158",188.867,78.56321,90.55568
"14159",188.88031,78.54368,90.49125
"14160",188.89362,78.52659,90.42865
"14161",188.90704,78.504616,90.360634
"14162",188.92035,78.485085,90.29437
"14163",188.93365,78.46311,90.22506
"14164",188.94696,78.450905,90.164825
"14165",188.96027,78.45823,90.12374
"14166",188.9737,78.5095,90.12683
"14167",188.987,78.64622,90.21697
"14168",189.0003,78.90013,90.42858
"14169",189.01373,79.27123,90.76531
"14170",189.02704,79.744865,91.21617
"14171",189.04034,80.274666,91.738
"14172",189.05365,80.79469,92.26661
"14173",189.06696,81.23903,92.73578
"14174",189.08038,81.57351,93.10898
"14175",189.09369,81.78104,93.36568
"14176",189.107,81.866486,93.50678
"14177",189.12042,81.85184,93.55046
"14178",189.13373,81.77127,93.52776
"14179",189.14703,81.6614,93.47324
"14180",189.16034,81.54421,93.407974
"14181",189.17365,81.449,93.361015
"14182",189.18707,81.3782,93.335495
"14183",189.20038,81.33181,93.33218
"14184",189.21368,81.30251,93.3445
"14185",189.22711,81.2781,93.36079
"14186",189.24042,81.23659,93.359215
"14187",189.25372,81.17799,93.339264
"14188",189.26703,81.09743,93.29551
"14189",189.28033,80.99977,93.23215
"14190",189.29376,80.89479,93.15841
"14191",189.30707,80.797134,93.088715
"14192",189.32037,80.71168,93.02817
"14193",189.3338,80.64088,92.97961
"14194",189.3471,80.57984,92.9386
"14195",189.36041,80.52857,92.90545
"14196",189.37372,80.48463,92.87802
"14197",189.38702,80.43824,92.84678
"14198",189.40045,80.38453,92.80676
"14199",189.41376,80.31861,92.75286
"14200",189.42706,80.24048,92.684685
"14201",189.44049,80.15015,92.60187
"14202",189.4538,80.05249,92.5089
"14203",189.4671,79.94995,92.408005
"14204",189.48041,79.84741,92.3039
"14205",189.49371,79.73998,92.1917
"14206",189.50714,79.635,92.0786
"14207",189.52045,79.534904,91.967094
"14208",189.53375,79.44457,91.86223
"14209",189.54718,79.364006,91.764305
"14210",189.56049,79.293205,91.67363
"14211",189.57379,79.22728,91.58562
"14212",189.5871,79.168686,91.50288
"14213",189.6004,79.11253,91.420746
"14214",189.61383,79.063705,91.344185
"14215",189.62714,79.01732,91.26854
"14216",189.64044,78.97826,91.19877
"14217",189.65387,78.94652,91.1351
"14218",189.66718,78.922104,91.07777
"14219",189.68048,78.905014,91.02699
"14220",189.69379,78.89525,90.98301
"14221",189.70709,78.88548,90.93872
"14222",189.72052,78.873276,90.891685
"14223",189.73383,78.856186,90.839386
"14224",189.74713,78.83421,90.78167
"14225",189.76056,78.802475,90.7135
"14226",189.77386,78.76097,90.634575
"14227",189.78717,78.71946,90.554344
"14228",189.80048,78.69016,90.48503
"14229",189.81378,78.69749,90.45142
"14230",189.82721,78.77318,90.48641
"14231",189.84052,78.94896,90.623856
"14232",189.85382,79.237045,90.8791
"14233",189.86725,79.635,91.25321
"14234",189.88055,80.10376,91.71056
"14235",189.89386,80.58228,92.19233
"14236",189.90717,81.01198,92.64022
"14237",189.92047,81.34402,93.00388
"14238",189.9339,81.55154,93.2534
"14239",189.9472,81.636986,93.38734
"14240",189.96051,81.619896,93.4214
"14241",189.97394,81.53445,93.38657
"14242",189.98724,81.41238,93.312454
"14243",190.00055,81.28054,93.224754
"14244",190.01385,81.15358,93.13781
"14245",190.02716,81.04616,93.06644
"14246",190.04059,80.96315,93.01612
"14247",190.0539,80.89235,92.97542
"14248",190.0672,80.831314,92.94227
"14249",190.08063,80.76784,92.90477
"14250",190.09393,80.70191,92.86284
"14251",190.10724,80.62623,92.80909
"14252",190.12054,80.550545,92.752975
"14253",190.13385,80.48463,92.70426
"14254",190.14728,80.43336,92.66814
"14255",190.16058,80.40162,92.64994
"14256",190.17389,80.38209,92.64296
"14257",190.18732,80.36744,92.64025
"14258",190.20062,80.34791,92.6322
"14259",190.21393,80.32105,92.61622
"14260",190.22723,80.27711,92.582306
"14261",190.24054,80.22339,92.53725
"14262",190.25397,80.15503,92.47587
"14263",190.26727,80.076904,92.40259
"14264",190.28058,79.991455,92.31954
"14265",190.294,79.89868,92.2265
"14266",190.30731,79.801025,92.12568
"14267",190.32062,79.7058,92.02424
"14268",190.33392,79.61303,91.92227
"14269",190.34723,79.5227,91.81985
"14270",190.36066,79.43969,91.721924
"14271",190.37396,79.361565,91.62629
"14272",190.38727,79.28832,91.5331
"14273",190.4007,79.22484,91.44737
"14274",190.414,79.17601,91.37432
"14275",190.4273,79.13451,91.30707
"14276",190.44061,79.097885,91.2434
"14277",190.45392,79.061264,91.17859
"14278",190.46735,79.029526,91.117516
"14279",190.48065,78.99779,91.05545
"14280",190.49396,78.97337,90.99972
"14281",190.50739,78.95628,90.95055
"14282",190.52069,78.94652,90.908165
"14283",190.534,78.93675,90.86548
"14284",190.5473,78.91722,90.81272
"14285",190.56061,78.890366,90.75203
"14286",190.57404,78.86107,90.68806
"14287",190.58734,78.84398,90.635376
"14288",190.60065,78.85863,90.6139
"14289",190.61407,78.93919,90.6588
"14290",190.62738,79.11742,90.80387
"14291",190.64069,79.40551,91.064384
"14292",190.65399,79.798584,91.43888
"14293",190.6673,80.26246,91.89646
"14294",190.68073,80.74586,92.38806
"14295",190.69403,81.18532,92.85083
"14296",190.70734,81.532005,93.23456
"14297",190.72076,81.76395,93.51437
"14298",190.73407,81.87137,93.67692
"14299",190.74738,81.87381,93.73784
"14300",190.76068,81.80301,93.72559
"14301",190.77399,81.69558,93.67451
"14302",190.78741,81.57351,93.60542
"14303",190.80072,81.461205,93.54229
"14304",190.81403,81.37087,93.49762
"14305",190.82745,81.307396,93.47698
"14306",190.84076,81.26101,93.47145
"14307",190.85406,81.22194,93.47179
"14308",190.86737,81.17311,93.46114
"14309",190.88068,81.10719,93.431885
"14310",190.8941,81.024185,93.38348
"14311",190.90741,80.92653,93.317825
"14312",190.92072,80.82399,93.24424
"14313",190.93414,80.73121,93.17721
"14314",190.94745,80.655525,93.124374
"14315",190.96075,80.59937,93.08871
"14316",190.97406,80.550545,93.05861
"14317",190.98737,80.50904,93.03431
"14318",191.0008,80.46754,93.00871
"14319",191.0141,80.413826,92.96961
"14320",191.0274,80.34547,92.914185
"14321",191.04083,80.272224,92.85174
"14322",191.05414,80.18921,92.77723
"14323",191.06744,80.10132,92.69525
"14324",191.08075,80.008545,92.605644
"14325",191.09406,79.91333,92.5107
"14326",191.10748,79.815674,92.41033
"14327",191.12079,79.71557,92.30447
"14328",191.1341,79.62035,92.20036
"14329",191.14752,79.53002,92.09817
"14330",191.16083,79.44457,91.99803
"14331",191.17413,79.364006,91.90011
"14332",191.18744,79.290764,91.80699
"14333",191.20074,79.22484,91.7189
"14334",191.21417,79.166245,91.636086
"14335",191.22748,79.11253,91.55632
"14336",191.24078,79.061264,91.47732
"14337",191.25421,79.0222,91.40892
"14338",191.26752,78.995346,91.35151
"14339",191.28082,78.97337,91.29814
"14340",191.29413,78.95384,91.24653
"14341",191.30743,78.93675,91.19675
"14342",191.32086,78.91234,91.13911
"14343",191.33417,78.8806,91.07338
"14344",191.34747,78.84886,91.00666
"14345",191.3609,78.81224,90.93407
"14346",191.3742,78.79271,90.87742
"14347",191.38751,78.80736,90.85434
"14348",191.40082,78.89525,90.90496
"14349",191.41412,79.08568,91.06087
"14350",191.42755,79.398186,91.3448
"14351",191.44086,79.818115,91.745926
"14352",191.45416,80.30152,92.22365
"14353",191.46759,80.78981,92.72136
"14354",191.4809,81.22194,93.17817
"14355",191.4942,81.55398,93.54839
"14356",191.5075,81.76395,93.80692
"14357",191.52081,81.85916,93.95726
"14358",191.53424,81.85916,94.01536
"14359",191.54755,81.79813,94.01242
"14360",191.56085,81.70046,93.97095
"14361",191.57428,81.59548,93.919106
"14362",191.58759,81.4905,93.86398
"14363",191.60089,81.40749,93.82755
"14364",191.6142,81.34402,93.80806
"14365",191.6275,81.29519,93.80123
"14366",191.64093,81.24391,93.79043
"14367",191.65424,81.18776,93.77315
"14368",191.66754,81.11452,93.73702
"14369",191.68097,81.0193,93.676636
"14370",191.69427,80.91676,93.60595
"14371",191.70758,80.814224,93.53206
"14372",191.72089,80.719,93.46228
"14373",191.73419,80.63355,93.3993
"14374",191.74762,80.56031,93.345856
"14375",191.76093,80.499275,93.30233
"14376",191.77423,80.448006,93.26666
"14377",191.78766,80.39918,93.231834
"14378",191.80096,80.34791,93.19304
"14379",191.81427,80.2942,93.1502
"14380",191.82758,80.23071,93.09591
"14381",191.84088,80.15503,93.027435
"14382",191.85431,80.062256,92.93951
"14383",191.86761,79.95972,92.83891
"14384",191.88092,79.84741,92.72535
"14385",191.89435,79.73022,92.603386
"14386",191.90765,79.61303,92.47777
"14387",191.92096,79.50805,92.360695
"14388",191.93427,79.41039,92.247665
"14389",191.94757,79.3225,92.14135
"14390",191.961,79.234604,92.03228
"14391",191.9743,79.15404,91.927795
"14392",191.98761,79.078354,91.825676
"14393",192.00104,79.012436,91.73096
"14394",192.01434,78.958725,91.646385
"14395",192.02765,78.91966,91.57478
"14396",192.04095,78.88548,91.50684
"14397",192.05426,78.853745,91.44028
"14398",192.06769,78.82689,91.3776
"14399",192.081,78.80003,91.31409
"14400",192.0943,78.77562,91.252174
"14401",192.10773,78.75609,91.19438
"14402",192.12103,78.73655,91.13597
"14403",192.13434,78.71458,91.07452
"14404",192.14764,78.692604,91.012375
"14405",192.16095,78.68528,90.964195
"14406",192.17438,78.7219,90.95973
"14407",192.18768,78.83421,91.032104
"14408",192.20099,79.05394,91.2154
"14409",192.21442,79.38598,91.517876
"14410",192.22772,79.815674,91.92838
"14411",192.24103,80.291756,92.398705
"14412",192.25433,80.76051,92.87658
"14413",192.26764,81.15846,93.298294
"14414",192.28107,81.449,93.62503
"14415",192.29437,81.619896,93.84121
"14416",192.30768,81.67849,93.950424
"14417",192.3211,81.64675,93.97114
"14418",192.33441,81.55642,93.93227
"14419",192.34772,81.44167,93.86616
"14420",192.36102,81.32693,93.79646
"14421",192.37433,81.22682,93.73782
"14422",192.38776,81.1487,93.69804
"14423",192.40106,81.094986,93.68022
"14424",192.41437,81.05104,93.670494
"14425",192.4278,81.00221,93.65451
"14426",192.4411,80.936295,93.61991
"14427",192.4544,80.85329,93.56616
"14428",192.46771,80.75319,93.49273
"14429",192.48102,80.65064,93.41372
"14430",192.49445,80.55543,93.33884
"14431",192.50775,80.4773,93.27807
"14432",192.52106,80.42115,93.23683
"14433",192.53448,80.38453,93.21337
"14434",192.54779,80.360115,93.20097
"14435",192.5611,80.3357,93.18781
"14436",192.5744,80.308846,93.17145
"14437",192.5877,80.26734,93.139595
"14438",192.60114,80.21118,93.09179
"14439",192.61444,80.13794,93.02515
"14440",192.62775,80.04761,92.939125
"14441",192.64117,79.94751,92.840515
"14442",192.65448,79.84497,92.736336
"14443",192.66779,79.73754,92.62406
"14444",192.68109,79.63256,92.51088
"14445",192.6944,79.534904,92.40174
"14446",192.70782,79.44457,92.296875
"14447",192.72113,79.364006,92.19895
"14448",192.73444,79.28832,92.10339
"14449",192.74786,79.217514,92.010345
"14450",192.76117,79.15648,91.92486
"14451",192.77448,79.10033,91.84235
"14452",192.78778,79.04906,91.76296
"14453",192.80109,79.00511,91.6893
"14454",192.81451,78.97093,91.62403
"14455",192.82782,78.941635,91.56258
"14456",192.84113,78.91478,91.50265
"14457",192.85455,78.890366,91.44432
"14458",192.86786,78.86107,91.38035
"14459",192.88116,78.83421,91.3179
"14460",192.89447,78.81712,91.26438
"14461",192.90778,78.83421,91.24451
"14462",192.9212,78.91234,91.2862
"14463",192.93451,79.08812,91.42799
"14464",192.94781,79.37377,91.68515
"14465",192.96124,79.75708,92.04889
"14466",192.97455,80.201416,92.485634
"14467",192.98785,80.65064,92.941154
"14468",193.00116,81.041275,93.35212
"14469",193.01447,81.32937,93.67275
"14470",193.0279,81.50027,93.88519
"14471",193.0412,81.55398,93.98579
"14472",193.0545,81.512474,93.99284
"14473",193.06793,81.41238,93.94001
"14474",193.08124,81.28298,93.85475
"14475",193.09454,81.143814,93.75568
"14476",193.10785,81.02174,93.66935
"14477",193.12115,80.921646,93.60118
"14478",193.13458,80.84108,93.549416
"14479",193.14789,80.765396,93.500015
"14480",193.1612,80.689705,93.44824
"14481",193.17462,80.61158,93.39167
"14482",193.18793,80.53101,93.330215
"14483",193.20123,80.448006,93.2638
"14484",193.21454,80.37965,93.20944
"14485",193.22784,80.32838,93.17004
"14486",193.24127,80.291756,93.14368
"14487",193.25458,80.26978,93.13082
"14488",193.26788,80.26002,93.129486
"14489",193.28131,80.2478,93.1254
"14490",193.29462,80.22827,93.11361
"14491",193.30792,80.201416,93.09389
"14492",193.32123,80.15747,93.05624
"14493",193.33453,80.096436,93.00012
"14494",193.34796,80.02075,92.92745
"14495",193.36127,79.93042,92.83777
"14496",193.37457,79.83276,92.73794
"14497",193.388,79.73266,92.63261
"14498",193.4013,79.63256,92.524155
"14499",193.41461,79.53002,92.41013
"14500",193.42792,79.43481,92.30023
"14501",193.44122,79.34936,92.19712
"14502",193.45465,79.27123,92.09866
"14503",193.46796,79.202866,92.00752
"14504",193.48126,79.149155,91.9289
"14505",193.49469,79.10033,91.853485
"14506",193.508,79.063705,91.78875
"14507",193.5213,79.029526,91.72531
"14508",193.5346,78.99779,91.663246
"14509",193.54791,78.96605,91.60019
"14510",193.56134,78.92943,91.53126
"14511",193.57465,78.89281,91.46118
"14512",193.58795,78.86351,91.397285
"14513",193.60138,78.85863,91.35689
"14514",193.61469,78.9099,91.37249
"14515",193.62799,79.0515,91.48003
"14516",193.6413,79.30053,91.69942
"14517",193.6546,79.656975,92.034004
"14518",193.66803,80.096436,92.462746
"14519",193.68134,80.56275,92.932076
"14520",193.69464,80.99489,93.3818
"14521",193.70807,81.3489,93.7669
"14522",193.72137,81.58572,94.04587
"14523",193.73468,81.705345,94.21505
"14524",193.74799,81.71755,94.28055
"14525",193.76129,81.651634,94.2683
"14526",193.77472,81.53689,94.20517
"14527",193.78802,81.40505,94.12136
"14528",193.80133,81.28298,94.0432
"14529",193.81476,81.18532,93.98563
"14530",193.82806,81.11696,93.95431
"14531",193.84137,81.06569,93.93794
"14532",193.85468,81.01686,93.92242
"14533",193.86798,80.95094,93.888275
"14534",193.88141,80.867935,93.834984
"14535",193.89471,80.76784,93.76201
"14536",193.90802,80.66285,93.681015
"14537",193.92145,80.56519,93.60407
"14538",193.93475,80.48951,93.54605
"14539",193.94806,80.43336,93.505196
"14540",193.96136,80.38941,93.47479
"14541",193.97467,80.35523,93.45278
"14542",193.9881,80.33082,93.43947
"14543",194.0014,80.29908,93.41807
"14544",194.01471,80.26002,93.38835
"14545",194.02814,80.198975,93.335434
"14546",194.04144,80.12329,93.26597
"14547",194.05475,80.025635,93.172165
"14548",194.06805,79.920654,93.067986
"14549",194.08136,79.80835,92.9532
"14550",194.09479,79.69848,92.83734
"14551",194.1081,79.5935,92.72294
"14552",194.1214,79.49584,92.61258
"14553",194.13483,79.40307,92.50405
"14554",194.14813,79.31518,92.39751
"14555",194.16144,79.234604,92.29553
"14556",194.17474,79.16136,92.19837
"14557",194.18805,79.09544,92.10625
"14558",194.20148,79.03685,92.01939
"14559",194.21478,78.98558,91.93802
"14560",194.22809,78.941635,91.86237
"14561",194.24152,78.905014,91.79268
"14562",194.25482,78.87816,91.731606
"14563",194.26813,78.853745,91.672134
"14564",194.28143,78.82445,91.60702
"14565",194.29474,78.79271,91.53854
"14566",194.30817,78.76341,91.47152
"14567",194.32147,78.74876,91.41822
"14568",194.33478,78.7805,91.410866
"14569",194.3482,78.890366,91.48262
"14570",194.36151,79.10765,91.66523
"14571",194.37482,79.44457,91.974266
"14572",194.38812,79.87671,92.389046
"14573",194.40143,80.36256,92.87104
"14574",194.41486,80.84596,93.365776
"14575",194.42816,81.26101,93.80726
"14576",194.44147,81.56863,94.15428
"14577",194.4549,81.75418,94.388855
"14578",194.4682,81.82254,94.51203
"14579",194.4815,81.81033,94.55678
"14580",194.49481,81.75174,94.554756
"14581",194.50812,81.671165,94.52892
"14582",194.52155,81.59548,94.50546
"14583",194.53485,81.53689,94.49673
"14584",194.54816,81.495384,94.50325
"14585",194.56158,81.461205,94.5158
"14586",194.57489,81.42458,94.52484
"14587",194.5882,81.373314,94.51809
"14588",194.6015,81.30007,94.48776
"14589",194.6148,81.19997,94.42828
"14590",194.62823,81.075455,94.34127
"14591",194.64154,80.936295,94.23572
"14592",194.65485,80.80202,94.1307
"14593",194.66827,80.68238,94.036125
"14594",194.68158,80.584724,93.95979
"14595",194.69489,80.51148,93.90482
"14596",194.70819,80.45289,93.86221
"14597",194.7215,80.40406,93.82754
"14598",194.73492,80.34791,93.78401
"14599",194.74823,80.28687,93.73385
"14600",194.76154,80.21118,93.66712
"14601",194.77496,80.12085,93.58339
"14602",194.78827,80.01343,93.479744
"14603",194.80157,79.89624,93.362976
"14604",194.81488,79.77173,93.23522
"14605",194.82819,79.64965,93.10601
"14606",194.84161,79.537346,92.98276
"14607",194.85492,79.432365,92.86332
"14608",194.86823,79.33715,92.75037
"14609",194.88165,79.24437,92.63687
"14610",194.89496,79.15648,92.52537
"14611",194.90826,79.07347,92.416
"14612",194.92157,78.995346,92.30892
"14613",194.93488,78.924545,92.206726
"14614",194.9483,78.86839,92.11697
"14615",194.96161,78.82201,92.03522
"14616",194.97491,78.78294,91.95934
"14617",194.98834,78.751205,91.88957
"14618",195.00165,78.72434,91.823685
"14619",195.01495,78.69993,91.75941
"14620",195.02826,78.675514,91.69437
"14621",195.04156,78.6511,91.62856
"14622",195.055,78.624245,91.559555
"14623",195.0683,78.590065,91.48238
"14624",195.0816,78.56077,91.40903
"14625",195.09503,78.54856,91.351845
"14626",195.10834,78.57542,91.33334
"14627",195.12164,78.68284,91.39625
"14628",195.13495,78.90013,91.57238
"14629",195.14825,79.234604,91.87248
"14630",195.16168,79.67162,92.28558
"14631",195.17499,80.164795,92.76849
"14632",195.1883,80.65064,93.25949
"14633",195.20172,81.07057,93.69975
"14634",195.21503,81.38796,94.0506
"14635",195.22833,81.5906,94.29661
"14636",195.24164,81.69314,94.44885
"14637",195.25494,81.71267,94.52129
"14638",195.26837,81.67605,94.53819
"14639",195.28168,81.61257,94.52709
"14640",195.29498,81.54177,94.50668
"14641",195.30841,81.480736,94.49383
"14642",195.32172,81.43435,94.49371
"14643",195.33502,81.40261,94.5068
"14644",195.34833,81.3782,94.526215
"14645",195.36163,81.339134,94.53022
"14646",195.37506,81.270775,94.50371
"14647",195.38837,81.17311,94.445755
"14648",195.40167,81.04616,94.35546
"14649",195.4151,80.902115,94.24411
"14650",195.4284,80.75807,94.12826
"14651",195.44171,80.63111,94.02499
"14652",195.45502,80.51881,93.9324
"14653",195.46832,80.430916,93.860725
"14654",195.48175,80.35523,93.79851
"14655",195.49506,80.291756,93.74613
"14656",195.50836,80.23071,93.69421
"14657",195.52179,80.17212,93.64282
"14658",195.5351,80.1062,93.58228
"14659",195.5484,80.028076,93.50748
"14660",195.5617,79.937744,93.41802
"14661",195.57501,79.83276,93.3111
"14662",195.58844,79.71557,93.188675
"14663",195.60175,79.59594,93.06016
"14664",195.61505,79.47387,92.92546
"14665",195.62848,79.35912,92.79427
"14666",195.64178,79.2517,92.666824
"14667",195.65509,79.151596,92.543335
"14668",195.6684,79.063705,92.42893
"14669",195.6817,78.98314,92.31911
"14670",195.69513,78.907455,92.21165
"14671",195.70844,78.839096,92.109146
"14672",195.72174,78.77806,92.01183
"14673",195.73517,78.7219,91.91749
"14674",195.74847,78.67307,91.82872
"14675",195.76178,78.63889,91.753075
"14676",195.77509,78.61204,91.683685
"14677",195.78839,78.59495,91.62322
"14678",195.80182,78.5803,91.56467
"14679",195.81512,78.56321,91.50321
"14680",195.82843,78.54612,91.44122
"14681",195.84186,78.52415,91.37382
"14682",195.85516,78.49973,91.30328
"14683",195.86847,78.470436,91.227104
"14684",195.88177,78.44358,91.15245
"14685",195.89508,78.41184,91.072075
"14686",195.90851,78.380104,90.99071
"14687",195.92181,78.3679,90.92788
"14688",195.93512,78.399635,90.908615
"14689",195.94855,78.5095,90.96847
"14690",195.96185,78.73167,91.14406
"14691",195.97516,79.078354,91.45111
"14692",195.98846,79.52758,91.87154
"14693",196.00177,80.045166,92.37436
"14694",196.0152,80.56031,92.890915
"14695",196.0285,81.007095,93.35521
"14696",196.04181,81.341576,93.72116
"14697",196.05524,81.54665,93.96816
"14698",196.06854,81.62966,94.0995
"14699",196.08185,81.62234,94.143105
"14700",196.09515,81.55886,94.130325
"14701",196.10846,81.47341,94.09359
"14702",196.12189,81.3904,94.056625
"14703",196.1352,81.32937,94.03904
"14704",196.1485,81.287865,94.03908
"14705",196.16193,81.26101,94.05247
"14706",196.17523,81.23659,94.06745
"14707",196.18854,81.19508,94.06459
"14708",196.20184,81.126724,94.03358
"14709",196.21515,81.02907,93.97113
"14710",196.22858,80.90944,93.88366
"14711",196.24188,80.780045,93.782684
"14712",196.25519,80.66041,93.68742
"14713",196.26862,80.56031,93.60796
"14714",196.28192,80.48707,93.55223
"14715",196.29523,80.430916,93.5113
"14716",196.30853,80.38697,93.48082
"14717",196.32184,80.34547,93.45141
"14718",196.33527,80.29908,93.41582
"14719",196.34857,80.23804,93.36412
"14720",196.36188,80.16724,93.30076
"14721",196.3753,80.08667,93.22542
"14722",196.38861,79.99634,93.137794
"14723",196.40192,79.8938,93.03514
"14724",196.41522,79.783936,92.92196
"14725",196.42853,79.67162,92.802895
"14726",196.44196,79.55932,92.68033
"14727",196.45526,79.45434,92.56158
"14728",196.46857,79.35912,92.44931
"14729",196.482,79.27123,92.34139
"14730",196.4953,79.1931,92.240486
"14731",196.5086,79.12474,92.14691
"14732",196.52191,79.05882,92.05364
"14733",196.53522,78.99779,91.963196
"14734",196.54865,78.94408,91.87817
"14735",196.56195,78.89525,91.79634
"14736",196.57526,78.853745,91.720314
"14737",196.58868,78.819565,91.650314
"14738",196.60199,78.79271,91.58657
"14739",196.6153,78.77074,91.52687
"14740",196.6286,78.74876,91.46648
"14741",196.6419,78.73167,91.410286
"14742",196.65533,78.71702,91.356
"14743",196.66864,78.695045,91.29394
"14744",196.68195,78.67307,91.231186
"14745",196.69537,78.64622,91.162865
"14746",196.70868,78.6096,91.08394
"14747",196.72198,78.57053,91.00143
"14748",196.73529,78.54124,90.92746
"14749",196.7486,78.54612,90.88676
"14750",196.76202,78.61936,90.914566
"14751",196.77533,78.79759,91.04965
"14752",196.78864,79.09544,91.30993
"14753",196.80206,79.50805,91.69427
"14754",196.81537,79.99634,92.16718
"14755",196.82867,80.499275,92.670006
"14756",196.84198,80.953384,93.13972
"14757",196.85529,81.30007,93.5162
"14758",196.86871,81.512474,93.769226
"14759",196.88202,81.59792,93.90194
"14760",196.89532,81.57839,93.93234
"14761",196.90875,81.497826,93.9011
"14762",196.92206,81.392845,93.842926
"14763",196.93536,81.290306,93.78391
"14764",196.94867,81.20973,93.74366
"14765",196.96198,81.1487,93.72043
"14766",196.9754,81.10231,93.70994
"14767",196.98871,81.058365,93.70044
"14768",197.00201,81.004654,93.6798
"14769",197.01544,80.92653,93.63307
"14770",197.02875,80.82887,93.56437
"14771",197.04205,80.719,93.4804
"14772",197.05536,80.61158,93.39545
"14773",197.06866,80.516365,93.31934
"14774",197.08209,80.44312,93.26224
"14775",197.0954,80.38941,93.222374
"14776",197.1087,80.35279,93.19792
"14777",197.12213,80.33082,93.18697
"14778",197.13544,80.30396,93.170456
"14779",197.14874,80.26978,93.145775
"14780",197.16205,80.218506,93.10293
"14781",197.17535,80.15015,93.0414
"14782",197.18878,80.06714,92.96308
"14783",197.20209,79.974365,92.872406
"14784",197.2154,79.87427,92.77151
"14785",197.22882,79.766846,92.66016
"14786",197.24213,79.656975,92.543
"14787",197.25543,79.54711,92.42242
"14788",197.26874,79.43725,92.2984
"14789",197.28204,79.344475,92.18804
"14790",197.29547,79.26147,92.08455
"14791",197.30878,79.18822,91.98822
"14792",197.32208,79.12718,91.90182
"14793",197.33551,79.06859,91.81595
"14794",197.34882,79.012436,91.73069
"14795",197.36212,78.96117,91.64856
"14796",197.37543,78.91478,91.56971
"14797",197.38873,78.873276,91.49429
"14798",197.40216,78.839096,91.424904
"14799",197.41547,78.81468,91.36421
"14800",197.42877,78.79515,91.30764
"14801",197.4422,78.77806,91.2529
"14802",197.4555,78.75853,91.19518
"14803",197.46881,78.74387,91.14173
"14804",197.48212,78.729225,91.08783
"14805",197.49542,78.712135,91.03103
"14806",197.50885,78.692604,90.97125
"14807",197.52216,78.67063,90.908424
"14808",197.53546,78.6511,90.84735
"14809",197.54889,78.64622,90.800316
"14810",197.5622,78.68528,90.79707
"14811",197.5755,78.80736,90.87807
"14812",197.5888,79.03929,91.07273
"14813",197.60211,79.3933,91.39672
"14814",197.61554,79.84985,91.83431
"14815",197.62885,80.365,92.344765
"14816",197.64215,80.87282,92.86399
"14817",197.65558,81.304955,93.3234
"14818",197.66888,81.62234,93.681564
"14819",197.68219,81.80789,93.917816
"14820",197.6955,81.87625,94.04267
"14821",197.7088,81.85672,94.08177
"14822",197.72223,81.78836,94.071434
"14823",197.73553,81.70046,94.03942
"14824",197.74884,81.619896,94.01199
"14825",197.76227,81.5613,94.00402
"14826",197.77557,81.52468,94.01619
"14827",197.78888,81.50027,94.03942
"14828",197.80219,81.478294,94.06433
"14829",197.81549,81.43679,94.06902
"14830",197.82892,81.36843,94.04556
"14831",197.84222,81.26589,93.98579
"14832",197.85553,81.14137,93.900826
"14833",197.86896,81.00221,93.79733
"14834",197.88226,80.87282,93.69926
"14835",197.89557,80.75563,93.609344
"14836",197.90887,80.65797,93.53529
"14837",197.92218,80.57496,93.47285
"14838",197.93561,80.51148,93.42734
"14839",197.94891,80.45289,93.38473
"14840",197.96222,80.396736,93.34273
"14841",197.97565,80.33326,93.29165
"14842",197.98895,80.2649,93.2337
"14843",198.00226,80.181885,93.158966
"14844",198.01556,80.08179,93.06455
"14845",198.02887,79.96948,92.9548
"14846",198.0423,79.85474,92.8391
"14847",198.0556,79.7351,92.71493
"14848",198.06891,79.61547,92.58702
"14849",198.08234,79.500725,92.46026
"14850",198.09564,79.395744,92.339676
"14851",198.10895,79.30053,92.22558
"14852",198.12225,79.21507,92.11826
"14853",198.13556,79.13695,92.01561
"14854",198.14899,79.06615,91.91784
"14855",198.1623,79.00267,91.82518
"14856",198.1756,78.941635,91.73298
"14857",198.18903,78.8806,91.63887
"14858",198.20233,78.83177,91.55506
"14859",198.21564,78.79027,91.47705
"14860",198.22894,78.75365,91.402626
"14861",198.24225,78.7219,91.33193
"14862",198.25568,78.695045,91.26514
"14863",198.26898,78.675514,91.20483
"14864",198.28229,78.65598,91.143906
"14865",198.29572,78.63401,91.07993
"14866",198.30902,78.61936,91.0226
"14867",198.32233,78.59983,90.95992
"14868",198.33563,78.57786,90.894196
"14869",198.34894,78.55833,90.83022
"14870",198.36237,78.538795,90.76564
"14871",198.37567,78.519264,90.70045
"14872",198.38898,78.49485,90.62976
"14873",198.4024,78.467995,90.55587
"14874",198.41571,78.44602,90.48602
"14875",198.42902,78.4387,90.43014
"14876",198.44232,78.4802,90.42285
"14877",198.45563,78.6096,90.50475
"14878",198.46906,78.853745,90.70545
"14879",198.48236,79.2224,91.038284
"14880",198.49567,79.70092,91.49251
"14881",198.5091,80.24536,92.0276
"14882",198.5224,80.78737,92.57728
"14883",198.5357,81.25857,93.07308
"14884",198.54901,81.61501,93.46886
"14885",198.56232,81.83963,93.74394
"14886",198.57574,81.93973,93.90153
"14887",198.58905,81.93973,93.96214
"14888",198.60236,81.87869,93.96172
"14889",198.61578,81.7908,93.93254
"14890",198.62909,81.705345,93.903046
"14891",198.6424,81.64187,93.89286
"14892",198.6557,81.60769,93.90999
"14893",198.669,81.59792,93.95046
"14894",198.68243,81.59792,94.0004
"14895",198.69574,81.59304,94.04545
"14896",198.70905,81.55642,94.05861
"14897",198.72247,81.48562,94.036446
"14898",198.73578,81.3782,93.97545
"14899",198.74908,81.24635,93.88667
"14900",198.76239,81.10231,93.78158
"14901",198.7757,80.96559,93.679306
"14902",198.78912,80.84352,93.58741
"14903",198.80243,80.743416,93.513664
"14904",198.81573,80.66285,93.45633
"14905",198.82916,80.59449,93.40868
"14906",198.84247,80.5359,93.36867
"14907",198.85577,80.47242,93.32194
"14908",198.86908,80.40162,93.2659
"14909",198.88239,80.32105,93.19788
"14910",198.89581,80.22339,93.11025
"14911",198.90912,80.113525,93.00737
"14912",198.92242,79.991455,92.88885
"14913",198.93585,79.869385,92.76651
"14914",198.94916,79.74731,92.64035
"14915",198.96246,79.62768,92.512825
"14916",198.97577,79.51293,92.386444
"14917",198.98907,79.41039,92.268684
"14918",199.0025,79.31762,92.157486
"14919",199.01581,79.22972,92.04826
"14920",199.02911,79.14427,91.93874
"14921",199.04254,79.06859,91.83632
"14922",199.05585,78.99779,91.73641
"14923",199.06915,78.93675,91.64406
"14924",199.08246,78.88548,91.55956
"14925",199.09576,78.84398,91.48323
"14926",199.10919,78.81224,91.41537
"14927",199.1225,78.78294,91.34895
"14928",199.1358,78.751205,91.27918
"14929",199.14923,78.71946,91.20841
"14930",199.16254,78.69016,91.1391
"14931",199.17584,78.66575,91.07375
"14932",199.18915,78.641335,91.007645
"14933",199.20245,78.61692,90.94077
"14934",199.21588,78.59251,90.87314
"14935",199.22919,78.56321,90.79986
"14936",199.2425,78.53391,90.72566
"14937",199.25592,78.51194,90.657875
"14938",199.26923,78.49485,90.594284
"14939",199.28253,78.47776,90.53016
"14940",199.29584,78.46067,90.4655
"14941",199.30914,78.4387,90.395424
"14942",199.32257,78.42405,90.331985
"14943",199.33588,78.4387,90.297386
"14944",199.34918,78.521706,90.331604
"14945",199.36261,78.709694,90.4734
"14946",199.37592,79.0222,90.74558
"14947",199.38922,79.45922,91.15205
"14948",199.40253,79.98169,91.657616
"14949",199.41583,80.52857,92.203926
"14950",199.42926,81.03151,92.72338
"14951",199.44257,81.43435,93.158455
"14952",199.45587,81.7029,93.47183
"14953",199.4693,81.83475,93.65689
"14954",199.4826,81.85428,93.73376
"14955",199.49591,81.795685,93.73311
"14956",199.50922,81.69314,93.686676
"14957",199.52252,81.58083,93.62728
"14958",199.53595,81.48318,93.579025
"14959",199.54926,81.409935,93.55213
"14960",199.56256,81.36111,93.54736
"14961",199.57599,81.32693,93.55572
"14962",199.5893,81.29519,93.565445
"14963",199.6026,81.253685,93.564415
"14964",199.6159,81.18776,93.53767
"14965",199.62921,81.094986,93.48201
"14966",199.64264,80.987564,93.408806
"14967",199.65594,80.8777,93.3298
"14968",199.66925,80.7776,93.25713
"14969",199.68268,80.69459,93.19842
"14970",199.69598,80.63111,93.15665
"14971",199.70929,80.58228,93.12754
"14972",199.7226,80.53834,93.10179
"14973",199.7359,80.49683,93.07711
"14974",199.74933,80.45289,93.04869
"14975",199.76263,80.39918,93.00913
"14976",199.77594,80.33326,92.95569
"14977",199.78937,80.257576,92.89042
"14978",199.80267,80.164795,92.80569
"14979",199.81598,80.062256,92.7083
"14980",199.82928,79.954834,92.60282
"14981",199.84259,79.84253,92.489105
"14982",199.85602,79.73022,92.37187
"14983",199.86932,79.62035,92.25358
"14984",199.88263,79.51049,92.13185
"14985",199.89606,79.415276,92.02134
"14986",199.90936,79.327385,91.91518
"14987",199.92267,79.2517,91.818474
"14988",199.93597,79.183334,91.72672
"14989",199.94928,79.12474,91.64261
"14990",199.9627,79.06615,91.55666
"14991",199.97601,79.01488,91.47621
"14992",199.98932,78.97093,91.40148
"14993",200.00275,78.93187,91.33026
"14994",200.01605,78.90013,91.265144
"14995",200.02936,78.87816,91.2088
"14996",200.04266,78.86107,91.156654
"14997",200.05597,78.84398,91.10397
"14998",200.0694,78.82933,91.0532
"14999",200.0827,78.81468,91.00197
"15000",200.09601,78.79759,90.94784
"15001",200.10944,78.7805,90.89317
"15002",200.12274,78.75365,90.82821
"15003",200.13605,78.71946,90.75507
"15004",200.14935,78.6804,90.675995
"15005",200.16266,78.643776,90.59814
"15006",200.17609,78.626686,90.538666
"15007",200.18939,78.660866,90.52993
"15008",200.2027,78.78783,90.61504
"15009",200.21613,79.02464,90.81398
"15010",200.22943,79.38598,91.14484
"15011",200.24274,79.84253,91.5822
"15012",200.25604,80.35279,92.08754
"15013",200.26935,80.848404,92.59418
"15014",200.28278,81.26345,93.035736
"15015",200.29608,81.55642,93.36819
"15016",200.30939,81.71755,93.57796
"15017",200.32281,81.75418,93.66826
"15018",200.33612,81.70046,93.66936
"15019",200.34943,81.58816,93.61019
"15020",200.36273,81.45632,93.527985
"15021",200.37604,81.32937,93.44654
"15022",200.38947,81.2195,93.37821
"15023",200.40277,81.13161,93.32843
"15024",200.41608,81.07301,93.3052
"15025",200.4295,81.0193,93.28502
"15026",200.44281,80.96071,93.25828
"15027",200.45612,80.89235,93.21994
"15028",200.46942,80.8069,93.16238
"15029",200.48273,80.709236,93.08993
"15030",200.49615,80.61158,93.014435
"15031",200.50946,80.52857,92.95054
"15032",200.52277,80.46754,92.90602
"15033",200.5362,80.430916,92.88401
"15034",200.5495,80.413826,92.88039
"15035",200.5628,80.40162,92.88111
"15036",200.57611,80.38941,92.881454
"15037",200.58942,80.36744,92.87165
"15038",200.60284,80.33082,92.84651
"15039",200.61615,80.26978,92.795815
"15040",200.62946,80.19409,92.72855
"15041",200.64288,80.10132,92.641846
"15042",200.65619,79.99634,92.54003
"15043",200.6695,79.88403,92.42761
"15044",200.6828,79.76929,92.30924
"15045",200.6961,79.65453,92.18728
"15046",200.70953,79.54223,92.06418
"15047",200.72284,79.44213,91.949776
"15048",200.73615,79.34936,91.83957
"15049",200.74957,79.26635,91.73623
"15050",200.76288,79.19554,91.642494
"15051",200.77618,79.13451,91.55632
"15052",200.78949,79.08568,91.480446
"15053",200.8028,79.046616,91.41281
"15054",200.81622,79.01488,91.35128
"15055",200.82953,78.99046,91.29608
"15056",200.84283,78.96605,91.24012
"15057",200.85626,78.93675,91.17851
"15058",200.86957,78.907455,91.11599
"15059",200.88287,78.87816,91.05255
"15060",200.89618,78.84886,90.9882
"15061",200.90948,78.81712,90.92049
"15062",200.92291,78.79515,90.86155
"15063",200.93622,78.77074,90.799484
"15064",200.94952,78.751205,90.74154
"15065",200.96295,78.729225,90.680534
"15066",200.97626,78.712135,90.62373
"15067",200.98956,78.71458,90.58593
"15068",201.00287,78.77318,90.60436
"15069",201.01617,78.922104,90.71495
"15070",201.0296,79.18822,90.94738
"15071",201.04291,79.57885,91.312645
"15072",201.05621,80.059814,91.78045
"15073",201.06964,80.584724,92.30723
"15074",201.08295,81.08522,92.826
"15075",201.09625,81.50271,93.2774
"15076",201.10956,81.80057,93.622215
"15077",201.12286,81.96658,93.8445
"15078",201.13629,82.01297,93.95234
"15079",201.1496,81.971466,93.97374
"15080",201.1629,81.87869,93.94257
"15081",201.17633,81.76639,93.88898
"15082",201.18964,81.65652,93.834305
"15083",201.20294,81.566185,93.79574
"15084",201.21625,81.49294,93.77144
"15085",201.22955,81.43923,93.76438
"15086",201.24298,81.392845,93.76297
"15087",201.25629,81.34646,93.76011
"15088",201.26959,81.28542,93.74115
"15089",201.28302,81.20729,93.703186
"15090",201.29633,81.10719,93.640816
"15091",201.30963,80.99733,93.56555
"15092",201.32294,80.88747,93.486855
"15093",201.33624,80.79225,93.41937
"15094",201.34967,80.71412,93.366
"15095",201.36298,80.65064,93.32484
"15096",201.37628,80.59449,93.28902
"15097",201.38971,80.54566,93.258766
"15098",201.40302,80.49683,93.22699
"15099",201.41632,80.43824,93.18392
"15100",201.42963,80.37232,93.1317
"15101",201.44293,80.289314,93.060326
"15102",201.45636,80.19165,92.9717
"15103",201.46967,80.08179,92.86783
"15104",201.48297,79.9646,92.7532
"15105",201.4964,79.84497,92.63246
"15106",201.5097,79.73022,92.51286
"15107",201.52301,79.622795,92.39701
"15108",201.53632,79.51537,92.2778
"15109",201.54962,79.415276,92.16256
"15110",201.56305,79.31762,92.04663
"15111",201.57635,79.23216,91.93985
"15112",201.58966,79.15404,91.83773
"15113",201.60309,79.08568,91.742935
"15114",201.6164,79.02464,91.65333
"15115",201.6297,78.97093,91.56914
"15116",201.643,78.91722,91.48327
"15117",201.65631,78.870834,91.403046
"15118",201.66974,78.83177,91.3287
"15119",201.68304,78.802475,91.26289
"15120",201.69635,78.78294,91.20594
"15121",201.70978,78.768295,91.15326
"15122",201.72308,78.75853,91.105
"15123",201.73639,78.74387,91.05155
"15124",201.7497,78.72434,90.99277
"15125",201.763,78.69993,90.92849
"15126",201.77643,78.675514,90.86345
"15127",201.78973,78.64622,90.79276
"15128",201.80304,78.624245,90.728485
"15129",201.81647,78.62913,90.69038
"15130",201.82977,78.69016,90.70857
"15131",201.84308,78.84398,90.82146
"15132",201.85638,79.11986,91.06121
"15133",201.86969,79.51537,91.42922
"15134",201.88312,80.0061,91.90481
"15135",201.89642,80.53834,92.43723
"15136",201.90973,81.04616,92.961876
"15137",201.92316,81.46853,93.41694
"15138",201.93646,81.76883,93.76313
"15139",201.94977,81.94217,93.991745
"15140",201.96307,82.005646,94.11591
"15141",201.97638,81.97879,94.15173
"15142",201.9898,81.90311,94.137886
"15143",202.00311,81.80301,94.09726
"15144",202.01642,81.7029,94.0535
"15145",202.02985,81.61257,94.01638
"15146",202.04315,81.54665,94.000854
"15147",202.05646,81.50027,94.0028
"15148",202.06976,81.47097,94.020386
"15149",202.08307,81.44167,94.037056
"15150",202.0965,81.39529,94.03572
"15151",202.1098,81.324486,94.00852
"15152",202.12311,81.2195,93.94492
"15153",202.13654,81.092545,93.85608
"15154",202.14984,80.96071,93.758385
"15155",202.16315,80.83864,93.666336
"15156",202.17645,80.73121,93.58511
"15157",202.18976,80.64332,93.52007
"15158",202.20319,80.567635,93.46449
"15159",202.21649,80.5066,93.421196
"15160",202.2298,80.45289,93.383316
"15161",202.24323,80.396736,93.34132
"15162",202.25653,80.3357,93.29268
"15163",202.26984,80.26246,93.22993
"15164",202.28314,80.177,93.15267
"15165",202.29645,80.07446,93.055664
"15166",202.30988,79.96216,92.94569
"15167",202.32318,79.84497,92.82732
"15168",202.33649,79.725334,92.702835
"15169",202.34991,79.60815,92.577065
"15170",202.36322,79.49584,92.452515
"15171",202.37653,79.38842,92.32934
"15172",202.38983,79.290764,92.21257
"15173",202.40314,79.20531,92.10495
"15174",202.41656,79.12474,91.99955
"15175",202.42987,79.0515,91.89896
"15176",202.44318,78.98314,91.80096
"15177",202.4566,78.91722,91.70326
"15178",202.46991,78.856186,91.60839
"15179",202.48322,78.80492,91.52138
"15180",202.49652,78.77074,91.44985
"15181",202.50983,78.73899,91.37969
"15182",202.52325,78.71458,91.31587
"15183",202.53656,78.695045,91.25617
"15184",202.54987,78.675514,91.19586
"15185",202.5633,78.65354,91.1325
"15186",202.5766,78.62913,91.06601
"15187",202.5899,78.60227,90.996315
"15188",202.60321,78.57542,90.92578
"15189",202.61652,78.54368,90.849525
"15190",202.62994,78.51438,90.77472
"15191",202.64325,78.49241,90.70632
"15192",202.65656,78.49973,90.666534
"15193",202.66998,78.56809,90.68801
"15194",202.68329,78.729225,90.8044
"15195",202.6966,79.009995,91.045456
"15196",202.7099,79.412834,91.41736
"15197",202.7232,79.906006,91.89218
"15198",202.73663,80.44068,92.42392
"15199",202.74994,80.94118,92.93819
"15200",202.76324,81.35134,93.37776
"15201",202.77667,81.636986,93.705635
"15202",202.78998,81.7908,93.91061
"15203",202.80328,81.829865,94.00563
"15204",202.81659,81.78836,94.02131
"15205",202.8299,81.70046,93.989296
"15206",202.84332,81.59792,93.939896
"15207",202.85663,81.495384,93.88729
"15208",202.86993,81.409935,93.84857
"15209",202.88336,81.34402,93.82671
"15210",202.89667,81.29519,93.819885
"15211",202.90997,81.25124,93.816414
"15212",202.92328,81.20241,93.80668
"15213",202.93658,81.14137,93.78322
"15214",202.95001,81.058365,93.73588
"15215",202.96332,80.96071,93.671295
"15216",202.97662,80.850845,93.59145
"15217",202.99005,80.743416,93.51061
"15218",203.00336,80.6482,93.43863
"15219",203.01666,80.570076,93.38076
"15220",203.02997,80.50416,93.33266
"15221",203.04327,80.45533,93.29958
"15222",203.0567,80.411385,93.26987
"15223",203.07,80.365,93.236336
"15224",203.08331,80.308846,93.19159
"15225",203.09674,80.24536,93.13776
"15226",203.11005,80.16968,93.06974
"15227",203.12335,80.08423,92.98959
"15228",203.13666,79.98901,92.89701
"15229",203.14996,79.88159,92.789246
"15230",203.16339,79.764404,92.66836
"15231",203.1767,79.64965,92.54624
"15232",203.19,79.54223,92.42787
"15233",203.20343,79.43969,92.31103
"15234",203.21674,79.34203,92.19586
"15235",203.23004,79.25414,92.08741
"15236",203.24335,79.17601,91.98597
"15237",203.25665,79.10277,91.88698
"15238",203.27008,79.044174,91.80035
"15239",203.28339,78.995346,91.72165
"15240",203.29669,78.95384,91.64875
"15241",203.31012,78.91966,91.58188
"15242",203.32343,78.89281,91.52126
"15243",203.33673,78.86839,91.46225
"15244",203.35004,78.84886,91.40736
"15245",203.36334,78.82933,91.35185
"15246",203.37677,78.80492,91.290855
"15247",203.39008,78.77318,91.22177
"15248",203.40338,78.73899,91.14925
"15249",203.41681,78.69993,91.07078
"15250",203.43011,78.66331,90.99353
"15251",203.44342,78.64622,90.93467
"15252",203.45673,78.67307,90.91922
"15253",203.47003,78.77318,90.97786
"15254",203.48346,78.9807,91.14704
"15255",203.49677,79.31274,91.44723
"15256",203.51007,79.742424,91.85544
"15257",203.5235,80.233154,92.33812
"15258",203.5368,80.719,92.83125
"15259",203.55011,81.13405,93.26877
"15260",203.56342,81.44167,93.61183
"15261",203.57672,81.617455,93.832664
"15262",203.59015,81.67849,93.944244
"15263",203.60345,81.63943,93.957634
"15264",203.61676,81.54177,93.91121
"15265",203.63019,81.41238,93.829994
"15266",203.6435,81.27322,93.73497
"15267",203.6568,81.15114,93.65268
"15268",203.6701,81.05592,93.59344
"15269",203.68341,80.98512,93.55563
"15270",203.69684,80.92409,93.52538
"15271",203.71014,80.86305,93.493225
"15272",203.72345,80.79225,93.449394
"15273",203.73688,80.70435,93.38625
"15274",203.75018,80.6067,93.31061
"15275",203.76349,80.516365,93.239235
"15276",203.7768,80.445564,93.18457
"15277",203.7901,80.394295,93.147224
"15278",203.80353,80.36256,93.12781
"15279",203.81683,80.34547,93.12205
"15280",203.83014,80.3357,93.12308
"15281",203.84357,80.325935,93.1238
"15282",203.85687,80.30396,93.112015
"15283",203.87018,80.26978,93.08733
"15284",203.88348,80.21118,93.03716
"15285",203.89679,80.1355,92.96808
"15286",203.91022,80.042725,92.87954
"15287",203.92352,79.93286,92.77101
"15288",203.93683,79.818115,92.65417
"15289",203.95026,79.69848,92.52885
"15290",203.96356,79.58373,92.40468
"15291",203.97687,79.47631,92.28425
"15292",203.99017,79.381096,92.17267
"15293",204.00348,79.29565,92.06788
"15294",204.0169,79.2224,91.97262
"15295",204.03021,79.151596,91.87752
"15296",204.04352,79.08568,91.78509
"15297",204.05695,79.027084,91.69792
"15298",204.07025,78.975815,91.61625
"15299",204.08356,78.93919,91.54762
"15300",204.09686,78.91722,91.4925
"15301",204.11017,78.90257,91.444016
"15302",204.1236,78.89281,91.399956
"15303",204.1369,78.88304,91.35559
"15304",204.1502,78.86351,91.301155
"15305",204.16364,78.836655,91.238785
"15306",204.17694,78.802475,91.16825
"15307",204.19025,78.77074,91.09909
"15308",204.20355,78.765854,91.05579
"15309",204.21686,78.81224,91.063614
"15310",204.23029,78.9514,91.16566
"15311",204.24359,79.202866,91.38435
"15312",204.2569,79.571526,91.7281
"15313",204.27032,80.028076,92.171265
"15314",204.28363,80.516365,92.66043
"15315",204.29694,80.98268,93.14288
"15316",204.31024,81.36599,93.5569
"15317",204.32355,81.636986,93.87058
"15318",204.33698,81.78104,94.06579
"15319",204.35028,81.812775,94.15318
"15320",204.36359,81.75906,94.15612
"15321",204.37701,81.64675,94.09878
"15322",204.39032,81.512474,94.01596
"15323",204.40363,81.38796,93.93871
"15324",204.41693,81.28542,93.87955
"15325",204.43024,81.20729,93.84158
"15326",204.44366,81.143814,93.815834
"15327",204.45697,81.08278,93.79054
"15328",204.47028,81.01686,93.75846
"15329",204.4837,80.93385,93.70723
"15330",204.49701,80.8362,93.638756
"15331",204.51031,80.73609,93.56478
"15332",204.52362,80.64576,93.49745
"15333",204.53693,80.56275,93.43462
"15334",204.55035,80.499275,93.38873
"15335",204.56366,80.45777,93.36283
"15336",204.57697,80.430916,93.35028
"15337",204.5904,80.4065,93.33933
"15338",204.6037,80.38209,93.32762
"15339",204.617,80.34547,93.30294
"15340",204.63031,80.2942,93.26247
"15341",204.64362,80.218506,93.19597
"15342",204.65704,80.12573,93.11002
"15343",204.67035,80.02075,93.00897
"15344",204.68365,79.903564,92.89243
"15345",204.69708,79.783936,92.76979
"15346",204.71039,79.66186,92.64096
"15347",204.7237,79.551994,92.52053
"15348",204.737,79.447014,92.40155
"15349",204.7503,79.3518,92.289055
"15350",204.76373,79.26635,92.18335
"15351",204.77704,79.185776,92.07985
"15352",204.79034,79.11009,91.97872
"15353",204.80377,79.03685,91.87767
"15354",204.81708,78.97337,91.784096
"15355",204.83038,78.924545,91.703186
"15356",204.84369,78.887924,91.63296
"15357",204.857,78.86107,91.57135
"15358",204.87042,78.84398,91.51867
"15359",204.88373,78.82933,91.467896
"15360",204.89703,78.8098,91.41178
"15361",204.91046,78.785385,91.350174
"15362",204.92377,78.75853,91.28536
"15363",204.93707,78.72434,91.21238
"15364",204.95038,78.69749,91.14566
"15365",204.96368,78.68284,91.09031
"15366",204.97711,78.70481,91.07112
"15367",204.99042,78.80003,91.12587
"15368",205.00372,79.00023,91.28857
"15369",205.01715,79.32006,91.577156
"15370",205.03046,79.74975,91.985596
"15371",205.04376,80.25269,92.48072
"15372",205.05707,80.76784,93.00376
"15373",205.07037,81.231705,93.49162
"15374",205.0838,81.59548,93.89389
"15375",205.0971,81.83719,94.185455
"15376",205.11041,81.951935,94.35761
"15377",205.12384,81.96658,94.43326
"15378",205.13715,81.90799,94.43612
"15379",205.15045,81.815216,94.40297
"15380",205.16376,81.71267,94.35715
"15381",205.17706,81.62966,94.32766
"15382",205.19049,81.57107,94.31999
"15383",205.2038,81.532005,94.330025
"15384",205.2171,81.50759,94.353485
"15385",205.23053,81.478294,94.3713
"15386",205.24384,81.42458,94.363785
"15387",205.25714,81.341576,94.325294
"15388",205.27045,81.231705,94.25735
"15389",205.28375,81.10231,94.16644
"15390",205.29718,80.96559,94.06417
"15391",205.31049,80.84108,93.96983
"15392",205.32379,80.73121,93.886246
"15393",205.33722,80.64332,93.821205
"15394",205.35052,80.570076,93.76807
"15395",205.36383,80.5066,93.722404
"15396",205.37714,80.45045,93.68208
"15397",205.39044,80.38941,93.635124
"15398",205.40387,80.31861,93.57649
"15399",205.41718,80.23804,93.505875
"15400",205.43048,80.14526,93.42054
"15401",205.44391,80.03784,93.31766
"15402",205.45721,79.92554,93.206535
"15403",205.47052,79.80347,93.08214
"15404",205.48383,79.676506,92.949036
"15405",205.49713,79.54955,92.81197
"15406",205.51056,79.432365,92.68071
"15407",205.52386,79.3225,92.55311
"15408",205.53717,79.22728,92.436714
"15409",205.5506,79.13939,92.32468
"15410",205.5639,79.061264,92.21966
"15411",205.57721,78.98802,92.11708
"15412",205.59052,78.91478,92.012215
"15413",205.60382,78.84886,91.912384
"15414",205.61725,78.78783,91.81538
"15415",205.63055,78.74387,91.73354
"15416",205.64386,78.709694,91.66011
"15417",205.65729,78.68772,91.59782
"15418",205.6706,78.67063,91.53972
"15419",205.6839,78.65598,91.48353
"15420",205.6972,78.63645,91.422
"15421",205.71051,78.61448,91.357414
"15422",205.72394,78.58518,91.28482
"15423",205.73724,78.54856,91.20399
"15424",205.75055,78.50706,91.11713
"15425",205.76398,78.470436,91.03385
"15426",205.77728,78.450905,90.96652
"15427",205.79059,78.47288,90.94009
"15428",205.8039,78.56565,90.98514
"15429",205.8172,78.77318,91.14784
"15430",205.83063,79.10765,91.44398
"15431",205.84393,79.5642,91.87264
"15432",205.85724,80.093994,92.38882
"15433",205.87067,80.64332,92.94108
"15434",205.88397,81.13649,93.45435
"15435",205.89728,81.51736,93.870735
"15436",205.91058,81.76639,94.16718
"15437",205.92389,81.88602,94.34201
"15438",205.93732,81.90311,94.41804
"15439",205.95062,81.85184,94.42624
"15440",205.96393,81.76639,94.39866
"15441",205.97736,81.67849,94.36596
"15442",205.99066,81.602806,94.34273
"15443",206.00397,81.55642,94.34643
"15444",206.01727,81.532005,94.37065
"15445",206.03058,81.5198,94.40632
"15446",206.044,81.50271,94.43672
"15447",206.05731,81.45876,94.439735
"15448",206.07062,81.38064,94.407196
"15449",206.08405,81.26589,94.335594
"15450",206.09735,81.12428,94.23354
"15451",206.11066,80.97536,94.11975
"15452",206.12396,80.833755,94.00863
"15453",206.13727,80.71168,93.912605
"15454",206.1507,80.60914,93.832306
"15455",206.164,80.52369,93.76589
"15456",206.1773,80.45289,93.71146
"15457",206.19073,80.38697,93.65969
"15458",206.20404,80.31861,93.603424
"15459",206.21735,80.24536,93.54013
"15460",206.23065,80.16235,93.46479
"15461",206.24396,80.0647,93.37221
"15462",206.25739,79.954834,93.264366
"15463",206.27069,79.83765,93.14577
"15464",206.284,79.71557,93.018616
"15465",206.29742,79.5935,92.88766
"15466",206.31073,79.47143,92.752884
"15467",206.32404,79.35668,92.62162
"15468",206.33734,79.24681,92.491646
"15469",206.35065,79.151596,92.372894
"15470",206.36407,79.063705,92.25849
"15471",206.37738,78.98558,92.15111
"15472",206.39069,78.91234,92.046165
"15473",206.40411,78.84154,91.941376
"15474",206.41742,78.77318,91.836815
"15475",206.43073,78.71458,91.739876
"15476",206.44403,78.658424,91.643555
"15477",206.45734,78.607155,91.55036
"15478",206.47076,78.56565,91.46533
"15479",206.48407,78.52903,91.38389
"15480",206.49738,78.49973,91.308624
"15481",206.5108,78.4802,91.24221
"15482",206.52411,78.46555,91.18007
"15483",206.53741,78.45579,91.12235
"15484",206.55072,78.44358,91.06189
"15485",206.56403,78.42893,90.998604
"15486",206.57745,78.41184,90.93242
"15487",206.59076,78.39231,90.86326
"15488",206.60406,78.37034,90.791046
"15489",206.6175,78.345924,90.715706
"15490",206.6308,78.31907,90.63716
"15491",206.6441,78.28977,90.555336
"15492",206.65741,78.27268,90.4848
"15493",206.67072,78.28977,90.447914
"15494",206.68414,78.37766,90.48236
"15495",206.69745,78.57542,90.62942
"15496",206.71075,78.90257,90.912056
"15497",206.72418,79.35912,91.33431
"15498",206.73749,79.90845,91.86361
"15499",206.7508,80.48707,92.43937
"15500",206.7641,81.00954,92.97706
"15501",206.7774,81.42947,93.428535
"15502",206.79083,81.71755,93.76129
"15503",206.80414,81.866486,93.9639
"15504",206.81744,81.898224,94.05396
"15505",206.83087,81.849396,94.06445
"15506",206.84418,81.75662,94.02947
"15507",206.85748,81.654076,93.98182
"15508",206.87079,81.5613,93.940735
"15509",206.8841,81.4905,93.918724
"15510",206.89752,81.449,93.9238
"15511",206.91083,81.42458,93.944664
"15512",206.92413,81.39773,93.962326
"15513",206.93756,81.35134,93.95962
"15514",206.95087,81.28054,93.931046
"15515",206.96417,81.18288,93.8734
"15516",206.97748,81.06325,93.79073
"15517",206.99078,80.93385,93.694565
"15518",207.00421,80.81911,93.609
"15519",207.01752,80.723885,93.539375
"15520",207.03082,80.6482,93.48631
"15521",207.04425,80.58961,93.447975
"15522",207.05756,80.54566,93.422455
"15523",207.07086,80.499275,93.39312
"15524",207.08417,80.445564,93.35501
"15525",207.09747,80.37965,93.30302
"15526",207.1109,80.29908,93.234314
"15527",207.1242,80.20874,93.15332
"15528",207.13751,80.10864,93.059746
"15529",207.15094,80.00366,92.95816
"15530",207.16425,79.886475,92.84109
"15531",207.17755,79.76196,92.71303
"15532",207.19086,79.63744,92.58107
"15533",207.20416,79.51537,92.44767
"15534",207.21759,79.40307,92.32022
"15535",207.2309,79.30541,92.20391
"15536",207.2442,79.2224,92.09919
"15537",207.25763,79.149155,92.00165
"15538",207.27094,79.08568,91.91158
"15539",207.28424,79.027084,91.82442
"15540",207.29755,78.975815,91.742744
"15541",207.31085,78.924545,91.65947
"15542",207.32428,78.87816,91.579475
"15543",207.33759,78.839096,91.505356
"15544",207.35089,78.80492,91.4349
"15545",207.36432,78.77806,91.3707
"15546",207.37762,78.75853,91.31298
"15547",207.39093,78.74387,91.25953
"15548",207.40424,78.72434,91.200745
"15549",207.41754,78.70481,91.14135
"15550",207.43097,78.68284,91.0789
"15551",207.44427,78.658424,91.01333
"15552",207.45758,78.62913,90.94211
"15553",207.47101,78.60227,90.87241
"15554",207.48431,78.57542,90.80188
"15555",207.49762,78.54368,90.725624
"15556",207.51093,78.51438,90.65082
"15557",207.52423,78.49973,90.589745
"15558",207.53766,78.52659,90.56972
"15559",207.55096,78.63645,90.63354
"15560",207.56427,78.86351,90.817986
"15561",207.5777,79.21263,91.13159
"15562",207.591,79.67162,91.56598
"15563",207.60431,80.19409,92.078186
"15564",207.61761,80.71656,92.60672
"15565",207.63092,81.17067,93.08322
"15566",207.64435,81.51003,93.45917
"15567",207.65765,81.71755,93.713875
"15568",207.67096,81.79813,93.84812
"15569",207.68439,81.77371,93.8799
"15570",207.6977,81.68093,93.842545
"15571",207.711,81.55398,93.76812
"15572",207.7243,81.42214,93.684845
"15573",207.73761,81.307396,93.61454
"15574",207.75104,81.21706,93.565056
"15575",207.76434,81.15358,93.53961
"15576",207.77765,81.09987,93.52195
"15577",207.79108,81.041275,93.49773
"15578",207.80438,80.96559,93.45458
"15579",207.81769,80.87038,93.38954
"15580",207.831,80.765396,93.31176
"15581",207.8443,80.66041,93.23069
"15582",207.85773,80.57252,93.16344
"15583",207.87103,80.50904,93.11785
"15584",207.88434,80.46998,93.094696
"15585",207.89777,80.44312,93.08253
"15586",207.91107,80.42359,93.07684
"15587",207.92438,80.40406,93.07055
"15588",207.93768,80.36744,93.046555
"15589",207.95099,80.308846,92.99944
"15590",207.96442,80.235596,92.935844
"15591",207.97772,80.14526,92.852875
"15592",207.99103,80.042725,92.754875
"15593",208.00446,79.937744,92.65123
"15594",208.01776,79.82788,92.53942
"15595",208.03107,79.72045,92.42661
"15596",208.04437,79.60815,92.30557
"15597",208.05768,79.49828,92.183464
"15598",208.0711,79.39086,92.06036
"15599",208.08441,79.28832,91.93879
"15600",208.09772,79.19798,91.82621
"15601",208.11115,79.12474,91.727905
"15602",208.12445,79.061264,91.63708
"15603",208.13776,79.009995,91.55647
"15604",208.15106,78.96605,91.48159
"15605",208.16437,78.924545,91.407776
"15606",208.1778,78.887924,91.33755
"15607",208.1911,78.853745,91.268616
"15608",208.2044,78.82689,91.20594
"15609",208.21783,78.80492,91.14731
"15610",208.23114,78.78783,91.09287
"15611",208.24445,78.77318,91.040344
"15612",208.25775,78.76341,90.99224
"15613",208.27106,78.751205,90.94139
"15614",208.28448,78.73655,90.88771
"15615",208.29779,78.71946,90.83114
"15616",208.3111,78.69749,90.76915
"15617",208.32452,78.67307,90.70403
"15618",208.33783,78.6511,90.640594
"15619",208.35114,78.643776,90.59112
"15620",208.36444,78.69016,90.59512
"15621",208.37775,78.82201,90.686035
"15622",208.39117,79.07591,90.90313
"15623",208.40448,79.45434,91.25268
"15624",208.41779,79.94507,91.72636
"15625",208.43121,80.49195,92.27152
"15626",208.44452,81.02663,92.82157
"15627",208.45782,81.480736,93.30776
"15628",208.47113,81.812775,93.68607
"15629",208.48444,82.005646,93.93559
"15630",208.49786,82.074005,94.06663
"15631",208.51117,82.039825,94.09726
"15632",208.52448,81.94949,94.07067
"15633",208.5379,81.829865,94.01196
"15634",208.55121,81.71267,93.95195
"15635",208.56451,81.617455,93.910255
"15636",208.57782,81.549095,93.89244
"15637",208.59113,81.50271,93.89446
"15638",208.60455,81.47097,93.90968
"15639",208.61786,81.43435,93.91903
"15640",208.63116,81.375755,93.90526
"15641",208.64459,81.290306,93.8628
"15642",208.6579,81.18288,93.79569
"15643",208.6712,81.06081,93.71059
"15644",208.68451,80.936295,93.619225
"15645",208.69781,80.82643,93.53862
"15646",208.71124,80.73121,93.46922
"15647",208.72455,80.655525,93.41639
"15648",208.73785,80.59205,93.3734
"15649",208.75128,80.53834,93.33819
"15650",208.76459,80.48463,93.3013
"15651",208.7779,80.428474,93.26029
"15652",208.7912,80.36256,93.20776
"15653",208.8045,80.27711,93.133644
"15654",208.81793,80.17212,93.037315
"15655",208.83124,80.05737,92.92795
"15656",208.84454,79.93042,92.80279
"15657",208.85797,79.80347,92.67366
"15658",208.87128,79.68383,92.54788
"15659",208.88458,79.56664,92.420815
"15660",208.89789,79.45434,92.29497
"15661",208.9112,79.3518,92.17538
"15662",208.92462,79.259026,92.06235
"15663",208.93793,79.17357,91.953735
"15664",208.95123,79.10033,91.85467
"15665",208.96466,79.027084,91.75331
"15666",208.97797,78.96361,91.65943
"15667",208.99127,78.905014,91.56845
"15668",209.00458,78.8513,91.48052
"15669",209.01788,78.80492,91.39824
"15670",209.03131,78.765854,91.32183
"15671",209.04462,78.73411,91.25152
"15672",209.05792,78.70725,91.185104
"15673",209.07135,78.68772,91.125175
"15674",209.08466,78.67063,91.06708
"15675",209.09796,78.65598,91.01089
"15676",209.11127,78.643776,90.95668
"15677",209.12457,78.626686,90.89721
"15678",209.138,78.60227,90.82988
"15679",209.1513,78.572975,90.756905
"15680",209.16461,78.54368,90.683014
"15681",209.17804,78.51194,90.60577
"15682",209.19135,78.485085,90.53241
"15683",209.20465,78.48264,90.48263
"15684",209.21796,78.52659,90.47916
"15685",209.23126,78.658424,90.56495
"15686",209.24469,78.905014,90.769615
"15687",209.258,79.28344,91.11382
"15688",209.2713,79.77905,91.58704
"15689",209.28473,80.343025,92.14411
"15690",209.29803,80.902115,92.71392
"15691",209.31134,81.38308,93.223076
"15692",209.32465,81.74441,93.627625
"15693",209.33795,81.96414,93.90187
"15694",209.35138,82.054474,94.05358
"15695",209.36469,82.04471,94.10802
"15696",209.37799,81.971466,94.09867
"15697",209.39142,81.864044,94.05286
"15698",209.40472,81.75906,94.00613
"15699",209.41803,81.67361,93.97564
"15700",209.43134,81.61257,93.9669
"15701",209.44464,81.58083,93.98556
"15702",209.45807,81.56374,94.01787
"15703",209.47137,81.54177,94.04476
"15704",209.48468,81.50027,94.05144
"15705",209.49811,81.427025,94.02508
"15706",209.51141,81.31716,93.95981
"15707",209.52472,81.1902,93.87401
"15708",209.53802,81.05348,93.77448
"15709",209.55133,80.92409,93.67801
"15710",209.56476,80.81178,93.59458
"15711",209.57806,80.723885,93.53205
"15712",209.59137,80.6482,93.47899
"15713",209.6048,80.58228,93.43333
"15714",209.6181,80.52125,93.39049
"15715",209.63141,80.45289,93.33842
"15716",209.64471,80.377205,93.276886
"15717",209.65802,80.289314,93.20078
"15718",209.67145,80.18921,93.10972
"15719",209.68475,80.076904,93.00333
"15720",209.69806,79.96216,92.89098
"15721",209.71149,79.84741,92.775055
"15722",209.7248,79.73266,92.65553
"15723",209.7381,79.62035,92.534874
"15724",209.7514,79.50805,92.410706
"15725",209.76471,79.398186,92.28547
"15726",209.77814,79.29565,92.16412
"15727",209.79144,79.200424,92.04689
"15728",209.80475,79.114975,91.936455
"15729",209.81818,79.03929,91.833115
"15730",209.83148,78.975815,91.73962
"15731",209.84479,78.91478,91.646576
"15732",209.8581,78.85863,91.55651
"15733",209.8714,78.80492,91.46713
"15734",209.88483,78.76097,91.38584
"15735",209.89813,78.7219,91.30805
"15736",209.91144,78.68772,91.23393
"15737",209.92487,78.66331,91.16851
"15738",209.93817,78.643776,91.10721
"15739",209.95148,78.626686,91.04774
"15740",209.96478,78.6096,90.98773
"15741",209.97809,78.59251,90.92719
"15742",209.99152,78.57542,90.86612
"15743",210.00482,78.555885,90.80207
"15744",210.01813,78.53391,90.73497
"15745",210.03156,78.51194,90.66718
"15746",210.04486,78.487526,90.59627
"15747",210.05817,78.45823,90.51971
"15748",210.07147,78.43626,90.449554
"15749",210.08478,78.44358,90.40801
"15750",210.0982,78.51682,90.43262
"15751",210.11151,78.69016,90.55961
"15752",210.12482,78.99046,90.81898
"15753",210.13824,79.4226,91.21957
"15754",210.15155,79.94751,91.72643
"15755",210.16486,80.51148,92.288765
"15756",210.17816,81.04372,92.83698
"15757",210.19147,81.48806,93.31394
"15758",210.2049,81.80057,93.67295
"15759",210.2182,81.97391,93.90256
"15760",210.2315,82.02518,94.01551
"15761",210.24493,81.98123,94.03485
"15762",210.25824,81.87869,93.994225
"15763",210.27155,81.75418,93.92842
"15764",210.28485,81.63943,93.868484
"15765",210.29816,81.54421,93.8245
"15766",210.31158,81.47097,93.799515
"15767",210.32489,81.4197,93.79421
"15768",210.3382,81.38308,93.801956
"15769",210.35162,81.339134,93.80123
"15770",210.36493,81.2781,93.78204
"15771",210.37823,81.197525,93.74141
"15772",210.39154,81.092545,93.67385
"15773",210.40485,80.98024,93.59569
"15774",210.41827,80.867935,93.514015
"15775",210.43158,80.765396,93.4386
"15776",210.44489,80.67994,93.37706
"15777",210.45831,80.61158,93.32995
"15778",210.47162,80.55543,93.29291
"15779",210.48492,80.5066,93.26144
"15780",210.49823,80.46021,93.23088
"15781",210.51154,80.40406,93.18911
"15782",210.52496,80.33814,93.13582
"15783",210.53827,80.25269,93.060936
"15784",210.55157,80.15747,92.97361
"15785",210.565,80.05005,92.87111
"15786",210.57831,79.937744,92.76037
"15787",210.59161,79.815674,92.63635
"15788",210.60492,79.69604,92.510956
"15789",210.61823,79.57641,92.38183
"15790",210.63165,79.45922,92.2514
"15791",210.64496,79.3518,92.12708
"15792",210.65826,79.2517,92.00673
"15793",210.67169,79.1638,91.89545
"15794",210.685,79.08812,91.79363
"15795",210.6983,79.0222,91.69922
"15796",210.71161,78.96361,91.61007
"15797",210.72491,78.907455,91.52153
"15798",210.73834,78.856186,91.43612
"15799",210.75165,78.8098,91.35399
"15800",210.76495,78.768295,91.27529
"15801",210.77838,78.73899,91.2075
"15802",210.79169,78.71702,91.14612
"15803",210.805,78.69993,91.088936
"15804",210.8183,78.68772,91.0361
"15805",210.8316,78.675514,90.98289
"15806",210.84503,78.660866,90.92685
"15807",210.85834,78.643776,90.86791
"15808",210.87164,78.624245,90.806
"15809",210.88507,78.60471,90.74348
"15810",210.89838,78.57786,90.67302
"15811",210.91168,78.54124,90.59196
"15812",210.92499,78.504616,90.50975
"15813",210.9383,78.48264,90.44105
"15814",210.95172,78.48264,90.39363
"15815",210.96503,78.54124,90.40481
"15816",210.97833,78.69993,90.517914
"15817",210.99176,78.97826,90.755615
"15818",211.00507,79.37377,91.1192
"15819",211.01837,79.869385,91.595245
"15820",211.03168,80.41627,92.13805
"15821",211.04498,80.94362,92.678406
"15822",211.05841,81.38796,93.15224
"15823",211.07172,81.71023,93.517876
"15824",211.08502,81.89578,93.756874
"15825",211.09845,81.951935,93.87227
"15826",211.11176,81.90311,93.88444
"15827",211.12506,81.7908,93.831604
"15828",211.13837,81.64675,93.743515
"15829",211.15167,81.50271,93.65093
"15830",211.1651,81.3782,93.57338
"15831",211.1784,81.27566,93.51391
"15832",211.19171,81.19997,93.47808
"15833",211.20514,81.13893,93.454544
"15834",211.21844,81.08278,93.43398
"15835",211.23175,81.01442,93.39946
"15836",211.24506,80.936295,93.353035
"15837",211.25836,80.85329,93.299286
"15838",211.27179,80.77028,93.24294
"15839",211.2851,80.69703,93.19376
"15840",211.2984,80.638435,93.15695
"15841",211.31183,80.59693,93.1354
"15842",211.32513,80.56031,93.11743
"15843",211.33844,80.53101,93.105644
"15844",211.35175,80.49439,93.08562
"15845",211.36505,80.45045,93.05712
"15846",211.37848,80.39185,93.0126
"15847",211.39178,80.32105,92.95405
"15848",211.40509,80.23804,92.881065
"15849",211.41852,80.14526,92.79573
"15850",211.43182,80.042725,92.69773
"15851",211.44513,79.93286,92.5892
"15852",211.45844,79.82056,92.4748
"15853",211.47174,79.70336,92.352
"15854",211.48517,79.588615,92.22798
"15855",211.49847,79.47875,92.10526
"15856",211.51178,79.38354,91.99376
"15857",211.5252,79.29809,91.889046
"15858",211.53851,79.22728,91.7963
"15859",211.55182,79.166245,91.71112
"15860",211.56512,79.11253,91.631355
"15861",211.57843,79.05882,91.54991
"15862",211.59186,79.009995,91.47167
"15863",211.60516,78.97093,91.40167
"15864",211.61847,78.93919,91.337776
"15865",211.6319,78.91722,91.28265
"15866",211.6452,78.90257,91.23417
"15867",211.65851,78.887924,91.18523
"15868",211.67181,78.86595,91.1285
"15869",211.68512,78.839096,91.06621
"15870",211.69855,78.80736,90.99819
"15871",211.71185,78.77074,90.9243
"15872",211.72516,78.729225,90.844376
"15873",211.73859,78.69993,90.77537
"15874",211.75189,78.68772,90.722534
"15875",211.7652,78.72678,90.72059
"15876",211.7785,78.84642,90.80044
"15877",211.79181,79.078354,90.99632
"15878",211.80524,79.429924,91.31909
"15879",211.81854,79.88159,91.752945
"15880",211.83185,80.39185,92.25951
"15881",211.84528,80.89479,92.77469
"15882",211.85858,81.32693,93.23479
"15883",211.87189,81.64187,93.591194
"15884",211.8852,81.8201,93.82073
"15885",211.8985,81.87137,93.92888
"15886",211.91193,81.8201,93.93609
"15887",211.92523,81.69802,93.87089
"15888",211.93854,81.54421,93.77014
"15889",211.95197,81.392845,93.66703
"15890",211.96527,81.25857,93.57628
"15891",211.97858,81.15114,93.50818
"15892",211.99188,81.06813,93.46114
"15893",212.00519,80.99977,93.42616
"15894",212.01862,80.92897,93.386604
"15895",212.03192,80.848404,93.33507
"15896",212.04523,80.75807,93.27125
"15897",212.05865,80.66285,93.199715
"15898",212.07196,80.57984,93.13742
"15899",212.08527,80.516365,93.092064
"15900",212.09857,80.47486,93.066696
"15901",212.11188,80.45045,93.05712
"15902",212.1253,80.43824,93.05899
"15903",212.13861,80.42603,93.06048
"15904",212.15192,80.39918,93.046936
"15905",212.16534,80.360115,93.02035
"15906",212.17865,80.30396,92.97545
"15907",212.19196,80.233154,92.91414
"15908",212.20526,80.15015,92.83842
"15909",212.21857,80.059814,92.75278
"15910",212.232,79.954834,92.649666
"15911",212.2453,79.84253,92.53595
"15912",212.2586,79.727776,92.416275
"15913",212.27203,79.61059,92.29058
"15914",212.28534,79.49584,92.163666
"15915",212.29865,79.38842,92.04049
"15916",212.31195,79.29565,91.928604
"15917",212.32526,79.21263,91.82358
"15918",212.33868,79.14183,91.72817
"15919",212.35199,79.08324,91.64276
"15920",212.3653,79.03197,91.56284
"15921",212.37872,78.98558,91.486206
"15922",212.39203,78.94652,91.41544
"15923",212.40533,78.91966,91.35567
"15924",212.41864,78.89281,91.29505
"15925",212.43195,78.870834,91.23848
"15926",212.44537,78.84642,91.17878
"15927",212.45868,78.82445,91.12076
"15928",212.47198,78.79759,91.05717
"15929",212.48541,78.77318,90.99518
"15930",212.49872,78.768295,90.95196
"15931",212.51202,78.8098,90.95497
"15932",212.52533,78.93187,91.03985
"15933",212.53864,79.168686,91.243286
"15934",212.55206,79.52758,91.5762
"15935",212.56537,79.9939,92.027756
"15936",212.57867,80.516365,92.55003
"15937",212.5921,81.02907,93.07887
"15938",212.60541,81.46609,93.54805
"15939",212.61871,81.78592,93.9137
"15940",212.63202,81.971466,94.15505
"15941",212.64532,82.03006,94.27525
"15942",212.65875,81.991,94.29963
"15943",212.67206,81.88602,94.25687
"15944",212.68536,81.74685,94.176636
"15945",212.69879,81.602806,94.08718
"15946",212.7121,81.47585,94.010315
"15947",212.7254,81.3782,93.95878
"15948",212.73871,81.30984,93.93349
"15949",212.75201,81.25613,93.92071
"15950",212.76544,81.20241,93.90624
"15951",212.77875,81.13649,93.8779
"15952",212.79205,81.04616,93.82308
"15953",212.80548,80.94118,93.75079
"15954",212.81879,80.82887,93.6679
"15955",212.83209,80.723885,93.58881
"15956",212.8454,80.635994,93.523544
"15957",212.8587,80.56275,93.47018
"15958",212.87213,80.499275,93.424286
"15959",212.88544,80.445564,93.38618
"15960",212.89874,80.394295,93.34883
"15961",212.91217,80.34058,93.30744
"15962",212.92548,80.28199,93.25949
"15963",212.93878,80.2063,93.19261
"15964",212.95209,80.12085,93.11361
"15965",212.9654,80.02075,93.01729
"15966",212.97882,79.91333,92.910515
"15967",212.99213,79.798584,92.79306
"15968",213.00543,79.68383,92.67201
"15969",213.01886,79.57397,92.55227
"15970",213.03217,79.46166,92.42665
"15971",213.04547,79.3518,92.299965
"15972",213.05878,79.24437,92.17228
"15973",213.07208,79.14427,92.04857
"15974",213.08551,79.05394,91.931496
"15975",213.09882,78.97093,91.818924
"15976",213.11212,78.90013,91.715965
"15977",213.12555,78.839096,91.62056
"15978",213.13885,78.79027,91.53545
"15979",213.15216,78.74876,91.45614
"15980",213.16547,78.71946,91.38774
"15981",213.17877,78.69749,91.32575
"15982",213.1922,78.677956,91.26552
"15983",213.2055,78.65354,91.19979
"15984",213.21881,78.63157,91.13574
"15985",213.23224,78.60471,91.066124
"15986",213.24554,78.5803,90.99811
"15987",213.25885,78.56565,90.939095
"15988",213.27216,78.58274,90.91136
"15989",213.28546,78.658424,90.94276
"15990",213.29889,78.82933,91.07174
"15991",213.3122,79.12474,91.33057
"15992",213.3255,79.54711,91.725586
"15993",213.33893,80.0647,92.22902
"15994",213.35223,80.61402,92.780365
"15995",213.36554,81.126724,93.312256
"15996",213.37885,81.54421,93.76495
"15997",213.39215,81.82498,94.09398
"15998",213.40558,81.97391,94.299934
"15999",213.41888,82.00809,94.3958
"16000",213.43219,81.96414,94.414604
"16001",213.44562,81.866486,94.37833
"16002",213.45892,81.74929,94.31946
"16003",213.47223,81.634544,94.25938
"16004",213.48553,81.54177,94.21768
"16005",213.49884,81.47341,94.1975
"16006",213.51227,81.42458,94.19472
"16007",213.52557,81.38796,94.202614
"16008",213.53888,81.34646,94.20448
"16009",213.5523,81.28542,94.185524
"16010",213.56561,81.19508,94.13535
"16011",213.57892,81.08278,94.060394
"16012",213.59222,80.95094,93.962395
"16013",213.60553,80.81178,93.85295
"16014",213.61896,80.67994,93.746475
"16015",213.63226,80.570076,93.65786
"16016",213.64557,80.47486,93.58046
"16017",213.659,80.40162,93.52206
"16018",213.6723,80.343025,93.47601
"16019",213.68561,80.28687,93.43058
"16020",213.69891,80.22339,93.37606
"16021",213.71222,80.15015,93.3098
"16022",213.72565,80.062256,93.2266
"16023",213.73895,79.95972,93.12601
"16024",213.75226,79.84497,93.01
"16025",213.76569,79.72045,92.88064
"16026",213.77899,79.5935,92.74495
"16027",213.7923,79.466545,92.60529
"16028",213.8056,79.344475,92.46655
"16029",213.81891,79.234604,92.3362
"16030",213.83234,79.13695,92.21462
"16031",213.84564,79.04906,92.09976
"16032",213.85895,78.96605,91.98704
"16033",213.87238,78.887924,91.8766
"16034",213.88568,78.81468,91.76861
"16035",213.89899,78.751205,91.66809
"16036",213.9123,78.69749,91.57535
"16037",213.9256,78.65354,91.4907
"16038",213.93903,78.624245,91.41933
"16039",213.95233,78.59983,91.35192
"16040",213.96564,78.58518,91.29352
"16041",213.97906,78.572975,91.2371
"16042",213.99237,78.56321,91.18274
"16043",214.00568,78.551,91.12563
"16044",214.01898,78.52903,91.05838
"16045",214.03229,78.504616,90.988
"16046",214.04572,78.47532,90.91197
"16047",214.05902,78.45335,90.842354
"16048",214.07233,78.45579,90.79646
"16049",214.08575,78.51194,90.80436
"16050",214.09906,78.66331,90.909225
"16051",214.11237,78.941635,91.14578
"16052",214.12567,79.344475,91.51555
"16053",214.13898,79.852295,92.002884
"16054",214.1524,80.411385,92.55736
"16055",214.16571,80.9485,93.10733
"16056",214.17902,81.39773,93.5862
"16057",214.19244,81.71999,93.95214
"16058",214.20575,81.90311,94.189
"16059",214.21906,81.96414,94.30951
"16060",214.23236,81.92752,94.33427
"16061",214.24567,81.83719,94.30417
"16062",214.2591,81.71999,94.244385
"16063",214.2724,81.60769,94.18583
"16064",214.2857,81.512474,94.140854
"16065",214.29913,81.44167,94.11732
"16066",214.31244,81.39773,94.11842
"16067",214.32574,81.36355,94.12792
"16068",214.33905,81.322044,94.12903
"16069",214.35236,81.25613,94.10442
"16070",214.36578,81.160904,94.048454
"16071",214.37909,81.03639,93.96022
"16072",214.3924,80.89723,93.85345
"16073",214.40582,80.762955,93.74721
"16074",214.41913,80.64332,93.65141
"16075",214.43243,80.54566,93.57386
"16076",214.44574,80.46998,93.51523
"16077",214.45905,80.40894,93.46888
"16078",214.47247,80.360115,93.43283
"16079",214.48578,80.31129,93.395256
"16080",214.49908,80.25269,93.34639
"16081",214.51251,80.181885,93.28348
"16082",214.52582,80.09888,93.206154
"16083",214.53912,80.00122,93.11159
"16084",214.55243,79.8938,93.0042
"16085",214.56573,79.77905,92.88614
