"","Time..s.","PPG.trace","Preprocessed.PPG"
"6209",82.84381,86.56382,88.57204
"6210",82.85715,85.40658,87.61991
"6211",82.87048,84.11017,86.492455
"6212",82.88382,82.75273,85.26346
"6213",82.897156,81.45388,84.05063
"6214",82.91049,80.33082,82.973
"6215",82.92383,79.449455,82.101974
"6216",82.937164,78.82933,81.464645
"6217",82.9505,78.42649,81.02522
"6218",82.96384,78.16281,80.71237
"6219",82.97717,77.95529,80.44744
"6220",82.99051,77.738,80.16625
"6221",83.003845,77.467,79.82457
"6222",83.01718,77.12764,79.40605
"6223",83.03052,76.717476,78.90613
"6224",83.04385,76.26093,78.34701
"6225",83.05719,75.775085,77.744316
"6226",83.070526,75.284355,77.12156
"6227",83.08386,74.810715,76.50056
"6228",83.0972,74.37858,75.90626
"6229",83.110535,74.00748,75.35949
"6230",83.12387,73.704735,74.869484
"6231",83.13721,73.46548,74.4335
"6232",83.15054,73.29458,74.0584
"6233",83.16388,73.17738,73.73167
"6234",83.177216,73.111465,73.452545
"6235",83.19055,73.09682,73.22263
"6236",83.20389,73.131,73.04109
"6237",83.217224,73.196915,72.89236
"6238",83.23056,73.27993,72.76278
"6239",83.2439,73.3605,72.63335
"6240",83.25723,73.428856,72.494225
"6241",83.27057,73.477684,72.33771
"6242",83.283905,73.50698,72.163185
"6243",83.29724,73.52651,71.97981
"6244",83.31058,73.5436,71.79461
"6245",83.32391,73.5729,71.62215
"6246",83.33725,73.687645,71.53605
"6247",83.350586,74.06607,71.71722
"6248",83.36392,74.95964,72.425354
"6249",83.37726,76.61982,73.928024
"6250",83.390594,79.168686,76.37126
"6251",83.40393,82.4744,79.651
"6252",83.41727,86.16586,83.419785
"6253",83.4306,89.70107,87.147675
"6254",83.44394,92.55024,90.3
"6255",83.457275,94.37644,92.5184
"6256",83.47061,95.10155,93.69277
"6257",83.48395,94.889145,93.95229
"6258",83.497284,94.02487,93.55331
"6259",83.51062,92.82857,92.79528
"6260",83.52396,91.55901,91.92662
"6261",83.53729,90.374916,91.103745
"6262",83.55063,89.33486,90.38791
"6263",83.563965,88.4242,89.76897
"6264",83.5773,87.55749,89.16551
"6265",83.59064,86.63462,88.47882
"6266",83.60397,85.57992,87.63145
"6267",83.61731,84.37629,86.60219
"6268",83.630646,83.06767,85.43033
"6269",83.64398,81.75418,84.2127
"6270",83.65732,80.550545,83.06388
"6271",83.670654,79.55932,82.08986
"6272",83.68399,78.82689,81.34366
"6273",83.69733,78.33372,80.81383
"6274",83.71066,78.02365,80.45169
"6275",83.724,77.823456,80.189735
"6276",83.737335,77.65743,79.955696
"6277",83.75067,77.45724,79.6823
"6278",83.76401,77.19112,79.336716
"6279",83.77734,76.84932,78.90714
"6280",83.79068,76.4416,78.40096
"6281",83.804016,75.98993,77.8381
"6282",83.81735,75.51629,77.23914
"6283",83.83069,75.04997,76.63271
"6284",83.844025,74.61295,76.04101
"6285",83.85736,74.21744,75.47715
"6286",83.8707,73.87808,74.95709
"6287",83.88403,73.60464,74.49234
"6288",83.89737,73.39712,74.08497
"6289",83.910706,73.25063,73.73215
"6290",83.92404,73.16518,73.435776
"6291",83.93738,73.13344,73.19045
"6292",83.950714,73.15297,72.99541
"6293",83.96405,73.22133,72.8498
"6294",83.97739,73.321434,72.738075
"6295",83.99072,73.4313,72.63924
"6296",84.00406,73.53384,72.53651
"6297",84.017395,73.616844,72.41745
"6298",84.03073,73.670555,72.27169
"6299",84.04407,73.69741,72.10075
"6300",84.0574,73.70962,71.91601
"6301",84.07074,73.721825,71.73164
"6302",84.084076,73.74624,71.55987
"6303",84.09741,73.846344,71.46455
"6304",84.11075,74.16617,71.59207
"6305",84.124084,74.94499,72.18859
"6306",84.13742,76.4416,73.52723
"6307",84.15076,78.8098,75.78423
"6308",84.16409,81.96658,78.903824
"6309",84.17743,85.58724,82.58594
"6310",84.190765,89.15663,86.329926
"6311",84.2041,92.13519,89.594635
"6312",84.21744,94.13229,91.97096
"6313",84.230774,95.02342,93.30373
"6314",84.24411,94.93065,93.680435
"6315",84.25745,94.12009,93.33646
"6316",84.27078,92.90669,92.564316
"6317",84.28412,91.57122,91.63218
"6318",84.297455,90.29923,90.721794
"6319",84.31079,89.181046,89.92546
"6320",84.32413,88.216675,89.248
"6321",84.33746,87.3402,88.628296
"6322",84.3508,86.45396,87.971436
"6323",84.364136,85.472496,87.19166
"6324",84.37747,84.36164,86.251816
"6325",84.39081,83.15556,85.18204
"6326",84.404144,81.94217,84.06725
"6327",84.41748,80.833755,83.01953
"6328",84.43082,79.92554,82.13737
"6329",84.44415,79.25414,81.463646
"6330",84.45749,78.8098,80.995995
"6331",84.470825,78.536354,80.685356
"6332",84.48416,78.36057,80.46384
"6333",84.4975,78.20676,80.25879
"6334",84.51083,78.028534,80.02453
"6335",84.52417,77.786835,79.72122
"6336",84.537506,77.471886,79.33711
"6337",84.55084,77.08125,78.86748
"6338",84.56418,76.63935,78.334366
"6339",84.577515,76.17059,77.76059
"6340",84.59085,75.69695,77.16728
"6341",84.60419,75.24284,76.578705
"6342",84.61752,74.830246,76.01745
"6343",84.63086,74.47379,75.49944
"6344",84.644196,74.17349,75.02645
"6345",84.65753,73.93179,74.60268
"6346",84.67087,73.741356,74.22261
"6347",84.684204,73.602196,73.88787
"6348",84.69754,73.49966,73.5854
"6349",84.71088,73.43618,73.318794
"6350",84.72421,73.40444,73.08194
"6351",84.73755,73.39956,72.87095
"6352",84.750885,73.42397,72.6891
"6353",84.76422,73.46548,72.52511
"6354",84.77756,73.52407,72.3795
"6355",84.79089,73.59243,72.24549
"6356",84.80423,73.66323,72.11606
"6357",84.817566,73.7438,71.998604
"6358",84.8309,73.882965,71.94227
"6359",84.84424,74.22232,72.09047
"6360",84.857574,74.99138,72.67898
"6361",84.87091,76.4416,73.97268
"6362",84.88425,78.712135,76.13202
"6363",84.89758,81.73464,79.11428
"6364",84.91092,85.19173,82.62557
"6365",84.924255,88.59266,86.18874
"6366",84.93759,91.41985,89.284454
"6367",84.95093,93.30221,91.52368
"6368",84.964264,94.12009,92.757256
"6369",84.9776,93.99069,93.069115
"6370",84.99094,93.172806,92.68844
"6371",85.00427,91.97406,91.901344
"6372",85.01761,90.66056,90.962036
"6373",85.030945,89.41787,90.05249
"6374",85.04428,88.31678,89.24571
"6375",85.05762,87.35241,88.541245
"6376",85.07095,86.44175,87.86035
"6377",85.08429,85.49935,87.119255
"6378",85.097626,84.45197,86.24373
"6379",85.11096,83.28741,85.218285
"6380",85.1243,82.06424,84.09785
"6381",85.137634,80.88258,82.9807
"6382",85.15097,79.86206,81.987755
"6383",85.16431,79.078354,81.19974
"6384",85.17764,78.553444,80.64603
"6385",85.19098,78.25315,80.30053
"6386",85.204315,78.10666,80.09945
"6387",85.21765,78.03586,79.96948
"6388",85.23099,77.962616,79.83486
"6389",85.24432,77.82834,79.63692
"6390",85.25766,77.60128,79.341995
"6391",85.270996,77.27169,78.93745
"6392",85.28433,76.85176,78.43226
"6393",85.29767,76.36103,77.84315
"6394",85.311005,75.841,77.209404
"6395",85.32434,75.33074,76.569176
"6396",85.33768,74.85954,75.952065
"6397",85.35101,74.44694,75.37882
"6398",85.36435,74.10513,74.86349
"6399",85.377686,73.83902,74.41316
"6400",85.39102,73.653465,74.03508
"6401",85.40436,73.53872,73.72201
"6402",85.417694,73.48745,73.46883
"6403",85.43103,73.48257,73.26043
"6404",85.44437,73.50698,73.08118
"6405",85.4577,73.54116,72.91245
"6406",85.47104,73.57778,72.74724
"6407",85.484375,73.6144,72.58317
"6408",85.49771,73.64858,72.4178
"6409",85.51105,73.68276,72.2535
"6410",85.52438,73.71938,72.09271
"6411",85.53772,73.780426,71.95749
"6412",85.551056,73.934235,71.91694
"6413",85.56439,74.3444,72.13755
"6414",85.57773,75.27215,72.888565
"6415",85.591064,76.95674,74.425415
"6416",85.6044,79.49828,76.87186
"6417",85.61774,82.76982,80.127716
"6418",85.63107,86.39292,83.83737
"6419",85.64441,89.84268,87.48691
"6420",85.657745,92.60639,90.558205
"6421",85.67108,94.36179,92.70756
"6422",85.68442,95.03807,93.83264
"6423",85.697754,94.803696,94.06821
"6424",85.71109,93.944305,93.67143
"6425",85.72443,92.76997,92.93286
"6426",85.73776,91.52483,92.086784
"6427",85.7511,90.374916,91.29702
"6428",85.764435,89.37148,90.617805
"6429",85.77777,88.49256,90.031746
"6430",85.79111,87.66247,89.46704
"6431",85.80444,86.783554,88.827576
"6432",85.81778,85.770355,88.02636
"6433",85.831116,84.596016,87.03234
"6434",85.84445,83.3045,85.884445
"6435",85.85779,81.97879,84.662
"6436",85.871124,80.740974,83.48602
"6437",85.88446,79.69848,82.46668
"6438",85.8978,78.907455,81.66624
"6439",85.91113,78.3679,81.09254
"6440",85.92447,78.030975,80.70461
"6441",85.937805,77.81857,80.43068
"6442",85.95114,77.65499,80.19893
"6443",85.96448,77.47677,79.947426
"6444",85.97781,77.24483,79.636635
"6445",85.99115,76.929886,79.235596
"6446",86.004486,76.53681,78.74658
"6447",86.01782,76.085144,78.18669
"6448",86.03116,75.596855,77.576065
"6449",86.044495,75.106125,76.94774
"6450",86.05783,74.64713,76.335815
"6451",86.07117,74.24185,75.76326
"6452",86.0845,73.90982,75.25129
"6453",86.09784,73.65835,74.8095
"6454",86.111176,73.48257,74.43555
"6455",86.12451,73.375145,74.12446
"6456",86.13785,73.32632,73.86861
"6457",86.151184,73.31899,73.65273
"6458",86.16452,73.32876,73.45372
"6459",86.17786,73.34341,73.259895
"6460",86.19119,73.35073,73.059204
"6461",86.20453,73.34829,72.848976
"6462",86.217865,73.338524,72.63135
"6463",86.2312,73.31899,72.40365
"6464",86.24454,73.306786,72.18266
"6465",86.25787,73.32632,71.993034
"6466",86.27121,73.477684,71.93585
"6467",86.284546,73.944,72.19835
"6468",86.29788,74.99626,73.06136
"6469",86.31122,76.8542,74.76294
"6470",86.324554,79.57397,77.3844
"6471",86.33789,82.97734,80.77446
"6472",86.35123,86.64683,84.53699
"6473",86.36456,90.03555,88.13342
"6474",86.3779,92.6601,91.07159
"6475",86.391235,94.24216,93.04927
"6476",86.40457,94.77684,94.02902
"6477",86.41791,94.46189,94.17585
"6478",86.431244,93.60738,93.77328
"6479",86.44458,92.50385,93.09498
"6480",86.45792,91.37591,92.35778
"6481",86.47125,90.34318,91.68055
"6482",86.48459,89.43008,91.090675
"6483",86.497925,88.602425,90.55772
"6484",86.51126,87.77966,90.003784
"6485",86.5246,86.86656,89.3338
"6486",86.53793,85.79721,88.47903
"6487",86.55127,84.55695,87.41993
"6488",86.564606,83.18974,86.19512
"6489",86.57794,81.795685,84.90074
"6490",86.59128,80.50172,83.66289
"6491",86.604614,79.412834,82.58968
"6492",86.61795,78.58762,81.746124
"6493",86.63129,78.02365,81.138016
"6494",86.64462,77.66964,80.722244
"6495",86.65796,77.44991,80.429695
"6496",86.671295,77.281456,80.18155
"6497",86.68463,77.100784,79.915924
"6498",86.69797,76.859085,79.583626
"6499",86.7113,76.541695,79.16808
"6500",86.72464,76.15839,78.676704
"6501",86.737976,75.72381,78.12208
"6502",86.75131,75.264824,77.529465
"6503",86.76465,74.80339,76.92006
"6504",86.777985,74.373695,76.32797
"6505",86.79132,73.987946,75.7664
"6506",86.80466,73.66323,75.253815
"6507",86.81799,73.409325,74.80189
"6508",86.83133,73.22865,74.41526
"6509",86.844666,73.11879,74.093796
"6510",86.858,73.06996,73.82993
"6511",86.87134,73.06264,73.60605
"6512",86.884674,73.077286,73.40391
"6513",86.89801,73.09926,73.20955
"6514",86.91135,73.109024,73.00367
"6515",86.92468,73.10658,72.78589
"6516",86.93802,73.08949,72.55338
"6517",86.951355,73.060196,72.308136
"6518",86.96469,73.03334,72.064415
"6519",86.97803,73.02846,71.84183
"6520",86.99136,73.1017,71.69721
"6521",87.0047,73.39956,71.7795
"6522",87.018036,74.15152,72.3252
"6523",87.03137,75.613945,73.604866
"6524",87.04471,77.92111,75.77497
"6525",87.058044,81.00221,78.79111
"6526",87.07138,84.53986,82.36008
"6527",87.08472,88.03601,85.99809
"6528",87.09805,90.97063,89.18384
"6529",87.11139,92.97749,91.53354
"6530",87.124725,93.941864,92.90346
"6531",87.13806,93.98581,93.38309
"6532",87.1514,93.382774,93.21711
"6533",87.164734,92.43061,92.68316
"6534",87.17807,91.37835,92.019356
"6535",87.19141,90.38468,91.38126
"6536",87.20474,89.50576,90.826866
"6537",87.21808,88.72205,90.34022
"6538",87.231415,87.96033,89.85106
"6539",87.24475,87.12779,89.26729
"6540",87.25809,86.14145,88.503685
"6541",87.27142,84.96712,87.52127
"6542",87.28476,83.631645,86.34102
"6543",87.298096,82.22293,85.04579
"6544",87.31143,80.86061,83.75294
"6545",87.32477,79.6643,82.58352
"6546",87.338104,78.709694,81.61842
"6547",87.35144,78.01633,80.884735
"6548",87.36478,77.55001,80.35643
"6549",87.37811,77.23262,79.96248
"6550",87.39145,76.97627,79.61965
"6551",87.404785,76.71259,79.26148
"6552",87.41812,76.39277,78.83893
"6553",87.43146,76.00458,78.33801
"6554",87.44479,75.55779,77.76637
"6555",87.45813,75.07439,77.14415
"6556",87.471466,74.59098,76.50682
"6557",87.4848,74.144196,75.89101
"6558",87.49814,73.74868,75.3125
"6559",87.511475,73.41909,74.78756
"6560",87.52481,73.162735,74.325554
"6561",87.53815,72.98451,73.93367
"6562",87.55148,72.87465,73.604576
"6563",87.56482,72.8307,73.33797
"6564",87.578156,72.84047,73.123695
"6565",87.59149,72.89418,72.953674
"6566",87.60483,72.969864,72.807304
"6567",87.618164,73.05287,72.67062
"6568",87.6315,73.126114,72.52677
"6569",87.64484,73.18227,72.36812
"6570",87.65817,73.20912,72.18192
"6571",87.67151,73.21156,71.97215
"6572",87.684845,73.199356,71.74781
"6573",87.69818,73.18471,71.520645
"6574",87.71152,73.18471,71.30767
"6575",87.72485,73.2433,71.15329
"6576",87.73819,73.47524,71.17409
"6577",87.751526,74.07828,71.57323
"6578",87.76486,75.30633,72.61623
"6579",87.7782,77.332726,74.49595
"6580",87.791534,80.15747,77.23734
"6581",87.80487,83.53643,80.62122
"6582",87.81821,87.01793,84.213234
"6583",87.83154,90.074615,87.48923
"6584",87.84488,92.29145,90.0209
"6585",87.858215,93.48287,91.59643
"6586",87.87155,93.70992,92.24482
"6587",87.88489,93.21187,92.1752
"6588",87.898224,92.28413,91.66033
"6589",87.91156,91.192795,90.95288
"6590",87.9249,90.121,90.230865
"6591",87.93823,89.14931,89.575455
"6592",87.95157,88.27772,88.98978
"6593",87.964905,87.45495,88.42569
"6594",87.97824,86.58335,87.78706
"6595",87.99158,85.592125,87.001564
"6596",88.00491,84.44465,86.02884
"6597",88.01825,83.16777,84.890854
"6598",88.031586,81.84451,83.66659
"6599",88.04492,80.58961,82.46932
"6600",88.05826,79.5227,81.42084
"6601",88.071594,78.70481,80.588036
"6602",88.08493,78.14572,79.98847
"6603",88.09827,77.80148,79.58629
"6604",88.1116,77.593956,79.31006
"6605",88.12494,77.44015,79.08106
"6606",88.138275,77.27657,78.837494
"6607",88.15161,77.05684,78.53265
"6608",88.16495,76.76387,78.14771
"6609",88.17828,76.402534,77.68525
"6610",88.19162,75.98749,77.15778
"6611",88.204956,75.543144,76.58805
"6612",88.21829,75.10368,76.009315
"6613",88.23163,74.68864,75.44126
"6614",88.244965,74.31266,74.89931
"6615",88.2583,73.99039,74.39931
"6616",88.27164,73.72915,73.95027
"6617",88.28497,73.52895,73.554115
"6618",88.29831,73.38979,73.21274
"6619",88.311646,73.306786,72.923164
"6620",88.32498,73.27993,72.68715
"6621",88.33832,73.29458,72.4918
"6622",88.351654,73.33364,72.32132
"6623",88.36499,73.38735,72.16671
"6624",88.37833,73.445946,72.01866
"6625",88.39166,73.49233,71.86024
"6626",88.405,73.52651,71.691055
"6627",88.418335,73.55093,71.513176
"6628",88.43167,73.56069,71.32141
"6629",88.44501,73.56313,71.12263
"6630",88.45834,73.57046,70.9288
"6631",88.47168,73.60464,70.76206
"6632",88.485016,73.74624,70.70381
"6633",88.49835,74.16861,70.930756
"6634",88.51169,75.123215,71.70313
"6635",88.525024,76.81758,73.2451
"6636",88.53836,79.33227,75.66034
"6637",88.5517,82.51591,78.82311
"6638",88.56503,85.9852,82.371025
"6639",88.57837,89.232315,85.805176
"6640",88.591705,91.776306,88.63768
"6641",88.60504,93.33395,90.56333
"6642",88.61838,93.875946,91.52202
"6643",88.631714,93.58297,91.66267
"6644",88.64505,92.733345,91.23751
"6645",88.65839,91.62493,90.527016
"6646",88.67172,90.48234,89.7477
"6647",88.68506,89.4374,89.03034
"6648",88.698395,88.516975,88.40484
"6649",88.71173,87.68444,87.838455
"6650",88.72507,86.84703,87.24118
"6651",88.7384,85.909515,86.51763
"6652",88.75174,84.82063,85.61342
"6653",88.765076,83.60235,84.54578
"6654",88.77841,82.320595,83.376595
"6655",88.79175,81.092545,82.22106
"6656",88.805084,80.03784,81.2005
"6657",88.81842,79.234604,80.398445
"6658",88.83176,78.695045,79.83497
"6659",88.84509,78.37522,79.474365
"6660",88.85843,78.19943,79.2478
"6661",88.871765,78.08469,79.07679
"6662",88.8851,77.95773,78.889984
"6663",88.89844,77.77707,78.6455
"6664",88.91177,77.5256,78.32456
"6665",88.92511,77.20088,77.92252
"6666",88.938446,76.81514,77.44931
"6667",88.95178,76.39277,76.927414
"6668",88.96512,75.95819,76.38011
"6669",88.978455,75.53582,75.831436
"6670",88.99179,75.142746,75.29886
"6671",89.00513,74.79607,74.80039
"6672",89.01846,74.512856,74.35456
"6673",89.0318,74.285805,73.95604
"6674",89.045135,74.11734,73.60901
"6675",89.05847,74.00748,73.315315
"6676",89.07181,73.951324,73.0719
"6677",89.085144,73.944,72.87556
"6678",89.09848,73.970856,72.713165
"6679",89.11182,74.019684,72.573586
"6680",89.12515,74.08072,72.44774
"6681",89.13849,74.13931,72.32136
"6682",89.151825,74.19058,72.18948
"6683",89.16516,74.232086,72.049446
"6684",89.1785,74.268715,71.90583
"6685",89.19183,74.29801,71.75603
"6686",89.20517,74.319984,71.599815
"6687",89.218506,74.35172,71.454056
"6688",89.23184,74.461586,71.38741
"6689",89.24518,74.813156,71.56591
"6690",89.258514,75.63836,72.22903
"6691",89.27185,77.16426,73.61863
"6692",89.28519,79.483635,75.84939
"6693",89.29852,82.46464,78.814255
"6694",89.31186,85.75815,82.184784
"6695",89.325195,88.866104,85.47268
"6696",89.33853,91.317314,88.20096
"6697",89.35187,92.823685,90.061
"6698",89.365204,93.331505,90.96956
"6699",89.37854,93.00923,91.063896
"6700",89.39188,92.120544,90.58175
"6701",89.40521,90.95354,89.79351
"6702",89.41855,89.73281,88.915085
"6703",89.431885,88.602425,88.08885
"6704",89.44522,87.6112,87.366455
"6705",89.45856,86.72495,86.71806
"6706",89.47189,85.858246,86.06151
"6707",89.48523,84.9305,85.316826
"6708",89.498566,83.888,84.428406
"6709",89.5119,82.75029,83.41219
"6710",89.52524,81.602806,82.350655
"6711",89.538574,80.55787,81.355804
"6712",89.55191,79.710686,80.526054
"6713",89.56525,79.11253,79.91886
"6714",89.57858,78.751205,79.5298
"6715",89.59192,78.56809,79.30766
"6716",89.605255,78.4802,79.175026
"6717",89.61859,78.41184,79.05917
"6718",89.63193,78.294655,78.89236
"6719",89.64526,78.09201,78.63642
"6720",89.6586,77.79172,78.276505
"6721",89.671936,77.41085,77.82663
"6722",89.68527,76.96651,77.30138
"6723",89.69861,76.49531,76.73538
"6724",89.711945,76.02655,76.157104
"6725",89.72528,75.58221,75.58859
"6726",89.73862,75.17937,75.0477
"6727",89.75195,74.83269,74.55038
"6728",89.76529,74.54948,74.10569
"6729",89.778625,74.33463,73.72052
"6730",89.79196,74.18326,73.392105
"6731",89.8053,74.10025,73.12733
"6732",89.818634,74.06851,72.911224
"6733",89.83197,74.07828,72.735634
"6734",89.84531,74.11246,72.58476
"6735",89.85864,74.1564,72.444725
"6736",89.87198,74.20279,72.3085
"6737",89.885315,74.24185,72.166405
"6738",89.89865,74.2736,72.01821
"6739",89.91199,74.30045,71.86612
"6740",89.92532,74.32731,71.71487
"6741",89.93866,74.371254,71.58154
"6742",89.951996,74.50065,71.53504
"6743",89.96533,74.861984,71.724525
"6744",89.97867,75.684746,72.38673
"6745",89.992004,77.19844,73.76557
"6746",90.00534,79.51293,75.992516
"6747",90.01868,82.52079,78.98515
"6748",90.03201,85.892426,82.43556
"6749",90.04535,89.1371,85.86437
"6750",90.058685,91.75922,88.77202
"6751",90.07202,93.43893,90.81921
"6752",90.08536,94.098114,91.89836
"6753",90.098694,93.87839,92.1192
"6754",90.11203,93.050735,91.72525
"6755",90.12537,91.91791,91.00026
"6756",90.1387,90.71671,90.1715
"6757",90.15204,89.60342,89.393105
"6758",90.165375,88.63172,88.72152
"6759",90.17871,87.77478,88.13432
"6760",90.19205,86.95201,87.55452
"6761",90.20538,86.07309,86.892845
"6762",90.21872,85.06966,86.07919
"6763",90.232056,83.92462,85.09258
"6764",90.24539,82.68925,83.97985
"6765",90.25873,81.46609,82.84073
"6766",90.272064,80.36744,81.787895
"6767",90.2854,79.48119,80.91313
"6768",90.29874,78.84642,80.262146
"6769",90.31207,78.4387,79.818375
"6770",90.32541,78.19943,79.53032
"6771",90.338745,78.05051,79.32513
"6772",90.35208,77.92111,79.13481
"6773",90.36542,77.7551,78.90383
"6774",90.37875,77.5256,78.60418
"6775",90.39209,77.21797,78.21923
"6776",90.405426,76.83711,77.751434
"6777",90.41876,76.40986,77.22534
"6778",90.4321,75.96307,76.66637
"6779",90.445435,75.526054,76.103195
"6780",90.45877,75.11833,75.555664
"6781",90.47211,74.757,75.04179
"6782",90.48544,74.4567,74.577644
"6783",90.49878,74.21988,74.167595
"6784",90.512115,74.04898,73.81607
"6785",90.52545,73.953766,73.53489
"6786",90.53879,73.919586,73.31177
"6787",90.552124,73.93179,73.133965
"6788",90.56546,73.970856,72.9834
"6789",90.5788,74.022125,72.84626
"6790",90.59213,74.06119,72.69852
"6791",90.60547,74.0856,72.537346
"6792",90.618805,74.10025,72.36717
"6793",90.63214,74.10025,72.18281
"6794",90.64548,74.09537,71.99356
"6795",90.65881,74.090485,71.80416
"6796",90.67215,74.12955,71.658554
"6797",90.685486,74.31022,71.65578
"6798",90.69882,74.83269,72.00044
"6799",90.71216,75.94354,72.94982
"6800",90.725494,77.838104,74.71762
"6801",90.73883,80.54078,77.35274
"6802",90.75217,83.844055,80.67291
"6803",90.7655,87.327995,84.27698
"6804",90.77884,90.4799,87.65788
"6805",90.792175,92.860306,90.36579
"6806",90.80551,94.2446,92.15197
"6807",90.81885,94.65476,93.00728
"6808",90.832184,94.293434,93.10391
"6809",90.84552,93.44381,92.70096
"6810",90.85886,92.37446,92.05173
"6811",90.87219,91.285576,91.34955
"6812",90.88553,90.27726,90.69391
"6813",90.898865,89.37881,90.11662
"6814",90.9122,88.551155,89.58206
"6815",90.92554,87.71862,89.016754
"6816",90.93887,86.803085,88.34242
"6817",90.95221,85.74349,87.49542
"6818",90.965546,84.5301,86.46151
"6819",90.97888,83.211716,85.28469
"6820",90.99222,81.88846,84.0618
"6821",91.005554,80.66773,82.900085
"6822",91.01889,79.64721,81.90043
"6823",91.03223,78.87572,81.11791
"6824",91.04556,78.3386,80.54566
"6825",91.0589,77.98459,80.13973
"6826",91.072235,77.74532,79.83749
"6827",91.08557,77.55001,79.57172
"6828",91.09891,77.34493,79.29008
"6829",91.11224,77.09346,78.955635
"6830",91.12558,76.77608,78.547424
"6831",91.138916,76.40009,78.070694
"6832",91.15225,75.97284,77.530945
"6833",91.16559,75.51873,76.95099
"6834",91.178925,75.0695,76.361725
"6835",91.19226,74.6569,75.795044
"6836",91.2056,74.29801,75.26919
"6837",91.21893,74.00748,74.80047
"6838",91.23227,73.78531,74.39104
"6839",91.245605,73.63149,74.043015
"6840",91.25894,73.5436,73.75611
"6841",91.27228,73.514305,73.525055
"6842",91.285614,73.53384,73.34191
"6843",91.29895,73.58999,73.196
"6844",91.31229,73.673,73.0787
"6845",91.32562,73.760895,72.96888
"6846",91.33896,73.84146,72.85448
"6847",91.352295,73.90738,72.72794
"6848",91.36563,73.95621,72.58638
"6849",91.37897,73.98306,72.42437
"6850",91.3923,73.99527,72.24855
"6851",91.40564,74.00992,72.075554
"6852",91.418976,74.08072,71.95917
"6853",91.43231,74.339516,72.03299
"6854",91.44565,75.00847,72.525055
"6855",91.458984,76.34638,73.706985
"6856",91.47232,78.5095,75.75593
"6857",91.48566,81.45144,78.65129
"6858",91.49899,84.88899,82.1342
"6859",91.51233,88.35096,85.74895
"6860",91.525665,91.31487,88.97383
"6861",91.539,93.385216,91.397766
"6862",91.55234,94.42039,92.85123
"6863",91.565674,94.51072,93.3922
"6864",91.57901,93.91501,93.24995
"6865",91.59235,92.928665,92.69845
"6866",91.60568,91.81781,91.991615
"6867",91.61902,90.74845,91.291565
"6868",91.632355,89.79874,90.67774
"6869",91.64569,88.94911,90.13433
"6870",91.65903,88.14099,89.605865
"6871",91.67236,87.28405,89.00333
"6872",91.6857,86.295265,88.24217
"6873",91.699036,85.1429,87.28653
"6874",91.71237,83.84894,86.15328
"6875",91.72571,82.49882,84.92344
"6876",91.739044,81.19997,83.702675
"6877",91.75238,80.062256,82.60246
"6878",91.76572,79.1638,81.705956
"6879",91.77905,78.51438,81.0304
"6880",91.79239,78.082245,80.55184
"6881",91.805725,77.80148,80.21115
"6882",91.81906,77.59884,79.939804
"6883",91.8324,77.40841,79.67434
"6884",91.84573,77.18135,79.366295
"6885",91.85907,76.89815,78.99501
"6886",91.872406,76.5539,78.55383
"6887",91.88574,76.1535,78.045746
"6888",91.89908,75.72381,77.49585
"6889",91.912415,75.28924,76.92765
"6890",91.92575,74.87175,76.36295
"6891",91.93909,74.493324,75.82427
"6892",91.95242,74.16617,75.325035
"6893",91.96576,73.900055,74.87662
"6894",91.979095,73.69497,74.48091
"6895",91.99243,73.548485,74.1374
"6896",92.00577,73.45327,73.840576
"6897",92.019104,73.411766,73.59449
"6898",92.03244,73.41665,73.39349
"6899",92.04578,73.463036,73.23415
"6900",92.05911,73.52651,73.09335
"6901",92.07245,73.602196,72.96674
"6902",92.085785,73.670555,72.835175
"6903",92.09912,73.724266,72.69109
"6904",92.11246,73.75601,72.526726
"6905",92.12579,73.7731,72.348694
"6906",92.13913,73.77554,72.15655
"6907",92.152466,73.77554,71.962036
"6908",92.1658,73.78531,71.77729
"6909",92.17914,73.87808,71.67586
"6910",92.192474,74.19058,71.79705
"6911",92.20581,74.95964,72.38457
"6912",92.21915,76.41474,73.68216
"6913",92.23248,78.69749,75.85287
"6914",92.24582,81.72976,78.84444
"6915",92.259155,85.19661,82.36534
"6916",92.27249,88.60731,85.93843
"6917",92.28583,91.44915,89.049255
"6918",92.299164,93.35348,91.31137
"6919",92.3125,94.20798,92.58317
"6920",92.325836,94.13229,92.951485
"6921",92.33917,93.38766,92.64848
"6922",92.35251,92.27436,91.95355
"6923",92.365845,91.053635,91.1164
"6924",92.37918,89.89395,90.30215
"6925",92.39252,88.86366,89.58105
"6926",92.40585,87.96033,88.9547
"6927",92.41919,87.1107,88.353836
"6928",92.432526,86.2269,87.69224
"6929",92.44586,85.23079,86.89072
"6930",92.4592,84.1004,85.92379
"6931",92.472534,82.87236,84.82388
"6932",92.48587,81.636986,83.67827
"6933",92.49921,80.5066,82.59904
"6934",92.51254,79.569084,81.67735
"6935",92.52588,78.870834,80.96564
"6936",92.539215,78.39475,80.45427
"6937",92.55255,78.09201,80.101364
"6938",92.56589,77.88937,79.8391
"6939",92.57922,77.71847,79.60224
"6940",92.59256,77.5256,79.33807
"6941",92.605896,77.27657,79.01173
"6942",92.61923,76.9543,78.60435
"6943",92.63257,76.56611,78.12098
"6944",92.645905,76.13641,77.58398
"6945",92.65924,75.68719,77.014015
"6946",92.67258,75.25262,76.44467
"6947",92.68591,74.844894,75.888596
"6948",92.69925,74.478676,75.36128
"6949",92.712585,74.161285,74.87135
"6950",92.72592,73.900055,74.427666
"6951",92.73926,73.69497,74.03196
"6952",92.752594,73.54604,73.686005
"6953",92.76593,73.45815,73.39643
"6954",92.77927,73.42397,73.15782
"6955",92.7926,73.43862,72.96697
"6956",92.80594,73.494774,72.818085
"6957",92.819275,73.585106,72.70513
"6958",92.83261,73.69741,72.616974
"6959",92.84595,73.81705,72.53966
"6960",92.85928,73.92447,72.453865
"6961",92.87262,74.01236,72.3519
"6962",92.885956,74.073395,72.22582
"6963",92.89929,74.107574,72.0748
"6964",92.91263,74.127106,71.910194
"6965",92.925964,74.141754,71.74132
"6966",92.9393,74.1857,71.602196
"6967",92.95264,74.339516,71.57432
"6968",92.96597,74.77898,71.83689
"6969",92.97931,75.74822,72.64298
"6970",92.992645,77.467,74.2289
"6971",93.00598,80.01831,76.70105
"6972",93.01932,83.250786,79.9341
"6973",93.03265,86.78844,83.57333
"6974",93.04599,90.10391,87.100945
"6975",93.059326,92.70649,90.01927
"6976",93.07266,94.30076,92.01062
"6977",93.086,94.835434,92.992195
"6978",93.099335,94.47898,93.09935
"6979",93.11267,93.51949,92.59233
"6980",93.12601,92.25727,91.752594
"6981",93.13934,90.93889,90.81725
"6982",93.15268,89.720604,89.94081
"6983",93.166016,88.66102,89.185
"6984",93.17935,87.73571,88.53035
"6985",93.19269,86.86168,87.898056
"6986",93.206024,85.94614,87.19694
"6987",93.21936,84.928055,86.36467
"6988",93.2327,83.80255,85.393166
"6989",93.24603,82.63065,84.340096
"6990",93.25937,81.50759,83.29924
"6991",93.272705,80.53834,82.3771
"6992",93.28604,79.78882,81.6444
"6993",93.29938,79.27123,81.12022
"6994",93.31271,78.94896,80.77517
"6995",93.32605,78.751205,80.54457
"6996",93.339386,78.6096,80.36394
"6997",93.35272,78.45823,80.16912
"6998",93.36606,78.25803,79.920746
"6999",93.379395,77.98947,79.59775
"7000",93.39273,77.65499,79.20044
"7001",93.40607,77.264366,78.736534
"7002",93.4194,76.839554,78.226234
"7003",93.43274,76.39765,77.68557
"7004",93.446075,75.96307,77.13842
"7005",93.45941,75.55535,76.604546
"7006",93.47275,75.18669,76.09699
"7007",93.486084,74.87175,75.63164
"7008",93.49942,74.615395,75.21503
"7009",93.51276,74.42252,74.85389
"7010",93.52609,74.288246,74.54532
"7011",93.53943,74.212555,74.29114
"7012",93.552765,74.18082,74.078545
"7013",93.5661,74.1857,73.90158
"7014",93.57944,74.21744,73.751625
"7015",93.59277,74.26627,73.61976
"7016",93.60611,74.322426,73.496735
"7017",93.619446,74.38346,73.38035
"7018",93.63278,74.43717,73.258545
"7019",93.64612,74.486,73.13354
"7020",93.659454,74.527504,73.00273
"7021",93.67279,74.56657,72.87078
"7022",93.68613,74.615395,72.74982
"7023",93.69946,74.72526,72.691414
"7024",93.7128,75.03044,72.831764
"7025",93.726135,75.75311,73.39914
"7026",93.73947,77.13252,74.645836
"7027",93.75281,79.310295,76.734
"7028",93.76614,82.21561,79.61776
"7029",93.77948,85.54574,83.01713
"7030",93.792816,88.82216,86.46685
"7031",93.80615,91.53216,89.452545
"7032",93.81949,93.30709,91.58786
"7033",93.832825,94.03708,92.733696
"7034",93.84616,93.832,92.96728
"7035",93.8595,92.95552,92.52305
"7036",93.87283,91.70794,91.68033
"7037",93.88617,90.3505,90.68877
"7038",93.899506,89.0663,89.72802
"7039",93.91284,87.93347,88.87851
"7040",93.92618,86.94469,88.13765
"7041",93.939514,86.03647,87.44645
"7042",93.95285,85.118484,86.7171
"7043",93.96619,84.122375,85.88094
"7044",93.97952,83.04082,84.92821
"7045",93.99286,81.92508,83.90749
"7046",94.006195,80.87282,82.91539
"7047",94.01953,79.98413,82.05398
"7048",94.03287,79.31274,81.38209
"7049",94.0462,78.873276,80.92115
"7050",94.05954,78.61692,80.629585
"7051",94.072876,78.4802,80.449646
"7052",94.08621,78.38743,80.30938
"7053",94.09955,78.277565,80.149124
"7054",94.112885,78.10422,79.92195
"7055",94.12622,77.84787,79.60636
"7056",94.13956,77.50851,79.199745
"7057",94.15289,77.09834,78.71172
"7058",94.16623,76.64423,78.16694
"7059",94.179565,76.175476,77.593315
"7060",94.1929,75.72137,77.01969
"7061",94.20624,75.301445,76.466064
"7062",94.219574,74.932785,75.95058
"7063",94.23291,74.62516,75.484604
"7064",94.24625,74.390785,75.08227
"7065",94.25958,74.21988,74.73608
"7066",94.27292,74.11734,74.45291
"7067",94.286255,74.073395,74.225136
"7068",94.29959,74.06851,74.03505
"7069",94.31293,74.09537,73.87655
"7070",94.32626,74.144196,73.74086
"7071",94.3396,74.195465,73.60914
"7072",94.352936,74.23941,73.471695
"7073",94.36627,74.27848,73.33075
"7074",94.37961,74.305336,73.17881
"7075",94.392944,74.322426,73.017944
"7076",94.40628,74.33463,72.85273
"7077",94.41962,74.36393,72.70499
"7078",94.43295,74.493324,72.65826
"7079",94.44629,74.896164,72.889015
"7080",94.459625,75.81903,73.65239
"7081",94.47296,77.50851,75.21121
"7082",94.4863,80.059814,77.68466
"7083",94.49963,83.33379,80.96051
"7084",94.51297,86.959335,84.69023
"7085",94.526306,90.41398,88.36235
"7086",94.53964,93.18501,91.458824
"7087",94.55298,94.942856,93.6287
"7088",94.566315,95.62646,94.77927
"7089",94.57965,95.3872,95.028336
"7090",94.59299,94.503395,94.62538
"7091",94.60632,93.28268,93.857895
"7092",94.61966,91.97894,92.969246
"7093",94.632996,90.7509,92.11555
"7094",94.64633,89.669334,91.36995
"7095",94.65967,88.72205,90.72484
"7096",94.673004,87.8407,90.11604
"7097",94.68634,86.925156,89.445526
"7098",94.69968,85.90463,88.64141
"7099",94.71301,84.74006,87.661354
"7100",94.72635,83.47051,86.53993
"7101",94.739685,82.18143,85.3593
"7102",94.75302,80.98024,84.22628
"7103",94.76636,79.96704,83.24371
"7104",94.77969,79.18822,82.46386
"7105",94.79303,78.64622,81.89649
"7106",94.806366,78.294655,81.502625
"7107",94.8197,78.05783,81.21251
"7108",94.83304,77.86252,80.956505
"7109",94.846375,77.65499,80.68218
"7110",94.85971,77.38644,80.34035
"7111",94.87305,77.04219,79.91443
"7112",94.88638,76.63447,79.414276
"7113",94.89972,76.17792,78.852554
"7114",94.913055,75.699394,78.25459
"7115",94.92639,75.22331,77.64412
"7116",94.93973,74.77898,77.050514
"7117",94.953064,74.38346,76.491844
"7118",94.9664,74.05142,75.98429
"7119",94.97974,73.78775,75.53473
"7120",94.99307,73.59487,75.14772
"7121",95.00641,73.463036,74.81573
"7122",95.019745,73.38735,74.53577
"7123",95.03308,73.36538,74.30715
"7124",95.04642,73.38247,74.11691
"7125",95.05975,73.43374,73.96139
"7126",95.07309,73.49966,73.82211
"7127",95.086426,73.565575,73.6849
"7128",95.09976,73.619286,73.53754
"7129",95.1131,73.66079,73.37965
"7130",95.126434,73.68276,73.20352
"7131",95.13977,73.69497,73.01832
"7132",95.15311,73.704735,72.831055
"7133",95.16644,73.73159,72.66119
"7134",95.17978,73.846344,72.580055
"7135",95.193115,74.215,72.75641
"7136",95.20645,75.08659,73.44723
"7137",95.21979,76.717476,74.92457
"7138",95.23312,79.22484,77.32935
"7139",95.24646,82.50614,80.58643
"7140",95.259796,86.204926,84.36353
"7141",95.27313,89.79385,88.14636
"7142",95.28647,92.74067,91.39924
"7143",95.299805,94.68894,93.74566
"7144",95.31314,95.54833,95.06408
"7145",95.32648,95.46044,95.462074
"7146",95.33981,94.70359,95.18836
"7147",95.35315,93.58541,94.52967
"7148",95.366486,92.35737,93.72617
"7149",95.37982,91.18303,92.938
"7150",95.39316,90.13321,92.237656
"7151",95.406494,89.198135,91.61925
"7152",95.41983,88.31678,91.02533
"7153",95.43317,87.40368,90.37213
"7154",95.4465,86.37095,89.57077
"7155",95.45984,85.18196,88.58087
"7156",95.473175,83.861145,87.42199
"7157",95.48651,82.493935,86.17544
"7158",95.49985,81.19508,84.95452
"7159",95.51318,80.07446,83.87125
"7160",95.52652,79.20775,83.00686
"7161",95.539856,78.59495,82.3693
"7162",95.55319,78.19455,81.924995
"7163",95.56653,77.93332,81.607346
"7164",95.579865,77.73556,81.345
"7165",95.5932,77.53292,81.0716
"7166",95.60654,77.2839,80.74548
"7167",95.61987,76.96651,80.343216
"7168",95.63321,76.58076,79.86267
"7169",95.646545,76.14618,79.32124
"7170",95.65988,75.682304,78.73694
"7171",95.67322,75.21843,78.13814
"7172",95.686554,74.77165,77.54194
"7173",95.69989,74.36149,76.96839
"7174",95.71323,74.002594,76.4333
"7175",95.72656,73.704735,75.94802
"7176",95.7399,73.47036,75.51692
"7177",95.753235,73.3019,75.14442
"7178",95.76657,73.196915,74.83012
"7179",95.77991,73.15053,74.57114
"7180",95.79324,73.15297,74.359535
"7181",95.80658,73.19447,74.18707
"7182",95.819916,73.2604,74.04033
"7183",95.83325,73.33364,73.90296
"7184",95.84659,73.39956,73.76056
"7185",95.859924,73.443504,73.59824
"7186",95.87326,73.46548,73.41533
"7187",95.8866,73.4728,73.21845
"7188",95.89993,73.46792,73.0096
"7189",95.91327,73.46548,72.80303
"7190",95.926605,73.49233,72.62569
"7191",95.93994,73.62661,72.5566
"7192",95.95328,74.03433,72.76516
"7193",95.96661,74.969406,73.51381
"7194",95.97995,76.67353,75.06073
"7195",95.993286,79.25414,77.53739
"7196",96.00662,82.58427,80.84421
"7197",96.01996,86.29282,84.63352
"7198",96.033295,89.84512,88.38247
"7199",96.04663,92.70893,91.55394
"7200",96.05997,94.54978,93.79195
"7201",96.0733,95.291985,94.98883
"7202",96.08664,95.09422,95.26894
"7203",96.099976,94.25437,94.90079
"7204",96.11331,93.08736,94.17922
"7205",96.12665,91.84711,93.34795
"7206",96.139984,90.68253,92.553604
"7207",96.15332,89.65713,91.86203
"7208",96.16666,88.74891,91.2556
"7209",96.17999,87.869995,90.650085
"7210",96.19333,86.925156,89.95119
"7211",96.206665,85.8436,89.08604
"7212",96.22,84.60822,88.03327
"7213",96.23334,83.26299,86.83205
"7214",96.24667,81.91531,85.586334
"7215",96.26001,80.689705,84.42058
"7216",96.273346,79.68871,83.44114
"7217",96.28668,78.94896,82.69166
"7218",96.30002,78.450905,82.16076
"7219",96.313354,78.133514,81.79496
"7220",96.32669,77.91379,81.51691
"7221",96.34003,77.71603,81.25395
"7222",96.35336,77.488976,80.95553
"7223",96.3667,77.19844,80.586525
"7224",96.380035,76.83711,80.13765
"7225",96.39337,76.41474,79.61644
"7226",96.40671,75.95331,79.04297
"7227",96.420044,75.47723,78.44043
"7228",96.43338,75.01091,77.83278
"7229",96.44672,74.58366,77.24962
"7230",96.46005,74.20523,76.701935
"7231",96.47339,73.88785,76.20347
"7232",96.486725,73.633934,75.75855
"7233",96.50006,73.44106,75.366745
"7234",96.5134,73.29946,75.02018
"7235",96.52673,73.20424,74.71557
"7236",96.54007,73.15053,74.44949
"7237",96.553406,73.131,74.21592
"7238",96.56674,73.1432,74.01347
"7239",96.58008,73.1725,73.8285
"7240",96.593414,73.199356,73.642
"7241",96.60675,73.214005,73.44413
"7242",96.62009,73.2018,73.219864
"7243",96.63342,73.15785,72.96348
"7244",96.64676,73.08949,72.681305
"7245",96.660095,73.01137,72.38723
"7246",96.67343,72.938126,72.0956
"7247",96.68677,72.884415,71.821205
"7248",96.7001,72.88197,71.596405
"7249",96.71344,73.01625,71.50825
"7250",96.726776,73.477684,71.75144
"7251",96.74011,74.52506,72.595
"7252",96.75345,76.40009,74.29894
"7253",96.766785,79.17601,76.962364
"7254",96.78012,82.68925,80.44985
"7255",96.79346,86.519875,84.36452
"7256",96.80679,90.108795,88.15718
"7257",96.82013,92.92622,91.29051
"7258",96.833466,94.66697,93.4352
"7259",96.8468,95.29931,94.52589
"7260",96.86014,95.011215,94.7159
"7261",96.873474,94.117645,94.29143
"7262",96.88681,92.94087,93.55583
"7263",96.90015,91.72747,92.74683
"7264",96.91348,90.62394,92.00979
"7265",96.92682,89.671776,91.389626
"7266",96.940155,88.834366,90.85446
"7267",96.95349,88.02136,90.317535
"7268",96.96683,87.12535,89.672195
"7269",96.98016,86.0853,88.854805
"7270",96.9935,84.893875,87.853546
"7271",97.006836,83.614555,86.72716
"7272",97.02017,82.354774,85.58033
"7273",97.03351,81.24147,84.54061
"7274",97.046844,80.35767,83.69561
"7275",97.06018,79.73022,83.07933
"7276",97.07352,79.32006,82.66074
"7277",97.08685,79.05394,82.373375
"7278",97.10019,78.853745,82.143616
"7279",97.113525,78.64866,81.90271
"7280",97.12686,78.38499,81.59681
"7281",97.1402,78.04074,81.202095
"7282",97.153534,77.62081,80.72094
"7283",97.16687,77.134964,80.16074
"7284",97.18021,76.610054,79.5463
"7285",97.19354,76.07538,78.90569
"7286",97.20688,75.560234,78.26791
"7287",97.220215,75.08659,77.655525
"7288",97.23355,74.669106,77.084496
"7289",97.24689,74.3151,76.5639
"7290",97.26022,74.02945,76.1006
"7291",97.27356,73.80972,75.6943
"7292",97.286896,73.651024,75.342155
"7293",97.30023,73.54604,75.03877
"7294",97.31357,73.49233,74.78338
"7295",97.326904,73.480125,74.56781
"7296",97.34024,73.514305,74.39825
"7297",97.35358,73.58022,74.26149
"7298",97.36691,73.670555,74.15121
"7299",97.38025,73.763336,74.046196
"7300",97.393585,73.846344,73.93431
"7301",97.40692,73.90494,73.800606
"7302",97.42026,73.936676,73.64188
"7303",97.43359,73.944,73.459724
"7304",97.44693,73.93179,73.25827
"7305",97.460266,73.90982,73.04667
"7306",97.4736,73.89517,72.841705
"7307",97.48694,73.936676,72.69244
"7308",97.500275,74.17349,72.73978
"7309",97.51361,74.830246,73.214455
"7310",97.52695,76.18524,74.4079
"7311",97.54028,78.416725,76.52017
"7312",97.55362,81.49294,79.54691
"7313",97.566956,85.12581,83.22643
"7314",97.58029,88.82216,87.08296
"7315",97.59363,92.01312,90.54962
"7316",97.606964,94.25681,93.168724
"7317",97.6203,95.37255,94.72999
"7318",97.63364,95.43603,95.27386
"7319",97.64697,94.70603,95.02624
"7320",97.66031,93.507286,94.287056
"7321",97.673645,92.140076,93.34195
"7322",97.68698,90.81926,92.40051
"7323",97.70032,89.652245,91.5716
"7324",97.71365,88.64881,90.869804
"7325",97.72699,87.73815,90.229416
"7326",97.740326,86.81529,89.54837
"7327",97.75366,85.79721,88.74326
"7328",97.767,84.647285,87.7745
"7329",97.780334,83.404594,86.67703
"7330",97.79367,82.16678,85.54561
"7331",97.80701,81.058365,84.504906
"7332",97.82034,80.164795,83.64441
"7333",97.83368,79.5227,83.00746
"7334",97.847015,79.10765,82.5775
"7335",97.86035,78.85863,82.30059
"7336",97.87369,78.695045,82.10134
"7337",97.887024,78.54612,81.91164
"7338",97.90036,78.35081,81.67089
"7339",97.9137,78.0798,81.34835
"7340",97.92703,77.71603,80.92457
"7341",97.94037,77.27413,80.4113
"7342",97.953705,76.77608,79.828064
"7343",97.96704,76.25361,79.20485
"7344",97.98038,75.736015,78.57018
"7345",97.99371,75.25262,77.95354
"7346",98.00705,74.82536,77.37793
"7347",98.020386,74.461586,76.85245
"7348",98.03372,74.16617,76.38396
"7349",98.04706,73.93912,75.9746
"7350",98.060394,73.7731,75.61919
"7351",98.07373,73.670555,75.32205
"7352",98.08707,73.62173,75.07543
"7353",98.1004,73.62173,74.876114
"7354",98.11374,73.653465,74.708534
"7355",98.127075,73.70718,74.56392
"7356",98.14041,73.76578,74.42587
"7357",98.15375,73.81949,74.28477
"7358",98.16708,73.863434,74.135574
"7359",98.18042,73.89273,73.97311
"7360",98.193756,73.91226,73.80179
"7361",98.20709,73.919586,73.61887
"7362",98.22043,73.9147,73.42398
"7363",98.233765,73.917145,73.23626
"7364",98.2471,73.987946,73.116974
"7365",98.26044,74.27604,73.21719
"7366",98.27377,75.02556,73.78784
"7367",98.28711,76.49775,75.10458
"7368",98.300446,78.82933,77.32672
"7369",98.31378,81.93729,80.398094
"7370",98.32712,85.487144,84.00849
"7371",98.340454,88.96132,87.65414
"7372",98.35379,91.82025,90.793106
"7373",98.36713,93.68551,93.02775
"7374",98.38046,94.4448,94.214714
"7375",98.3938,94.220184,94.4415
"7376",98.407135,93.29244,93.95814
"7377",98.42047,91.983826,93.06491
"7378",98.43381,90.579994,92.035576
"7379",98.44714,89.2665,91.05271
"7380",98.46048,88.11902,90.19481
"7381",98.473816,87.12291,89.45242
"7382",98.48715,86.20004,88.752144
"7383",98.50049,85.25033,87.99618
"7384",98.513824,84.2005,87.11042
"7385",98.52716,83.06035,86.10153
"7386",98.5405,81.881134,85.01795
"7387",98.55383,80.765396,83.961
"7388",98.56717,79.823,83.04252
"7389",98.580505,79.11986,82.33385
"7390",98.59384,78.66331,81.84979
"7391",98.60718,78.40696,81.551674
"7392",98.620514,78.27512,81.370056
"7393",98.63385,78.184784,81.225815
"7394",98.64719,78.065155,81.04946
"7395",98.66052,77.86496,80.7888
"7396",98.67386,77.5671,80.424225
"7397",98.687195,77.17403,79.955124
"7398",98.70053,76.70527,79.398056
"7399",98.71387,76.190125,78.77995
"7400",98.7272,75.65545,78.12622
"7401",98.74054,75.13786,77.47287
"7402",98.753876,74.65934,76.84241
"7403",98.76721,74.23941,76.255585
"7404",98.78055,73.88541,75.721565
"7405",98.793884,73.61196,75.25704
"7406",98.80722,73.411766,74.85722
"7407",98.82056,73.287254,74.52683
"7408",98.83389,73.233536,74.26334
"7409",98.84723,73.24086,74.05922
"7410",98.860565,73.29946,73.9066
"7411",98.8739,73.38247,73.78022
"7412",98.88724,73.477684,73.66864
"7413",98.90057,73.55825,73.54539
"7414",98.91391,73.61196,73.3978
"7415",98.927246,73.6437,73.22991
"7416",98.94058,73.65591,73.04349
"7417",98.95392,73.65591,72.84524
"7418",98.967255,73.66079,72.65187
"7419",98.98059,73.7145,72.507484
"7420",98.99393,73.944,72.540565
"7421",99.00726,74.58366,72.990974
"7422",99.0206,75.90692,74.14498
"7423",99.033936,78.11154,76.221695
"7424",99.04727,81.18532,79.23646
"7425",99.06061,84.84993,82.93811
"7426",99.073944,88.62684,86.86658
"7427",99.08728,91.94232,90.451645
"7428",99.10062,94.33494,93.21746
"7429",99.11395,95.60204,94.93253
"7430",99.12729,95.802246,95.6203
"7431",99.140625,95.18211,95.49399
"7432",99.15396,94.05905,94.84537
"7433",99.1673,92.73823,93.96389
"7434",99.18063,91.441826,93.06556
"7435",99.19397,90.28214,92.263435
"7436",99.207306,89.27627,91.57888
"7437",99.22064,88.3827,90.9752
"7438",99.23398,87.5111,90.365555
"7439",99.247314,86.554054,89.643234
"7440",99.26065,85.4432,88.73719
"7441",99.27399,84.17609,87.640175
"7442",99.28732,82.81377,86.408356
"7443",99.30066,81.46853,85.15105
"7444",99.313995,80.2649,83.99331
"7445",99.32733,79.29565,83.03233
"7446",99.34067,78.58762,82.3023
"7447",99.354004,78.118866,81.789406
"7448",99.36734,77.821014,81.43277
"7449",99.38068,77.61593,81.15959
"7450",99.39401,77.42794,80.8971
"7451",99.40735,77.20332,80.59211
"7452",99.420685,76.90791,80.209305
"7453",99.43402,76.53193,79.736694
"7454",99.44736,76.0827,79.17909
"7455",99.46069,75.58709,78.561066
"7456",99.47403,75.07683,77.9129
"7457",99.487366,74.57633,77.25856
"7458",99.5007,74.1149,76.62764
"7459",99.51404,73.71206,76.04089
"7460",99.527374,73.38247,75.51481
"7461",99.54071,73.128555,75.0541
"7462",99.55405,72.94545,74.656265
"7463",99.56738,72.82338,74.31374
"7464",99.58072,72.75746,74.02356
"7465",99.594055,72.740364,73.780136
"7466",99.60739,72.76723,73.58014
"7467",99.62073,72.82826,73.41515
"7468",99.63406,72.90639,73.269165
"7469",99.6474,72.98695,73.12806
"7470",99.660736,73.05287,72.97482
"7471",99.67407,73.1017,72.80656
"7472",99.68741,73.128555,72.61784
"7473",99.700745,73.14076,72.41532
"7474",99.71408,73.145645,72.20586
"7475",99.72742,73.16518,72.01119
"7476",99.74075,73.26772,71.900154
"7477",99.75409,73.62417,72.04622
"7478",99.767426,74.495766,72.718575
"7479",99.78076,76.16083,74.21163
"7480",99.7941,78.75609,76.68692
"7481",99.807434,82.18387,80.07583
"7482",99.82077,86.07797,84.03818
"7483",99.83411,89.8793,88.02944
"7484",99.84744,93.02388,91.48275
"7485",99.86078,95.116196,93.98206
"7486",99.874115,96.05127,95.38952
"7487",99.88745,95.975586,95.81544
"7488",99.90079,95.17723,95.51632
"7489",99.91412,93.99313,94.80651
"7490",99.92746,92.699165,93.94983
"7491",99.940796,91.47112,93.11864
"7492",99.95413,90.389565,92.39555
"7493",99.96747,89.44228,91.77295
"7494",99.980804,88.55848,91.18422
"7495",99.99414,87.64294,90.53613
"7496",100.00748,86.61021,89.74225
"7497",100.02081,85.41146,88.75007
"7498",100.03415,84.0589,87.56661
"7499",100.047485,82.63065,86.265205
"7500",100.06082,81.25124,84.968
"7501",100.07416,80.045166,83.801025
"7502",100.087494,79.097885,82.855156
"7503",100.10083,78.43137,82.16045
"7504",100.11417,78.00168,81.68174
"7505",100.1275,77.730675,81.34829
"7506",100.14084,77.52804,81.07474
"7507",100.154175,77.31808,80.78753
"7508",100.16751,77.05928,80.44492
"7509",100.18085,76.7248,80.01855
"7510",100.19418,76.32197,79.51337
"7511",100.20752,75.862976,78.93944
"7512",100.220856,75.369804,78.316986
"7513",100.23419,74.86931,77.6718
"7514",100.24753,74.39567,77.03783
"7515",100.260864,73.968414,76.43544
"7516",100.2742,73.59731,75.875854
"7517",100.28754,73.29214,75.3706
"7518",100.30087,73.05531,74.92416
"7519",100.31421,72.88197,74.5338
"7520",100.327545,72.762344,74.191734
"7521",100.34088,72.69642,73.899635
"7522",100.35422,72.689095,73.66408
"7523",100.36755,72.7306,73.47711
"7524",100.38089,72.80873,73.32808
"7525",100.394226,72.91127,73.205894
"7526",100.40756,73.01625,73.089355
"7527",100.4209,73.10658,72.96145
"7528",100.434235,73.16518,72.80463
"7529",100.44757,73.18715,72.613014
"7530",100.46091,73.18471,72.397675
"7531",100.47424,73.162735,72.16273
"7532",100.48758,73.1432,71.929535
"7533",100.500916,73.162735,71.734795
"7534",100.51425,73.321434,71.67983
"7535",100.52759,73.81949,71.969185
"7536",100.540924,74.93767,72.894226
"7537",100.55426,76.91768,74.71604
"7538",100.5676,79.818115,77.52016
"7539",100.58093,83.441216,81.13757
"7540",100.59427,87.3402,85.1441
"7541",100.607605,90.931564,88.96484
"7542",100.62094,93.68551,92.0604
"7543",100.63428,95.311516,94.11408
"7544",100.64761,95.79736,95.078415
"7545",100.66095,95.3579,95.13262
"7546",100.674286,94.312965,94.56762
"7547",100.68762,92.99458,93.69652
"7548",100.70096,91.649345,92.75736
"7549",100.714294,90.426186,91.89825
"7550",100.72763,89.36904,91.16692
"7551",100.74097,88.43885,90.52952
"7552",100.7543,87.54772,89.9021
"7553",100.76764,86.59312,89.183365
"7554",100.780975,85.504234,88.300514
"7555",100.79431,84.26154,87.22983
"7556",100.80765,82.92363,86.025085
"7557",100.820984,81.59304,84.78586
"7558",100.83432,80.394295,83.636894
"7559",100.84766,79.42504,82.67996
"7560",100.86099,78.7219,81.958855
"7561",100.87433,78.26536,81.46237
"7562",100.887665,77.98459,81.127396
"7563",100.901,77.7966,80.87643
"7564",100.91434,77.625694,80.636665
"7565",100.92767,77.41329,80.35007
"7566",100.94101,77.13252,79.988464
"7567",100.954346,76.773636,79.53997
"7568",100.96768,76.3415,79.00701
"7569",100.98102,75.85565,78.40684
"7570",100.994354,75.34295,77.764626
"7571",101.00769,74.83757,77.113716
"7572",101.02103,74.36393,76.47875
"7573",101.03436,73.94156,75.88026
"7574",101.0477,73.585106,75.33448
"7575",101.061035,73.29946,74.84837
"7576",101.07437,73.08461,74.42413
"7577",101.08771,72.935684,74.059105
"7578",101.10104,72.850235,73.7529
"7579",101.11438,72.82826,73.5075
"7580",101.127716,72.85756,73.31268
"7581",101.14105,72.9308,73.16273
"7582",101.15439,73.040665,73.05168
"7583",101.167725,73.17006,72.9636
"7584",101.18106,73.304344,72.88445
"7585",101.1944,73.4313,72.80217
"7586",101.20773,73.53384,72.69944
"7587",101.22107,73.60708,72.57062
"7588",101.234406,73.653465,72.41723
"7589",101.24774,73.68032,72.24576
"7590",101.26108,73.69253,72.06048
"7591",101.274414,73.69497,71.865814
"7592",101.28775,73.71694,71.69076
"7593",101.30109,73.848785,71.62626
"7594",101.31442,74.27604,71.86129
"7595",101.32776,75.28924,72.69562
"7596",101.341095,77.14229,74.40146
"7597",101.35443,79.9353,77.10517
"7598",101.36777,83.49981,80.667656
"7599",101.3811,87.40368,84.68089
"7600",101.39444,91.06828,88.57686
"7601",101.407776,93.93454,91.789
"7602",101.42111,95.6704,93.96032
"7603",101.43445,96.22217,95.001785
"7604",101.447784,95.79004,95.0766
"7605",101.46112,94.69138,94.47138
"7606",101.47446,93.26559,93.50469
"7607",101.48779,91.78851,92.44217
"7608",101.50113,90.443275,91.465324
"7609",101.514465,89.28603,90.63444
"7610",101.5278,88.29969,89.938286
"7611",101.54114,87.39391,89.29187
"7612",101.554474,86.46128,88.5903
"7613",101.56781,85.42611,87.75704
"7614",101.58115,84.27863,86.77913
"7615",101.59448,83.06035,85.69455
"7616",101.60782,81.87869,84.60853
"7617",101.621155,80.83864,83.62718
"7618",101.63449,80.01831,82.83306
"7619",101.64783,79.43725,82.25257
"7620",101.66116,79.063705,81.86144
"7621",101.6745,78.83177,81.60025
"7622",101.687836,78.66331,81.39528
"7623",101.70117,78.48997,81.18017
"7624",101.71451,78.26536,80.90837
"7625",101.727844,77.962616,80.55142
"7626",101.74118,77.574425,80.09956
"7627",101.75452,77.11543,79.56477
"7628",101.76785,76.612495,78.971695
"7629",101.78119,76.09247,78.34581
"7630",101.794525,75.58465,77.71588
"7631",101.80786,75.11589,77.109146
"7632",101.8212,74.70084,76.54147
"7633",101.83453,74.35172,76.02676
"7634",101.84787,74.06851,75.56704
"7635",101.861206,73.85123,75.1644
"7636",101.87454,73.69497,74.815994
"7637",101.88788,73.59731,74.52131
"7638",101.901215,73.55093,74.27484
"7639",101.91455,73.548485,74.07087
"7640",101.92789,73.585106,73.90588
"7641",101.94122,73.64858,73.7689
"7642",101.95456,73.721825,73.64366
"7643",101.967896,73.78775,73.5134
"7644",101.98123,73.84146,73.37298
"7645",101.99457,73.87564,73.21471
"7646",102.007904,73.89273,73.04041
"7647",102.02124,73.89761,72.85445
"7648",102.03458,73.900055,72.66619
"7649",102.04791,73.92447,72.499985
"7650",102.06125,74.03677,72.42243
"7651",102.074585,74.41032,72.60963
"7652",102.08792,75.301445,73.32608
"7653",102.10126,76.97139,74.8492
"7654",102.11459,79.53002,77.31319
"7655",102.12793,82.845505,80.61398
"7656",102.141266,86.539406,84.396805
"7657",102.1546,90.057526,88.11928
"7658",102.16794,92.857864,91.23392
"7659",102.181274,94.59617,93.37403
"7660",102.19461,95.19188,94.42587
"7661",102.20795,94.80858,94.51732
"7662",102.22128,93.746544,93.91805
"7663",102.23462,92.33051,92.9316
"7664",102.247955,90.83391,91.82033
"7665",102.26129,89.44228,90.767265
"7666",102.27463,88.23132,89.85138
"7667",102.287964,87.18883,89.06612
"7668",102.3013,86.2269,88.328835
"7669",102.31464,85.24544,87.54196
"7670",102.32797,84.17853,86.63897
"7671",102.34131,83.02373,85.614746
"7672",102.354645,81.83963,84.52514
"7673",102.36798,80.73609,83.47909
"7674",102.38132,79.823,82.589
"7675",102.39465,79.15648,81.91695
"7676",102.40799,78.73655,81.47066
"7677",102.421326,78.51194,81.206566
"7678",102.43466,78.40208,81.0502
"7679",102.448,78.328835,80.927025
"7680",102.461334,78.221405,80.76737
"7681",102.47467,78.04318,80.53357
"7682",102.48801,77.76242,80.19166
"7683",102.50134,77.38644,79.74575
"7684",102.51468,76.92012,79.19776
"7685",102.528015,76.39765,78.57905
"7686",102.54135,75.85077,77.91959
"7687",102.55469,75.31365,77.252815
"7688",102.56802,74.813156,76.60587
"7689",102.58136,74.371254,76.001884
"7690",102.594696,74.00015,75.45489
"7691",102.60803,73.70718,74.97442
"7692",102.62137,73.49233,74.56293
"7693",102.634705,73.3605,74.22773
"7694",102.64804,73.29946,73.95921
"7695",102.66138,73.29946,73.749825
"7696",102.67471,73.340965,73.58194
"7697",102.68805,73.411766,73.44465
"7698",102.701385,73.48257,73.30957
"7699",102.71472,73.54116,73.1645
"7700",102.72806,73.585106,73.00661
"7701",102.741394,73.616844,72.83788
"7702",102.75473,73.63882,72.660385
"7703",102.76807,73.65591,72.47869
"7704",102.7814,73.6852,72.30974
"7705",102.79474,73.77554,72.20274
"7706",102.808075,74.06119,72.29388
"7707",102.82141,74.78142,72.82852
"7708",102.83475,76.22186,74.10589
"7709",102.84808,78.56809,76.33405
"7710",102.86142,81.778595,79.49981
"7711",102.874756,85.54818,83.324974
"7712",102.88809,89.359276,87.30945
"7713",102.90143,92.64057,90.883224
"7714",102.914764,94.9453,93.58297
"7715",102.9281,96.1001,95.20481
"7716",102.94144,96.19043,95.79827
"7717",102.95477,95.47265,95.58644
"7718",102.96811,94.26658,94.86389
"7719",102.981445,92.874954,93.9181
"7720",102.99478,91.510185,92.95567
"7721",103.00812,90.28947,92.09465
"7722",103.021454,89.2372,91.36393
"7723",103.03479,88.307014,90.72241
"7724",103.04813,87.398796,90.07379
"7725",103.06146,86.41978,89.32599
"7726",103.0748,85.296715,88.40354
"7727",103.088135,84.03693,87.30927
"7728",103.10147,82.701454,86.09995
"7729",103.11481,81.40505,84.88797
"7730",103.12814,80.26002,83.78684
"7731",103.14148,79.34936,82.88431
"7732",103.154816,78.692604,82.20722
"7733",103.16815,78.26292,81.73668
"7734",103.18149,77.99191,81.41139
"7735",103.194824,77.803925,81.16065
"7736",103.20816,77.62325,80.911354
"7737",103.2215,77.3962,80.61003
"7738",103.23483,77.086136,80.2186
"7739",103.24817,76.68574,79.72714
"7740",103.261505,76.2121,79.14993
"7741",103.27484,75.68719,78.50665
"7742",103.28818,75.15007,77.83476
"7743",103.30151,74.6276,77.160736
"7744",103.31485,74.14664,76.51189
"7745",103.328186,73.73159,75.913925
"7746",103.34152,73.392235,75.378685
"7747",103.35486,73.13588,74.91584
"7748",103.368195,72.9601,74.52556
"7749",103.38153,72.86,74.20547
"7750",103.39487,72.82338,73.945724
"7751",103.4082,72.84291,73.74099
"7752",103.42154,72.89906,73.57349
"7753",103.434875,72.972305,73.42483
"7754",103.44821,73.043106,73.27602
"7755",103.46155,73.09682,73.11233
"7756",103.474884,73.128555,72.928345
"7757",103.48822,73.14076,72.72582
"7758",103.50156,73.145645,72.51636
"7759",103.51489,73.15053,72.307045
"7760",103.52823,73.17738,72.11986
"7761",103.541565,73.27993,72.0092
"7762",103.5549,73.6144,72.133675
"7763",103.56824,74.43473,72.754456
"7764",103.58157,76.01434,74.16016
"7765",103.59491,78.51438,76.535645
"7766",103.608246,81.85916,79.834
"7767",103.62158,85.711754,83.74469
"7768",103.63492,89.52285,87.734276
"7769",103.648254,92.733345,91.24236
"7770",103.66159,94.92821,93.835144
"7771",103.67493,95.975586,95.34903
"7772",103.68826,95.990234,95.862915
"7773",103.7016,95.257805,95.63018
"7774",103.714935,94.103,94.95218
"7775",103.72827,92.81148,94.10138
"7776",103.74161,91.56634,93.2566
"7777",103.754944,90.460365,92.51208
"7778",103.76828,89.49111,91.86971
"7779",103.78162,88.59754,91.27274
"7780",103.79495,87.68444,90.62831
"7781",103.80829,86.66392,89.84793
"7782",103.821625,85.48226,88.87452
"7783",103.83496,84.16144,87.72501
"7784",103.8483,82.77226,86.46588
"7785",103.86163,81.42947,85.20972
"7786",103.87497,80.25025,84.07517
"7787",103.888306,79.32006,83.1528
"7788",103.90164,78.658424,82.46992
"7789",103.91498,78.22629,81.99586
"7790",103.928314,77.95285,81.66699
"7791",103.94165,77.7551,81.405266
"7792",103.95499,77.55978,81.13979
"7793",103.96832,77.30831,80.81207
"7794",103.98166,76.978714,80.39836
"7795",103.994995,76.57343,79.89867
"7796",104.00833,76.102234,79.32039
"7797",104.02167,75.59441,78.690765
"7798",104.035,75.071945,78.030624
"7799",104.04834,74.56657,77.37125
"7800",104.061676,74.107574,76.74246
"7801",104.07501,73.7145,76.16525
"7802",104.08835,73.39956,75.65389
"7803",104.101685,73.17006,75.21813
"7804",104.11502,73.02113,74.855774
"7805",104.12836,72.94057,74.55712
"7806",104.14169,72.90639,74.30234
"7807",104.15503,72.91127,74.08555
"7808",104.168365,72.94057,73.893326
"7809",104.1817,72.98207,73.714226
"7810",104.19504,73.02602,73.538864
"7811",104.208374,73.06752,73.362434
"7812",104.22171,73.1017,73.17998
"7813",104.23505,73.12123,72.98394
"7814",104.24838,73.131,72.77875
"7815",104.26172,73.1432,72.5763
"7816",104.275055,73.16762,72.386444
"7817",104.28839,73.25063,72.25595
"7818",104.30173,73.52895,72.32336
"7819",104.31506,74.232086,72.82427
"7820",104.3284,75.63348,74.04542
"7821",104.341736,77.92111,76.1966
"7822",104.35507,81.07301,79.28354
"7823",104.36841,84.79622,83.040276
"7824",104.381744,88.59022,86.98415
"7825",104.39508,91.87152,90.533905
"7826",104.40842,94.19577,93.22914
"7827",104.42175,95.379875,94.856865
"7828",104.43509,95.51415,95.47176
"7829",104.448425,94.86717,95.3096
"7830",104.46176,93.768524,94.67555
"7831",104.4751,92.523384,93.86068
"7832",104.488434,91.32464,93.05329
"7833",104.50177,90.26261,92.34516
"7834",104.51511,89.3373,91.74056
"7835",104.52844,88.482796,91.17785
"7836",104.54178,87.60143,90.56157
"7837",104.555115,86.60044,89.79813
"7838",104.56845,85.42611,88.830055
"7839",104.58179,84.09552,87.66903
"7840",104.59512,82.69413,86.39562
"7841",104.60846,81.33669,85.122375
"7842",104.621796,80.15503,83.98248
"7843",104.63513,79.234604,83.0669
"7844",104.64847,78.59251,82.40089
"7845",104.661804,78.18234,81.94674
"7846",104.67514,77.92844,81.63603
"7847",104.68848,77.74288,81.38574
"7848",104.70181,77.54513,81.117455
"7849",104.71515,77.28878,80.78439
"7850",104.728485,76.961624,80.37251
"7851",104.74182,76.558784,79.874725
"7852",104.75516,76.09735,79.305756
"7853",104.76849,75.60662,78.69307
"7854",104.78183,75.11101,78.060165
"7855",104.795166,74.63737,77.43375
"7856",104.8085,74.20035,76.82915
"7857",104.82184,73.82193,76.26949
"7858",104.835175,73.50942,75.76392
"7859",104.84851,73.27749,75.32916
"7860",104.86185,73.11635,74.95795
"7861",104.87518,73.02846,74.654945
"7862",104.88852,73.006485,74.415115
"7863",104.901855,73.03822,74.22831
"7864",104.91519,73.10414,74.076675
"7865",104.92853,73.17738,73.934425
"7866",104.941864,73.2433,73.78714
"7867",104.9552,73.29214,73.62483
"7868",104.96854,73.31167,73.434746
"7869",104.98187,73.31411,73.22818
"7870",104.99521,73.3019,73.00704
"7871",105.008545,73.27993,72.77576
"7872",105.02188,73.26284,72.54867
"7873",105.03522,73.27749,72.35278
"7874",105.04855,73.38003,72.24525
"7875",105.06189,73.72915,72.3875
"7876",105.075226,74.581215,73.0436
"7877",105.08856,76.18768,74.480736
"7878",105.1019,78.68284,76.85676
"7879",105.115234,81.96414,80.0969
"7880",105.14191,89.29092,87.66255
"7881",105.15524,92.25239,90.91437
"7882",105.16858,94.188446,93.233315
"7883",105.181915,95.00877,94.49703
"7884",105.19525,94.85252,94.80981
"7885",105.20859,94.02243,94.443855
"7886",105.221924,92.840775,93.7004
"7887",105.23526,91.5761,92.837006
"7888",105.2486,90.40177,92.02443
"7889",105.26193,89.38125,91.328964
"7890",105.27527,88.48524,90.72612
"7891",105.288605,87.62829,90.13434
"7892",105.30194,86.712746,89.457184
"7893",105.31528,85.65316,88.60737
"7894",105.32861,84.43,87.56087
"7895",105.34195,83.104294,86.3736
"7896",105.355286,81.78104,85.14735
"7897",105.36862,80.58228,84.00425
"7898",105.38196,79.60815,83.04831
"7899",105.395294,78.89769,82.32561
"7900",105.40863,78.43137,81.824844
"7901",105.42197,78.14328,81.48773
"7902",105.4353,77.95041,81.23684
"7903",105.44864,77.77219,80.99457
"7904",105.461975,77.55978,80.71254
"7905",105.47531,77.281456,80.35796
"7906",105.48865,76.929886,79.92144
"7907",105.50198,76.50996,79.40557
"7908",105.51532,76.04364,78.83019
"7909",105.528656,75.55291,78.21583
"7910",105.54199,75.06706,77.59101
"7911",105.55533,74.61051,76.98031
"7912",105.568665,74.20767,76.40905
"7913",105.582,73.87076,75.89113
"7914",105.59534,73.60708,75.43591
"7915",105.60867,73.41421,75.04327
"7916",105.62201,73.28481,74.70807
"7917",105.635345,73.21889,74.4323
"7918",105.64868,73.20912,74.210625
"7919",105.66202,73.24086,74.03015
"7920",105.675354,73.29946,73.87753
"7921",105.68869,73.375145,73.74383
"7922",105.70203,73.445946,73.607605
"7923",105.71536,73.50454,73.46139
"7924",105.7287,73.54604,73.29991
"7925",105.742035,73.57534,73.127525
"7926",105.75537,73.602196,72.95361
"7927",105.76871,73.62417,72.77566
"7928",105.78204,73.64858,72.60083
"7929",105.79538,73.68276,72.43653
"7930",105.808716,73.76822,72.32458
"7931",105.82205,74.02457,72.386185
"7932",105.83539,74.67643,72.85132
"7933",105.848724,75.999695,74.008224
"7934",105.86206,78.17746,76.06098
"7935",105.8754,81.197525,79.02409
"7936",105.88873,84.78157,82.64556
"7937",105.90207,88.43641,86.44982
"7938",105.915405,91.60296,89.880005
"7939",105.92874,93.839325,92.478966
"7940",105.94208,94.95262,94.02474
"7941",105.955414,95.028305,94.567696
"7942",105.96875,94.32029,94.329315
"7943",105.982086,93.15816,93.61469
"7944",105.99542,91.83002,92.69775
"7945",106.00876,90.548256,91.785675
"7946",106.022095,89.41543,90.98248
"7947",106.03543,88.43885,90.30014
"7948",106.04877,87.54772,89.67273
"7949",106.0621,86.6395,89.00038
"7950",106.07544,85.62142,88.18978
"7951",106.088776,84.4593,87.20332
"7952",106.10211,83.18974,86.07312
"7953",106.11545,81.91287,84.89593
"7954",106.128784,80.75807,83.8009
"7955",106.14212,79.83032,82.89684
"7956",106.15546,79.17845,82.23967
"7957",106.16879,78.78294,81.81849
"7958",106.18213,78.56809,81.565605
"7959",106.195465,78.45335,81.40611
"7960",106.2088,78.345924,81.25036
"7961",106.22214,78.18967,81.04241
"7962",106.23547,77.94797,80.74414
"7963",106.24881,77.608604,80.34065
"7964",106.262146,77.18623,79.84355
"7965",106.27548,76.70283,79.27222
"7966",106.28882,76.190125,78.65648
"7967",106.302155,75.684746,78.03204
"7968",106.31549,75.211105,77.42355
"7969",106.32883,74.7863,76.8491
"7970",106.34216,74.424965,76.32484
"7971",106.3555,74.127106,75.85276
"7972",106.368835,73.89761,75.43974
"7973",106.38217,73.73403,75.085464
"7974",106.39551,73.633934,74.78956
"7975",106.408844,73.58755,74.544235
"7976",106.42218,73.58999,74.34629
"7977",106.43552,73.62661,74.1826
"7978",106.44885,73.67544,74.032265
"7979",106.46219,73.724266,73.88345
"7980",106.475525,73.75845,73.72153
"7981",106.48886,73.7731,73.54113
"7982",106.5022,73.76578,73.33922
"7983",106.51553,73.74624,73.12486
"7984",106.52887,73.72671,72.909904
"7985",106.542206,73.71938,72.70654
"7986",106.55554,73.79019,72.581085
"7987",106.56888,74.09781,72.69465
"7988",106.582214,74.881516,73.293915
"7989",106.59555,76.402534,74.65498
"7990",106.60889,78.79515,76.93518
"7991",106.62222,81.971466,80.073845
"7992",106.63556,85.592125,83.75611
"7993",106.648895,89.12489,87.46363
"7994",106.66223,92.03998,90.663864
"7995",106.67557,93.95651,92.95665
"7996",106.6889,94.76219,94.19847
"7997",106.70224,94.588844,94.48644
"7998",106.715576,93.71969,94.07319
"7999",106.72891,92.472115,93.25436
"8000",106.74225,91.11955,92.29155
"8001",106.755585,89.85489,91.374374
"8002",106.76892,88.75868,90.586136
"8003",106.78226,87.818726,89.91989
"8004",106.79559,86.94957,89.295074
"8005",106.80893,86.03647,88.599144
"8006",106.822266,84.99153,87.74284
"8007",106.8356,83.78546,86.69276
"8008",106.84894,82.47929,85.504875
"8009",106.862274,81.18532,84.28838
"8010",106.87561,80.03784,83.17795
"8011",106.88895,79.13451,82.275795
"8012",106.90228,78.51194,81.62618
"8013",106.91562,78.14084,81.20858
"8014",106.928955,77.945526,80.95517
"8015",106.94229,77.83322,80.77866
"8016",106.95563,77.72579,80.60352
"8017",106.96896,77.55978,80.36644
"8018",106.9823,77.30343,80.03384
"8019",106.995636,76.94209,79.588234
"8020",107.00897,76.49531,79.04589
"8021",107.02231,75.98993,78.43099
"8022",107.035645,75.46502,77.78077
"8023",107.04898,74.95476,77.12879
"8024",107.06232,74.486,76.50237
"8025",107.07565,74.08072,75.92478
"8026",107.08899,73.74624,75.40533
"8027",107.102325,73.48745,74.95111
"8028",107.11566,73.3019,74.56205
"8029",107.129,73.18471,74.23554
"8030",107.142334,73.131,73.96886
"8031",107.15567,73.128555,73.75176
"8032",107.16901,73.16518,73.573654
"8033",107.18234,73.22377,73.41866
"8034",107.19568,73.289696,73.272835
"8035",107.209015,73.34585,73.11929
"8036",107.22235,73.38247,72.947975
"8037",107.23569,73.39956,72.75827
"8038",107.24902,73.402,72.55445
"8039",107.26236,73.39712,72.34338
"8040",107.275696,73.40444,72.14437
"8041",107.28903,73.463036,71.99686
"8042",107.30237,73.69497,72.02451
"8043",107.315704,74.322426,72.45494
"8044",107.32904,75.62371,73.578804
"8045",107.34238,77.806366,75.6247
"8046",107.35571,80.867935,78.61772
"8047",107.36905,84.542305,82.319214
"8048",107.382385,88.35096,86.26981
"8049",107.39572,91.71282,89.89264
"8050",107.40906,94.16647,92.71232
"8051",107.42239,95.50439,94.492935
"8052",107.43573,95.7876,95.26066
"8053",107.449066,95.26025,95.22667
"8054",107.4624,94.24948,94.69279
"8055",107.47574,93.050735,93.93934
"8056",107.489075,91.8642,93.16064
"8057",107.50241,90.79729,92.464485
"8058",107.51575,89.864655,91.86927
"8059",107.52908,89.007706,91.320595
"8060",107.54242,88.14343,90.73781
"8061",107.555756,87.17662,90.02548
"8062",107.56909,86.03891,89.11204
"8063",107.58243,84.72785,87.98969
"8064",107.595764,83.29473,86.704315
"8065",107.6091,81.85428,85.36682
"8066",107.62244,80.5359,84.106384
"8067",107.63577,79.449455,83.03669
"8068",107.64911,78.641335,82.211365
"8069",107.662445,78.10422,81.63179
"8070",107.67578,77.77219,81.24052
"8071",107.68912,77.56466,80.96337
"8072",107.70245,77.38888,80.71149
"8073",107.71579,77.18379,80.424805
"8074",107.729126,76.912796,80.0658
"8075",107.74246,76.561226,79.61776
"8076",107.7558,76.12665,79.07572
"8077",107.769135,75.63592,78.46395
"8078",107.78247,75.123215,77.81487
"8079",107.79581,74.617836,77.1571
"8080",107.80914,74.14664,76.51771
"8081",107.82248,73.73403,75.92219
"8082",107.835815,73.402,75.39435
"8083",107.84915,73.145645,74.93181
"8084",107.86249,72.96498,74.53695
"8085",107.875824,72.85268,74.2048
"8086",107.88916,72.80141,73.93018
"8087",107.9025,72.80385,73.70767
"8088",107.91583,72.84047,73.51942
"8089",107.92917,72.901505,73.35672
"8090",107.942505,72.972305,73.205696
"8091",107.95584,73.03334,73.04712
"8092",107.96918,73.074844,72.87092
"8093",107.98251,73.09926,72.678925
"8094",107.99585,73.10658,72.470604
"8095",108.009186,73.10414,72.25275
"8096",108.02252,73.10414,72.037254
"8097",108.03586,73.13832,71.85594
"8098",108.049194,73.3019,71.8051
"8099",108.06253,73.78531,72.07919
"8100",108.07587,74.85954,72.95922
"8101",108.0892,76.77608,74.71512
"8102",108.10254,79.59838,77.436676
"8103",108.115875,83.1458,80.97154
"8104",108.12921,86.99107,84.91512
"8105",108.14255,90.565346,88.70786
"8106",108.15588,93.34371,91.8164
"8107",108.16922,95.03807,93.92775
"8108",108.182556,95.638664,94.99828
"8109",108.19589,95.360344,95.20867
"8110",108.20923,94.51804,94.84638
"8111",108.222565,93.419395,94.20142
"8112",108.2359,92.29389,93.49528
"8113",108.24924,91.25628,92.84185
"8114",108.26257,90.33097,92.2683
"8115",108.27591,89.47158,91.73176
"8116",108.289246,88.59266,91.14883
"8117",108.30258,87.59899,90.423676
"8118",108.31592,86.42466,89.48682
"8119",108.329254,85.06233,88.32526
"8120",108.34259,83.56573,86.98685
"8121",108.35593,82.05203,85.58458
"8122",108.36926,80.65308,84.249756
"8123",108.3826,79.48608,83.10316
"8124",108.395935,78.61448,82.2155
"8125",108.40927,78.028534,81.58626
"8126",108.42261,77.67452,81.17064
"8127",108.43594,77.452354,80.8758
"8128",108.44928,77.2839,80.62773
"8129",108.462616,77.0959,80.35486
"8130",108.47595,76.841995,80.0102
"8131",108.48929,76.507515,79.577034
"8132",108.502625,76.102234,79.062614
"8133",108.51596,75.64324,78.48182
"8134",108.5293,75.15007,77.8525
"8135",108.54263,74.652016,77.20289
"8136",108.55597,74.18326,76.56701
"8137",108.569305,73.77066,75.97264
"8138",108.58264,73.426414,75.43373
"8139",108.59598,73.16518,74.96707
"8140",108.609314,72.97719,74.5655
"8141",108.62265,72.85756,74.22641
"8142",108.63599,72.796524,73.94218
"8143",108.64932,72.78676,73.707306
"8144",108.66266,72.816055,73.51119
"8145",108.675995,72.87953,73.350174
"8146",108.68933,72.9601,73.20823
"8147",108.70267,73.043106,73.07124
"8148",108.716,73.11391,72.924644
"8149",108.72934,73.162735,72.758286
"8150",108.742676,73.19203,72.57392
"8151",108.75601,73.199356,72.3685
"8152",108.76935,73.19447,72.1511
"8153",108.782684,73.18959,71.93355
"8154",108.79602,73.20424,71.735374
"8155",108.80936,73.29458,71.61335
"8156",108.82269,73.62173,71.73096
"8157",108.83603,74.43229,72.3422
"8158",108.849365,75.98749,73.72341
"8159",108.8627,78.44114,76.051674
"8160",108.87604,81.72488,79.2867
"8161",108.88937,85.49447,83.11019
"8162",108.90271,89.21278,87.000206
"8163",108.916046,92.32319,90.39851
"8164",108.92938,94.43015,92.89058
"8165",108.94272,95.41161,94.32298
"8166",108.956055,95.40185,94.79483
"8167",108.96939,94.69138,94.565674
"8168",108.98273,93.60738,93.94078
"8169",108.99606,92.420845,93.179474
"8170",109.0094,91.29778,92.444565
"8171",109.022736,90.29923,91.79907
"8172",109.03607,89.40566,91.227356
"8173",109.04941,88.54139,90.65701
"8174",109.062744,87.59899,89.98154
"8175",109.07608,86.49546,89.11548
"8176",109.08942,85.20393,88.02693
"8177",109.10275,83.76837,86.75399
"8178",109.11609,82.286415,85.38979
"8179",109.129425,80.89967,84.0745
"8180",109.14276,79.727776,82.93072
"8181",109.1561,78.84154,82.03597
"8182",109.16943,78.24582,81.40405
"8183",109.18277,77.87717,80.98058
"8184",109.196106,77.65743,80.69451
"8185",109.20944,77.49142,80.45529
"8186",109.22278,77.31075,80.196236
"8187",109.236115,77.066605,79.86805
"8188",109.24945,76.74189,79.45167
"8189",109.26279,76.33906,78.94702
"8190",109.27612,75.880066,78.37363
"8191",109.28946,75.386894,77.75171
"8192",109.302795,74.88884,77.1095
"8193",109.31613,74.4152,76.476135
"8194",109.32947,73.987946,75.87436
"8195",109.342804,73.616844,75.315384
"8196",109.35614,73.31411,74.81318
"8197",109.36948,73.07973,74.369865
"8198",109.38281,72.918594,73.99248
"8199",109.39615,72.82094,73.67353
"8200",109.409485,72.78676,73.41501
"8201",109.42282,72.80873,73.21157
"8202",109.43616,72.87221,73.05032
"8203",109.44949,72.96742,72.9228
"8204",109.46283,73.08217,72.81778
"8205",109.476166,73.196915,72.71635
"8206",109.4895,73.3019,72.60874
"8207",109.50284,73.38735,72.48488
"8208",109.516174,73.445946,72.33683
"8209",109.52951,73.477684,72.16376
"8210",109.54285,73.494774,71.97703
"8211",109.55618,73.5021,71.78107
"8212",109.56952,73.51186,71.587776
"8213",109.582855,73.548485,71.421646
"8214",109.59619,73.70962,71.38117
"8215",109.60953,74.19058,71.665565
"8216",109.62286,75.25994,72.55338
"8217",109.6362,77.1667,74.31202
"8218",109.649536,79.98169,77.03847
"8219",109.66287,83.5169,80.573105
"8220",109.67621,87.33776,84.50387
"8221",109.689545,90.87297,88.26839
"8222",109.70288,93.6025,91.3377
"8223",109.71622,95.23094,93.39122
"8224",109.72955,95.73876,94.37501
"8225",109.74289,95.33837,94.46645
"8226",109.756226,94.34226,93.94967
"8227",109.76956,93.07759,93.133194
"8228",109.7829,91.78119,92.24547
"8229",109.796234,90.60441,91.43685
"8230",109.80957,89.58144,90.74528
"8231",109.82291,88.67811,90.141365
"8232",109.83624,87.801636,89.53609
"8233",109.84958,86.84459,88.822845
"8234",109.862915,85.73617,87.928314
"8235",109.87625,84.471504,86.8429
"8236",109.88959,83.1165,85.62763
"8237",109.90292,81.78592,84.39444
"8238",109.91626,80.6067,83.27103
"8239",109.929596,79.67895,82.362236
"8240",109.94293,79.027084,81.70034
"8241",109.95627,78.61448,81.25733
"8242",109.969604,78.37278,80.972336
"8243",109.98294,78.21896,80.76767
"8244",109.99628,78.07004,80.56309
"8245",110.00961,77.87717,80.309906
"8246",110.02295,77.608604,79.975006
"8247",110.036285,77.25948,79.551155
"8248",110.04962,76.83467,79.0407
"8249",110.06296,76.36103,78.46815
"8250",110.076294,75.8703,77.8637
"8251",110.08963,75.38201,77.24636
"8252",110.10297,74.92302,76.64306
"8253",110.1163,74.5153,76.07668
"8254",110.12964,74.16861,75.5586
"8255",110.142975,73.89029,75.09805
"8256",110.15631,73.68276,74.6996
"8257",110.16965,73.53872,74.35815
"8258",110.18298,73.45327,74.070786
"8259",110.19632,73.41665,73.82958
"8260",110.209656,73.42153,73.62874
"8261",110.22299,73.45083,73.45246
"8262",110.23633,73.494774,73.29175
"8263",110.249664,73.53628,73.12997
"8264",110.263,73.568016,72.95972
"8265",110.27634,73.59243,72.783134
"8266",110.28967,73.60952,72.59999
"8267",110.30301,73.62173,72.4125
"8268",110.316345,73.63149,72.222946
"8269",110.32968,73.653465,72.045906
"8270",110.34302,73.71694,71.91106
"8271",110.35635,73.936676,71.93445
"8272",110.36969,74.52262,72.33092
"8273",110.383026,75.74578,73.38291
"8274",110.39636,77.79904,75.30323
"8275",110.4097,80.6775,78.11291
"8276",110.423035,84.13214,81.58872
"8277",110.43637,87.68932,85.27503
"8278",110.44971,90.792404,88.61841
"8279",110.46304,92.99458,91.15785
"8280",110.47638,94.09567,92.66502
"8281",110.489716,94.16403,93.173874
"8282",110.50305,93.45602,92.908485
"8283",110.51639,92.29145,92.16442
"8284",110.529724,90.97307,91.23015
"8285",110.54306,89.7084,90.30839
"8286",110.5564,88.59754,89.50092
"8287",110.56973,87.64782,88.81987
"8288",110.58307,86.785995,88.19704
"8289",110.596405,85.909515,87.532616
"8290",110.60974,84.92073,86.7285
"8291",110.62308,83.78546,85.747
"8292",110.63641,82.53788,84.617714
"8293",110.64975,81.27322,83.43236
"8294",110.663086,80.12085,82.31978
"8295",110.67642,79.18822,81.39092
"8296",110.68976,78.53147,80.70881
"8297",110.703094,78.13107,80.26252
"8298",110.71643,77.93088,80.00392
"8299",110.72977,77.84299,79.85137
"8300",110.7431,77.77951,79.72049
"8301",110.75644,77.68185,79.55344
"8302",110.769775,77.49874,79.29789
"8303",110.78311,77.21309,78.934074
"8304",110.79645,76.82979,78.463684
"8305",110.809784,76.36591,77.90074
"8306",110.82312,75.85077,77.27203
"8307",110.83646,75.32586,76.61746
"8308",110.84979,74.827805,75.97334
"8309",110.86313,74.38102,75.36493
"8310",110.876465,74.002594,74.81091
"8311",110.8898,73.69985,74.320755
"8312",110.90314,73.47524,73.89927
"8313",110.91647,73.321434,73.541565
"8314",110.92981,73.24086,73.25229
"8315",110.943146,73.22621,73.02642
"8316",110.95648,73.270164,72.858696
"8317",110.96982,73.35073,72.72896
"8318",110.983154,73.45083,72.62127
"8319",110.99649,73.55093,72.51671
"8320",111.00983,73.62905,72.3933
"8321",111.02316,73.68032,72.24548
"8322",111.0365,73.70229,72.06997
"8323",111.049835,73.69985,71.87073
"8324",111.06317,73.67788,71.65188
"8325",111.07651,73.653465,71.4299
"8326",111.08984,73.66323,71.24134
"8327",111.10318,73.80728,71.18737
"8328",111.116516,74.29801,71.48458
"8329",111.12985,75.406425,72.41481
"8330",111.14319,77.36935,74.234184
"8331",111.156525,80.24536,77.02799
"8332",111.16986,83.824524,80.61482
"8333",111.1832,87.65026,84.560074
"8334",111.19653,91.14885,88.29773
"8335",111.20987,93.81491,91.312195
"8336",111.223206,95.37255,93.30155
"8337",111.23654,95.82422,94.23361
"8338",111.24988,95.39452,94.29842
"8339",111.263214,94.40574,93.79072
"8340",111.27655,93.16304,92.9982
"8341",111.28989,91.89838,92.14488
"8342",111.30322,90.74845,91.36678
"8343",111.31656,89.75235,90.70657
"8344",111.329895,88.87587,90.13486
"8345",111.34323,88.026245,89.56261
"8346",111.35657,87.10338,88.890564
"8347",111.3699,86.02426,88.033424
"8348",111.38324,84.76448,86.9619
"8349",111.396576,83.36797,85.71428
"8350",111.40991,81.93973,84.39128
"8351",111.42325,80.61158,83.12375
"8352",111.436584,79.500725,82.032005
"8353",111.44992,78.66819,81.18387
"8354",111.46326,78.10666,80.58072
"8355",111.47659,77.75998,80.17487
"8356",111.48993,77.54513,79.89002
"8357",111.503265,77.37667,79.64485
"8358",111.5166,77.19112,79.37732
"8359",111.52994,76.93965,79.03808
"8360",111.543274,76.610054,78.61285
"8361",111.55661,76.2121,78.108955
"8362",111.56995,75.76776,77.54625
"8363",111.58328,75.29412,76.94035
"8364",111.59662,74.82536,76.32454
"8365",111.609955,74.37858,75.71605
"8366",111.62329,73.970856,75.13266
"8367",111.63663,73.61196,74.58536
"8368",111.64996,73.31411,74.08788
"8369",111.6633,73.07973,73.64457
"8370",111.676636,72.91371,73.2623
"8371",111.68997,72.8185,72.94564
"8372",111.70331,72.78676,72.68948
"8373",111.716644,72.80873,72.486046
"8374",111.72998,72.86977,72.32236
"8375",111.74332,72.952774,72.18255
"8376",111.75665,73.03578,72.045334
"8377",111.76999,73.109024,71.90095
"8378",111.783325,73.162735,71.73932
"8379",111.79666,73.196915,71.55984
"8380",111.81,73.214005,71.364334
"8381",111.82333,73.22133,71.1596
"8382",111.83667,73.22865,70.95509
"8383",111.850006,73.27749,70.79233
"8384",111.86334,73.463036,70.7678
"8385",111.87668,73.985504,71.08599
"8386",111.890015,75.125656,72.03819
"8387",111.90335,77.11543,73.87565
"8388",111.91669,80.01099,76.68106
"8389",111.93002,83.60967,80.28009
"8390",111.94336,87.464714,84.24793
"8391",111.956696,90.99016,88.00665
"8392",111.97003,93.678185,91.038124
"8393",111.98337,95.24315,93.03053
"8394",111.996704,95.692375,93.95611
"8395",112.01004,95.24071,93.99483
"8396",112.02338,94.21042,93.44081
"8397",112.03671,92.9189,92.59337
"8398",112.05005,91.60784,91.68603
"8399",112.063385,90.41154,90.85247
"8400",112.07672,89.373924,90.14022
"8401",112.09006,88.45838,89.51762
"8402",112.10339,87.586784,88.91034
"8403",112.11673,86.65659,88.21724
"8404",112.130066,85.592125,87.36079
"8405",112.1434,84.36652,86.30994
"8406",112.15674,83.03105,85.110916
"8407",112.170074,81.67849,83.85307
"8408",112.18341,80.430916,82.65795
"8409",112.19675,79.38842,81.62892
"8410",112.21008,78.6096,80.830986
"8411",112.22342,78.08713,80.26507
"8412",112.236755,77.76242,79.880585
"8413",112.25009,77.56222,79.61046
"8414",112.26343,77.40353,79.37559
"8415",112.276764,77.222855,79.11378
"8416",112.2901,76.978714,78.78285
"8417",112.30344,76.654,78.36372
"8418",112.31677,76.25605,77.86121
"8419",112.33011,75.80194,77.29011
"8420",112.343445,75.32586,76.68284
"8421",112.35678,74.85222,76.06313
"8422",112.37012,74.40543,75.45548
"8423",112.38345,74.002594,74.877815
"8424",112.39679,73.66079,74.348595
"8425",112.410126,73.38247,73.87218
"8426",112.42346,73.1725,73.455414
"8427",112.4368,73.02602,73.09557
"8428",112.450134,72.94789,72.799515
"8429",112.46347,72.92348,72.554726
"8430",112.47681,72.952774,72.362885
"8431",112.49014,73.01869,72.20858
"8432",112.50348,73.109024,72.08075
"8433",112.516815,73.20668,71.963066
"8434",112.53015,73.29458,71.83868
"8435",112.54349,73.358055,71.69261
"8436",112.55682,73.392235,71.51923
"8437",112.57016,73.40444,71.32495
"8438",112.583496,73.39956,71.11396
"8439",112.59683,73.39956,70.9077
"8440",112.61017,73.426414,70.728294
"8441",112.623505,73.55581,70.65227
"8442",112.63684,73.96109,70.85617
"8443",112.65018,74.90349,71.609856
"8444",112.66351,76.64423,73.19134
"8445",112.67685,79.29565,75.737885
"8446",112.690186,82.72343,79.143654
"8447",112.70352,86.53452,83.039856
"8448",112.71686,90.16495,86.87448
"8449",112.730194,93.05562,90.08281
"8450",112.74353,94.854965,92.290146
"8451",112.75687,95.499504,93.3989
"8452",112.7702,95.1577,93.54146
"8453",112.78354,94.13962,92.997055
"8454",112.796875,92.78706,92.086365
"8455",112.81021,91.37347,91.072365
"8456",112.82355,90.08194,90.13626
"8457",112.83688,88.97841,89.34779
"8458",112.85022,88.043335,88.6933
"8459",112.863556,87.19127,88.09259
"8460",112.87689,86.312355,87.4384
"8461",112.89023,85.316246,86.63955
"8462",112.903564,84.1712,85.66064
"8463",112.9169,82.916306,84.53609
"8464",112.93024,81.651634,83.36255
"8465",112.94357,80.49683,82.25936
"8466",112.95691,79.54711,81.325165
"8467",112.970245,78.8513,80.615204
"8468",112.98358,78.39231,80.120316
"8469",112.99692,78.11398,79.79175
"8470",113.010254,77.93576,79.55459
"8471",113.02359,77.789276,79.3436
"8472",113.03693,77.61593,79.101166
"8473",113.05026,77.37911,78.78985
"8474",113.0636,77.06416,78.393
"8475",113.076935,76.67109,77.90818
"8476",113.09027,76.224304,77.35737
"8477",113.10361,75.74578,76.76086
"8478",113.11694,75.264824,76.14696
"8479",113.13028,74.80339,75.53755
"8480",113.143616,74.390785,74.962555
"8481",113.15695,74.03433,74.43082
"8482",113.17029,73.738914,73.948975
"8483",113.183624,73.514305,73.52871
"8484",113.19696,73.358055,73.169785
"8485",113.2103,73.26528,72.86945
"8486",113.22363,73.22865,72.62237
"8487",113.23697,73.24574,72.42786
"8488",113.250305,73.304344,72.27539
"8489",113.26364,73.38979,72.1516
"8490",113.27698,73.480125,72.03537
"8491",113.29031,73.55825,71.90975
"8492",113.30365,73.62173,71.77193
"8493",113.316986,73.65591,71.60679
"8494",113.33032,73.670555,71.42319
"8495",113.34366,73.67544,71.23028
"8496",113.356995,73.68276,71.03996
"8497",113.37033,73.71938,70.87917
"8498",113.38367,73.865875,70.8294
"8499",113.397,74.302895,71.07473
"8500",113.41034,75.301445,71.89525
"8501",113.423676,77.11299,73.55997
"8502",113.43701,79.823,76.179756
"8503",113.45035,83.27764,79.62887
"8504",113.463684,87.06676,83.52041
"8505",113.47702,90.62638,87.300865
"8506",113.49036,93.40963,90.41619
"8507",113.50369,95.08934,92.51495
"8508",113.51703,95.61425,93.511406
"8509",113.530365,95.167465,93.55257
"8510",113.5437,94.063934,92.92302
"8511",113.55704,92.63569,91.93427
"8512",113.57037,91.15373,90.84718
"8513",113.58371,89.79874,89.840744
"8514",113.597046,88.63172,88.97994
"8515",113.61038,87.63073,88.24869
"8516",113.62372,86.710304,87.56673
"8517",113.637054,85.7728,86.83891
"8518",113.65039,84.7425,85.98901
"8519",113.66373,83.60967,85.00439
"8520",113.67706,82.42069,83.92821
"8521",113.6904,81.27322,82.85638
"8522",113.703735,80.26978,81.89273
"8523",113.71707,79.48608,81.117455
"8524",113.73041,78.93675,80.55207
"8525",113.743744,78.590065,80.17216
"8526",113.75708,78.37522,79.91325
"8527",113.77042,78.22385,79.711105
"8528",113.78375,78.06271,79.49447
"8529",113.79709,77.84787,79.219086
"8530",113.810425,77.55245,78.856415
"8531",113.82376,77.17891,78.40639
"8532",113.8371,76.74189,77.88121
"8533",113.85043,76.26826,77.30576
"8534",113.86377,75.78485,76.70574
"8535",113.877106,75.32098,76.110146
"8536",113.89044,74.89128,75.53423
"8537",113.90378,74.512856,74.99616
"8538",113.917114,74.18814,74.49998
"8539",113.93045,73.92203,74.052246
"8540",113.94379,73.721825,73.66211
"8541",113.95712,73.58022,73.32432
"8542",113.97046,73.494774,73.03825
"8543",113.983795,73.46548,72.80567
"8544",113.99713,73.48989,72.625885
"8545",114.01047,73.55093,72.48348
"8546",114.0238,73.64126,72.372284
"8547",114.03714,73.738914,72.27123
"8548",114.050476,73.829254,72.16592
"8549",114.06381,73.9025,72.046326
"8550",114.07715,73.951324,71.90461
"8551",114.090485,73.985504,71.74977
"8552",114.10382,74.00992,71.586235
"8553",114.11716,74.02945,71.41858
"8554",114.13049,74.06119,71.26374
"8555",114.14383,74.15396,71.17093
"8556",114.157166,74.44938,71.28366
"8557",114.1705,75.18913,71.84996
"8558",114.18384,76.64179,73.15228
"8559",114.197174,78.98314,75.38869
"8560",114.21051,82.16434,78.53811
"8561",114.22385,85.86313,82.304535
"8562",114.23718,89.564354,86.18898
"8563",114.25052,92.69184,89.61536
"8564",114.263855,94.81346,92.1336
"8565",114.27719,95.765625,93.54868
"8566",114.29053,95.64355,93.91928
"8567",114.30386,94.72068,93.485275
"8568",114.3172,93.32906,92.55368
"8569",114.330536,91.78607,91.42722
"8570",114.34387,90.31388,90.32335
"8571",114.35721,89.02968,89.36146
"8572",114.370544,87.94568,88.55963
"8573",114.38388,87.00572,87.86798
"8574",114.39722,86.09506,87.17625
"8575",114.41055,85.12337,86.39502
"8576",114.42389,84.05646,85.48821
"8577",114.437225,82.92363,84.48215
"8578",114.45056,81.81033,83.46021
"8579",114.4639,80.82155,82.528
"8580",114.477234,80.0354,81.767525
"8581",114.49057,79.48119,81.214424
"8582",114.50391,79.13451,80.851524
"8583",114.51724,78.93675,80.626724
"8584",114.53058,78.80492,80.46166
"8585",114.543915,78.6804,80.2998
"8586",114.55725,78.51194,80.0901
"8587",114.57059,78.2678,79.79946
"8588",114.58392,77.94064,79.418175
"8589",114.59726,77.53292,78.9461
"8590",114.610596,77.069046,78.40513
"8591",114.62393,76.58076,77.82525
"8592",114.63727,76.09247,77.23011
"8593",114.650604,75.62859,76.64413
"8594",114.66394,75.21355,76.092476
"8595",114.67728,74.85954,75.5889
"8596",114.69061,74.57877,75.14749
"8597",114.70395,74.36881,74.76812
"8598",114.717285,74.232086,74.45542
"8599",114.73062,74.1564,74.19949
"8600",114.74396,74.127106,73.98759
"8601",114.75729,74.11978,73.79674
"8602",114.77063,74.124664,73.61787
"8603",114.783966,74.13199,73.44159
"8604",114.7973,74.144196,73.270424
"8605",114.81064,74.1564,73.09964
"8606",114.823975,74.17105,72.93168
"8607",114.83731,74.19058,72.76906
"8608",114.85065,74.212555,72.60949
"8609",114.86398,74.25407,72.470146
"8610",114.87732,74.3859,72.422424
"8611",114.890656,74.77409,72.63518
"8612",114.90399,75.665215,73.36299
"8613",114.91733,77.29122,74.85354
"8614",114.930664,79.75464,77.23231
"8615",114.944,82.913864,80.383865
"8616",114.95734,86.397804,83.95886
"8617",114.97067,89.686424,87.44741
"8618",114.98401,92.27436,90.33805
"8619",114.997345,93.832,92.27927
"8620",115.01068,94.295876,93.17539
"8621",115.02402,93.82712,93.15338
"8622",115.03735,92.71137,92.469734
"8623",115.05069,91.266045,91.42164
"8624",115.064026,89.76456,90.27222
"8625",115.07736,88.38758,89.200386
"8626",115.0907,87.20592,88.28084
"8627",115.104034,86.204926,87.50503
"8628",115.11737,85.29916,86.79316
"8629",115.13071,84.386055,86.045654
"8630",115.14404,83.404594,85.201256
"8631",115.15738,82.34989,84.252945
"8632",115.170715,81.290306,83.26679
"8633",115.18405,80.325935,82.34274
"8634",115.19739,79.54467,81.57166
"8635",115.210724,79.00023,81.01299
"8636",115.22406,78.68528,80.6668
"8637",115.2374,78.54368,80.484116
"8638",115.25073,78.49485,80.38978
"8639",115.26407,78.46311,80.311005
"8640",115.277405,78.38743,80.187294
"8641",115.29074,78.22629,79.97576
"8642",115.30408,77.95529,79.64934
"8643",115.31741,77.57931,79.20946
"8644",115.33075,77.1252,78.6797
"8645",115.344086,76.61982,78.08449
"8646",115.35742,76.102234,77.46127
"8647",115.37076,75.60662,76.84386
"8648",115.384094,75.159836,76.25978
"8649",115.39743,74.776535,75.72523
"8650",115.41077,74.46891,75.25437
"8651",115.4241,74.23697,74.84959
"8652",115.43744,74.075836,74.50836
"8653",115.450775,73.968414,74.21581
"8654",115.46411,73.9025,73.96141
"8655",115.47745,73.85855,73.72692
"8656",115.49078,73.829254,73.50571
"8657",115.50412,73.80972,73.29334
"8658",115.517456,73.795074,73.08525
"8659",115.53079,73.795074,72.89135
"8660",115.54413,73.80484,72.707214
"8661",115.557465,73.83902,72.5478
"8662",115.5708,73.94888,72.46513
"8663",115.58414,74.29069,72.61784
"8664",115.59747,75.09392,73.24266
"8665",115.61081,76.612495,74.607925
"8666",115.624146,78.9807,76.87027
"8667",115.63748,82.11795,79.97567
"8668",115.65082,85.68978,83.613686
"8669",115.664154,89.181046,87.28275
"8670",115.67749,92.05707,90.44568
"8671",115.69083,93.941864,92.70726
"8672",115.70416,94.730446,93.931526
"8673",115.7175,94.54734,94.20875
"8674",115.730835,93.678185,93.7942
"8675",115.74417,92.44038,92.98383
"8676",115.75751,91.104904,92.037125
"8677",115.77084,89.85489,91.13414
"8678",115.78418,88.77333,90.36055
"8679",115.797516,87.84802,89.70941
"8680",115.81085,87.01549,89.12213
"8681",115.82419,86.16586,88.49174
"8682",115.837524,85.206375,87.72493
"8683",115.85086,84.1004,86.781654
"8684",115.8642,82.88457,85.693954
"8685",115.87753,81.64919,84.54872
"8686",115.89087,80.51392,83.46499
"8687",115.904205,79.58129,82.548416
"8688",115.91754,78.90013,81.85417
"8689",115.93088,78.45579,81.37546
"8690",115.944214,78.187225,81.05864
"8691",115.95755,78.02365,80.83842
"8692",115.97089,77.891815,80.64482
"8693",115.98422,77.730675,80.4178
"8694",115.99756,77.4963,80.11251
"8695",116.010895,77.17647,79.71444
"8696",116.02423,76.771194,79.22093
"8697",116.03757,76.30732,78.65616
"8698",116.0509,75.81415,78.04759
"8699",116.06424,75.3283,77.43094
"8700",116.077576,74.88884,76.84549
"8701",116.09091,74.51774,76.31467
"8702",116.10425,74.215,75.84061
"8703",116.117584,73.98306,75.427895
"8704",116.13092,73.81705,75.07385
"8705",116.14426,73.69497,74.75856
"8706",116.15759,73.60464,74.4712
"8707",116.17093,73.531395,74.198105
"8708",116.184265,73.46792,73.93249
"8709",116.1976,73.41421,73.67465
"8710",116.21094,73.36782,73.42246
"8711",116.22427,73.33608,73.18347
"8712",116.23761,73.33608,72.97523
"8713",116.250946,73.409325,72.840225
"8714",116.26428,73.66079,72.885735
"8715",116.27762,74.29313,73.31998
"8716",116.290955,75.55779,74.4063
"8717",116.30429,77.628136,76.33783
"8718",116.31763,80.49439,79.12997
"8719",116.33096,83.90753,82.558556
"8720",116.3443,87.413445,86.18658
"8721",116.357635,90.4799,89.484695
"8722",116.37097,92.6894,92.0217
"8723",116.38431,93.8613,93.59014
"8724",116.397644,94.063934,94.225945
"8725",116.41098,93.54635,94.14786
"8726",116.42432,92.611275,93.63611
"8727",116.43765,91.52239,92.94133
"8728",116.45099,90.46281,92.24182
"8729",116.464325,89.51064,91.61662
"8730",116.47766,88.66346,91.06665
"8731",116.491,87.86267,90.53659
"8732",116.50433,87.02281,89.942444
"8733",116.51767,86.05356,89.19265
"8734",116.531006,84.90608,88.234344
"8735",116.54434,83.59991,87.08148
"8736",116.55768,82.19852,85.79259
"8737",116.571014,80.82399,84.48676
"8738",116.58435,79.603264,83.29179
"8739",116.59769,78.62913,82.30525
"8740",116.61102,77.925995,81.55928
"8741",116.62436,77.47433,81.0428
"8742",116.637695,77.196,80.68555
"8743",116.65103,77.01045,80.41238
"8744",116.66437,76.83467,80.14317
"8745",116.677704,76.62226,79.83185
"8746",116.69104,76.33662,79.44065
"8747",116.70438,75.98016,78.96972
"8748",116.71771,75.562675,78.42661
"8749",116.73105,75.11589,77.84116
"8750",116.744385,74.669106,77.24175
"8751",116.75772,74.249176,76.655235
"8752",116.77106,73.88052,76.10687
"8753",116.78439,73.5729,75.60802
"8754",116.79773,73.32876,75.16303
"8755",116.811066,73.13832,74.76412
"8756",116.8244,72.98695,74.39833
"8757",116.83774,72.867325,74.05955
"8758",116.851074,72.7599,73.72923
"8759",116.86441,72.66224,73.40532
"8760",116.87775,72.57679,73.09056
"8761",116.89108,72.50599,72.78778
"8762",116.90442,72.45716,72.50476
"8763",116.917755,72.45472,72.2666
"8764",116.93109,72.54017,72.11626
"8765",116.94443,72.83559,72.17856
"8766",116.95776,73.52651,72.6456
"8767",116.9711,74.830246,73.74704
"8768",116.984436,76.87129,75.62653
"8769",116.99777,79.59838,78.25585
"8770",117.01111,82.74296,81.38788
"8771",117.024445,85.872894,84.60353
"8772",117.03778,88.531624,87.445786
"8773",117.05112,90.38468,89.56546
"8774",117.06445,91.32464,90.82994
"8775",117.07779,91.45403,91.31323
"8776",117.091125,91.00725,91.22439
"8777",117.10446,90.247955,90.809074
"8778",117.1178,89.376366,90.25774
"8779",117.131134,88.5243,89.698685
"8780",117.14447,87.73327,89.17404
"8781",117.15781,86.98619,88.668625
"8782",117.17114,86.21713,88.11788
"8783",117.18448,85.3431,87.43813
"8784",117.197815,84.30305,86.56505
"8785",117.21115,83.087204,85.48367
"8786",117.22449,81.739525,84.23247
"8787",117.23782,80.37232,82.919624
"8788",117.25116,79.11253,81.67147
"8789",117.264496,78.07736,80.60857
"8790",117.27783,77.315636,79.78676
"8791",117.29117,76.82979,79.217026
"8792",117.304504,76.54658,78.83475
"8793",117.31784,76.385445,78.5657
"8794",117.33118,76.265816,78.333115
"8795",117.34451,76.112,78.06261
"8796",117.35785,75.88739,77.7165
"8797",117.371185,75.58465,77.28524
"8798",117.38452,75.21355,76.77616
"8799",117.39786,74.80583,76.21887
"8800",117.411194,74.38346,75.634186
"8801",117.42453,73.985504,75.060715
"8802",117.43787,73.62905,74.51631
"8803",117.4512,73.32632,74.01449
"8804",117.46454,73.07973,73.55935
"8805",117.477875,72.884415,73.14778
"8806",117.49121,72.73304,72.77405
"8807",117.50455,72.60853,72.42244
"8808",117.51788,72.498665,72.08159
"8809",117.53122,72.40345,71.75195
"8810",117.544556,72.31556,71.42667
"8811",117.55789,72.24231,71.11328
"8812",117.57123,72.1886,70.81714
"8813",117.584564,72.16907,70.5535
"8814",117.5979,72.21057,70.35028
"8815",117.61124,72.39124,70.28754
"8816",117.62457,72.84291,70.501434
"8817",117.63791,73.75601,71.19088
"8818",117.651245,75.28191,72.52166
"8819",117.66458,77.44503,74.53734
"8820",117.67792,80.09888,77.11134
"8821",117.69125,82.93584,79.95139
"8822",117.70459,85.555504,82.6628
"8823",117.717926,87.61364,84.89455
"8824",117.73126,88.92714,86.44597
"8825",117.7446,89.495995,87.29379
"8826",117.757935,89.46914,87.56369
"8827",117.77127,89.04921,87.439674
"8828",117.78461,88.43885,87.11211
"8829",117.79794,87.77234,86.709305
"8830",117.81128,87.115585,86.29544
"8831",117.824615,86.47349,85.8757
"8832",117.83795,85.80209,85.4066
"8833",117.85129,85.033035,84.818855
"8834",117.864624,84.11505,84.05815
"8835",117.87796,83.035934,83.10763
"8836",117.8913,81.84451,82.01108
"8837",117.90463,80.63111,80.855316
"8838",117.91797,79.500725,79.74465
"8839",117.931305,78.55833,78.78665
"8840",117.94464,77.85031,78.033585
"8841",117.95798,77.37423,77.490326
"8842",117.97131,77.07637,77.11041
"8843",117.98465,76.90059,76.84327
"8844",117.997986,76.76387,76.609695
"8845",118.01132,76.61494,76.359634
"8846",118.02466,76.41474,76.05366
"8847",118.037994,76.15106,75.67794
"8848",118.05133,75.826355,75.232956
"8849",118.06467,75.46014,74.73631
"8850",118.078,75.07439,74.208694
"8851",118.09134,74.69596,73.676346
"8852",118.104675,74.34928,73.16392
"8853",118.11801,74.04898,72.687035
"8854",118.13135,73.80972,72.26181
"8855",118.144684,73.62905,71.887695
"8856",118.15802,73.49966,71.55921
"8857",118.17136,73.402,71.25842
"8858",118.18469,73.32632,70.976555
"8859",118.19803,73.255516,70.697205
"8860",118.211365,73.18715,70.418076
"8861",118.2247,73.126114,70.14414
"8862",118.23804,73.074844,69.87807
"8863",118.25137,73.03822,69.62504
"8864",118.26471,73.023575,69.39284
"8865",118.278046,73.04799,69.19924
"8866",118.29138,73.13832,69.07233
"8867",118.30472,73.375145,69.09473
"8868",118.318054,73.90982,69.42238
"8869",118.33139,74.90837,70.23061
"8870",118.34473,76.46845,71.631584
"8871",118.35806,78.555885,73.60866
"8872",118.3714,80.97536,75.983
"8873",118.384735,83.43145,78.469574
"8874",118.39807,85.58968,80.73504
"8875",118.41141,87.20592,82.52595
"8876",118.42474,88.199585,83.7448
"8877",118.43808,88.63172,84.43317
"8878",118.451416,88.639046,84.710236
"8879",118.46475,88.38514,84.7263
"8880",118.47809,88.00183,84.60503
"8881",118.491425,87.57458,84.427826
"8882",118.50476,87.13512,84.22507
"8883",118.5181,86.67368,83.9866
"8884",118.53143,86.14145,83.66292
"8885",118.54477,85.49203,83.205414
"8886",118.558105,84.681465,82.566475
"8887",118.57144,83.734184,81.76549
"8888",118.58478,82.69413,80.842125
"8889",118.598114,81.654076,79.88626
"8890",118.61145,80.719,79.00288
"8891",118.62479,79.96704,78.273384
"8892",118.63812,79.42016,77.72547
"8893",118.65146,79.05882,77.346016
"8894",118.664795,78.82445,77.08223
"8895",118.67813,78.6511,76.87215
"8896",118.69147,78.485085,76.66398
"8897",118.7048,78.28245,76.414
"8898",118.71814,78.028534,76.106415
"8899",118.731476,77.72335,75.739624
"8900",118.74481,77.37179,75.31692
"8901",118.75815,76.99092,74.85392
"8902",118.771484,76.612495,74.38146
"8903",118.78482,76.25117,73.914276
"8904",118.79816,75.92645,73.47241
"8905",118.81149,75.65545,73.07411
"8906",118.82483,75.43816,72.72106
"8907",118.838165,75.26238,72.402725
"8908",118.8515,75.12077,72.11307
"8909",118.86484,74.9987,71.838524
"8910",118.878174,74.88396,71.56749
"8911",118.89151,74.77409,71.29775
"8912",118.90485,74.666664,71.027016
"8913",118.91818,74.57145,70.76514
"8914",118.93152,74.49821,70.522255
"8915",118.944855,74.44938,70.3015
"8916",118.95819,74.42741,70.10607
"8917",118.97153,74.43961,69.94414
"8918",118.98486,74.512856,69.84362
"8919",118.9982,74.72526,69.88455
"8920",119.011536,75.211105,70.20557
"8921",119.02487,76.121765,70.966576
"8922",119.03821,77.52071,72.24433
"8923",119.051544,79.35424,74.00038
"8924",119.06488,81.427025,76.052986
"8925",119.07822,83.47051,78.14107
"8926",119.09155,85.20882,79.98782
"8927",119.10489,86.46128,81.40306
"8928",119.118225,87.19615,82.33984
"8929",119.13156,87.48913,82.8577
"8930",119.1449,87.467155,83.06976
"8931",119.15823,87.259636,83.0956
"8932",119.17157,86.97154,83.03436
"8933",119.184906,86.6688,82.94948
"8934",119.19824,86.37339,82.862465
"8935",119.21158,86.05112,82.73936
"8936",119.224915,85.645836,82.52317
"8937",119.23825,85.103836,82.1576
"8938",119.25159,84.39582,81.60908
"8939",119.26492,83.546196,80.89682
"8940",119.27826,82.633095,80.094536
"8941",119.291595,81.75418,79.297905
"8942",119.30493,81.004654,78.603195
"8943",119.31827,80.430916,78.06085
"8944",119.331604,80.04028,77.683685
"8945",119.34494,79.7937,77.43836
"8946",119.35828,79.62524,77.26345
"8947",119.37161,79.47875,77.105255
"8948",119.38495,79.30541,76.91563
"8949",119.398285,79.078354,76.66686
"8950",119.41162,78.79027,76.349976
"8951",119.42496,78.44602,75.967926
"8952",119.43829,78.0676,75.54094
"8953",119.45163,77.679405,75.09236
"8954",119.464966,77.30099,74.641426
"8955",119.4783,76.9543,74.210396
"8956",119.49164,76.65156,73.81248
"8957",119.504974,76.39765,73.45393
"8958",119.51831,76.1828,73.12651
"8959",119.53165,76.00214,72.82656
"8960",119.54498,75.843445,72.54294
"8961",119.55832,75.69695,72.266556
"8962",119.571655,75.55779,71.99293
"8963",119.58499,75.4284,71.72472
"8964",119.59833,75.30877,71.46223
"8965",119.611664,75.19646,71.203316
"8966",119.625,75.09636,70.95311
"8967",119.638336,75.01579,70.71931
"8968",119.65167,74.96452,70.51228
"8969",119.66501,74.966965,70.35737
"8970",119.678345,75.0988,70.331924
"8971",119.69168,75.474785,70.55475
"8972",119.70502,76.23895,71.177505
"8973",119.71835,77.45724,72.27826
"8974",119.73169,79.08568,73.82724
"8975",119.745026,80.96315,75.67614
"8976",119.75836,82.84306,77.58615
"8977",119.7717,84.473946,79.30588
"8978",119.785034,85.68734,80.65908
"8979",119.79837,86.44663,81.5961
"8980",119.81171,86.81773,82.168655
"8981",119.82504,86.91783,82.481804
"8982",119.83838,86.85924,82.63939
"8983",119.851715,86.7396,82.7341
"8984",119.86505,86.598,82.80311
"8985",119.87839,86.44663,82.857925
"8986",119.89172,86.2562,82.86895
"8987",119.90506,85.99252,82.80077
"8988",119.918396,85.59945,82.59496
"8989",119.93173,85.04036,82.21085
"8990",119.94507,84.317696,81.6457
"8991",119.958405,83.48272,80.94565
"8992",119.97174,82.60868,80.18044
"8993",119.98508,81.7908,79.444084
"8994",119.99841,81.10719,78.81644
"8995",120.01175,80.59937,78.343216
"8996",120.025085,80.25025,78.012825
"8997",120.03842,80.01587,77.78626
"8998",120.05176,79.83032,77.60121
"8999",120.065094,79.64477,77.410355
"9000",120.07843,79.42504,77.17953
"9001",120.09177,79.15404,76.89056
"9002",120.1051,78.836655,76.54674
"9003",120.11844,78.4802,76.15393
"9004",120.131775,78.099335,75.72557
"9005",120.14511,77.72091,75.28775
"9006",120.15845,77.35714,74.85276
"9007",120.17178,77.0251,74.43813
"9008",120.18512,76.732124,74.05219
"9009",120.198456,76.4831,73.70105
"9010",120.21179,76.27802,73.38607
"9011",120.22513,76.10956,73.101295
"9012",120.238464,75.965515,72.83568
"9013",120.2518,75.84589,72.58997
"9014",120.26514,75.7409,72.35517
"9015",120.27847,75.648125,72.1293
"9016",120.29181,75.56512,71.9103
"9017",120.305145,75.48943,71.69603
"9018",120.31848,75.41619,71.481834
"9019",120.33182,75.34783,71.27023
"9020",120.34515,75.284355,71.06138
"9021",120.35849,75.23552,70.86518
"9022",120.371826,75.23796,70.718735
"9023",120.38516,75.37957,70.71153
"9024",120.3985,75.79462,70.98219
"9025",120.411835,76.61494,71.6711
"9026",120.42517,77.88937,72.83975
"9027",120.43851,79.554436,74.43886
"9028",120.45184,81.41238,76.282875
"9029",120.46518,83.20439,78.119026
"9030",120.478516,84.69123,79.706
"9031",120.49185,85.74349,80.90486
"9032",120.50519,86.35874,81.69959
"9033",120.518524,86.6395,82.17906
"9034",120.53186,86.710304,82.457344
"9035",120.5452,86.678566,82.6353
"9036",120.55853,86.61753,82.78297
"9037",120.57187,86.54917,82.9214
"9038",120.585205,86.46128,83.03817
"9039",120.59854,86.312355,83.091156
"9040",120.61188,86.05356,83.02962
"9041",120.62521,85.63119,82.79642
"9042",120.63855,85.033035,82.37424
"9043",120.651886,84.283516,81.782
"9044",120.66522,83.44366,81.076
"9045",120.67856,82.60624,80.34619
"9046",120.691895,81.85428,79.675674
"9047",120.70523,81.253685,79.133026
"9048",120.71857,80.816666,78.73518
"9049",120.7319,80.52369,78.46773
"9050",120.74524,80.32105,78.281456
"9051",120.758575,80.15503,78.125465
"9052",120.77191,79.97681,77.95209
"9053",120.78525,79.75952,77.73408
"9054",120.798584,79.48852,77.45556
"9055",120.81192,79.17113,77.122185
"9056",120.82526,78.82689,76.752045
"9057",120.83859,78.467995,76.35649
"9058",120.85193,78.1091,75.94972
"9059",120.865265,77.7673,75.548836
"9060",120.8786,77.44503,75.15679
"9061",120.89194,77.154495,74.786415
"9062",120.90527,76.89815,74.44115
"9063",120.91861,76.6833,74.129364
"9064",120.931946,76.50263,73.845055
"9065",120.94528,76.35859,73.59172
"9066",120.95862,76.241394,73.36073
"9067",120.971954,76.14374,73.14562
"9068",120.98529,76.05829,72.93967
"9069",120.99863,75.98016,72.738365
"9070",121.01196,75.90204,72.53462
"9071",121.0253,75.826355,72.33088
"9072",121.038635,75.74334,72.11744
"9073",121.05197,75.66033,71.90141
"9074",121.06531,75.58221,71.687675
"9075",121.07864,75.526054,71.49347
"9076",121.09198,75.508965,71.33657
"9077",121.105316,75.59197,71.279236
"9078",121.11865,75.89227,71.44179
"9079",121.13199,76.53925,71.9604
"9080",121.145325,77.62081,72.933815
"9081",121.15866,79.11253,74.35119
"9082",121.172,80.87038,76.0813
"9083",121.18533,82.65751,77.89563
"9084",121.19867,84.21515,79.536316
"9085",121.212006,85.3724,80.82529
"9086",121.22534,86.080414,81.70119
"9087",121.23868,86.41001,82.220795
"9088",121.252014,86.485695,82.49679
"9089",121.26535,86.434425,82.64819
"9090",121.27869,86.33433,82.74917
"9091",121.29202,86.236664,82.84945
"9092",121.30536,86.14145,82.94913
"9093",121.318695,86.029144,83.02874
"9094",121.33203,85.8436,83.0316
"9095",121.34537,85.538414,82.90903
"9096",121.3587,85.07942,82.62311
"9097",121.37204,84.46906,82.17148
"9098",121.385376,83.74395,81.58602
"9099",121.39871,82.97734,80.93641
"9100",121.41205,82.25468,80.306786
"9101",121.425385,81.64675,79.76932
"9102",121.43872,81.18532,79.359344
"9103",121.45206,80.86305,79.07412
"9104",121.46539,80.64088,78.878914
"9105",121.47873,80.46754,78.7256
"9106",121.492065,80.30152,78.574196
"9107",121.5054,80.113525,78.39562
"9108",121.51874,79.87915,78.164795
"9109",121.532074,79.603264,77.88513
"9110",121.54541,79.28588,77.55535
"9111",121.55875,78.941635,77.18879
"9112",121.57208,78.57786,76.79194
"9113",121.58542,78.21408,76.38372
"9114",121.598755,77.86008,75.97391
"9115",121.61209,77.540245,75.587204
"9116",121.62543,77.25704,75.227135
"9117",121.63876,77.02022,74.904594
"9118",121.6521,76.82979,74.62105
"9119",121.665436,76.67597,74.368164
"9120",121.67877,76.55634,74.14466
"9121",121.69211,76.46113,73.94183
"9122",121.705444,76.383,73.75312
"9123",121.71878,76.314644,73.57173
"9124",121.73212,76.24872,73.39064
"9125",121.74545,76.18036,73.205055
"9126",121.75879,76.102234,73.00757
"9127",121.772125,76.02411,72.80764
"9128",121.78546,75.945984,72.60527
"9129",121.7988,75.87274,72.40534
"9130",121.81213,75.80438,72.20801
"9131",121.82547,75.75311,72.02563
"9132",121.838806,75.7409,71.8807
"9133",121.85214,75.85321,71.85992
"9134",121.86548,76.23163,72.10875
"9135",121.878815,77.01289,72.772255
"9136",121.89215,78.25803,73.92405
"9137",121.90549,79.89868,75.51026
"9138",121.91882,81.739525,77.34794
"9139",121.93216,83.50225,79.16502
"9140",121.945496,84.93538,80.707596
"9141",121.95883,85.89487,81.82131
"9142",121.97217,86.400246,82.5109
"9143",121.985504,86.554054,82.864716
"9144",121.99884,86.4979,83.013374
"9145",122.01218,86.35386,83.07239
"9146",122.02551,86.20004,83.11713
"9147",122.03885,86.065765,83.1766
"9148",122.052185,85.9559,83.25629
"9149",122.06552,85.83139,83.317894
"9150",122.07886,85.65316,83.32189
"9151",122.09219,85.36019,83.20558
"9152",122.10553,84.92317,82.936066
"9153",122.118866,84.34211,82.50885
"9154",122.1322,83.66094,81.96337
"9155",122.14554,82.95537,81.3722
"9156",122.158875,82.303505,80.81269
"9157",122.17221,81.76883,80.35
"9158",122.18555,81.37087,80.00732
"9159",122.19888,81.09743,79.77671
"9160",122.21222,80.902115,79.61569
"9161",122.225555,80.73609,79.47786
"9162",122.23889,80.56519,79.32996
"9163",122.25223,80.360115,79.14255
"9164",122.265564,80.1062,78.89989
"9165",122.2789,79.80591,78.60291
"9166",122.29224,79.4641,78.25504
"9167",122.30557,79.09544,77.86964
"9168",122.31891,78.712135,77.45806
"9169",122.332245,78.34104,77.04672
"9170",122.34558,77.994354,76.64819
"9171",122.35892,77.68185,76.27301
"9172",122.37225,77.40353,75.92225
"9173",122.38559,77.152054,75.58964
"9174",122.398926,76.92012,75.26871
"9175",122.41226,76.70771,74.96005
"9176",122.4256,76.51484,74.6643
"9177",122.438934,76.351265,74.391815
"9178",122.45227,76.224304,74.15083
"9179",122.46561,76.13397,73.94251
"9180",122.47894,76.07782,73.76555
"9181",122.49228,76.0412,73.60636
"9182",122.505615,76.00702,73.44847
"9183",122.51895,75.96307,73.27975
"9184",122.53229,75.90692,73.09744
"9185",122.54562,75.83612,72.898735
"9186",122.55896,75.76044,72.69293
"9187",122.572296,75.68719,72.4872
"9188",122.58563,75.61883,72.284065
"9189",122.59897,75.562675,72.091
"9190",122.612305,75.5407,71.93037
"9191",122.62564,75.60906,71.859375
"9192",122.63898,75.89227,72.00537
"9193",122.65231,76.544136,72.52887
"9194",122.66565,77.67452,73.55126
"9195",122.678986,79.25414,75.05821
"9196",122.69232,81.13405,76.91481
"9197",122.70566,83.0457,78.8619
"9198",122.718994,84.71076,80.62214
"9199",122.73233,85.924164,81.98275
"9200",122.74567,86.63218,82.87589
"9201",122.759,86.908066,83.35903
"9202",122.77234,86.8983,83.56514
"9203",122.785675,86.73716,83.61957
"9204",122.79901,86.5272,83.62014
"9205",122.81235,86.33921,83.63612
"9206",122.82568,86.19272,83.68773
"9207",122.83902,86.06821,83.75674
"9208",122.852356,85.92172,83.79988
"9209",122.86569,85.70443,83.76764
"9210",122.87903,85.36996,83.61143
"9211",122.892365,84.893875,83.303154
"9212",122.9057,84.300606,82.862816
"9213",122.91904,83.64629,82.342896
"9214",122.93237,83.001755,81.8123
"9215",122.94571,82.4329,81.33725
"9216",122.959045,81.97879,80.95917
"9217",122.97238,81.64675,80.688965
"9218",122.98572,81.40505,80.498726
"9219",122.999054,81.214615,80.352196
"9220",123.01239,81.03151,80.20705
"9221",123.02573,80.82643,80.0342
"9222",123.03906,80.584724,79.81832
"9223",123.0524,80.2942,79.54607
"9224",123.065735,79.957275,79.21834
"9225",123.07907,79.588615,78.84834
"9226",123.09241,79.200424,78.447296
"9227",123.10574,78.81224,78.03413
"9228",123.11908,78.44114,77.62591
"9229",123.132416,78.09201,77.228065
"9230",123.14575,77.77463,76.85106
"9231",123.15909,77.488976,76.495865
"9232",123.172424,77.239944,76.168365
"9233",123.18576,77.01778,75.85995
"9234",123.1991,76.82979,75.578766
"9235",123.21243,76.67841,75.32832
"9236",123.22577,76.55634,75.102455
"9237",123.239105,76.453804,74.8923
"9238",123.25244,76.36591,74.693596
"9239",123.26578,76.28535,74.499466
"9240",123.27911,76.20477,74.30281
"9241",123.29245,76.121765,74.101204
"9242",123.305786,76.03876,73.897
"9243",123.31912,75.95575,73.69021
"9244",123.33246,75.86786,73.47594
"9245",123.345795,75.792175,73.271126
"9246",123.35913,75.733574,73.08103
"9247",123.37247,75.72137,72.9355
"9248",123.3858,75.8288,72.909225
"9249",123.39914,76.190125,73.140205
"9250",123.412476,76.946976,73.778
"9251",123.42581,78.170135,74.905754
"9252",123.43915,79.81079,76.48923
"9253",123.452484,81.6907,78.36322
"9254",123.46582,83.53643,80.26179
"9255",123.47916,85.08186,81.91773
"9256",123.49249,86.1561,83.15077
"9257",123.50583,86.73228,83.91933
"9258",123.519165,86.90074,84.29817
"9259",123.5325,86.79576,84.40884
"9260",123.54584,86.55894,84.38438
"9261",123.55917,86.29771,84.32811
"9262",123.57251,86.07065,84.29785
"9263",123.585846,85.889984,84.30689
"9264",123.59918,85.74105,84.34202
"9265",123.61252,85.56771,84.34808
"9266",123.625854,85.31136,84.265724
"9267",123.63919,84.93294,84.053276
"9268",123.65253,84.42756,83.70205
"9269",123.66586,83.81964,83.23249
"9270",123.6792,83.177536,82.70975
"9271",123.692535,82.56962,82.201126
"9272",123.70587,82.04959,81.7614
"9273",123.71921,81.63943,81.41528
"9274",123.732544,81.33669,81.16378
"9275",123.74588,81.10719,80.97605
"9276",123.75922,80.91188,80.81534
"9277",123.77255,80.709236,80.64119
"9278",123.78589,80.4773,80.43142
"9279",123.799225,80.201416,80.17045
"9280",123.81256,79.88159,79.85692
"9281",123.8259,79.520256,79.49188
"9282",123.83923,79.13695,79.09358
"9283",123.85257,78.751205,78.68087
"9284",123.865906,78.37766,78.2683
"9285",123.87924,78.02365,77.863594
"9286",123.89258,77.70138,77.47956
"9287",123.905914,77.41573,77.122086
"9288",123.91925,77.16182,76.787415
"9289",123.93259,76.94209,76.479
"9290",123.94592,76.756546,76.19789
"9291",123.95926,76.60273,75.94272
"9292",123.972595,76.47822,75.71204
"9293",123.98593,76.37812,75.50189
"9294",123.99927,76.29267,75.30326
"9295",124.0126,76.21454,75.109276
"9296",124.02594,76.13641,74.91286
"9297",124.039276,76.050964,74.70667
"9298",124.05261,75.965515,74.49782
"9299",124.06595,75.880066,74.28629
"9300",124.079285,75.80194,74.07942
"9301",124.09262,75.733574,73.87987
"9302",124.10596,75.67498,73.68795
"9303",124.11929,75.648125,73.52594
"9304",124.13263,75.70672,73.44854
"9305",124.145966,75.98505,73.592705
"9306",124.1593,76.64423,74.12643
"9307",124.17264,77.78195,75.15928
"9308",124.185974,79.38354,76.69155
"9309",124.19931,81.30007,78.58882
"9310",124.21265,83.26299,80.59237
"9311",124.22598,84.98421,82.41555
"9312",124.23932,86.24399,83.831085
"9313",124.252655,86.9691,84.75132
"9314",124.26599,87.21568,85.21568
"9315",124.27933,87.1107,85.33619
"9316",124.29266,86.803085,85.25078
"9317",124.306,86.41978,85.08006
"9318",124.319336,86.05112,84.91202
"9319",124.33267,85.73617,84.78616
"9320",124.34601,85.46761,84.69686
"9321",124.359344,85.206375,84.60648
"9322",124.37268,84.90364,84.466446
"9323",124.38602,84.51545,84.23149
"9324",124.39935,84.03693,83.89407
"9325",124.41269,83.49493,83.478226
"9326",124.426025,82.950485,83.043
"9327",124.43936,82.45243,82.637146
"9328",124.4527,82.039825,82.30118
"9329",124.466034,81.722435,82.04753
"9330",124.47937,81.480736,81.85966
"9331",124.49271,81.28298,81.708176
"9332",124.50604,81.094986,81.56027
"9333",124.51938,80.88991,81.38941
"9334",124.532715,80.6482,81.175514
"9335",124.54605,80.360115,80.907684
"9336",124.55939,80.01831,80.57713
"9337",124.57272,79.63256,80.191956
"9338",124.58606,79.217514,79.76543
"9339",124.599396,78.785385,79.308846
"9340",124.61273,78.35813,78.843636
"9341",124.62607,77.95529,78.38949
"9342",124.639404,77.58419,77.95449
"9343",124.65274,77.2546,77.54941
"9344",124.66608,76.964066,77.17308
"9345",124.67941,76.717476,76.83162
"9346",124.69275,76.507515,76.51908
"9347",124.706085,76.32441,76.22684
"9348",124.71942,76.16571,75.95328
"9349",124.73276,76.03143,75.69918
"9350",124.74609,75.90692,75.45065
"9351",124.75943,75.7995,75.215324
"9352",124.772766,75.701836,74.9864
"9353",124.7861,75.613945,74.76419
"9354",124.79944,75.53582,74.549
"9355",124.812775,75.46014,74.33382
"9356",124.82611,75.39666,74.12847
"9357",124.83945,75.38201,73.96997
"9358",124.85278,75.51385,73.9575
"9359",124.86612,75.931335,74.234795
"9360",124.879456,76.7834,74.95972
"9361",124.89279,78.1384,76.214195
"9362",124.90613,79.923096,77.94072
"9363",124.919464,81.93973,79.95495
"9364",124.9328,83.90753,81.98337
"9365",124.94614,85.54818,83.746124
"9366",124.95947,86.68345,85.05477
"9367",124.97281,87.28161,85.861786
"9368",124.986145,87.42565,86.23338
"9369",124.99948,87.24986,86.28964
"9370",125.01282,86.89342,86.15975
"9371",125.02615,86.48081,85.96256
"9372",125.03949,86.0853,85.76957
"9373",125.052826,85.73617,85.6106
"9374",125.06616,85.42123,85.474915
"9375",125.0795,85.09407,85.31717
"9376",125.092834,84.69611,85.0784
"9377",125.10617,84.19562,84.724655
"9378",125.11951,83.59014,84.25029
"9379",125.13284,82.91875,83.691086
"9380",125.14618,82.24979,83.113335
"9381",125.159515,81.64431,82.57816
"9382",125.17285,81.146255,82.13149
"9383",125.18619,80.765396,81.78645
"9384",125.199524,80.482185,81.52716
"9385",125.21286,80.2649,81.32494
"9386",125.2262,80.07202,81.14034
"9387",125.23953,79.8645,80.935074
"9388",125.25287,79.62035,80.68669
"9389",125.266205,79.32983,80.3843
"9390",125.27954,78.98558,80.01911
"9391",125.29288,78.59983,79.60166
"9392",125.30621,78.187225,79.1453
"9393",125.31955,77.76486,78.66629
"9394",125.332886,77.349815,78.1814
"9395",125.34622,76.95674,77.705505
"9396",125.35956,76.595406,77.24907
"9397",125.372894,76.27314,76.82041
"9398",125.38623,75.99481,76.42562
"9399",125.39957,75.76288,76.06853
"9400",125.4129,75.577324,75.750565
"9401",125.42624,75.43328,75.468315
"9402",125.439575,75.318535,75.21086
"9403",125.45291,75.22331,74.969345
"9404",125.46625,75.13786,74.73463
"9405",125.47958,75.04997,74.4948
"9406",125.49292,74.96452,74.25466
"9407",125.506256,74.88396,74.01674
"9408",125.51959,74.810715,73.78362
"9409",125.53293,74.75212,73.56287
"9410",125.546265,74.737465,73.38422
"9411",125.5596,74.83513,73.31743
"9412",125.57294,75.194016,73.514915
"9413",125.58627,75.982605,74.15332
"9414",125.59961,77.30831,75.353485
"9415",125.62628,81.375755,79.31061
"9416",125.63962,83.67803,81.655876
"9417",125.652954,85.750824,83.843605
"9418",125.66629,87.34997,85.62246
"9419",125.67963,88.375374,86.87755
"9420",125.69296,88.86122,87.62512
"9421",125.7063,88.92226,87.96307
"9422",125.719635,88.707405,88.02704
"9423",125.73297,88.35096,87.9427
"9424",125.74631,87.953,87.80571
"9425",125.75964,87.56725,87.66849
"9426",125.77298,87.203476,87.54118
"9427",125.786316,86.84459,87.4074
"9428",125.79965,86.44175,87.21845
"9429",125.81299,85.943695,86.9217
"9430",125.826324,85.32113,86.48487
"9431",125.83966,84.576485,85.90651
"9432",125.853,83.74639,85.21943
"9433",125.86633,82.89433,84.48444
"9434",125.87967,82.09842,83.77898
"9435",125.893005,81.40505,83.151184
"9436",125.90634,80.84108,82.63112
"9437",125.91968,80.39185,82.208176
"9438",125.933014,80.03296,81.86153
"9439",125.94635,79.725334,81.55493
"9440",125.95969,79.432365,81.25338
"9441",125.97302,79.12962,80.9329
"9442",125.98636,78.79515,80.57123
"9443",125.999695,78.42405,80.162476
"9444",126.01303,78.01877,79.70795
"9445",126.02637,77.593956,79.22122
"9446",126.0397,77.16182,78.7139
"9447",126.05304,76.73701,78.20039
"9448",126.066376,76.33662,77.69804
"9449",126.07971,75.9704,77.21734
"9450",126.09305,75.6408,76.76182
"9451",126.106384,75.3576,76.34239
"9452",126.11972,75.123215,75.96294
"9453",126.13306,74.94255,75.629875
"9454",126.14639,74.80339,75.33267
"9455",126.15973,74.69596,75.06285
"9456",126.173065,74.61051,74.81165
"9457",126.1864,74.53239,74.56511
"9458",126.19974,74.45426,74.316124
"9459",126.21307,74.37858,74.06714
"9460",126.22641,74.30778,73.82067
"9461",126.239746,74.246735,73.58175
"9462",126.25308,74.19791,73.353134
"9463",126.26642,74.18326,73.15717
"9464",126.279755,74.249176,73.04132
"9465",126.29309,74.52262,73.135056
"9466",126.30643,75.174484,73.61575
"9467",126.31976,76.36347,74.653946
"9468",126.3331,78.13107,76.30791
"9469",126.346436,80.37965,78.49808
"9470",126.35977,82.85771,80.98801
"9471",126.37311,85.23323,83.45283
"9472",126.386444,87.203476,85.58661
"9473",126.39978,88.587776,87.196014
"9474",126.41312,89.359276,88.235886
"9475",126.42645,89.60586,88.77495
"9476",126.43979,89.4667,88.935974
"9477",126.453125,89.09071,88.85583
"9478",126.46646,88.60731,88.65651
"9479",126.4798,88.10681,88.42499
"9480",126.49313,87.620964,88.192474
"9481",126.50647,87.149765,87.95943
"9482",126.519806,86.65659,87.68968
"9483",126.53314,86.09262,87.333725
"9484",126.54648,85.4139,86.8454
"9485",126.559814,84.61555,86.216225
"9486",126.57315,83.72442,85.46933
"9487",126.58649,82.79912,84.660416
"9488",126.59982,81.917755,83.86652
"9489",126.61316,81.1487,83.157394
"9490",126.626495,80.51881,82.5634
"9491",126.63983,80.0354,82.09621
"9492",126.65317,79.67162,81.733536
"9493",126.666504,79.378654,81.430305
"9494",126.67984,79.11986,81.15209
"9495",126.69318,78.86107,80.8658
"9496",126.70651,78.572975,80.542114
"9497",126.71985,78.23605,80.1606
"9498",126.733185,77.857635,79.72706
"9499",126.74652,77.44015,79.24262
"9500",126.75986,77.00801,78.73049
"9501",126.77319,76.578316,78.2073
"9502",126.78653,76.175476,77.69753
"9503",126.799866,75.81171,77.21425
"9504",126.8132,75.48943,76.76109
"9505",126.82654,75.21355,76.34425
"9506",126.839874,74.98161,75.962746
"9507",126.85321,74.79607,75.62038
"9508",126.86655,74.64225,75.30394
"9509",126.87988,74.52506,75.019325
"9510",126.89322,74.43717,74.760345
"9511",126.906555,74.373695,74.52303
"9512",126.91989,74.32975,74.30327
"9513",126.93323,74.29801,74.09434
"9514",126.94656,74.27116,73.8893
"9515",126.9599,74.24429,73.68341
"9516",126.973236,74.21744,73.47669
"9517",126.98657,74.18326,73.26181
"9518",126.99991,74.1564,73.053185
"9519",127.013245,74.16373,72.8779
"9520",127.02658,74.28092,72.81271
"9521",127.03992,74.6569,73.00997
"9522",127.05325,75.48211,73.66821
"9523",127.06659,76.89815,74.94307
"9524",127.079926,78.924545,76.872536
"9525",127.09326,81.41238,79.32676
"9526",127.1066,84.06378,82.0223
"9527",127.119934,86.51743,84.60294
"9528",127.13327,88.463264,86.75244
"9529",127.14661,89.73281,88.28647
"9530",127.15994,90.309,89.16681
"9531",127.17328,90.309,89.48897
"9532",127.186615,89.9086,89.41073
"9533",127.19995,89.28359,89.09537
"9534",127.21329,88.58289,88.684784
"9535",127.22662,87.89685,88.26695
