"","Time..s.","PPG.trace","Preprocessed.PPG"
"44894",610.3257,79.52514,96.12456
"44895",610.339,79.51537,96.09995
"44896",610.3523,79.50317,96.0726
"44897",610.3656,79.483635,96.037544
"44898",610.3789,79.45922,95.996994
"44899",610.3922,79.432365,95.95324
"44900",610.4055,79.40551,95.908646
"44901",610.4188,79.38354,95.868095
"44902",610.4321,79.36645,95.83174
"44903",610.44543,79.35668,95.80218
"44904",610.45874,79.36645,95.79184
"44905",610.47205,79.41772,95.82331
"44906",610.48535,79.54467,95.93207
"44907",610.49866,79.766846,96.140015
"44908",610.51196,80.09155,96.457436
"44909",610.52527,80.479744,96.84849
"44910",610.5386,80.87526,97.258995
"44911",610.5519,81.20973,97.62082
"44912",610.5652,81.43191,97.8808
"44913",610.5785,81.529564,98.0232
"44914",610.5918,81.514915,98.05635
"44915",610.6051,81.427025,98.0158
"44916",610.6184,81.307396,97.940765
"44917",610.6317,81.18288,97.8571
"44918",610.645,81.07301,97.7842
"44919",610.6583,80.98024,97.72496
"44920",610.67163,80.902115,97.67747
"44921",610.68494,80.816666,97.62021
"44922",610.69824,80.71656,97.54562
"44923",610.71155,80.587166,97.43862
"44924",610.72485,80.44068,97.310486
"44925",610.73816,80.27711,97.16068
"44926",610.75146,80.11841,97.01064
"44927",610.7648,79.96948,96.86542
"44928",610.7781,79.84741,96.74239
"44929",610.7914,79.7522,96.64241
"44930",610.8047,79.68139,96.56386
"44931",610.818,79.63012,96.50263
"44932",610.8313,79.59594,96.456894
"44933",610.8446,79.56664,96.41497
"44934",610.8579,79.53246,96.36725
"44935",610.8712,79.49828,96.31846
"44936",610.8845,79.46166,96.26616
"44937",610.8978,79.415276,96.20295
"44938",610.91113,79.361565,96.13097
"44939",610.92444,79.30785,96.057304
"44940",610.93774,79.256584,95.984406
"44941",610.95105,79.20775,95.91234
"44942",610.96436,79.1638,95.843636
"44943",610.97766,79.12718,95.78088
"44944",610.99097,79.10277,95.729195
"44945",611.0043,79.080795,95.679184
"44946",611.0176,79.06859,95.63825
"44947",611.0309,79.06615,95.606705
"44948",611.0442,79.06859,95.57996
"44949",611.0575,79.07103,95.5533
"44950",611.0708,79.07347,95.52671
"44951",611.0841,79.07347,95.49776
"44952",611.0974,79.078354,95.47369
"44953",611.1107,79.09544,95.461975
"44954",611.124,79.14671,95.48498
"44955",611.1373,79.26635,95.57795
"44956",611.15063,79.483635,95.77231
"44957",611.16394,79.80347,96.076004
"44958",611.17725,80.19409,96.46049
"44959",611.19055,80.6067,96.87916
"44960",611.20386,80.96803,97.25945
"44961",611.21716,81.22194,97.54361
"44962",611.23047,81.3489,97.708755
"44963",611.2438,81.36355,97.76556
"44964",611.2571,81.29763,97.74225
"44965",611.2704,81.19997,97.685135
"44966",611.2837,81.092545,97.61521
"44967",611.297,81.00221,97.55902
"44968",611.3103,80.92409,97.512215
"44969",611.3236,80.85573,97.47273
"44970",611.3369,80.7776,97.42135
"44971",611.3502,80.6775,97.34554
"44972",611.3635,80.550545,97.23976
"44973",611.37683,80.40162,97.10804
"44974",611.39014,80.24292,96.96189
"44975",611.40344,80.093994,96.82056
"44976",611.41675,79.9646,96.6941
"44977",611.43005,79.869385,96.59778
"44978",611.44336,79.80835,96.53266
"44979",611.45667,79.77417,96.49249
"44980",611.47,79.75708,96.468346
"44981",611.4833,79.742424,96.4461
"44982",611.4966,79.71801,96.413635
"44983",611.5099,79.68383,96.37064
"44984",611.5232,79.635,96.311935
"44985",611.5365,79.57885,96.24438
"44986",611.5498,79.517815,96.17018
"44987",611.5631,79.46166,96.09896
"44988",611.5764,79.415276,96.03575
"44989",611.5897,79.378654,95.98086
"44990",611.603,79.3518,95.934586
"44991",611.61633,79.33227,95.8948
"44992",611.62964,79.32006,95.861725
"44993",611.64294,79.31518,95.835594
"44994",611.65625,79.31518,95.81419
"44995",611.66956,79.31518,95.79279
"44996",611.68286,79.31274,95.76895
"44997",611.69617,79.31274,95.747475
"44998",611.7095,79.30785,95.721115
"44999",611.7228,79.29809,95.68972
"45000",611.7361,79.290764,95.66046
"45001",611.7494,79.293205,95.64074
"45002",611.7627,79.310295,95.63574
"45003",611.776,79.361565,95.66546
"45004",611.7893,79.47387,95.75781
"45005",611.8026,79.674065,95.94157
"45006",611.8159,79.96704,96.22436
"45007",611.8292,80.32838,96.58466
"45008",611.8425,80.71168,96.978226
"45009",611.85583,81.0486,97.33739
"45010",611.86914,81.28542,97.60698
"45011",611.88245,81.39529,97.75701
"45012",611.89575,81.40017,97.8055
"45013",611.90906,81.33181,97.78089
"45014",611.92236,81.234146,97.724846
"45015",611.93567,81.13161,97.66087
"45016",611.949,81.03883,97.60346
"45017",611.9623,80.953384,97.550476
"45018",611.9756,80.867935,97.49482
"45019",611.9889,80.7776,97.43161
"45020",612.0022,80.67017,97.34848
"45021",612.0155,80.54566,97.24491
"45022",612.0288,80.39918,97.11548
"45023",612.0421,80.24292,96.971695
"45024",612.0554,80.093994,96.83036
"45025",612.0687,79.96704,96.706345
"45026",612.08203,79.87427,96.61254
"45027",612.09534,79.815674,96.55002
"45028",612.10864,79.79126,96.519844
"45029",612.12195,79.781494,96.503555
"45030",612.13525,79.783936,96.49917
"45031",612.14856,79.78638,96.49486
"45032",612.16187,79.781494,96.4833
"45033",612.1752,79.76196,96.45694
"45034",612.1885,79.7351,96.42264
"45035",612.2018,79.693596,96.372856
"45036",612.2151,79.64721,96.316895
"45037",612.2284,79.59838,96.25704
"45038",612.2417,79.55932,96.20543
"45039",612.255,79.52514,96.15748
"45040",612.2683,79.500725,96.118225
"45041",612.2816,79.483635,96.08553
"45042",612.2949,79.466545,96.05231
"45043",612.3082,79.45434,96.02343
"45044",612.32153,79.44457,95.99661
"45045",612.33484,79.432365,95.96705
"45046",612.34814,79.41772,95.93466
"45047",612.36145,79.40551,95.90426
"45048",612.37476,79.39086,95.87103
"45049",612.38806,79.381096,95.84223
"45050",612.40137,79.39086,95.83266
"45051",612.4147,79.44213,95.86489
"45052",612.428,79.55932,95.964645
"45053",612.4413,79.76929,96.16084
"45054",612.4546,80.06714,96.451485
"45055",612.4679,80.42359,96.810036
"45056",612.4812,80.78493,97.18461
"45057",612.4945,81.094986,97.519196
"45058",612.5078,81.30251,97.76094
"45059",612.5211,81.392845,97.891975
"45060",612.5344,81.38064,97.923294
"45061",612.5477,81.304955,97.890755
"45062",612.56104,81.20241,97.82899
"45063",612.57434,81.09743,97.76158
"45064",612.58765,81.004654,97.7031
"45065",612.60095,80.921646,97.65149
"45066",612.61426,80.83864,97.59728
"45067",612.62756,80.740974,97.525826
"45068",612.64087,80.621346,97.42935
"45069",612.6542,80.479744,97.30717
"45070",612.6675,80.32105,97.16347
"45071",612.6808,80.16235,97.0148
"45072",612.6941,80.02319,96.880714
"45073",612.7074,79.91577,96.77402
"45074",612.7207,79.84497,96.700584
"45075",612.734,79.81079,96.66156
"45076",612.7473,79.79614,96.641
"45077",612.7606,79.79126,96.629745
"45078",612.7739,79.781494,96.61346
"45079",612.78723,79.766846,96.59198
"45080",612.80054,79.73754,96.55539
"45081",612.81384,79.69604,96.505684
"45082",612.82715,79.64965,96.4498
"45083",612.84045,79.603264,96.39246
"45084",612.85376,79.55688,96.33368
"45085",612.86707,79.517815,96.28077
"45086",612.8804,79.48608,96.23396
"45087",612.8937,79.46166,96.19349
"45088",612.907,79.44457,96.15958
"45089",612.9203,79.429924,96.12757
"45090",612.9336,79.415276,96.09511
"45091",612.9469,79.398186,96.059746
"45092",612.9602,79.38354,96.02629
"45093",612.9735,79.36645,95.98994
"45094",612.9868,79.34936,95.95305
"45095",613.0001,79.33715,95.92051
"45096",613.0134,79.33227,95.89491
"45097",613.02673,79.34203,95.88381
"45098",613.04004,79.395744,95.91696
"45099",613.05334,79.51537,96.01771
"45100",613.06665,79.7351,96.22229
"45101",613.07996,80.045166,96.52408
"45102",613.09326,80.41627,96.89659
"45103",613.10657,80.79225,97.28558
"45104",613.1199,81.10719,97.62528
"45105",613.1332,81.31472,97.86741
"45106",613.1465,81.40505,97.998825
"45107",613.1598,81.40261,98.04029
"45108",613.1731,81.341576,98.02309
"45109",613.1864,81.25857,97.982
"45110",613.1997,81.17311,97.935875
"45111",613.213,81.094986,97.89441
"45112",613.2263,81.01686,97.8505
"45113",613.2396,80.93385,97.79927
"45114",613.2529,80.8362,97.7308
"45115",613.26624,80.71656,97.63729
"45116",613.27954,80.5774,97.52052
"45117",613.29285,80.41871,97.379875
"45118",613.30615,80.257576,97.23183
"45119",613.31946,80.10376,97.08606
"45120",613.33276,79.97681,96.96235
"45121",613.34607,79.886475,96.87129
"45122",613.3594,79.82788,96.80915
"45123",613.3727,79.7937,96.76959
"45124",613.386,79.77417,96.743614
"45125",613.3993,79.75464,96.717026
"45126",613.4126,79.73266,96.68738
"45127",613.4259,79.70336,96.64973
"45128",613.4392,79.67162,96.60872
"45129",613.4525,79.63744,96.56428
"45130",613.4658,79.60082,96.51633
"45131",613.4791,79.55932,96.46235
"45132",613.49243,79.517815,96.407074
"45133",613.50574,79.47875,96.35294
"45134",613.51904,79.44213,96.30003
"45135",613.53235,79.40795,96.24842
"45136",613.54565,79.37133,96.1933
"45137",613.55896,79.33959,96.141914
"45138",613.57227,79.31274,96.09442
"45139",613.5856,79.290764,96.05097
"45140",613.5989,79.26879,96.006836
"45141",613.6122,79.24925,95.96445
"45142",613.6255,79.234604,95.92634
"45143",613.6388,79.2224,95.89021
"45144",613.6521,79.22484,95.868355
"45145",613.6654,79.25414,95.873436
"45146",613.6787,79.33959,95.93558
"45147",613.692,79.50805,96.0834
"45148",613.7053,79.77173,96.3317
"45149",613.7186,80.111084,96.663925
"45150",613.73193,80.48707,97.04338
"45151",613.74524,80.84596,97.417496
"45152",613.75854,81.12428,97.72225
"45153",613.77185,81.29275,97.92585
"45154",613.78516,81.35134,98.02484
"45155",613.79846,81.33425,98.04998
"45156",613.81177,81.27322,98.03064
"45157",613.8251,81.19508,97.992294
"45158",613.8384,81.1194,97.95396
"45159",613.8517,81.04372,97.91325
"45160",613.865,80.96071,97.86286
"45161",613.8783,80.86549,97.79767
"45162",613.8916,80.75075,97.70997
"45163",613.9049,80.61402,97.5967
"45164",613.9182,80.46021,97.46208
"45165",613.9315,80.289314,97.305565
"45166",613.9448,80.113525,97.13882
"45167",613.9581,79.954834,96.98367
"45168",613.97144,79.82056,96.847984
"45169",613.98474,79.727776,96.749596
"45170",613.99805,79.674065,96.68738
"45171",614.01135,79.64965,96.65278
"45172",614.02466,79.64233,96.63451
"45173",614.03796,79.63744,96.61845
"45174",614.0513,79.62768,96.59735
"45175",614.0646,79.605705,96.56374
"45176",614.0779,79.57397,96.519684
"45177",614.0912,79.534904,96.46731
"45178",614.1045,79.49096,96.40883
"45179",614.1178,79.447014,96.348976
"45180",614.1311,79.40551,96.29019
"45181",614.1444,79.36645,96.23255
"45182",614.1577,79.33471,96.181015
"45183",614.171,79.310295,96.13581
"45184",614.1843,79.293205,96.09717
"45185",614.19763,79.281,96.062874
"45186",614.21094,79.26879,96.0282
"45187",614.22424,79.25414,95.9907
"45188",614.23755,79.23949,95.952736
"45189",614.25085,79.22484,95.91432
"45190",614.26416,79.21019,95.87545
"45191",614.27747,79.202866,95.843445
"45192",614.2908,79.20531,95.82098
"45193",614.3041,79.234604,95.82544
"45194",614.3174,79.31274,95.879654
"45195",614.3307,79.47143,96.01687
"45196",614.344,79.72289,96.251816
"45197",614.3573,80.059814,96.58008
"45198",614.3706,80.4358,96.95793
"45199",614.3839,80.797134,97.332886
"45200",614.3972,81.08278,97.64344
"45201",614.4105,81.26833,97.86283
"45202",614.4238,81.34402,97.97815
"45203",614.43713,81.34402,98.02015
"45204",614.45044,81.30007,98.0182
"45205",614.46375,81.23659,97.995346
"45206",614.47705,81.16579,97.96319
"45207",614.49036,81.092545,97.92638
"45208",614.50366,81.00954,97.87751
"45209",614.51697,80.91188,97.8114
"45210",614.5303,80.79225,97.72027
"45211",614.5436,80.65308,97.60586
"45212",614.5569,80.49195,97.46513
"45213",614.5702,80.32105,97.30961
"45214",614.5835,80.15015,97.148735
"45215",614.5968,79.9939,96.99718
"45216",614.6101,79.8645,96.86759
"45217",614.6234,79.77417,96.773026
"45218",614.6367,79.72289,96.71469
"45219",614.65,79.69604,96.67918
"45220",614.6633,79.68139,96.65503
"45221",614.67664,79.66674,96.630424
"45222",614.68994,79.64477,96.59804
"45223",614.70325,79.61547,96.55764
"45224",614.71655,79.57641,96.50656
"45225",614.72986,79.53002,96.44694
"45226",614.74316,79.483635,96.385864
"45227",614.7565,79.43969,96.32578
"45228",614.7698,79.395744,96.26433
"45229",614.7831,79.35912,96.208824
"45230",614.7964,79.32983,96.1595
"45231",614.8097,79.30785,96.116585
"45232",614.823,79.290764,96.077866
"45233",614.8363,79.273674,96.03861
"45234",614.8496,79.256584,95.998825
"45235",614.8629,79.24193,95.96094
"45236",614.8762,79.22972,95.92504
"45237",614.8895,79.21507,95.88632
"45238",614.90283,79.202866,95.84959
"45239",614.91614,79.19554,95.81735
"45240",614.92944,79.18822,95.78489
"45241",614.94275,79.19066,95.76196
"45242",614.95605,79.200424,95.74644
"45243",614.96936,79.237045,95.75807
"45244",614.98267,79.32494,95.82213
"45245",614.996,79.49584,95.97193
"45246",615.0093,79.75708,96.217415
"45247",615.0226,80.09888,96.55162
"45248",615.0359,80.4773,96.933136
"45249",615.0492,80.831314,97.30206
"45250",615.0625,81.10475,97.60148
"45251",615.0758,81.26833,97.79958
"45252",615.0891,81.324486,97.89537
"45253",615.1024,81.30251,97.91479
"45254",615.1157,81.23903,97.892006
"45255",615.129,81.15846,97.85016
"45256",615.14233,81.08034,97.808235
"45257",615.15564,81.004654,97.76631
"45258",615.16895,80.92409,97.71714
"45259",615.18225,80.831314,97.653244
"45260",615.19556,80.71656,97.56447
"45261",615.20886,80.5774,97.4477
"45262",615.22217,80.411385,97.29973
"45263",615.2355,80.23071,97.13191
"45264",615.2488,80.05249,96.9609
"45265",615.2621,79.8938,96.80385
"45266",615.2754,79.766846,96.67358
"45267",615.2887,79.68139,96.58083
"45268",615.302,79.635,96.52449
"45269",615.3153,79.61547,96.49355
"45270",615.3286,79.61059,96.476654
"45271",615.3419,79.60815,96.46204
"45272",615.3552,79.59838,96.44003
"45273",615.3685,79.57885,96.40795
"45274",615.38184,79.554436,96.37038
"45275",615.39514,79.517815,96.31983
"45276",615.40845,79.47631,96.26326
"45277",615.42175,79.432365,96.20295
"45278",615.43506,79.38842,96.141266
"45279",615.44836,79.34692,96.08065
"45280",615.4617,79.31518,96.0285
"45281",615.475,79.28832,95.98025
"45282",615.4883,79.276115,95.9458
"45283",615.5016,79.27123,95.9183
"45284",615.5149,79.26635,95.89064
"45285",615.5282,79.26147,95.86283
"45286",615.5415,79.256584,95.83487
"45287",615.5548,79.24925,95.804306
"45288",615.5681,79.24437,95.77596
"45289",615.5814,79.23949,95.74747
"45290",615.5947,79.23216,95.71638
"45291",615.60803,79.22972,95.68994
"45292",615.62134,79.23216,95.66831
"45293",615.63464,79.2517,95.66386
"45294",615.64795,79.31518,95.70395
"45295",615.66125,79.45922,95.82659
"45296",615.67456,79.7058,96.056274
"45297",615.68787,80.045166,96.386444
"45298",615.7012,80.43824,96.78093
"45299",615.7145,80.82399,97.180374
"45300",615.7278,81.13161,97.51374
"45301",615.7411,81.33181,97.749306
"45302",615.7544,81.41482,97.87393
"45303",615.7677,81.40017,97.903496
"45304",615.781,81.33181,97.87889
"45305",615.7943,81.23903,97.82773
"45306",615.8076,81.1487,97.776115
"45307",615.8209,81.06813,97.731445
"45308",615.8342,80.99489,97.69158
"45309",615.84753,80.92409,97.65187
"45310",615.86084,80.83864,97.5953
"45311",615.87415,80.72144,97.50431
"45312",615.88745,80.57496,97.38037
"45313",615.90076,80.4065,97.22988
"45314",615.91406,80.235596,97.07168
"45315",615.92737,80.076904,96.92035
"45316",615.9407,79.94995,96.7958
"45317",615.954,79.8645,96.708786
"45318",615.9673,79.818115,96.658165
"45319",615.9806,79.798584,96.63295
"45320",615.9939,79.7937,96.62177
"45321",616.0072,79.79126,96.612885
"45322",616.0205,79.781494,96.596596
"45323",616.0338,79.75708,96.56535
"45324",616.0471,79.71801,96.51869
"45325",616.0604,79.66918,96.46105
"45326",616.0737,79.62035,96.401886
"45327",616.08704,79.56664,96.33631
"45328",616.10034,79.5227,96.278824
"45329",616.11365,79.483635,96.224846
"45330",616.12695,79.45434,96.17941
"45331",616.14026,79.432365,96.14039
"45332",616.15356,79.412834,96.10312
"45333",616.1669,79.395744,96.06768
"45334",616.1802,79.38598,96.03903
"45335",616.1935,79.37377,96.00764
"45336",616.2068,79.35424,95.96854
"45337",616.2201,79.32983,95.92394
"45338",616.2334,79.30053,95.8737
"45339",616.2467,79.27123,95.82255
"45340",616.26,79.2517,95.78024
"45341",616.2733,79.25414,95.7593
"45342",616.2866,79.290764,95.77261
"45343",616.2999,79.3933,95.85299
"45344",616.31323,79.58129,96.02202
"45345",616.32654,79.85718,96.28482
"45346",616.33984,80.2063,96.62948
"45347",616.35315,80.58228,97.01191
"45348",616.36646,80.919205,97.36703
"45349",616.37976,81.16579,97.642334
"45350",616.39307,81.30007,97.81305
"45351",616.4064,81.32937,97.88297
"45352",616.4197,81.27566,97.870804
"45353",616.433,81.17555,97.81056
"45354",616.4463,81.06813,97.739876
"45355",616.4596,80.970474,97.6756
"45356",616.4729,80.8777,97.61315
"45357",616.4862,80.79225,97.55513
"45358",616.4995,80.70435,97.49199
"45359",616.5128,80.604256,97.4139
"45360",616.5261,80.479744,97.30827
"45361",616.5394,80.33326,97.17678
"45362",616.55273,80.17456,97.028496
"45363",616.56604,80.01587,96.87526
"45364",616.57935,79.869385,96.72927
"45365",616.59265,79.7522,96.608
"45366",616.60596,79.66918,96.51724
"45367",616.61926,79.62524,96.46296
"45368",616.63257,79.61303,96.43904
"45369",616.6459,79.61303,96.42695
"45370",616.6592,79.61547,96.4173
"45371",616.6725,79.61303,96.40284
"45372",616.6858,79.5935,96.371216
"45373",616.6991,79.554436,96.31945
"45374",616.7124,79.50317,96.25426
"45375",616.7257,79.447014,96.18258
"45376",616.739,79.39086,96.109146
"45377",616.7523,79.344475,96.043724
"45378",616.7656,79.30785,95.98662
"45379",616.77893,79.28588,95.943016
"45380",616.79224,79.26635,95.90117
"45381",616.80554,79.256584,95.86848
"45382",616.81885,79.24681,95.83547
"45383",616.83215,79.23949,95.80461
"45384",616.84546,79.22728,95.76864
"45385",616.85876,79.21263,95.72984
"45386",616.8721,79.19554,95.68815
"45387",616.8854,79.17601,95.64348
"45388",616.8987,79.15892,95.60064
"45389",616.912,79.15404,95.56947
"45390",616.9253,79.17601,95.56501
"45391",616.9386,79.24681,95.61006
"45392",616.9519,79.398186,95.7379
"45393",616.9652,79.64965,95.97056
"45394",616.9785,79.98657,96.29653
"45395",616.9918,80.377205,96.686745
"45396",617.0051,80.75563,97.07696
"45397",617.01843,81.06081,97.40575
"45398",617.03174,81.25613,97.63422
"45399",617.04504,81.33181,97.74915
"45400",617.05835,81.3196,97.778564
"45401",617.07166,81.25613,97.756325
"45402",617.08496,81.17067,97.71012
"45403",617.09827,81.08522,97.661255
"45404",617.1116,81.007095,97.61704
"45405",617.1249,80.93385,97.57527
"45406",617.1382,80.850845,97.52145
"45407",617.1515,80.75319,97.45038
"45408",617.1648,80.638435,97.35916
"45409",617.1781,80.50416,97.244835
"45410",617.1914,80.34791,97.10434
"45411",617.2047,80.181885,96.94919
"45412",617.218,80.01587,96.78886
"45413",617.2313,79.85962,96.6331
"45414",617.2446,79.73754,96.50664
"45415",617.25793,79.65453,96.41543
"45416",617.27124,79.603264,96.35336
"45417",617.28455,79.58129,96.31899
"45418",617.29785,79.57641,96.301025
"45419",617.31116,79.57885,96.29023
"45420",617.32446,79.57397,96.27219
"45421",617.33777,79.5642,96.24911
"45422",617.3511,79.537346,96.20863
"45423",617.3644,79.49828,96.15511
"45424",617.3777,79.449455,96.09061
"45425",617.391,79.395744,96.01969
"45426",617.4043,79.34203,95.9471
"45427",617.4176,79.30297,95.887474
"45428",617.4309,79.273674,95.836395
"45429",617.4442,79.25414,95.79417
"45430",617.4575,79.24193,95.758644
"45431",617.4708,79.23216,95.72519
"45432",617.48413,79.22484,95.69387
"45433",617.49744,79.219955,95.664764
"45434",617.51074,79.21507,95.635506
"45435",617.52405,79.21263,95.608536
"45436",617.53735,79.21019,95.58149
"45437",617.55066,79.20775,95.55437
"45438",617.56396,79.20531,95.52717
"45439",617.5773,79.20775,95.504776
"45440",617.5906,79.23216,95.50443
"45441",617.6039,79.31518,95.56345
"45442",617.6172,79.49096,95.717834
"45443",617.6305,79.77661,95.98758
"45444",617.6438,80.15015,96.35413
"45445",617.6571,80.55543,96.76411
"45446",617.6704,80.92653,97.152565
"45447",617.6837,81.20485,97.45984
"45448",617.697,81.36111,97.65375
"45449",617.7103,81.409935,97.74511
"45450",617.72363,81.3782,97.75743
"45451",617.73694,81.304955,97.72726
"45452",617.75024,81.2195,97.68258
"45453",617.76355,81.13405,97.63524
"45454",617.77686,81.05348,97.59011
"45455",617.79016,80.97536,97.54491
"45456",617.80347,80.88747,97.487495
"45457",617.8168,80.78737,97.41513
"45458",617.8301,80.66529,97.31766
"45459",617.8434,80.516365,97.18952
"45460",617.8567,80.35523,97.044525
"45461",617.87,80.181885,96.88228
"45462",617.8833,80.01831,96.72439
"45463",617.8966,79.87671,96.58336
"45464",617.9099,79.76929,96.472084
"45465",617.9232,79.69848,96.394066
"45466",617.9365,79.66186,96.34802
"45467",617.9498,79.64233,96.317924
"45468",617.96313,79.63256,96.29698
"45469",617.97644,79.622795,96.275734
"45470",617.98975,79.605705,96.24686
"45471",618.00305,79.57641,96.20524
"45472",618.01636,79.537346,96.15294
"45473",618.02966,79.4934,96.094536
"45474",618.04297,79.43969,96.024994
"45475",618.0563,79.38842,95.956215
"45476",618.0696,79.33715,95.88583
"45477",618.0829,79.29809,95.82606
"45478",618.0962,79.26635,95.772385
"45479",618.1095,79.24681,95.72992
"45480",618.1228,79.23949,95.69906
"45481",618.1361,79.23949,95.67529
"45482",618.1494,79.237045,95.649086
"45483",618.1627,79.23216,95.62036
"45484",618.176,79.2224,95.5866
"45485",618.18933,79.21263,95.552536
"45486",618.20264,79.200424,95.515724
"45487",618.21594,79.18822,95.47853
"45488",618.22925,79.17845,95.4434
"45489",618.24255,79.168686,95.40796
"45490",618.25586,79.168686,95.38198
"45491",618.26917,79.1931,95.38042
"45492",618.2825,79.28588,95.44798
"45493",618.2958,79.47875,95.61854
"45494",618.3091,79.781494,95.90499
"45495",618.3224,80.16968,96.28635
"45496",618.3357,80.59449,96.71646
"45497",618.349,80.9778,97.11835
"45498",618.3623,81.253685,97.42479
"45499",618.3756,81.40505,97.61533
"45500",618.3889,81.44167,97.69586
"45501",618.4022,81.40017,97.69941
"45502",618.4155,81.31716,97.66016
"45503",618.42883,81.22438,97.608536
"45504",618.44214,81.13405,97.556465
"45505",618.45544,81.05104,97.508896
"45506",618.46875,80.96559,97.45629
"45507",618.48206,80.8777,97.398575
"45508",618.49536,80.780045,97.32835
"45509",618.50867,80.66041,97.233086
"45510",618.522,80.51392,97.10724
"45511",618.5353,80.35035,96.959724
"45512",618.5486,80.17944,96.79977
"45513",618.5619,80.01587,96.6418
"45514",618.5752,79.87671,96.503136
"45515",618.5885,79.77173,96.3943
"45516",618.6018,79.708244,96.323685
"45517",618.6151,79.676506,96.28283
"45518",618.6284,79.6643,96.26051
"45519",618.6417,79.65942,96.24514
"45520",618.655,79.65209,96.22717
"45521",618.66833,79.63256,96.19677
"45522",618.68164,79.60082,96.15355
"45523",618.69495,79.554436,96.09469
"45524",618.70825,79.50561,96.03194
"45525",618.72156,79.45922,95.9701
"45526",618.73486,79.41772,95.9117
"45527",618.74817,79.381096,95.85688
"45528",618.7615,79.35912,95.81557
"45529",618.7748,79.33959,95.77601
"45530",618.7881,79.32006,95.73584
"45531",618.8014,79.30297,95.6975
"45532",618.8147,79.290764,95.66351
"45533",618.828,79.28588,95.63647
"45534",618.8413,79.281,95.60927
"45535",618.8546,79.27856,95.58436
"45536",618.8679,79.276115,95.55937
"45537",618.8812,79.26635,95.526985
"45538",618.89453,79.256584,95.49429
"45539",618.90784,79.24437,95.45885
"45540",618.92114,79.237045,95.42791
"45541",618.93445,79.23216,95.399185
"45542",618.94775,79.23949,95.382515
"45543",618.96106,79.276115,95.39538
"45544",618.97437,79.378654,95.475296
"45545",618.9877,79.57641,95.65363
"45546",619.001,79.88159,95.94558
"45547",619.0143,80.26978,96.33007
"45548",619.0276,80.68482,96.75354
"45549",619.0409,81.05592,97.14604
"45550",619.0542,81.322044,97.44516
"45551",619.0675,81.45388,97.61831
"45552",619.0808,81.46609,97.67595
"45553",619.0941,81.39773,97.653404
"45554",619.1074,81.290306,97.58966
"45555",619.1207,81.17067,97.510345
"45556",619.13403,81.06081,97.437065
"45557",619.14734,80.96315,97.37256
"45558",619.16064,80.87526,97.314766
"45559",619.17395,80.78737,97.25423
"45560",619.18726,80.689705,97.18117
"45561",619.20056,80.57496,97.087975
"45562",619.21387,80.44312,96.974106
"45563",619.2272,80.2942,96.83903
"45564",619.2405,80.14038,96.694405
"45565",619.2538,79.99634,96.55475
"45566",619.2671,79.87427,96.43256
"45567",619.2804,79.783936,96.3383
"45568",619.2937,79.725334,96.27295
"45569",619.307,79.691154,96.23019
"45570",619.3203,79.674065,96.203445
"45571",619.3336,79.66186,96.18105
"45572",619.3469,79.64477,96.1534
"45573",619.3602,79.61547,96.113
"45574",619.37354,79.58129,96.0668
"45575",619.38684,79.54467,96.0171
"45576",619.40015,79.500725,95.95892
"45577",619.41345,79.45922,95.90182
"45578",619.42676,79.415276,95.84097
"45579",619.44006,79.37133,95.778755
"45580",619.45337,79.32983,95.717606
"45581",619.4667,79.29809,95.664925
"45582",619.48,79.276115,95.62102
"45583",619.4933,79.26147,95.58375
"45584",619.5066,79.2517,95.5509
"45585",619.5199,79.24925,95.52507
"45586",619.5332,79.24925,95.50161
"45587",619.5465,79.24437,95.47327
"45588",619.5598,79.23949,95.44477
"45589",619.5731,79.23216,95.41368
"45590",619.5864,79.2224,95.37992
"45591",619.59973,79.20775,95.34097
"45592",619.61304,79.200424,95.30889
"45593",619.62634,79.19554,95.27902
"45594",619.63965,79.200424,95.258766
"45595",619.65295,79.22728,95.260635
"45596",619.66626,79.30297,95.31218
"45597",619.67957,79.46166,95.44909
"45598",619.6929,79.725334,95.69594
"45599",619.7062,80.08423,96.04625
"45600",619.7195,80.48951,96.45416
"45601",619.7328,80.88258,96.86253
"45602",619.7461,81.19264,97.20017
"45603",619.7594,81.375755,97.420555
"45604",619.7727,81.42458,97.512375
"45605",619.786,81.3782,97.510506
"45606",619.7993,81.26833,97.44371
"45607",619.8126,81.13649,97.3515
"45608",619.8259,81.004654,97.25518
"45609",619.83923,80.89479,97.17671
"45610",619.85254,80.79225,97.102135
"45611",619.86584,80.70191,97.03655
"45612",619.87915,80.60914,96.96571
"45613",619.89246,80.50904,96.88465
"45614",619.90576,80.39185,96.78337
"45615",619.91907,80.26246,96.66622
"45616",619.9324,80.12329,96.535255
"45617",619.9457,79.9939,96.40971
"45618",619.959,79.87915,96.29478
"45619",619.9723,79.79126,96.20311
"45620",619.9856,79.73266,96.137985
"45621",619.9989,79.70092,96.09789
"45622",620.0122,79.68871,96.07634
"45623",620.0255,79.68627,96.06417
"45624",620.0388,79.68627,96.05437
"45625",620.0521,79.68139,96.03968
"45626",620.0654,79.66674,96.015076
"45627",620.07874,79.64233,95.98025
"45628",620.09204,79.605705,95.93245
"45629",620.10535,79.5642,95.878624
"45630",620.11865,79.52514,95.82594
"45631",620.13196,79.48608,95.77204
"45632",620.14526,79.45678,95.726685
"45633",620.15857,79.43725,95.69018
"45634",620.1719,79.42504,95.660385
"45635",620.1852,79.412834,95.63021
"45636",620.1985,79.40551,95.60454
"45637",620.2118,79.40307,95.58352
"45638",620.2251,79.40307,95.564865
"45639",620.2384,79.40063,95.54377
"45640",620.2517,79.40307,95.52748
"45641",620.265,79.40307,95.50883
"45642",620.2783,79.398186,95.48529
"45643",620.2916,79.395744,95.46404
"45644",620.30493,79.395744,95.44516
"45645",620.31824,79.395744,95.42628
"45646",620.33154,79.41772,95.42937
"45647",620.34485,79.48608,95.47953
"45648",620.35815,79.635,95.6124
"45649",620.37146,79.89136,95.857346
"45650",620.38477,80.24292,96.20551
"45651",620.3981,80.6482,96.618385
"45652",620.4114,81.03639,97.02683
"45653",620.4247,81.33425,97.35708
"45654",620.438,81.495384,97.559906
"45655",620.4513,81.52712,97.638374
"45656",620.4646,81.461205,97.62018
"45657",620.4779,81.33669,97.54133
"45658",620.4912,81.197525,97.44393
"45659",620.5045,81.06813,97.35196
"45660",620.5178,80.95094,97.26815
"45661",620.5311,80.848404,97.19533
"45662",620.54443,80.75075,97.12418
"45663",620.55774,80.64576,97.042656
"45664",620.57104,80.53101,96.94809
"45665",620.58435,80.4065,96.84017
"45666",620.59766,80.27711,96.72348
"45667",620.61096,80.15259,96.60762
"45668",620.62427,80.045166,96.50497
"45669",620.6376,79.957275,96.41849
"45670",620.6509,79.8938,96.353676
"45671",620.6642,79.852295,96.30885
"45672",620.6775,79.82544,96.27738
"45673",620.6908,79.80835,96.25484
"45674",620.7041,79.7937,96.2342
"45675",620.7174,79.77417,96.20822
"45676",620.7307,79.7522,96.17919
"45677",620.744,79.72289,96.14214
"45678",620.7573,79.693596,96.10419
"45679",620.7706,79.66186,96.062874
"45680",620.78394,79.63012,96.02057
"45681",620.79724,79.59838,95.97727
"45682",620.81055,79.5642,95.93054
"45683",620.82385,79.52758,95.8803
"45684",620.83716,79.4934,95.83136
"45685",620.85046,79.4641,95.78623
"45686",620.8638,79.43725,95.74263
"45687",620.8771,79.41772,95.70551
"45688",620.8904,79.40795,95.67755
"45689",620.9037,79.40307,95.65417
"45690",620.917,79.40063,95.63307
"45691",620.9303,79.398186,95.6119
"45692",620.9436,79.395744,95.59065
"45693",620.9569,79.38842,95.564445
"45694",620.9702,79.38354,95.54045
"45695",620.9835,79.38842,95.52607
"45696",620.9968,79.429924,95.54846
"45697",621.01013,79.54955,95.650276
"45698",621.02344,79.77417,95.86082
"45699",621.03674,80.10864,96.18823
"45700",621.05005,80.516365,96.59935
"45701",621.06335,80.92897,97.02809
"45702",621.07666,81.27322,97.40137
"45703",621.08997,81.49294,97.66088
"45704",621.1033,81.57351,97.7881
"45705",621.1166,81.53933,97.80309
"45706",621.1299,81.43435,97.746216
"45707",621.1432,81.30251,97.6592
"45708",621.1565,81.163345,97.56074
"45709",621.1698,81.03639,97.47014
"45710",621.1831,80.92409,97.39022
"45711",621.1964,80.81911,97.31412
"45712",621.2097,80.71412,97.234726
"45713",621.223,80.59693,97.139854
"45714",621.2363,80.46754,97.02911
"45715",621.24963,80.32105,96.89724
"45716",621.26294,80.16724,96.753456
"45717",621.27625,80.02075,96.6122
"45718",621.28955,79.89624,96.488335
"45719",621.30286,79.80591,96.39476
"45720",621.31616,79.74975,96.332535
"45721",621.32947,79.73022,96.30518
"45722",621.3428,79.73266,96.299194
"45723",621.3561,79.73998,96.298164
"45724",621.3694,79.74731,96.29736
"45725",621.3827,79.74731,96.28947
"45726",621.396,79.73022,96.26448
"45727",621.4093,79.70092,96.22675
"45728",621.4226,79.66674,96.18323
"45729",621.4359,79.62524,96.13131
"45730",621.4492,79.58129,96.07565
"45731",621.4625,79.53979,96.021065
"45732",621.4758,79.500725,95.96762
"45733",621.48914,79.46166,95.91296
"45734",621.50244,79.42748,95.86195
"45735",621.51575,79.395744,95.812325
"45736",621.52905,79.37133,95.76903
"45737",621.54236,79.3518,95.72985
"45738",621.55566,79.33715,95.69495
"45739",621.569,79.33227,95.66935
"45740",621.5823,79.33227,95.64848
"45741",621.5956,79.33715,95.6325
"45742",621.6089,79.33959,95.61423
"45743",621.6222,79.35424,95.60824
"45744",621.6355,79.398186,95.632
"45745",621.6488,79.50805,95.72306
"45746",621.6621,79.71313,95.912766
"45747",621.6754,80.028076,96.21875
"45748",621.6887,80.42603,96.617584
"45749",621.702,80.85329,97.05815
"45750",621.71533,81.234146,97.465675
"45751",621.72864,81.50759,97.77769
"45752",621.74194,81.64919,97.9664
"45753",621.75525,81.66628,98.03503
"45754",621.76855,81.5906,98.01141
"45755",621.78186,81.46609,97.93661
"45756",621.79517,81.322044,97.83838
"45757",621.8085,81.180435,97.73808
"45758",621.8218,81.05104,97.64558
"45759",621.8351,80.936295,97.563675
"45760",621.8484,80.82643,97.48307
"45761",621.8617,80.71656,97.399025
"45762",621.875,80.59937,97.30423
"45763",621.8883,80.465096,97.18868
"45764",621.9016,80.31617,97.05429
"45765",621.9149,80.16968,96.91768
"45766",621.9282,80.0354,96.788704
"45767",621.9415,79.92798,96.68239
"45768",621.95483,79.84741,96.59957
"45769",621.96814,79.79614,96.54353
"45770",621.98145,79.76196,96.50298
"45771",621.99475,79.73998,96.473564
"45772",622.00806,79.72289,96.44835
"45773",622.02136,79.7058,96.4226
"45774",622.03467,79.68871,96.39632
"45775",622.048,79.6643,96.362175
"45776",622.0613,79.63256,96.31995
"45777",622.0746,79.59594,96.27184
"45778",622.0879,79.54955,96.21283
"45779",622.1012,79.500725,96.149925
"45780",622.1145,79.45434,96.08794
"45781",622.1278,79.412834,96.02938
"45782",622.1411,79.37621,95.97441
"45783",622.1544,79.34692,95.92562
"45784",622.1677,79.32006,95.87836
"45785",622.181,79.29809,95.83514
"45786",622.19434,79.27856,95.79367
"45787",622.20764,79.26147,95.754036
"45788",622.22095,79.24437,95.71386
"45789",622.23425,79.234604,95.68048
"45790",622.24756,79.23216,95.65412
"45791",622.26086,79.2517,95.649666
"45792",622.2742,79.32494,95.699524
"45793",622.2875,79.49584,95.84933
"45794",622.3008,79.77417,96.1119
"45795",622.3141,80.14526,96.47594
"45796",622.3274,80.56031,96.89552
"45797",622.3407,80.9485,97.30122
"45798",622.354,81.24391,97.626274
"45799",622.3673,81.40749,97.82873
"45800",622.3806,81.449,97.914215
"45801",622.3939,81.40017,97.91067
"45802",622.4072,81.30251,97.856766
"45803",622.42053,81.18288,97.77783
"45804",622.43384,81.06569,97.69761
"45805",622.44714,80.955826,97.62105
"45806",622.46045,80.85817,97.55326
"45807",622.47375,80.762955,97.48486
"45808",622.48706,80.66041,97.40616
"45809",622.50037,80.5481,97.31449
"45810",622.5137,80.41627,97.19978
"45811",622.527,80.26978,97.06631
"45812",622.5403,80.11841,96.92336
"45813",622.5536,79.971924,96.78058
"45814",622.5669,79.84741,96.65519
"45815",622.5802,79.7522,96.55521
"45816",622.5935,79.68627,96.48154
"45817",622.6068,79.65209,96.43755
"45818",622.6201,79.639885,96.414474
"45819",622.6334,79.639885,96.40322
"45820",622.6467,79.639885,96.39197
"45821",622.66003,79.62768,96.36851
"45822",622.67334,79.603264,96.33246
"45823",622.68665,79.56664,96.28344
"45824",622.69995,79.52514,96.22839
"45825",622.71326,79.48119,96.16961
"45826",622.72656,79.43969,96.11189
"45827",622.73987,79.40063,96.05532
"45828",622.7532,79.36889,96.00485
"45829",622.7665,79.33715,95.95339
"45830",622.7798,79.30297,95.8985
"45831",622.7931,79.26879,95.84254
"45832",622.8064,79.237045,95.78794
"45833",622.8197,79.21019,95.73724
"45834",622.833,79.183334,95.68571
"45835",622.8463,79.1638,95.640656
"45836",622.8596,79.149155,95.59988
"45837",622.8729,79.14427,95.568405
"45838",622.8862,79.15892,95.55631
"45839",622.89954,79.234604,95.60571
"45840",622.91284,79.398186,95.74538
"45841",622.92615,79.674065,96.00245
"45842",622.93945,80.042725,96.36092
"45843",622.95276,80.465096,96.78463
"45844",622.96606,80.86549,97.19956
"45845",622.9794,81.17555,97.53667
"45846",622.9927,81.356224,97.754074
"45847",623.006,81.40505,97.84528
"45848",623.0193,81.35378,97.83792
"45849",623.0326,81.24635,97.7728
"45850",623.0459,81.12184,97.68723
"45851",623.0592,81.00221,97.60266
"45852",623.0725,80.89723,97.529
"45853",623.0858,80.80446,97.464264
"45854",623.0991,80.71656,97.401505
"45855",623.1124,80.621346,97.32868
"45856",623.12573,80.51148,97.238235
"45857",623.13904,80.37965,97.12238
"45858",623.15234,80.233154,96.987755
"45859",623.16565,80.07446,96.83635
"45860",623.17896,79.91821,96.68243
"45861",623.19226,79.781494,96.54315
"45862",623.20557,79.67162,96.42645
"45863",623.2189,79.59838,96.34295
"45864",623.2322,79.554436,96.28645
"45865",623.2455,79.53002,96.248116
"45866",623.2588,79.517815,96.22122
"45867",623.2721,79.51049,96.19883
"45868",623.2854,79.49584,96.168884
"45869",623.2987,79.47143,96.128716
"45870",623.312,79.44213,96.0829
"45871",623.3253,79.40795,96.03129
"45872",623.3386,79.37377,95.97861
"45873",623.3519,79.33715,95.92242
"45874",623.36523,79.30297,95.86752
"45875",623.37854,79.276115,95.818886
"45876",623.39185,79.25414,95.77429
"45877",623.40515,79.23216,95.729004
"45878",623.41846,79.219955,95.6928
"45879",623.43176,79.21019,95.65866
"45880",623.44507,79.19554,95.61933
"45881",623.4584,79.17357,95.57222
"45882",623.4717,79.151596,95.52442
"45883",623.485,79.12962,95.47594
"45884",623.4983,79.11986,95.43897
"45885",623.5116,79.14427,95.43588
"45886",623.5249,79.23216,95.49703
"45887",623.5382,79.412834,95.65371
"45888",623.5515,79.69604,95.918564
"45889",623.5648,80.06958,96.28261
"45890",623.5781,80.48707,96.70227
"45891",623.59143,80.885025,97.11545
"45892",623.60474,81.19508,97.45316
"45893",623.61804,81.38308,97.678505
"45894",623.63135,81.446556,97.7852
"45895",623.64465,81.41482,97.79867
"45896",623.65796,81.32937,97.75743
"45897",623.67126,81.22194,97.69154
"45898",623.6846,81.112076,97.619865
"45899",623.6979,81.007095,97.54964
"45900",623.7112,80.90944,97.48345
"45901",623.7245,80.816666,97.4191
"45902",623.7378,80.71656,97.34451
"45903",623.7511,80.60914,97.25948
"45904",623.7644,80.48463,97.15401
"45905",623.7777,80.343025,97.02755
"45906",623.791,80.18921,96.88445
"45907",623.8043,80.0354,96.73656
"45908",623.8176,79.89868,96.600945
"45909",623.83093,79.783936,96.48303
"45910",623.84424,79.69848,96.39082
"45911",623.85754,79.64233,96.32525
"45912",623.87085,79.61059,96.28233
"45913",623.88416,79.5935,96.253075
"45914",623.89746,79.57885,96.22572
"45915",623.91077,79.56664,96.200356
"45916",623.9241,79.54467,96.16484
"45917",623.9374,79.51049,96.11643
"45918",623.9507,79.46899,96.05963
"45919",623.964,79.42748,96.00153
"45920",623.9773,79.3933,95.94946
"45921",623.9906,79.361565,95.898766
"45922",624.0039,79.33959,95.85684
"45923",624.0172,79.31518,95.81179
"45924",624.0305,79.293205,95.76842
"45925",624.0438,79.26879,95.72192
"45926",624.0571,79.24437,95.674644
"45927",624.07043,79.22484,95.6315
"45928",624.08374,79.20531,95.587746
"45929",624.09705,79.18089,95.5385
"45930",624.11035,79.15404,95.486046
"45931",624.12366,79.13695,95.44252
"45932",624.13696,79.13451,95.41311
"45933",624.15027,79.17601,95.42757
"45934",624.1636,79.29565,95.521454
"45935",624.1769,79.520256,95.72405
"45936",624.1902,79.84497,96.033775
"45937",624.2035,80.24536,96.42932
"45938",624.2168,80.66285,96.85448
"45939",624.2301,81.02907,97.24141
"45940",624.2434,81.287865,97.532364
"45941",624.2567,81.42214,97.70689
"45942",624.27,81.444115,97.7733
"45943",624.2833,81.38796,97.762276
"45944",624.29663,81.29519,97.712875
"45945",624.30994,81.19264,97.6508
"45946",624.32324,81.08522,97.58065
"45947",624.33655,80.98268,97.512024
"45948",624.34985,80.87526,97.43531
"45949",624.36316,80.765396,97.3528
"45950",624.37646,80.6482,97.25952
"45951",624.3898,80.51881,97.15038
"45952",624.4031,80.37476,97.02255
"45953",624.4164,80.22339,96.88289
"45954",624.4297,80.07202,96.7385
"45955",624.443,79.93042,96.59915
"45956",624.4563,79.815674,96.48223
"45957",624.4696,79.73266,96.393456
"45958",624.4829,79.676506,96.32895
"45959",624.4962,79.64233,96.28466
"45960",624.5095,79.622795,96.25395
"45961",624.5228,79.603264,96.22263
"45962",624.53613,79.58373,96.190704
"45963",624.54944,79.55932,96.15328
"45964",624.56274,79.53246,96.112656
"45965",624.57605,79.50317,96.06875
"45966",624.58936,79.47387,96.023926
"45967",624.60266,79.447014,95.98063
"45968",624.61597,79.42016,95.93649
"45969",624.6293,79.39086,95.88908
"45970",624.6426,79.361565,95.840744
"45971",624.6559,79.32983,95.789055
"45972",624.6692,79.30053,95.738815
"45973",624.6825,79.27123,95.68766
"45974",624.6958,79.24437,95.63802
"45975",624.7091,79.2224,95.59244
"45976",624.7224,79.20775,95.55349
"45977",624.7357,79.19554,95.516525
"45978",624.749,79.185776,95.48162
"45979",624.7623,79.18089,95.451294
"45980",624.77563,79.17845,95.423256
"45981",624.78894,79.19554,95.41467
"45982",624.80225,79.256584,95.45058
"45983",624.81555,79.398186,95.56895
"45984",624.82886,79.64965,95.801605
"45985",624.84216,80.00122,96.14223
"45986",624.85547,80.413826,96.55487
"45987",624.8688,80.82399,96.97797
"45988",624.8821,81.16579,97.34551
"45989",624.8954,81.38552,97.60168
"45990",624.9087,81.480736,97.74019
"45991",624.922,81.47341,97.77914
"45992",624.9353,81.40017,97.75194
"45993",624.9486,81.29763,97.69315
"45994",624.9619,81.19264,97.628716
"45995",624.9752,81.08766,97.561005
"45996",624.9885,80.99245,97.49978
"45997",625.00183,80.88991,97.42825
"45998",625.01514,80.782486,97.34864
"45999",625.02844,80.66041,97.251015
"46000",625.04175,80.52369,97.13493
"46001",625.05505,80.36988,96.99749
"46002",625.06836,80.21362,96.85279
"46003",625.08167,80.06714,96.71298
"46004",625.095,79.94263,96.59057
"46005",625.1083,79.84741,96.49356
"46006",625.1216,79.783936,96.425316
"46007",625.1349,79.744865,96.37949
"46008",625.1482,79.727776,96.35443
"46009",625.1615,79.71801,96.33616
"46010",625.1748,79.71313,96.322464
"46011",625.1881,79.69604,96.29641
"46012",625.2014,79.66918,96.260056
"46013",625.2147,79.63256,96.2131
"46014",625.228,79.59106,96.16011
"46015",625.24133,79.54467,96.100945
"46016",625.25464,79.49828,96.04033
"46017",625.26794,79.45922,95.98559
"46018",625.28125,79.42504,95.93451
"46019",625.29456,79.3933,95.8848
"46020",625.30786,79.36889,95.84143
"46021",625.32117,79.3518,95.80462
"46022",625.3345,79.33715,95.769714
"46023",625.3478,79.32494,95.73679
"46024",625.3611,79.310295,95.70105
"46025",625.3744,79.293205,95.66241
"46026",625.3877,79.276115,95.62323
"46027",625.401,79.256584,95.58108
"46028",625.4143,79.24437,95.54563
"46029",625.4276,79.237045,95.514694
"46030",625.4409,79.24193,95.495735
"46031",625.4542,79.273674,95.50379
"46032",625.4675,79.361565,95.568985
"46033",625.48083,79.53246,95.71993
"46034",625.49414,79.80591,95.97877
"46035",625.50745,80.16724,96.33403
"46036",625.52075,80.57252,96.74454
"46037",625.53406,80.953384,97.143295
"46038",625.54736,81.248795,97.4685
"46039",625.56067,81.41726,97.67599
"46040",625.574,81.463646,97.76666
"46041",625.5873,81.41482,97.76357
"46042",625.6006,81.31716,97.71013
"46043",625.6139,81.20241,97.636536
"46044",625.6272,81.09743,97.56913
"46045",625.6405,80.99977,97.50577
"46046",625.6538,80.90944,97.44668
"46047",625.6671,80.81178,97.37744
"46048",625.6804,80.70435,97.29538
"46049",625.6937,80.5774,97.19044
"46050",625.70703,80.430916,97.062
"46051",625.72034,80.272224,96.91677
"46052",625.73364,80.12329,96.776344
"46053",625.74695,79.9939,96.6508
"46054",625.76025,79.89136,96.54807
"46055",625.77356,79.82544,96.47876
"46056",625.78687,79.78638,96.43424
"46057",625.8002,79.766846,96.408035
"46058",625.8135,79.74731,96.38121
"46059",625.8268,79.725334,96.35134
"46060",625.8401,79.69848,96.3159
"46061",625.8534,79.66674,96.27474
"46062",625.8667,79.62524,96.222824
"46063",625.88,79.586174,96.17205
"46064",625.8933,79.54467,96.117615
"46065",625.9066,79.50317,96.06188
"46066",625.9199,79.46166,96.00485
"46067",625.9332,79.42504,95.95141
"46068",625.94653,79.3933,95.9017
"46069",625.95984,79.36889,95.85833
"46070",625.97314,79.34936,95.81908
"46071",625.98645,79.33715,95.78654
"46072",625.99976,79.32983,95.7585
"46073",626.01306,79.32006,95.72779
"46074",626.02637,79.31274,95.69922
"46075",626.0397,79.30541,95.67042
"46076",626.053,79.293205,95.636505
"46077",626.0663,79.27856,95.59977
"46078",626.0796,79.26147,95.560135
"46079",626.0929,79.24681,95.5224
"46080",626.1062,79.24193,95.49398
"46081",626.1195,79.26147,95.48983
"46082",626.1328,79.32983,95.53511
"46083",626.1461,79.48608,95.67042
"46084",626.1594,79.742424,95.910706
"46085",626.1727,80.096436,96.25667
"46086",626.18604,80.499275,96.66252
"46087",626.19934,80.89479,97.07364
"46088",626.21265,81.20485,97.41166
"46089",626.22595,81.39773,97.64219
"46090",626.23926,81.463646,97.751785
"46091",626.25256,81.42947,97.76334
"46092",626.26587,81.32937,97.70792
"46093",626.2792,81.20485,97.62494
"46094",626.2925,81.08034,97.53808
"46095",626.3058,80.96315,97.45465
"46096",626.3191,80.85573,97.37733
"46097",626.3324,80.762955,97.311295
"46098",626.3457,80.66285,97.23503
"46099",626.359,80.54566,97.13856
"46100",626.3723,80.411385,97.02133
"46101",626.3856,80.26246,96.88526
"46102",626.3989,80.111084,96.74209
"46103",626.41223,79.974365,96.60884
"46104",626.42554,79.871826,96.5055
"46105",626.43884,79.801025,96.430695
"46106",626.45215,79.76196,96.385414
"46107",626.46545,79.73998,96.355995
"46108",626.47876,79.72289,96.33078
"46109",626.49207,79.708244,96.30747
"46110",626.5054,79.68383,96.27394
"46111",626.5187,79.65942,96.23965
"46112",626.532,79.63256,96.20215
"46113",626.5453,79.59838,96.15649
"46114",626.5586,79.55688,96.10243
"46115",626.5719,79.51049,96.0422
"46116",626.5852,79.4641,95.980515
"46117",626.5985,79.41772,95.91738
"46118",626.6118,79.381096,95.862564
"46119",626.6251,79.35424,95.81637
"46120",626.6384,79.33471,95.77666
"46121",626.65173,79.327385,95.74854
"46122",626.66504,79.32006,95.7202
"46123",626.67834,79.32006,95.69895
"46124",626.69165,79.32006,95.677704
"46125",626.70496,79.31762,95.654015
"46126",626.71826,79.31518,95.63025
"46127",626.73157,79.31274,95.60641
"46128",626.7449,79.30541,95.57761
"46129",626.7582,79.29809,95.54858
"46130",626.7715,79.293205,95.52176
"46131",626.7848,79.290764,95.49723
"46132",626.7981,79.30541,95.489716
"46133",626.8114,79.35668,95.51928
"46134",626.8247,79.48608,95.62857
"46135",626.838,79.71557,95.842
"46136",626.8513,80.05005,96.167595
"46137",626.8646,80.448006,96.567116
"46138",626.8779,80.85329,96.9864
"46139",626.89124,81.19264,97.35242
"46140",626.90454,81.40749,97.60454
"46141",626.91785,81.4905,97.73153
"46142",626.93115,81.463646,97.75125
"46143",626.94446,81.36599,97.69933
"46144",626.95776,81.23903,97.61506
"46145",626.97107,81.112076,97.526825
"46146",626.9844,80.99733,97.44683
"46147",626.9977,80.88991,97.370575
"46148",627.011,80.78493,97.2934
"46149",627.0243,80.67017,97.20318
"46150",627.0376,80.54322,97.09717
"46151",627.0509,80.40406,96.97498
"46152",627.0642,80.257576,96.841125
"46153",627.0775,80.11597,96.707565
"46154",627.0908,79.991455,96.58668
"46155",627.1041,79.886475,96.48143
"46156",627.11743,79.80591,96.397316
"46157",627.13074,79.74975,96.33509
"46158",627.14404,79.71313,96.29065
"46159",627.15735,79.68627,96.25483
"46160",627.17065,79.6643,96.22305
"46161",627.18396,79.64477,96.19303
"46162",627.19727,79.62768,96.16484
"46163",627.2106,79.61059,96.136116
"46164",627.2239,79.59106,96.104416
"46165",627.2372,79.5642,96.06478
"46166",627.2505,79.53246,96.019424
"46167",627.2638,79.49096,95.96331
"46168",627.2771,79.44457,95.90102
"46169",627.2904,79.40063,95.839714
"46170",627.3037,79.37133,95.79169
"46171",627.317,79.34936,95.75007
"46172",627.3303,79.33471,95.71509
"46173",627.3436,79.327385,95.68697
"46174",627.35693,79.31762,95.65619
"46175",627.37024,79.30297,95.62022
"46176",627.38354,79.28588,95.581345
"46177",627.39685,79.26879,95.54194
"46178",627.41016,79.25414,95.50444
"46179",627.42346,79.24681,95.4738
"46180",627.43677,79.24437,95.44782
"46181",627.4501,79.24193,95.42177
"46182",627.4634,79.24437,95.40052
"46183",627.4767,79.256584,95.38912
"46184",627.49,79.29565,95.40495
"46185",627.5033,79.40063,95.48792
"46186",627.5166,79.605705,95.67427
"46187",627.5299,79.91333,95.969574
"46188",627.5432,80.29664,96.350174
"46189",627.5565,80.70191,96.76472
"46190",627.5698,81.06325,97.14799
"46191",627.5831,81.3196,97.43757
"46192",627.59644,81.44167,97.600876
"46193",627.60974,81.44167,97.64593
"46194",627.62305,81.358665,97.60797
"46195",627.63635,81.22682,97.518585
"46196",627.64966,81.0901,97.420204
"46197",627.66296,80.96559,97.32976
"46198",627.6763,80.85573,97.25007
"46199",627.6896,80.75807,97.17915
"46200",627.7029,80.66285,97.10762
"46201",627.7162,80.55543,97.02091
"46202",627.7295,80.4358,96.91864
"46203",627.7428,80.308846,96.805305
"46204",627.7561,80.181885,96.687996
"46205",627.7694,80.0647,96.57649
"46206",627.7827,79.96216,96.475975
"46207",627.796,79.88403,96.39667
"46208",627.8093,79.82544,96.33445
"46209",627.82263,79.78882,96.29237
"46210",627.83594,79.764404,96.26136
"46211",627.84924,79.7522,96.24179
"46212",627.86255,79.742424,96.22427
"46213",627.87585,79.73266,96.20646
"46214",627.88916,79.71313,96.17857
"46215",627.90247,79.68383,96.14031
"46216",627.9158,79.64721,96.09381
"46217",627.9291,79.603264,96.03884
"46218",627.9424,79.55932,95.9825
"46219",627.9557,79.517815,95.92722
"46220",627.969,79.48119,95.875534
"46221",627.9823,79.45678,95.83491
"46222",627.9956,79.44213,95.80328
"46223",628.0089,79.432365,95.776085
"46224",628.0222,79.42504,95.75102
"46225",628.0355,79.42016,95.72817
"46226",628.0488,79.40795,95.697845
"46227",628.06213,79.3933,95.664696
"46228",628.07544,79.37377,95.626205
"46229",628.08875,79.35668,95.58955
"46230",628.10205,79.344475,95.557236
"46231",628.11536,79.33471,95.526985
"46232",628.12866,79.33227,95.50375
"46233",628.14197,79.34936,95.49998
"46234",628.1553,79.41772,95.548004
"46235",628.1686,79.571526,95.68362
"46236",628.1819,79.82056,95.91926
"46237",628.1952,80.16724,96.26033
"46238",628.2085,80.56031,96.65863
"46239",628.2218,80.94362,97.05945
"46240",628.2351,81.24391,97.38923
"46241",628.2484,81.42214,97.60633
"46242",628.2617,81.47097,97.6996
"46243",628.275,81.41482,97.689415
"46244",628.2883,81.29763,97.61644
"46245",628.30164,81.160904,97.52026
"46246",628.31494,81.02663,97.422264
"46247",628.32825,80.90944,97.33716
"46248",628.34155,80.80446,97.2606
"46249",628.35486,80.70191,97.18319
"46250",628.36816,80.59449,97.0977
"46251",628.3815,80.47242,96.99421
"46252",628.3948,80.34058,96.87714
"46253",628.4081,80.20874,96.755936
"46254",628.4214,80.08423,96.63795
"46255",628.4347,79.97681,96.53316
"46256",628.448,79.8938,96.449425
"46257",628.4613,79.83765,96.38995
"46258",628.4746,79.801025,96.34826
"46259",628.4879,79.77661,96.31763
"46260",628.5012,79.76196,96.296
"46261",628.5145,79.74731,96.2739
"46262",628.52783,79.73022,96.24892
"46263",628.54114,79.708244,96.21851
"46264",628.55444,79.68139,96.18254
"46265",628.56775,79.65209,96.14329
"46266",628.58105,79.61791,96.098236
"46267",628.59436,79.58373,96.05212
"46268",628.60767,79.54955,96.00493
"46269",628.621,79.517815,95.959114
"46270",628.6343,79.49096,95.91719
"46271",628.6476,79.47143,95.88175
"46272",628.6609,79.4519,95.8457
"46273",628.6742,79.43725,95.81393
"46274",628.6875,79.42504,95.784134
"46275",628.7008,79.40795,95.74908
"46276",628.7141,79.3933,95.71593
"46277",628.7274,79.37621,95.67988
"46278",628.7407,79.364006,95.64818
"46279",628.754,79.34936,95.613655
"46280",628.76733,79.33959,95.58356
"46281",628.78064,79.34203,95.56536
"46282",628.79395,79.3933,95.59607
"46283",628.80725,79.520256,95.70406
"46284",628.82056,79.75708,95.925896
"46285",628.83386,80.09155,96.25278
"46286",628.84717,80.482185,96.64627
"46287",628.8605,80.87282,97.05197
"46288",628.8738,81.1902,97.39663
"46289",628.8871,81.392845,97.63647
"46290",628.9004,81.46609,97.753235
"46291",628.9137,81.43679,97.76975
"46292",628.927,81.341576,97.71944
"46293",628.9403,81.2195,97.63928
"46294",628.9536,81.092545,97.55044
"46295",628.9669,80.9778,97.46983
"46296",628.9802,80.87526,97.39785
"46297",628.9935,80.77516,97.3251
"46298",629.00684,80.6775,97.25166
"46299",629.02014,80.57496,97.170296
"46300",629.03345,80.45533,97.068634
"46301",629.04675,80.32838,96.95591
"46302",629.06006,80.19409,96.83189
"46303",629.07336,80.06714,96.711
"46304",629.0867,79.95239,96.59835
"46305",629.1,79.86206,96.50653
"46306",629.1133,79.79614,96.4363
"46307",629.1266,79.75464,96.38843
"46308",629.1399,79.727776,96.3539
"46309",629.1532,79.710686,96.3283
"46310",629.1665,79.693596,96.30217
"46311",629.1798,79.67162,96.27062
"46312",629.1931,79.64233,96.231064
"46313",629.2064,79.60815,96.18571
"46314",629.2197,79.569084,96.1344
"46315",629.23303,79.53002,96.08187
"46316",629.24634,79.4934,96.03056
"46317",629.25964,79.46166,95.982994
"46318",629.27295,79.43481,95.939316
"46319",629.28625,79.41039,95.89724
"46320",629.29956,79.39086,95.85928
"46321",629.31287,79.37377,95.82316
"46322",629.3262,79.35668,95.7865
"46323",629.3395,79.33715,95.746864
"46324",629.3528,79.32006,95.70906
"46325",629.3661,79.30541,95.673164
"46326",629.3794,79.28832,95.63437
"46327",629.3927,79.27123,95.59504
"46328",629.406,79.25414,95.555176
"46329",629.4193,79.24193,95.51965
"46330",629.4326,79.24437,95.498405
"46331",629.4459,79.28344,95.51386
"46332",629.4592,79.395744,95.603775
"46333",629.47253,79.61303,95.80218
"46334",629.48584,79.9353,96.11236
"46335",629.49915,80.33326,96.50829
"46336",629.51245,80.7483,96.93375
"46337",629.52576,81.10475,97.31358
"46338",629.53906,81.356224,97.59958
"46339",629.55237,81.480736,97.76647
"46340",629.5657,81.49294,97.82495
"46341",629.579,81.427025,97.80569
"46342",629.5923,81.324486,97.74774
"46343",629.6056,81.20973,97.67438
"46344",629.6189,81.09987,97.60232
"46345",629.6322,80.99733,97.53415
"46346",629.6455,80.90456,97.47254
"46347",629.6588,80.81178,97.408035
"46348",629.6721,80.71412,97.33574
"46349",629.6854,80.59937,97.24331
"46350",629.6987,80.462654,97.12532
"46351",629.71204,80.31129,96.98841
"46352",629.72534,80.15747,96.84432
"46353",629.73865,80.01831,96.71008
"46354",629.75195,79.903564,96.59591
"46355",629.76526,79.823,96.51233
"46356",629.77856,79.77173,96.45553
"46357",629.7919,79.73998,96.41665
"46358",629.8052,79.71801,96.38655
"46359",629.8185,79.69604,96.35577
"46360",629.8318,79.676506,96.32674
"46361",629.8451,79.65453,96.294655
"46362",629.8584,79.63012,96.259445
"46363",629.8717,79.59838,96.21615
"46364",629.885,79.569084,96.1743
"46365",629.8983,79.53246,96.124214
"46366",629.9116,79.4934,96.07054
"46367",629.9249,79.45922,96.02053
"46368",629.93823,79.42748,95.97189
"46369",629.95154,79.40063,95.92715
"46370",629.96484,79.378654,95.886444
"46371",629.97815,79.35912,95.847496
"46372",629.99146,79.344475,95.81282
"46373",630.00476,79.32983,95.77769
"46374",630.01807,79.32006,95.74698
"46375",630.0314,79.30785,95.713524
"46376",630.0447,79.29809,95.68213
"46377",630.058,79.28832,95.65043
"46378",630.0713,79.27856,95.61842
"46379",630.0846,79.273674,95.590996
"46380",630.0979,79.281,95.57562
"46381",630.1112,79.3225,95.59466
"46382",630.1245,79.43725,95.68823
"46383",630.1378,79.65209,95.88549
"46384",630.1511,79.9646,96.187126
"46385",630.1644,80.34547,96.56689
"46386",630.17773,80.743416,96.97563
"46387",630.19104,81.092545,97.34799
"46388",630.20435,81.33425,97.62384
"46389",630.21765,81.45388,97.785164
"46390",630.23096,81.46853,97.845245
"46391",630.24426,81.40749,97.8301
"46392",630.25757,81.31228,97.77887
"46393",630.2709,81.20729,97.71489
"46394",630.2842,81.09987,97.645195
"46395",630.2975,80.99733,97.57703
"46396",630.3108,80.89723,97.508095
"46397",630.3241,80.79469,97.43359
"46398",630.3374,80.68482,97.34856
"46399",630.3507,80.56275,97.24789
"46400",630.364,80.430916,97.13364
"46401",630.3773,80.289314,97.0055
"46402",630.3906,80.15015,96.875374
"46403",630.40393,80.02319,96.75311
"46404",630.41724,79.91821,96.64886
"46405",630.43054,79.83765,96.565735
"46406",630.44385,79.783936,96.50695
"46407",630.45715,79.7522,96.46846
"46408",630.47046,79.73266,96.44118
"46409",630.48376,79.72045,96.420616
"46410",630.4971,79.7058,96.39723
"46411",630.5104,79.68627,96.36851
"46412",630.5237,79.656975,96.32941
"46413",630.537,79.61547,96.27718
"46414",630.5503,79.569084,96.21878
"46415",630.5636,79.5227,96.15893
"46416",630.5769,79.47631,96.097626
"46417",630.5902,79.43725,96.0422
"46418",630.6035,79.40795,95.995316
"46419",630.6168,79.38354,95.9524
"46420",630.6301,79.364006,95.913605
"46421",630.64343,79.34692,95.87664
"46422",630.65674,79.33471,95.844025
"46423",630.67004,79.31762,95.806145
"46424",630.68335,79.30541,95.77261
"46425",630.69666,79.29809,95.74358
"46426",630.70996,79.29565,95.71921
"46427",630.72327,79.293205,95.694756
"46428",630.7366,79.293205,95.67267
"46429",630.7499,79.290764,95.64814
"46430",630.7632,79.28588,95.62109
"46431",630.7765,79.28832,95.60122
"46432",630.7898,79.31518,95.605835
"46433",630.8031,79.398186,95.66744
"46434",630.8164,79.57641,95.82686
"46435",630.8297,79.85962,96.09683
"46436",630.843,80.22827,96.4611
"46437",630.8563,80.62867,96.86863
"46438",630.8696,80.99733,97.256935
"46439",630.88293,81.26833,97.559105
"46440",630.89624,81.41238,97.74278
"46441",630.90955,81.43923,97.813774
"46442",630.92285,81.38308,97.8026
"46443",630.93616,81.28542,97.74816
"46444",630.94946,81.17067,97.67358
"46445",630.96277,81.06081,97.600296
"46446",630.9761,80.96315,97.53579
"46447",630.9894,80.867935,97.47067
"46448",631.0027,80.77516,97.40502
"46449",631.016,80.672615,97.3267
"46450",631.0293,80.56031,97.23541
"46451",631.0426,80.430916,97.12353
"46452",631.0559,80.291756,96.99783
"46453",631.0692,80.15015,96.86534
"46454",631.0825,80.02319,96.74308
"46455",631.0958,79.91821,96.638824
"46456",631.10913,79.84009,96.55814
"46457",631.12244,79.78638,96.499435
"46458",631.13574,79.75464,96.46102
"46459",631.14905,79.73266,96.43137
"46460",631.16235,79.71557,96.40593
"46461",631.17566,79.69604,96.37751
"46462",631.18896,79.66918,96.341156
"46463",631.2023,79.63256,96.2942
"46464",631.2156,79.5935,96.24365
"46465",631.2289,79.551994,96.189445
"46466",631.2422,79.51537,96.138824
"46467",631.2555,79.47875,96.08706
"46468",631.2688,79.449455,96.04147
"46469",631.2821,79.42016,95.99497
"46470",631.2954,79.38598,95.94267
"46471",631.3087,79.35424,95.89175
"46472",631.322,79.32983,95.84715
"46473",631.3353,79.31274,95.80912
"46474",631.34863,79.30053,95.77544
"46475",631.36194,79.293205,95.746254
"46476",631.37524,79.28588,95.71684
"46477",631.38855,79.27856,95.6872
"46478",631.40186,79.27123,95.65733
"46479",631.41516,79.26147,95.624794
"46480",631.42847,79.25414,95.59439
"46481",631.4418,79.24681,95.56375
"46482",631.4551,79.24437,95.53777
"46483",631.4684,79.24681,95.5166
"46484",631.4817,79.256584,95.50284
"46485",631.495,79.30053,95.52355
"46486",631.5083,79.40551,95.606674
"46487",631.5216,79.60082,95.78341
"46488",631.5349,79.90112,96.071236
"46489",631.5482,80.28687,96.453896
"46490",631.5615,80.69703,96.87302
"46491",631.5748,81.06325,97.26102
"46492",631.58813,81.32693,97.55792
"46493",631.60144,81.45876,97.731224
"46494",631.61475,81.47341,97.79146
"46495",631.62805,81.40505,97.76914
"46496",631.64136,81.29275,97.700745
"46497",631.65466,81.16823,97.61662
"46498",631.66797,81.04616,97.53106
"46499",631.6813,80.93385,97.45145
"46500",631.6946,80.833755,97.38053
"46501",631.7079,80.73853,97.31136
"46502",631.7212,80.635994,97.2319
"46503",631.7345,80.52125,97.13703
"46504",631.7478,80.38697,97.01904
"46505",631.7611,80.24292,96.887085
"46506",631.7744,80.10132,96.753075
"46507",631.7877,79.97681,96.63173
"46508",631.801,79.87427,96.528465
"46509",631.81433,79.80347,96.453735
"46510",631.82764,79.75464,96.398766
"46511",631.84094,79.727776,96.364235
"46512",631.85425,79.710686,96.33864
"46513",631.86755,79.70092,96.31983
"46514",631.88086,79.68627,96.29584
"46515",631.89417,79.66674,96.2665
"46516",631.9075,79.639885,96.22923
"46517",631.9208,79.60082,96.17892
"46518",631.9341,79.55688,96.1225
"46519",631.9474,79.51293,96.064705
"46520",631.9607,79.46899,96.00554
"46521",631.974,79.429924,95.94988
"46522",631.9873,79.398186,95.90033
"46523",632.0006,79.37377,95.85711
"46524",632.0139,79.35912,95.82289
"46525",632.0272,79.3518,95.79554
"46526",632.0405,79.34936,95.77284
"46527",632.05383,79.34203,95.745186
"46528",632.06714,79.33471,95.7173
"46529",632.08044,79.327385,95.689186
"46530",632.09375,79.32006,95.66084
"46531",632.10706,79.31762,95.63715
"46532",632.12036,79.32006,95.61827
"46533",632.13367,79.32006,95.59702
"46534",632.147,79.31274,95.56845
"46535",632.1603,79.30297,95.53721
"46536",632.1736,79.29565,95.5081
"46537",632.1869,79.29809,95.48853
"46538",632.2002,79.33471,95.50322
"46539",632.2135,79.43725,95.58497
"46540",632.2268,79.64233,95.77246
"46541",632.2401,79.94995,96.06891
"46542",632.2534,80.34058,96.45798
"46543",632.2667,80.75319,96.881226
"46544",632.28,81.11696,97.26853
"46545",632.29333,81.375755,97.56223
"46546",632.30664,81.497826,97.727295
"46547",632.31995,81.50271,97.778984
"46548",632.33325,81.427025,97.75026
"46549",632.34656,81.304955,97.67278
"46550",632.35986,81.17555,97.58416
"46551",632.37317,81.05348,97.498825
"46552",632.3865,80.94362,97.42188
"46553",632.3998,80.84352,97.35127
"46554",632.4131,80.74586,97.27997
"46555",632.4264,80.64576,97.20318
"46556",632.4397,80.533455,97.11105
"46557",632.453,80.413826,97.008095
"46558",632.4663,80.289314,96.896515
"46559",632.4796,80.177,96.79324
"46560",632.4929,80.07446,96.696236
"46561",632.5062,79.9939,96.618
"46562",632.51953,79.9353,96.55921
"46563",632.53284,79.8938,96.515686
"46564",632.54614,79.8645,96.48307
"46565",632.55945,79.83765,96.45198
"46566",632.57275,79.815674,96.424934
"46567",632.58606,79.7937,96.3972
"46568",632.59937,79.766846,96.3639
"46569",632.6127,79.73754,96.32731
"46570",632.626,79.708244,96.28981
"46571",632.6393,79.67162,96.24407
"46572",632.6526,79.63744,96.19963
"46573",632.6659,79.59838,96.14924
"46574",632.6792,79.56176,96.10007
"46575",632.6925,79.53002,96.054634
"46576",632.7058,79.50317,96.01309
"46577",632.7191,79.47631,95.97071
"46578",632.7324,79.45434,95.93237
"46579",632.7457,79.43969,95.90067
"46580",632.75903,79.42748,95.87096
"46581",632.77234,79.41772,95.8433
"46582",632.78564,79.40795,95.81534
"46583",632.79895,79.398186,95.78707
"46584",632.81226,79.38354,95.75362
"46585",632.82556,79.37133,95.722145
"46586",632.83887,79.361565,95.69273
"46587",632.8522,79.364006,95.675224
"46588",632.8655,79.395744,95.68709
"46589",632.8788,79.47143,95.74389
"46590",632.8921,79.63012,95.88606
"46591",632.9054,79.886475,96.13086
"46592",632.9187,80.22339,96.464226
"46593",632.932,80.601814,96.84963
"46594",632.9453,80.96315,97.229774
"46595",632.9586,81.24391,97.540634
"46596",632.9719,81.40749,97.74309
"46597",632.9852,81.45144,97.83102
"46598",632.99854,81.40749,97.83243
"46599",633.01184,81.30984,97.778755
"46600",633.02515,81.18532,97.69517
"46601",633.03845,81.06081,97.6077
"46602",633.05176,80.94362,97.52366
"46603",633.06506,80.8362,97.445724
"46604",633.07837,80.72877,97.364426
"46605",633.0917,80.621346,97.27978
"46606",633.105,80.5066,97.18445
"46607",633.1183,80.38697,97.08065
"46608",633.1316,80.26246,96.96823
"46609",633.1449,80.14526,96.85924
"46610",633.1582,80.045166,96.76368
"46611",633.1715,79.9646,96.684525
"46612",633.1848,79.903564,96.62238
"46613",633.1981,79.8645,96.58031
"46614",633.2114,79.83765,96.54922
"46615",633.22473,79.823,96.529495
"46616",633.23804,79.815674,96.51664
"46617",633.25134,79.801025,96.49623
"46618",633.26465,79.78638,96.475365
"46619",633.27795,79.75952,96.44183
"46620",633.29126,79.725334,96.40013
"46621",633.30457,79.68871,96.35493
"46622",633.3179,79.64965,96.30614
"46623",633.3312,79.605705,96.25124
"46624",633.3445,79.5642,96.19742
"46625",633.3578,79.52758,96.14718
"46626",633.3711,79.4934,96.098236
"46627",633.3844,79.45922,96.048225
"46628",633.3977,79.432365,96.00447
"46629",633.411,79.415276,95.96964
"46630",633.4243,79.40063,95.93672
"46631",633.4376,79.38842,95.905785
"46632",633.4509,79.381096,95.87935
"46633",633.46423,79.37621,95.855125
"46634",633.47754,79.36645,95.82587
"46635",633.49084,79.3518,95.79142
"46636",633.50415,79.344475,95.76384
"46637",633.51746,79.364006,95.762886
"46638",633.53076,79.44213,95.82114
"46639",633.54407,79.61791,95.979485
"46640",633.5574,79.90112,96.250755
"46641",633.5707,80.26978,96.616325
"46642",633.584,80.672615,97.02759
"46643",633.5973,81.04616,97.42215
"46644",633.6106,81.324486,97.73317
"46645",633.6239,81.480736,97.93081
"46646",633.6372,81.5198,98.01614
"46647",633.6505,81.47341,98.01725
"46648",633.6638,81.3782,97.96808
"46649",633.6771,81.26345,97.8964
"46650",633.6904,81.15114,97.82357
"46651",633.70374,81.0486,97.757
"46652",633.71704,80.953384,97.69456
"46653",633.73035,80.86305,97.63402
"46654",633.74365,80.76784,97.56577
"46655",633.75696,80.65797,97.4799
"46656",633.77026,80.5359,97.37839
"46657",633.78357,80.396736,97.255974
"46658",633.7969,80.255135,97.12677
"46659",633.8102,80.11841,96.99802
"46660",633.8235,80.0061,96.88941
"46661",633.8368,79.920654,96.80415
"46662",633.8501,79.869385,96.750404
"46663",633.8634,79.84253,96.71947
"46664",633.8767,79.83032,96.70234
"46665",633.89,79.82056,96.68727
"46666",633.9033,79.801025,96.66213
"46667",633.9166,79.77173,96.62662
"46668",633.92993,79.73022,96.57797
"46669",633.94324,79.68383,96.523155
"46670",633.95654,79.635,96.46445
"46671",633.96985,79.59106,96.409096
"46672",633.98315,79.54711,96.35237
"46673",633.99646,79.50561,96.296715
"46674",634.00977,79.46899,96.244644
"46675",634.0231,79.43969,96.19875
"46676",634.0364,79.415276,96.15683
"46677",634.0497,79.398186,96.12147
"46678",634.063,79.38598,96.090454
"46679",634.0763,79.37133,96.05662
"46680",634.0896,79.3518,96.01744
"46681",634.1029,79.32983,95.97521
"46682",634.1162,79.30785,95.9323
"46683",634.1295,79.290764,95.89358
"46684",634.1428,79.28832,95.86897
"46685",634.1561,79.3225,95.88091
"46686",634.16943,79.42748,95.96472
"46687",634.18274,79.62524,96.144585
"46688",634.19604,79.91821,96.42585
"46689",634.20935,80.28443,96.78951
"46690",634.22266,80.67017,97.18414
"46691",634.23596,81.01442,97.54933
"46692",634.24927,81.26101,97.82762
"46693",634.2626,81.39773,98.003746
"46694",634.2759,81.42947,98.07916
"46695",634.2892,81.38796,98.08233
"46696",634.3025,81.30984,98.04758
"46697",634.3158,81.214615,97.993286
"46698",634.3291,81.11696,97.933586
"46699",634.3424,81.024185,97.87572
"46700",634.3557,80.93141,97.81495
"46701",634.369,80.831314,97.74396
"46702",634.3823,80.719,97.65762
"46703",634.3956,80.58961,97.5507
"46704",634.40894,80.44312,97.42264
"46705",634.42224,80.28199,97.27535
"46706",634.43555,80.12085,97.123024
"46707",634.44885,79.97681,96.98276
"46708",634.46216,79.85718,96.862404
"46709",634.47546,79.76929,96.77005
"46710",634.4888,79.710686,96.70424
"46711",634.5021,79.674065,96.65858
"46712",634.5154,79.65453,96.62886
"46713",634.5287,79.63744,96.600975
"46714",634.542,79.622795,96.575
"46715",634.5553,79.603264,96.54368
"46716",634.5686,79.57397,96.50198
"46717",634.5819,79.537346,96.45205
"46718",634.5952,79.49584,96.39609
"46719",634.6085,79.449455,96.33395
"46720",634.6218,79.40307,96.270355
"46721",634.63513,79.361565,96.2102
"46722",634.64844,79.32494,96.153625
"46723",634.66174,79.29809,96.105675
"46724",634.67505,79.273674,96.059326
"46725",634.68835,79.2517,96.014656
"46726",634.70166,79.234604,95.974174
"46727",634.71497,79.219955,95.93561
"46728",634.7283,79.202866,95.89414
"46729",634.7416,79.19066,95.857025
"46730",634.7549,79.18089,95.82197
"46731",634.7682,79.18089,95.79637
"46732",634.7815,79.19554,95.78542
"46733",634.7948,79.26147,95.82621
"46734",634.8081,79.40795,95.949615
"46735",634.8214,79.65209,96.175255
"46736",634.8347,79.991455,96.503746
"46737",634.848,80.38453,96.89655
"46738",634.8613,80.77272,97.29676
"46739",634.87463,81.094986,97.64317
"46740",634.88794,81.31228,97.894684
"46741",634.90125,81.41482,98.03823
"46742",634.91455,81.42214,98.08977
"46743",634.92786,81.36843,98.0805
"46744",634.94116,81.287865,98.042694
"46745",634.95447,81.19997,97.99504
"46746",634.9678,81.109634,97.94221
"46747",634.9811,81.0193,97.88655
"46748",634.9944,80.92653,97.82563
"46749",635.0077,80.81911,97.74716
"46750",635.021,80.69947,97.65312
"46751",635.0343,80.56031,97.53582
"46752",635.0476,80.40406,97.39708
"46753",635.0609,80.235596,97.24124
"46754",635.0742,80.06958,97.08259
"46755",635.0875,79.91577,96.930954
"46756",635.1008,79.7937,96.80625
"46757",635.11414,79.708244,96.71435
"46758",635.12744,79.65453,96.65152
"46759",635.14075,79.63012,96.61631
"46760",635.15405,79.62035,96.594986
"46761",635.16736,79.61547,96.57824
"46762",635.18066,79.603264,96.554016
"46763",635.194,79.57885,96.517204
"46764",635.2073,79.54223,96.46742
"46765",635.2206,79.49096,96.40185
"46766",635.2339,79.429924,96.324905
"46767",635.2472,79.36645,96.243614
"46768",635.2605,79.310295,96.16766
"46769",635.2738,79.26391,96.099724
"46770",635.2871,79.23216,96.044975
"46771",635.3004,79.20775,95.99657
"46772",635.3137,79.200424,95.964485
"46773",635.327,79.19066,95.92973
"46774",635.34033,79.17845,95.892235
"46775",635.35364,79.1638,95.85191
"46776",635.36694,79.14427,95.80625
"46777",635.38025,79.1223,95.75754
"46778",635.39355,79.10765,95.71546
"46779",635.40686,79.09544,95.67537
"46780",635.42017,79.09544,95.6471
"46781",635.4335,79.11009,95.633484
"46782",635.4468,79.168686,95.66427
"46783",635.4601,79.290764,95.76037
"46784",635.4734,79.51049,95.95793
"46785",635.4867,79.82788,96.260025
"46786",635.5,80.21362,96.64039
"46787",635.5133,80.61402,97.04746
"46788",635.5266,80.970474,97.4231
"46789",635.5399,81.231705,97.71466
"46790",635.5532,81.38308,97.904526
"46791",635.5665,81.43679,98.00146
"46792",635.57983,81.427025,98.03659
"46793",635.59314,81.375755,98.029915
"46794",635.60645,81.304955,98.002106
"46795",635.61975,81.22682,97.96475
"46796",635.63306,81.1487,97.924965
"46797",635.64636,81.06081,97.87297
"46798",635.65967,80.95827,97.80358
"46799",635.673,80.8362,97.71146
"46800",635.6863,80.68238,97.58377
"46801",635.6996,80.50416,97.42687
"46802",635.7129,80.30396,97.24243
"46803",635.7262,80.10864,97.05661
"46804",635.7395,79.9353,96.886665
"46805",635.7528,79.798584,96.747925
"46806",635.7661,79.70336,96.64641
"46807",635.7794,79.64965,96.58343
"46808",635.7927,79.62768,96.55051
"46809",635.806,79.62035,96.53155
"46810",635.81934,79.61791,96.51724
"46811",635.83264,79.605705,96.493095
"46812",635.84595,79.58373,96.4588
"46813",635.85925,79.54955,96.41161
"46814",635.87256,79.51049,96.358475
"46815",635.88586,79.4641,96.29679
"46816",635.8992,79.42016,96.2361
"46817",635.9125,79.37621,96.174034
"46818",635.9258,79.33471,96.11304
"46819",635.9391,79.293205,96.05074
"46820",635.9524,79.259026,95.99448
"46821",635.9657,79.234604,95.9469
"46822",635.979,79.219955,95.90833
"46823",635.9923,79.20775,95.87175
"46824",636.0056,79.19798,95.83723
"46825",636.0189,79.19066,95.80484
"46826",636.0322,79.183334,95.772224
"46827",636.04553,79.17601,95.73938
"46828",636.05884,79.166245,95.703865
"46829",636.07214,79.1638,95.67537
"46830",636.08545,79.168686,95.65412
"46831",636.09875,79.17357,95.633026
"46832",636.11206,79.185776,95.61941
"46833",636.12537,79.217514,95.6257
"46834",636.1387,79.293205,95.67694
"46835",636.152,79.44457,95.80622
"46836",636.1653,79.69604,96.04033
"46837",636.1786,80.045166,96.37996
"46838",636.1919,80.45289,96.78909
"46839",636.2052,80.85573,97.206085
"46840",636.2185,81.1902,97.5673
"46841",636.2318,81.41482,97.82911
"46842",636.2451,81.52224,97.98074
"46843",636.2584,81.532005,98.03808
"46844",636.2717,81.48806,98.04201
"46845",636.28503,81.41726,98.01771
"46846",636.29834,81.33669,97.98143
"46847",636.31165,81.25857,97.945076
"46848",636.32495,81.180435,97.90627
"46849",636.33826,81.092545,97.85527
"46850",636.35156,80.98024,97.77711
"46851",636.36487,80.83864,97.66614
"46852",636.3782,80.672615,97.52632
"46853",636.3915,80.48463,97.35935
"46854",636.4048,80.291756,97.181625
"46855",636.4181,80.11597,97.01495
"46856",636.4314,79.97681,96.87942
"46857",636.4447,79.87671,96.778595
"46858",636.458,79.815674,96.71371
"46859",636.4713,79.781494,96.67377
"46860",636.4846,79.764404,96.64985
"46861",636.4979,79.74975,96.62783
"46862",636.5112,79.727776,96.59804
"46863",636.52454,79.69848,96.560234
"46864",636.53784,79.66186,96.51419
"46865",636.55115,79.62035,96.46212
"46866",636.56445,79.571526,96.40143
"46867",636.57776,79.534904,96.35142
"46868",636.59106,79.49828,96.30026
"46869",636.6044,79.45922,96.24552
"46870",636.6177,79.4226,96.192
"46871",636.631,79.3933,96.14466
"46872",636.6443,79.35668,96.08908
"46873",636.6576,79.327385,96.03968
"46874",636.6709,79.30541,95.99669
"46875",636.6842,79.293205,95.962776
"46876",636.6975,79.28588,95.933365
"46877",636.7108,79.28344,95.90861
"46878",636.7241,79.281,95.88377
"46879",636.7374,79.276115,95.85642
"46880",636.75073,79.26391,95.821594
"46881",636.76404,79.24437,95.77905
"46882",636.77734,79.22484,95.73591
"46883",636.79065,79.21019,95.69704
"46884",636.80396,79.202866,95.66503
"46885",636.81726,79.202866,95.64012
"46886",636.83057,79.217514,95.62986
"46887",636.8439,79.26635,95.65424
"46888",636.8572,79.378654,95.74362
"46889",636.8705,79.57885,95.9244
"46890",636.8838,79.87671,96.2091
"46891",636.8971,80.257576,96.58611
"46892",636.9104,80.66041,96.996994
"46893",636.9237,81.024185,97.38141
"46894",636.937,81.29275,97.68198
"46895",636.9503,81.444115,97.87374
"46896",636.9636,81.4905,97.965256
"46897",636.9769,81.463646,97.98498
"46898",636.99023,81.40261,97.96968
"46899",637.00354,81.33181,97.94271
"46900",637.01685,81.25613,97.908646
"46901",637.03015,81.17311,97.86488
"46902",637.04346,81.08034,97.80877
"46903",637.05676,80.972916,97.73511
"46904",637.07007,80.850845,97.64344
"46905",637.0834,80.709236,97.52842
"46906",637.0967,80.550545,97.39189
"46907",637.11,80.38209,97.24064
"46908",637.1233,80.21362,97.084114
"46909",637.1366,80.062256,96.93942
"46910",637.1499,79.94507,96.82418
"46911",637.1632,79.869385,96.74678
"46912",637.1765,79.83032,96.703636
"46913",637.1898,79.81079,96.6788
"46914",637.2031,79.79614,96.65824
"46915",637.21643,79.77905,96.63478
"46916",637.22974,79.7522,96.60102
"46917",637.24304,79.710686,96.551765
"46918",637.25635,79.66674,96.49878
"46919",637.26965,79.62035,96.44198
"46920",637.28296,79.57397,96.38373
"46921",637.29626,79.52514,96.32159
"46922",637.3096,79.47875,96.26036
"46923",637.3229,79.429924,96.195244
"46924",637.3362,79.378654,96.12616
"46925",637.3495,79.33471,96.0628
"46926",637.3628,79.30297,96.01027
"46927",637.3761,79.281,95.966515
"46928",637.3894,79.26635,95.9294
"46929",637.4027,79.259026,95.89915
"46930",637.416,79.256584,95.87355
"46931",637.4293,79.25414,95.84788
"46932",637.4426,79.25414,95.82457
"46933",637.45593,79.2517,95.79882
"46934",637.46924,79.2517,95.77544
"46935",637.48254,79.24925,95.7496
"46936",637.49585,79.24681,95.7237
"46937",637.50916,79.23949,95.69284
"46938",637.52246,79.23216,95.66175
"46939",637.53577,79.22972,95.635315
"46940",637.5491,79.237045,95.61857
"46941",637.5624,79.26879,95.62647
"46942",637.5757,79.364006,95.69884
"46943",637.589,79.54955,95.86451
"46944",637.6023,79.83765,96.13853
"46945",637.6156,80.201416,96.49722
"46946",637.6289,80.601814,96.903915
"46947",637.6422,80.96803,97.28894
"46948",637.6555,81.24635,97.59751
"46949",637.6688,81.409935,97.80004
"46950",637.6821,81.46609,97.90025
"46951",637.69543,81.444115,97.924095
"46952",637.70874,81.36843,97.89354
"46953",637.72205,81.27322,97.84109
"46954",637.73535,81.16823,97.77589
"46955",637.74866,81.06813,97.712296
"46956",637.76196,80.970474,97.64802
"46957",637.77527,80.86549,97.573364
"46958",637.7886,80.7483,97.483215
"46959",637.8019,80.61646,97.37476
"46960",637.8152,80.465096,97.24266
"46961",637.8285,80.30152,97.09362
"46962",637.8418,80.14038,96.9419
"46963",637.8551,79.99878,96.80469
"46964",637.8684,79.886475,96.692345
"46965",637.8817,79.81079,96.61311
"46966",637.895,79.766846,96.563255
"46967",637.9083,79.74975,96.53887
"46968",637.92163,79.742424,96.52373
"46969",637.93494,79.7351,96.508354
"46970",637.94824,79.71801,96.48299
"46971",637.96155,79.68383,96.439995
"46972",637.97485,79.64233,96.38861
"46973",637.98816,79.5935,96.328606
"46974",638.00146,79.54223,96.26463
"46975",638.0148,79.4934,96.2015
"46976",638.0281,79.447014,96.13928
"46977",638.0414,79.398186,96.07317
"46978",638.0547,79.34936,96.00554
"46979",638.068,79.30785,95.9437
"46980",638.0813,79.273674,95.88789
"46981",638.0946,79.24925,95.840775
"46982",638.1079,79.23949,95.80755
"46983",638.1212,79.22972,95.77402
"46984",638.1345,79.22484,95.74506
"46985",638.1478,79.219955,95.71596
"46986",638.16113,79.217514,95.68914
"46987",638.17444,79.21507,95.66225
"46988",638.18774,79.217514,95.64016
"46989",638.20105,79.2224,95.62059
"46990",638.21436,79.22728,95.60117
"46991",638.22766,79.22972,95.57947
"46992",638.24097,79.23216,95.55784
"46993",638.2543,79.23216,95.533844
"46994",638.2676,79.22972,95.50741
"46995",638.2809,79.24193,95.495544
"46996",638.2942,79.28832,95.51825
"46997",638.3075,79.40063,95.608315
"46998",638.3208,79.61059,95.799545
"46999",638.3341,79.91821,96.095
"47000",638.3474,80.29664,96.47087
"47001",638.3607,80.69215,96.87565
"47002",638.374,81.03395,97.23908
"47003",638.3873,81.270775,97.50822
"47004",638.40063,81.38796,97.665115
"47005",638.41394,81.39773,97.718254
"47006",638.42725,81.33181,97.696014
"47007",638.44055,81.231705,97.63753
"47008",638.45386,81.12184,97.566154
"47009",638.46716,81.0193,97.49867
"47010",638.48047,80.921646,97.43287
"47011",638.4938,80.82643,97.366455
"47012",638.5071,80.726326,97.292175
"47013",638.5204,80.621346,97.20989
"47014",638.5337,80.50172,97.10968
"47015",638.547,80.37232,96.995964
"47016",638.5603,80.235596,96.87087
"47017",638.5736,80.10376,96.7464
"47018",638.5869,79.98657,96.632454
"47019",638.6002,79.89136,96.53682
"47020",638.6135,79.82056,96.46262
"47021",638.62683,79.77173,96.40819
"47022",638.64014,79.742424,96.37175
"47023",638.65344,79.725334,96.34661
"47024",638.66675,79.708244,96.32094
"47025",638.68005,79.693596,96.29717
"47026",638.69336,79.676506,96.27051
"47027",638.70667,79.64965,96.23354
"47028",638.72,79.61059,96.18353
"47029",638.7333,79.56664,96.12742
"47030",638.7466,79.5227,96.06993
"47031",638.7599,79.48119,96.01351
"47032",638.7732,79.447014,95.96312
"47033",638.7865,79.41772,95.91654
"47034",638.7998,79.39086,95.87149
"47035",638.8131,79.37377,95.835365
"47036",638.8264,79.364006,95.80603
"47037",638.8397,79.35912,95.78127
"47038",638.853,79.35912,95.761246
"47039",638.86633,79.36645,95.74854
"47040",638.87964,79.36645,95.728745
"47041",638.89294,79.35912,95.70162
"47042",638.90625,79.34692,95.66939
"47043",638.91956,79.33715,95.63921
"47044",638.93286,79.33227,95.61362
"47045",638.94617,79.327385,95.58787
"47046",638.9595,79.33227,95.57173
"47047",638.9728,79.34203,95.56063
"47048",638.9861,79.3518,95.549835
"47049",638.9994,79.37621,95.55399
"47050",639.0127,79.43969,95.59798
"47051",639.026,79.569084,95.70986
"47052",639.0393,79.7937,95.92101
"47053",639.0526,80.113525,96.23439
"47054",639.0659,80.48951,96.61392
"47055",639.0792,80.867935,97.007645
"47056",639.0925,81.18288,97.34971
"47057",639.10583,81.38552,97.58932
"47058",639.11914,81.45876,97.70586
"47059",639.13245,81.42947,97.722145
"47060",639.14575,81.341576,97.678925
"47061",639.15906,81.22682,97.606094
"47062",639.17236,81.112076,97.529686
"47063",639.18567,81.00954,97.4619
"47064",639.199,80.91432,97.39823
"47065",639.2123,80.816666,97.32915
"47066",639.2256,80.71412,97.25212
"47067",639.2389,80.59937,97.15969
"47068",639.2522,80.47486,97.05391
"47069",639.2655,80.343025,96.93691
"47070",639.2788,80.2063,96.810905
"47071",639.2921,80.079346,96.6904
"47072",639.3054,79.96948,96.583015
"47073",639.3187,79.888916,96.501495
"47074",639.33203,79.84009,96.449196
"47075",639.34534,79.815674,96.419785
"47076",639.35864,79.80347,96.40182
"47077",639.37195,79.79614,96.38835
"47078",639.38525,79.77417,96.36001
"47079",639.39856,79.744865,96.32365
"47080",639.41187,79.708244,96.27905
"47081",639.4252,79.66918,96.23087
"47082",639.4385,79.62768,96.17903
"47083",639.4518,79.58373,96.12345
"47084",639.4651,79.534904,96.061615
"47085",639.4784,79.48608,95.99825
"47086",639.4917,79.44213,95.93825
"47087",639.505,79.40307,95.88175
"47088",639.5183,79.37377,95.8338
"47089",639.5316,79.35424,95.7947
"47090",639.5449,79.34203,95.762314
"47091",639.5582,79.33471,95.73443
"47092",639.57153,79.32983,95.708755
"47093",639.58484,79.32494,95.68293
"47094",639.59814,79.3225,95.65939
"47095",639.61145,79.31762,95.63334
"47096",639.62476,79.310295,95.60469
"47097",639.63806,79.30541,95.578255
"47098",639.65137,79.30053,95.55167
"47099",639.6647,79.30053,95.52981
"47100",639.678,79.31274,95.52016
"47101",639.6913,79.35424,95.540184
"47102",639.7046,79.45678,95.62254
"47103",639.7179,79.65209,95.80088
"47104",639.7312,79.94751,96.08543
"47105",639.7445,80.31129,96.44756
"47106",639.7578,80.69703,96.84303
"47107",639.7711,81.03639,97.20418
"47108",639.7844,81.27566,97.47583
"47109",639.7977,81.392845,97.63288
"47110",639.81104,81.40261,97.68617
"47111",639.82434,81.33669,97.664085
"47112",639.83765,81.231705,97.60087
"47113",639.85095,81.1194,97.527054
"47114",639.86426,81.01198,97.45461
"47115",639.87756,80.91188,97.38614
"47116",639.89087,80.82155,97.3243
"47117",639.9042,80.73609,97.26452
"47118",639.9175,80.64088,97.19231
"47119",639.9308,80.533455,97.10491
"47120",639.9441,80.40894,96.99707
"47121",639.9574,80.274666,96.87557
"47122",639.9707,80.14282,96.75231
"47123",639.984,80.028076,96.64203
"47124",639.9973,79.93042,96.54525
"47125",640.0106,79.86206,96.47472
"47126",640.0239,79.82056,96.4289
"47127",640.03723,79.79126,96.394
"47128",640.05054,79.77173,96.36794
"47129",640.06384,79.75464,96.34372
"47130",640.07715,79.73754,96.318954
"47131",640.09045,79.71313,96.28634
"47132",640.10376,79.68139,96.245636
"47133",640.11707,79.639885,96.194176
"47134",640.1304,79.59594,96.13898
"47135",640.1437,79.54711,96.07752
"47136",640.157,79.49584,96.0121
"47137",640.1703,79.447014,95.94752
"47138",640.1836,79.40551,95.88873
"47139",640.1969,79.37377,95.83842
"47140",640.2102,79.34692,95.79199
"47141",640.2235,79.32983,95.75449
"47142",640.2368,79.32494,95.72867
"47143",640.2501,79.32494,95.70757
"47144",640.2634,79.327385,95.68892
"47145",640.27673,79.33227,95.67278
"47146",640.29004,79.32983,95.649475
"47147",640.30334,79.32494,95.62365
"47148",640.31665,79.310295,95.587906
"47149",640.32996,79.29809,95.554146
"47150",640.34326,79.28832,95.522446
"47151",640.35657,79.28832,95.500206
"47152",640.3699,79.31274,95.50238
"47153",640.3832,79.39086,95.55903
"47154",640.3965,79.554436,95.70357
"47155",640.4098,79.818115,95.95332
"47156",640.4231,80.16968,96.2992
"47157",640.4364,80.567635,96.70246
"47158",640.4497,80.9485,97.10107
"47159",640.463,81.24147,97.423676
"47160",640.4763,81.41482,97.63582
"47161",640.4896,81.46853,97.73374
"47162",640.5029,81.42947,97.74057
"47163",640.51624,81.33181,97.687584
"47164",640.52954,81.2195,97.61689
"47165",640.54285,81.112076,97.54758
"47166",640.55615,81.01198,97.48223
"47167",640.56946,80.92409,97.425964
"47168",640.58276,80.84352,97.374275
"47169",640.59607,80.75319,97.3103
"47170",640.6094,80.65308,97.233734
"47171",640.6227,80.54078,97.14184
"47172",640.636,80.413826,97.031784
"47173",640.6493,80.274666,96.905556
"47174",640.6626,80.13306,96.77253
"47175",640.6759,80.00366,96.64729
"47176",640.6892,79.89624,96.539986
"47177",640.7025,79.815674,96.45618
"47178",640.7158,79.76196,96.396706
"47179",640.7291,79.73266,96.35996
"47180",640.74243,79.71313,96.33208
"47181",640.75574,79.69604,96.30602
"47182",640.76904,79.674065,96.27455
"47183",640.78235,79.64233,96.23263
"47184",640.79565,79.603264,96.18239
"47185",640.80896,79.55688,96.123604
"47186",640.82227,79.50805,96.06093
"47187",640.8356,79.46899,96.00649
"47188",640.8489,79.43481,95.95572
"47189",640.8622,79.40551,95.90876
"47190",640.8755,79.37621,95.860886
"47191",640.8888,79.3518,95.81698
"47192",640.9021,79.32983,95.77475
"47193",640.9154,79.30785,95.731834
"47194",640.9287,79.293205,95.69556
"47195",640.942,79.28588,95.666145
"47196",640.9553,79.281,95.63895
"47197",640.9686,79.27856,95.61404
"47198",640.98193,79.27856,95.59149
"47199",640.99524,79.273674,95.564064
"47200",641.00854,79.26879,95.53648
"47201",641.02185,79.26635,95.51119
"47202",641.03516,79.259026,95.48094
"47203",641.04846,79.259026,95.45779
"47204",641.06177,79.28588,95.46149
"47205",641.0751,79.37133,95.52462
"47206",641.0884,79.54955,95.6832
"47207",641.1017,79.83765,95.957214
"47208",641.115,80.2063,96.32079
"47209",641.1283,80.61158,96.73252
"47210",641.1416,80.98512,97.125175
"47211",641.1549,81.270775,97.44161
"47212",641.1682,81.43191,97.642456
"47213",641.1815,81.480736,97.73603
"47214",641.1948,81.449,97.750565
"47215",641.2081,81.37087,97.71772
"47216",641.22144,81.27322,97.6629
"47217",641.23474,81.180435,97.60991
"47218",641.24805,81.094986,97.56135
"47219",641.26135,81.01442,97.515
"47220",641.27466,80.93141,97.46369
"47221",641.28796,80.84108,97.402466
"47222",641.3013,80.73121,97.31888
"47223",641.3146,80.59937,97.20989
"47224",641.3279,80.448006,97.077255
"47225",641.3412,80.289314,96.93256
"47226",641.3545,80.1355,96.78779
"47227",641.3678,79.99878,96.655304
"47228",641.3811,79.89624,96.55273
"47229",641.3944,79.82544,96.47868
"47230",641.4077,79.77905,96.42684
"47231",641.421,79.74975,96.39063
"47232",641.4343,79.727776,96.36084
"47233",641.44763,79.708244,96.3328
"47234",641.46094,79.68383,96.29927
"47235",641.47424,79.65453,96.26009
"47236",641.48755,79.61791,96.21268
"47237",641.50085,79.57397,96.15679
"47238",641.51416,79.52758,96.09709
"47239",641.52747,79.47875,96.0335
"47240",641.5408,79.432365,95.970825
"47241",641.5541,79.395744,95.916466
"47242",641.5674,79.36889,95.87073
"47243",641.5807,79.34936,95.831474
"47244",641.594,79.33959,95.80138
"47245",641.6073,79.33227,95.773415
"47246",641.6206,79.33227,95.75255
"47247",641.6339,79.32983,95.72924
"47248",641.6472,79.33227,95.71074
"47249",641.6605,79.327385,95.68499
"47250",641.6738,79.32494,95.66153
"47251",641.68713,79.32006,95.63555
"47252",641.70044,79.31274,95.60698
"47253",641.71375,79.30785,95.58062
"47254",641.72705,79.30297,95.55411
"47255",641.74036,79.30053,95.529884
"47256",641.75366,79.31274,95.52023
"47257",641.76697,79.36889,95.55491
"47258",641.7803,79.500725,95.66702
"47259",641.7936,79.7351,95.885796
"47260",641.8069,80.0647,96.207115
"47261",641.8202,80.462654,96.60709
"47262",641.8335,80.85817,97.01707
"47263",641.8468,81.18532,97.37103
"47264",641.8601,81.40017,97.622925
"47265",641.8734,81.49294,97.75945
"47266",641.8867,81.48318,97.79634
"47267",641.9,81.40749,97.767006
"47268",641.9133,81.30251,97.70601
"47269",641.92664,81.19264,97.63684
"47270",641.93994,81.09743,97.578896
"47271",641.95325,81.01686,97.53262
"47272",641.96655,80.94118,97.488716
"47273",641.97986,80.86061,97.43756
"47274",641.99316,80.76784,97.37168
"47275",642.0065,80.65064,97.27848
"47276",642.0198,80.50904,97.15721
"47277",642.0331,80.35767,97.02175
"47278",642.0464,80.20386,96.87911
"47279",642.0597,80.0647,96.74632
"47280",642.073,79.94995,96.6336
"47281",642.0863,79.869385,96.55147
"47282",642.0996,79.815674,96.493675
"47283",642.1129,79.783936,96.45618
"47284",642.1262,79.75952,96.42501
"47285",642.1395,79.742424,96.4004
"47286",642.15283,79.72289,96.37282
"47287",642.16614,79.691154,96.33242
"47288",642.17944,79.656975,96.28859
"47289",642.19275,79.62035,96.24125
"47290",642.20605,79.57397,96.183
"47291",642.21936,79.52514,96.12086
"47292",642.23267,79.47875,96.05963
"47293",642.246,79.43969,96.00428
"47294",642.2593,79.40795,95.95503
"47295",642.2726,79.378654,95.907234
"47296",642.2859,79.35668,95.865845
"47297",642.2992,79.33959,95.82865
"47298",642.3125,79.3225,95.790924
"47299",642.3258,79.30785,95.755104
"47300",642.3391,79.30297,95.72859
"47301",642.3524,79.30053,95.70437
"47302",642.3657,79.30297,95.68495
"47303",642.379,79.30297,95.66317
"47304",642.39233,79.30297,95.64139
"47305",642.40564,79.29565,95.61228
"47306",642.41895,79.28832,95.58295
"47307",642.43225,79.281,95.55338
"47308",642.44556,79.290764,95.54068
"47309",642.45886,79.33959,95.567345
"47310",642.47217,79.45678,95.663895
"47311",642.4855,79.66918,95.85932
"47312",642.4988,79.97681,96.15661
"47313",642.5121,80.34791,96.526985
"47314",642.5254,80.73121,96.92116
"47315",642.5387,81.058365,97.271164
"47316",642.552,81.28054,97.52641
"47317",642.5653,81.3904,97.67629
"47318",642.5786,81.39529,97.724625
"47319",642.5919,81.33181,97.70475
"47320",642.6052,81.23659,97.651146
"47321",642.6185,81.13649,97.58969
"47322",642.63184,81.04372,97.53243
"47323",642.64514,80.955826,97.47716
"47324",642.65845,80.87282,97.42402
"47325",642.67175,80.780045,97.35852
"47326",642.68506,80.67506,97.27791
"47327",642.69836,80.552986,97.17693
"47328",642.7117,80.42359,97.06482
"47329",642.725,80.28687,96.94134
"47330",642.7383,80.15259,96.81602
"47331",642.7516,80.03296,96.70116
"47332",642.7649,79.940186,96.60941
"47333",642.7782,79.869385,96.53674
"47334",642.7915,79.83032,96.4936
"47335",642.8048,79.81079,96.468765
"47336",642.8181,79.798584,96.450645
"47337",642.8314,79.77905,96.42482
"47338",642.8447,79.75464,96.3935
"47339",642.85803,79.72045,96.35165
"47340",642.87134,79.68627,96.30873
"47341",642.88464,79.65209,96.26475
"47342",642.89795,79.61791,96.219696
"47343",642.91125,79.58373,96.17358
"47344",642.92456,79.54711,96.12395
"47345",642.93787,79.50805,96.07073
"47346",642.9512,79.47143,96.01874
"47347",642.9645,79.43725,95.96804
"47348",642.9778,79.41039,95.9236
"47349",642.9911,79.395744,95.890526
"47350",643.0044,79.39086,95.86676
"47351",643.0177,79.38842,95.84528
"47352",643.031,79.381096,95.81885
"47353",643.0443,79.37377,95.79218
"47354",643.0576,79.361565,95.76041
"47355",643.0709,79.34692,95.72581
"47356",643.0842,79.33715,95.69563
"47357",643.09753,79.327385,95.66515
"47358",643.11084,79.327385,95.644135
"47359",643.12415,79.34203,95.637764
"47360",643.13745,79.39086,95.66603
"47361",643.15076,79.50317,95.7593
"47362",643.16406,79.70336,95.94397
"47363",643.17737,79.99634,96.22768
"47364",643.1907,80.35279,96.584015
"47365",643.204,80.71656,96.95881
"47366",643.2173,81.03395,97.29859
"47367",643.2306,81.253685,97.55064
"47368",643.2439,81.36111,97.697235
"47369",643.2572,81.37087,97.749535
"47370",643.2705,81.31228,97.73378
"47371",643.2838,81.21706,97.679565
"47372",643.2971,81.11452,97.61506
"47373",643.3104,81.01442,97.54979
"47374",643.3237,80.92653,97.4936
"47375",643.33704,80.84352,97.439545
"47376",643.35034,80.76051,97.3829
"47377",643.36365,80.66529,97.31144
"47378",643.37695,80.552986,97.219925
"47379",643.39026,80.42603,97.11025
"47380",643.40356,80.2942,96.99173
"47381",643.4169,80.16968,96.8764
"47382",643.4302,80.06714,96.77917
"47383",643.4435,79.991455,96.70558
"47384",643.4568,79.940186,96.654045
"47385",643.4701,79.906006,96.618
"47386",643.4834,79.88403,96.59309
"47387",643.4967,79.8645,96.56993
"47388",643.51,79.83765,96.53884
"47389",643.5233,79.80591,96.50203
"47390",643.5366,79.77417,96.464226
"47391",643.5499,79.73754,96.42054
"47392",643.56323,79.69848,96.373276
"47393",643.57654,79.65942,96.32479
"47394",643.58984,79.61791,96.272644
"47395",643.60315,79.57641,96.2192
"47396",643.61646,79.534904,96.16446
"47397",643.62976,79.49828,96.113304
"47398",643.64307,79.4641,96.063446
"47399",643.6564,79.44213,96.02473
"47400",643.6697,79.42748,95.992645
"47401",643.683,79.41772,95.96499
"47402",643.6963,79.40795,95.93703
"47403",643.7096,79.395744,95.90632
"47404",643.7229,79.38598,95.87767
"47405",643.7362,79.37377,95.846275
"47406",643.7495,79.361565,95.8145
"47407",643.7628,79.34936,95.78234
"47408",643.7761,79.344475,95.757126
"47409",643.7894,79.35668,95.74885
"47410",643.80273,79.41039,95.782455
"47411",643.81604,79.537346,95.89098
"47412",643.82935,79.75708,96.09626
"47413",643.84265,80.062256,96.393845
"47414",643.85596,80.42115,96.754684
"47415",643.86926,80.780045,97.12674
"47416",643.88257,81.07301,97.444084
"47417",643.8959,81.26345,97.66805
"47418",643.9092,81.341576,97.78566
"47419",643.9225,81.32937,97.81538
"47420",643.9358,81.26345,97.791
"47421",643.9491,81.17799,97.745026
"47422",643.9624,81.0901,97.69395
"47423",643.9757,81.00954,97.647446
"47424",643.989,80.93385,97.60331
"47425",644.0023,80.85329,97.551926
"47426",644.0156,80.75807,97.483376
"47427",644.02893,80.64576,97.39475
"47428",644.04224,80.51148,97.280655
"47429",644.05554,80.365,97.150154
"47430",644.06885,80.216064,97.01263
"47431",644.08215,80.079346,96.88266
"47432",644.09546,79.96948,96.775276
"47433",644.10876,79.8938,96.69864
"47434",644.1221,79.84985,96.651375
"47435",644.1354,79.82788,96.62471
"47436",644.1487,79.82056,96.61201
"47437",644.162,79.818115,96.60396
"47438",644.1753,79.80835,96.58851
"47439",644.1886,79.783936,96.558105
"47440",644.2019,79.74731,96.514725
"47441",644.2152,79.69848,96.458
"47442",644.2285,79.64477,96.39487
"47443",644.2418,79.59106,96.330055
"47444",644.2551,79.54223,96.26845
"47445",644.26843,79.50561,96.21752
"47446",644.28174,79.47631,96.172775
"47447",644.29504,79.45434,96.13444
"47448",644.30835,79.43725,96.100296
"47449",644.32166,79.42016,96.06562
"47450",644.33496,79.40307,96.03041
"47451",644.34827,79.39086,95.99955
"47452",644.3616,79.381096,95.97075
"47453",644.3749,79.36645,95.93676
"47454",644.3882,79.3518,95.90231
"47455",644.4015,79.33959,95.86985
"47456",644.4148,79.32983,95.83945
"47457",644.4281,79.3225,95.81118
"47458",644.4414,79.33959,95.8071
"47459",644.4547,79.40063,95.847496
"47460",644.468,79.537346,95.965485
"47461",644.4813,79.76929,96.18297
"47462",644.4946,80.08911,96.49558
"47463",644.50793,80.46021,96.86947
"47464",644.52124,80.82399,97.24763
"47465",644.53455,81.12184,97.57123
"47466",644.54785,81.3196,97.80405
"47467",644.56116,81.40505,97.93073
"47468",644.57446,81.40505,97.97464
"47469",644.58777,81.35378,97.96728
"47470",644.6011,81.2781,97.9339
"47471",644.6144,81.1902,97.88594
"47472",644.6277,81.10719,97.840126
"47473",644.641,81.02663,97.79416
"47474",644.6543,80.94362,97.74323
"47475",644.6676,80.85817,97.68727
"47476",644.6809,80.76051,97.61643
"47477",644.6942,80.64332,97.523
"47478",644.7075,80.5066,97.40639
"47479",644.7208,80.34791,97.26353
"47480",644.73413,80.181885,97.108376
"47481",644.74744,80.028076,96.96025
"47482",644.76074,79.90112,96.834175
"47483",644.77405,79.80835,96.73831
"47484",644.78735,79.7522,96.67617
"47485",644.80066,79.72289,96.63912
"47486",644.81396,79.708244,96.615814
"47487",644.8273,79.691154,96.58961
"47488",644.8406,79.67162,96.560425
"47489",644.8539,79.64721,96.52575
"47490",644.8672,79.61791,96.48543
"47491",644.8805,79.58373,96.43931
"47492",644.8938,79.54467,96.38724
"47493",644.9071,79.50805,96.33639
"47494",644.9204,79.47143,96.28439
"47495",644.9337,79.43481,96.231255
"47496",644.947,79.398186,96.17697
"47497",644.9603,79.36889,96.12887
"47498",644.97363,79.34203,96.08229
"47499",644.98694,79.31762,96.037315
"47500",645.00024,79.30053,95.9989
"47501",645.01355,79.28344,95.95995
"47502",645.02686,79.26635,95.92047
"47503",645.04016,79.24925,95.88045
"47504",645.05347,79.22972,95.837456
"47505",645.0668,79.21263,95.796295
"47506",645.0801,79.20531,95.764366
"47507",645.0934,79.2224,95.75662
"47508",645.1067,79.29809,95.808014
"47509",645.12,79.4641,95.952095
"47510",645.1333,79.7351,96.206345
"47511",645.1466,80.08911,96.55208
"47512",645.1599,80.4773,96.943054
"47513",645.1732,80.84596,97.32663
"47514",645.1865,81.13649,97.64359
"47515",645.1998,81.31716,97.85978
"47516",645.21313,81.392845,97.97662
"47517",645.22644,81.38796,98.01527
"47518",645.23975,81.33425,98.00493
"47519",645.25305,81.253685,97.96606
"47520",645.26636,81.16823,97.91978
"47521",645.27966,81.08522,97.873276
"47522",645.29297,81.007095,97.82906
"47523",645.3063,80.92409,97.77753
"47524",645.3196,80.831314,97.71363
"47525",645.3329,80.71656,97.624855
"47526",645.3462,80.57984,97.51053
"47527",645.3595,80.41871,97.367516
"47528",645.3728,80.2478,97.209694
"47529",645.3861,80.08179,97.05142
"47530",645.3994,79.9353,96.90749
"47531",645.4127,79.823,96.79317
"47532",645.426,79.744865,96.7095
"47533",645.43933,79.70092,96.657585
"47534",645.45264,79.67895,96.62627
"47535",645.46594,79.66674,96.60403
"47536",645.47925,79.65453,96.581406
"47537",645.49255,79.64233,96.5584
"47538",645.50586,79.61791,96.52281
"47539",645.51917,79.588615,96.481575
"47540",645.5325,79.55688,96.43698
"47541",645.5458,79.517815,96.38407
"47542",645.5591,79.47631,96.3275
"47543",645.5724,79.43725,96.27207
"47544",645.5857,79.398186,96.21542
"47545",645.599,79.361565,96.159996
"47546",645.6123,79.32494,96.103424
"47547",645.6256,79.29565,96.05303
"47548",645.6389,79.273674,96.00905
"47549",645.6522,79.256584,95.96926
"47550",645.6655,79.24437,95.933815
"47551",645.67883,79.22972,95.89555
"47552",645.69214,79.217514,95.859276
"47553",645.70544,79.20775,95.82506
"47554",645.71875,79.200424,95.79298
"47555",645.73206,79.19554,95.76311
"47556",645.74536,79.20531,95.747734
"47557",645.75867,79.24681,95.764404
"47558",645.772,79.3518,95.845856
"47559",645.7853,79.54711,96.02091
"47560",645.7986,79.84497,96.30462
"47561",645.8119,80.22095,96.67575
"47562",645.8252,80.618904,97.08061
"47563",645.8385,80.9778,97.45885
"47564",645.8518,81.24391,97.755516
"47565",645.8651,81.40017,97.950645
"47566",645.8784,81.45876,98.05299
"47567",645.8917,81.446556,98.08637
"47568",645.905,81.392845,98.077866
"47569",645.91833,81.32693,98.05547
"47570",645.93164,81.25124,98.021255
"47571",645.94495,81.17067,97.97978
"47572",645.95825,81.08034,97.92603
"47573",645.97156,80.98024,97.859695
"47574",645.98486,80.86061,97.7707
"47575",645.99817,80.723885,97.660866
"47576",646.0115,80.57252,97.53212
"47577",646.0248,80.4065,97.383995
"47578",646.0381,80.23071,97.22091
"47579",646.0514,80.06958,97.066986
"47580",646.0647,79.93286,96.93244
"47581",646.078,79.82056,96.81804
"47582",646.0913,79.7522,96.74407
"47583",646.1046,79.71557,96.6997
"47584",646.1179,79.70092,96.67616
"47585",646.1312,79.691154,96.65705
"47586",646.14453,79.68139,96.637634
"47587",646.15784,79.65942,96.605705
"47588",646.17114,79.62035,96.556
"47589",646.18445,79.56664,96.490425
"47590",646.19775,79.500725,96.410965
"47591",646.21106,79.43481,96.329445
"47592",646.22437,79.36645,96.24342
"47593",646.2377,79.30785,96.16503
"47594",646.251,79.26147,96.097015
"47595",646.2643,79.22728,96.03975
"47596",646.2776,79.200424,95.98875
"47597",646.2909,79.183334,95.94667
"47598",646.3042,79.17845,95.91627
"47599",646.3175,79.17357,95.88571
"47600",646.3308,79.17113,95.857445
"47601",646.3441,79.168686,95.8291
"47602",646.3574,79.166245,95.80068
"47603",646.3707,79.15648,95.76486
"47604",646.38403,79.14427,95.726295
"47605",646.39734,79.13451,95.68979
"47606",646.41064,79.12474,95.65298
"47607",646.42395,79.11986,95.62074
"47608",646.43726,79.12962,95.603004
"47609",646.45056,79.17113,95.61731
"47610",646.46387,79.27856,95.69884
"47611",646.4772,79.47875,95.87649
"47612",646.4905,79.77905,96.1605
"47613",646.5038,80.15503,96.52957
"47614",646.5171,80.55787,96.937256
"47615",646.5304,80.92409,97.32091
"47616",646.5437,81.20729,97.63299
"47617",646.557,81.375755,97.83918
"47618",646.5703,81.444115,97.95053
"47619",646.5836,81.43679,97.988335
"47620",646.5969,81.3904,97.98685
"47621",646.6102,81.32693,97.96682
"47622",646.62354,81.26345,97.94481
"47623",646.63684,81.19997,97.92081
"47624",646.65015,81.126724,97.88506
"47625",646.66345,81.03639,97.82994
"47626",646.67676,80.921646,97.74758
"47627",646.69006,80.77516,97.6299
"47628",646.70337,80.59937,97.47833
"47629",646.7167,80.4065,97.30419
"47630",646.73,80.21362,97.124016
"47631",646.7433,80.0354,96.95247
"47632",646.7566,79.888916,96.80709
"47633",646.7699,79.781494,96.6962
"47634",646.7832,79.71557,96.62344
"47635",646.7965,79.68139,96.580376
"47636",646.8098,79.6643,96.55333
"47637",646.8231,79.65453,96.53307
"47638",646.8364,79.64233,96.51007
"47639",646.84973,79.61791,96.47448
"47640",646.86304,79.58373,96.42836
"47641",646.87634,79.537346,96.368965
"47642",646.88965,79.483635,96.3008
"47643",646.90295,79.429924,96.23095
"47644",646.91626,79.37377,96.15698
"47645",646.92957,79.32494,96.088585
"47646",646.9429,79.28344,96.025986
"47647",646.9562,79.24681,95.966965
"47648",646.9695,79.21507,95.91169
"47649",646.9828,79.19066,95.86275
"47650",646.9961,79.168686,95.81548
"47651",647.0094,79.15648,95.7773
"47652",647.0227,79.14671,95.74117
"47653",647.036,79.14671,95.71451
"47654",647.0493,79.149155,95.690285
"47655",647.0626,79.15404,95.66858
"47656",647.0759,79.15892,95.647026
"47657",647.08923,79.168686,95.63051
"47658",647.10254,79.17601,95.611855
"47659",647.11584,79.183334,95.59343
"47660",647.12915,79.18822,95.57279
"47661",647.14246,79.1931,95.55231
"47662",647.15576,79.185776,95.51977
"47663",647.16907,79.17601,95.48456
"47664",647.1824,79.17601,95.45881
"47665",647.1957,79.217514,95.47456
"47666",647.209,79.33227,95.564865
"47667",647.2223,79.54955,95.761284
"47668",647.2356,79.87671,96.07436
"47669",647.2489,80.27711,96.47091
"47670",647.2622,80.689705,96.892166
"47671",647.2755,81.0486,97.27261
"47672",647.2888,81.307396,97.56418
"47673",647.3021,81.446556,97.744194
"47674",647.3154,81.48318,97.82602
"47675",647.32874,81.45388,97.84307
"47676",647.34204,81.40017,97.83479
"47677",647.35535,81.33669,97.81507
"47678",647.36865,81.27566,97.79581
"47679",647.38196,81.21217,97.77219
"47680",647.39526,81.13649,97.73438
"47681",647.40857,81.041275,97.67468
"47682",647.4219,80.92897,97.59492
"47683",647.4352,80.78981,97.48479
"47684",647.4485,80.62867,97.34833
"47685",647.4618,80.45045,97.18975
"47686",647.4751,80.2649,97.01828
"47687",647.4884,80.09155,96.85321
"47688",647.5017,79.94751,96.71203
"47689",647.515,79.84253,96.60541
"47690",647.5283,79.77661,96.53457
"47691",647.5416,79.742424,96.4934
"47692",647.55493,79.727776,96.4707
"47693",647.56824,79.71313,96.44755
"47694",647.58154,79.69848,96.423935
"47695",647.59485,79.67895,96.39498
"47696",647.60815,79.64721,96.35321
"47697",647.62146,79.603264,96.29824
"47698",647.63477,79.55688,96.239456
"47699",647.6481,79.51049,96.17922
"47700",647.6614,79.4641,96.11754
"47701",647.6747,79.4226,96.05929
"47702",647.688,79.38598,96.00462
"47703",647.7013,79.35424,95.9537
"47704",647.7146,79.3225,95.90178
"47705",647.7279,79.28588,95.84399
"47706",647.7412,79.25414,95.78993
"47707",647.7545,79.22972,95.7422
"47708",647.7678,79.21507,95.70348
"47709",647.7811,79.21019,95.67407
"47710",647.79443,79.21507,95.654274
"47711",647.80774,79.22972,95.644394
"47712",647.82104,79.24925,95.639854
"47713",647.83435,79.26635,95.63349
"47714",647.84766,79.28344,95.627655
"47715",647.86096,79.29565,95.61747
"47716",647.87427,79.30053,95.60034
"47717",647.8876,79.29809,95.57604
"47718",647.9009,79.28832,95.54434
"47719",647.9142,79.276115,95.509895
"47720",647.9275,79.26391,95.47507
"47721",647.9408,79.259026,95.44718
"47722",647.9541,79.26391,95.42891
"47723",647.9674,79.31274,95.454735
"47724",647.9807,79.432365,95.55289
"47725",647.994,79.65453,95.75732
"47726",648.0073,79.971924,96.06391
"47727",648.0206,80.36256,96.45367
"47728",648.03394,80.77028,96.87272
"47729",648.04724,81.1194,97.24591
"47730",648.06055,81.36111,97.5226
"47731",648.07385,81.480736,97.68476
"47732",648.08716,81.50027,97.750565
"47733",648.10046,81.449,97.74618
"47734",648.1138,81.36599,97.70845
"47735",648.1271,81.28054,97.66569
"47736",648.1404,81.19997,97.62513
"47737",648.1537,81.11696,97.57962
"47738",648.167,81.03395,97.53152
"47739",648.1803,80.938736,97.46861
"47740",648.1936,80.82643,97.38564
"47741",648.2069,80.69215,97.27718
"47742",648.2202,80.54322,97.14989
"47743",648.2335,80.38209,97.00573
"47744",648.2468,80.22339,96.85897
"47745",648.26013,80.08179,96.72435
"47746",648.27344,79.9646,96.60972
"47747",648.28674,79.88403,96.528046
"47748",648.30005,79.83032,96.47071
"47749",648.31335,79.801025,96.43611
"47750",648.32666,79.781494,96.41036
"47751",648.33997,79.76196,96.384
"47752",648.3533,79.7351,96.3497
"47753",648.3666,79.70092,96.30724
"47754",648.3799,79.66186,96.258835
"47755",648.3932,79.61791,96.20432
"47756",648.4065,79.57397,96.14844
"47757",648.4198,79.53002,96.09118
"47758",648.4331,79.48608,96.03255
"47759",648.4464,79.447014,95.977425
"47760",648.4597,79.412834,95.925964
"47761",648.473,79.38354,95.87832
"47762",648.4863,79.35668,95.8322
"47763",648.49963,79.32983,95.78524
"47764",648.51294,79.30541,95.73988
"47765",648.52625,79.28344,95.696205
"47766",648.53955,79.26879,95.659164
"47767",648.55286,79.26391,95.63143
"47768",648.56616,79.26879,95.61331
"47769",648.57947,79.273674,95.595345
"47770",648.5928,79.27856,95.57753
"47771",648.6061,79.281,95.55743
"47772",648.6194,79.281,95.53496
"47773",648.6327,79.281,95.51249
"47774",648.646,79.28344,95.49246
"47775",648.6593,79.28588,95.47251
"47776",648.6726,79.28588,95.450195
"47777",648.6859,79.28588,95.42788
"47778",648.6992,79.28832,95.408005
"47779",648.7125,79.28588,95.38332
"47780",648.7258,79.28832,95.36345
"47781",648.73914,79.310295,95.36318
"47782",648.75244,79.381096,95.41243
"47783",648.76575,79.534904,95.5469
"47784",648.77905,79.7937,95.79116
"47785",648.79236,80.14526,96.13628
"47786",648.80566,80.552986,96.54854
"47787",648.819,80.94606,96.95889
"47788",648.8323,81.253685,97.29608
"47789",648.8456,81.43679,97.518364
"47790",648.8589,81.495384,97.62186
"47791",648.8722,81.45876,97.631966
"47792",648.8855,81.36843,97.58722
"47793",648.8988,81.26101,97.52256
"47794",648.9121,81.15846,97.45942
"47795",648.9254,81.06569,97.40285
"47796",648.9387,80.98268,97.35314
"47797",648.952,80.89967,97.30084
"47798",648.96533,80.81178,97.241066
"47799",648.97864,80.709236,97.16389
"47800",648.99194,80.59205,97.06886
"47801",649.00525,80.465096,96.96041
"47802",649.01855,80.32838,96.83823
"47803",649.03186,80.19409,96.7142
"47804",649.04517,80.07202,96.5982
"47805",649.0585,79.97681,96.50523
"47806",649.0718,79.906006,96.43371
"47807",649.0851,79.86206,96.386826
"47808",649.0984,79.83276,96.35322
"47809",649.1117,79.815674,96.3309
"47810",649.125,79.798584,96.30805
"47811",649.1383,79.77661,96.279785
"47812",649.1516,79.74975,96.24594
"47813",649.1649,79.71557,96.20394
"47814",649.1782,79.674065,96.15355
"47815",649.1915,79.62768,96.09698
"47816",649.20483,79.58129,96.038956
"47817",649.21814,79.537346,95.981926
"47818",649.23145,79.49828,95.928406
"47819",649.24475,79.46899,95.88343
"47820",649.25806,79.44213,95.83998
"47821",649.27136,79.41772,95.798134
"47822",649.28467,79.3933,95.75552
"47823",649.298,79.37377,95.71703
"47824",649.3113,79.35912,95.682816
"47825",649.3246,79.344475,95.64814
"47826",649.3379,79.33471,95.61789
"47827",649.3512,79.33227,95.59466
"47828",649.3645,79.33471,95.57623
"47829",649.3778,79.33471,95.55544
"47830",649.3911,79.344475,95.54442
"47831",649.4044,79.34936,95.52882
"47832",649.4177,79.3518,95.510925
"47833",649.431,79.34936,95.48823
"47834",649.44434,79.34203,95.46057
"47835",649.45764,79.327385,95.42536
"47836",649.47095,79.31518,95.392136
"47837",649.48425,79.31274,95.36829
"47838",649.49756,79.34936,95.38344
"47839",649.51086,79.45434,95.46809
"47840",649.5242,79.65942,95.65611
"47841",649.5375,79.9646,95.95065
"47842",649.5508,80.34547,96.330414
"47843",649.5641,80.73853,96.734276
"47844",649.5774,81.08278,97.1016
"47845",649.5907,81.3196,97.37226
"47846",649.604,81.43435,97.528244
"47847",649.6173,81.43923,97.57795
"47848",649.6306,81.36599,97.54968
"47849",649.6439,81.25613,97.482506
"47850",649.6572,81.13893,97.404564
"47851",649.67053,81.024185,97.32541
"47852",649.68384,80.92653,97.25976
"47853",649.69714,80.83864,97.20082
"47854",649.71045,80.75563,97.14402
"47855",649.72375,80.66285,97.07485
"47856",649.73706,80.55787,96.990585
"47857",649.75037,80.44312,96.89327
"47858",649.7637,80.323494,96.78749
"47859",649.777,80.2063,96.680405
"47860",649.7903,80.10864,96.589195
"47861",649.8036,80.03052,96.514465
"47862",649.8169,79.97681,96.46171
"47863",649.8302,79.94263,96.4268
"47864",649.8435,79.92798,96.41036
"47865",649.8568,79.920654,96.40079
"47866",649.8701,79.91333,96.39098
"47867",649.8834,79.903564,96.37851
"47868",649.8967,79.88403,96.355965
"47869",649.91003,79.85474,96.323044
"47870",649.92334,79.81079,96.27456
"47871",649.93665,79.75952,96.21738
"47872",649.94995,79.69848,96.14882
"47873",649.96326,79.639885,96.0808
"47874",649.97656,79.58373,96.0134
"47875",649.98987,79.537346,95.954
"47876",650.0032,79.500725,95.90292
"47877",650.0165,79.47387,95.860466
"47878",650.0298,79.4519,95.82205
"47879",650.0431,79.43481,95.787834
"47880",650.0564,79.42504,95.76041
"47881",650.0697,79.41772,95.735115
"47882",650.083,79.41772,95.71692
"47883",650.0963,79.42016,95.701164
"47884",650.1096,79.429924,95.69281
"47885",650.1229,79.43725,95.68232
"47886",650.1362,79.447014,95.6745
"47887",650.14954,79.4519,95.6621
"47888",650.16284,79.4519,95.64497
"47889",650.17615,79.447014,95.62296
"47890",650.18945,79.447014,95.60568
"47891",650.20276,79.466545,95.60793
"47892",650.21606,79.53979,95.664505
"47893",650.2294,79.70092,95.81126
"47894",650.2427,79.96216,96.06315
"47895",650.256,80.30396,96.40377
"47896",650.2693,80.68726,96.79657
"47897",650.2826,81.041275,97.17206
"47898",650.2959,81.307396,97.47072
"47899",650.3092,81.45632,97.6605
"47900",650.3225,81.48562,97.735306
"47901",650.3358,81.427025,97.72314
"47902",650.3491,81.31716,97.65787
"47903",650.3624,81.1902,97.57207
"47904",650.37573,81.07301,97.49207
"47905",650.38904,80.96803,97.42062
"47906",650.40234,80.88014,97.36298
"47907",650.41565,80.797134,97.30748
"47908",650.42896,80.709236,97.24449
"47909",650.44226,80.6067,97.164116
"47910",650.45557,80.48951,97.06589
"47911",650.4689,80.36256,96.95423
"47912",650.4822,80.23071,96.83372
"47913",650.4955,80.111084,96.7213
"47914",650.5088,80.01099,96.62467
"47915",650.5221,79.937744,96.55177
"47916",650.5354,79.886475,96.49856
"47917",650.5487,79.85474,96.46327
"47918",650.562,79.83276,96.43676
"47919",650.5753,79.81323,96.412
"47920",650.5886,79.78882,96.38175
"47921",650.6019,79.76196,96.3483
"47922",650.61523,79.725334,96.30423
"47923",650.62854,79.68383,96.25414
"47924",650.64185,79.63256,96.19299
"47925",650.65515,79.57885,96.1278
"47926",650.66846,79.52758,96.06337
"47927",650.68176,79.47387,95.994896
"47928",650.69507,79.42748,95.93207
"47929",650.7084,79.38598,95.87267
"47930",650.7217,79.34692,95.81442
"47931",650.735,79.310295,95.75739
"47932",650.7483,79.28588,95.711426
"47933",650.7616,79.27123,95.67446
"47934",650.7749,79.26635,95.646805
"47935",650.7882,79.26635,95.62388
"47936",650.8015,79.26635,95.60095
"47937",650.8148,79.26635,95.578026
"47938",650.8281,79.259026,95.547775
"47939",650.84143,79.24925,95.51485
"47940",650.85474,79.24437,95.4865
"47941",650.86804,79.24437,95.46289
"47942",650.88135,79.2517,95.44661
"47943",650.89465,79.28588,95.457405
"47944",650.90796,79.37133,95.52054
"47945",650.92126,79.54223,95.67179
"47946",650.9346,79.81323,95.92849
"47947",650.9479,80.16724,96.27666
"47948",650.9612,80.56275,96.6774
"47949",650.9745,80.93385,97.066086
"47950",650.9878,81.2195,97.38091
"47951",651.0011,81.38552,97.585045
"47952",651.0144,81.43923,97.68205
"47953",651.0277,81.40017,97.687965
"47954",651.041,81.307396,97.63895
"47955",651.0543,81.197525,97.56993
"47956",651.0676,81.08522,97.49505
"47957",651.08093,80.98512,97.42886
"47958",651.09424,80.89723,97.37176
"47959",651.10754,80.814224,97.31679
"47960",651.12085,80.72877,97.256775
"47961",651.13416,80.63355,97.18433
"47962",651.14746,80.51881,97.089386
"47963",651.16077,80.394295,96.98109
"47964",651.1741,80.26246,96.86157
"47965",651.1874,80.13306,96.74037
"47966",651.2007,80.02319,96.63467
"47967",651.214,79.93042,96.54262
"47968",651.2273,79.86206,96.472084
"47969",651.2406,79.815674,96.42139
"47970",651.2539,79.783936,96.38389
"47971",651.2672,79.75464,96.34784
"47972",651.2805,79.725334,96.31087
"47973",651.2938,79.693596,96.270546
"47974",651.3071,79.65453,96.22191
"47975",651.32043,79.60815,96.16473
"47976",651.33374,79.56176,96.106094
"47977",651.34705,79.517815,96.048454
"47978",651.36035,79.47387,95.98944
"47979",651.37366,79.43725,95.93638
"47980",651.38696,79.40551,95.887054
"47981",651.40027,79.378654,95.84162
"47982",651.4136,79.35424,95.79779
"47983",651.4269,79.33227,95.75564
"47984",651.4402,79.30785,95.71036
"47985",651.4535,79.28832,95.6692
"47986",651.4668,79.27123,95.62987
"47987",651.4801,79.26391,95.59977
"47988",651.4934,79.26635,95.57921
"47989",651.5067,79.26879,95.55872
"47990",651.52,79.273674,95.54076
"47991",651.5333,79.27123,95.51562
"47992",651.54663,79.26391,95.48552
"47993",651.55994,79.25414,95.45275
"47994",651.57324,79.24437,95.41967
"47995",651.58655,79.24925,95.40094
"47996",651.59985,79.29809,95.426315
"47997",651.61316,79.41772,95.52401
"47998",651.62646,79.63744,95.72554
"47999",651.6398,79.957275,96.03404
"48000",651.6531,80.343025,96.41846
"48001",651.6664,80.73853,96.824684
"48002",651.6797,81.07301,97.18224
"48003",651.693,81.304955,97.447716
"48004",651.7063,81.41726,97.6008
"48005",651.7196,81.43191,97.65974
"48006",651.7329,81.38064,97.65321
"48007",651.7462,81.30251,97.61823
"48008",651.7595,81.21706,97.57348
"48009",651.7728,81.13161,97.52606
"48010",651.78613,81.0486,97.47842
"48011",651.79944,80.96315,97.425735
"48012",651.81274,80.87038,97.36306
"48013",651.82605,80.77028,97.29016
"48014",651.83936,80.655525,97.19948
"48015",651.85266,80.52857,97.09301
"48016",651.86597,80.38941,96.97037
"48017",651.8793,80.2478,96.84093
"48018",651.8926,80.111084,96.71195
"48019",651.9059,79.991455,96.595795
"48020",651.9192,79.90112,96.505196
"48021",651.9325,79.83032,96.431305
"48022",651.9458,79.77905,96.37473
"48023",651.9591,79.742424,96.3312
"48024",651.9724,79.710686,96.29141
"48025",651.9857,79.68139,96.253075
"48026",651.999,79.65209,96.21382
"48027",652.0123,79.62035,96.17121
"48028",652.02563,79.586174,96.12517
"48029",652.03894,79.551994,96.07806
"48030",652.05225,79.51049,96.02255
"48031",652.06555,79.47143,95.96819
"48032",652.07886,79.432365,95.91261
"48033",652.09216,79.40307,95.86558
"48034",652.10547,79.37621,95.82007
"48035",652.1188,79.35668,95.781044
"48036",652.1321,79.34203,95.74629
"48037",652.1454,79.33227,95.715965
"48038",652.1587,79.32006,95.68289
"48039",652.172,79.31274,95.65432
"48040",652.1853,79.310295,95.6304
"48041",652.1986,79.31274,95.61129
"48042",652.2119,79.31274,95.58981
"48043",652.2252,79.31762,95.57322
"48044",652.2385,79.31762,95.551895
"48045",652.25183,79.31518,95.52813
"48046",652.26514,79.30785,95.499405
"48047",652.27844,79.29809,95.46801
"48048",652.29175,79.30541,95.4534
"48049",652.30505,79.35424,95.48052
"48050",652.31836,79.47631,95.58241
"48051",652.33167,79.69848,95.788216
"48052",652.345,80.02075,96.10107
"48053",652.3583,80.4065,96.487465
"48054",652.3716,80.80202,96.89568
"48055",652.3849,81.13893,97.25766
"48056",652.3982,81.3782,97.53252
"48057",652.4115,81.497826,97.69521
"48058",652.4248,81.52224,97.76643
"48059",652.4381,81.47341,97.765175
"48060",652.4514,81.392845,97.73065
"48061",652.4647,81.29763,97.67896
"48062",652.478,81.20485,97.62673
"48063",652.49133,81.12184,97.581375
"48064",652.50464,81.041275,97.535866
"48065",652.51794,80.96071,97.48784
"48066",652.53125,80.867935,97.42509
"48067",652.54456,80.75563,97.339905
"48068",652.55786,80.61646,97.22435
"48069",652.57117,80.462654,97.089806
"48070",652.5845,80.30396,96.94557
"48071",652.5978,80.15747,96.80858
"48072",652.6111,80.03784,96.69387
"48073",652.6244,79.94751,96.60472
"48074",652.6377,79.88159,96.53716
"48075",652.651,79.84009,96.49196
"48076",652.6643,79.81079,96.457664
"48077",652.6776,79.78638,96.42734
"48078",652.6909,79.766846,96.40113
"48079",652.7042,79.744865,96.371864
"48080",652.7175,79.71313,96.33215
"48081",652.73083,79.674065,96.28413
"48082",652.74414,79.62524,96.22511
"48083",652.75745,79.571526,96.15969
"48084",652.77075,79.51537,96.09015
"48085",652.78406,79.466545,96.02618
"48086",652.79736,79.42016,95.96312
"48087",652.81067,79.38354,95.90838
"48088",652.824,79.35424,95.85982
"48089",652.8373,79.33227,95.817665
"48090",652.8506,79.3225,95.78703
"48091",652.8639,79.31518,95.75854
"48092",652.8772,79.310295,95.732254
"48093",652.8905,79.30785,95.70826
"48094",652.9038,79.30541,95.68419
"48095",652.9171,79.30053,95.6576
"48096",652.9304,79.29565,95.63086
"48097",652.9437,79.293205,95.60641
"48098",652.95703,79.29565,95.58676
"48099",652.97034,79.29809,95.56719
"48100",652.98364,79.29809,95.54526
"48101",652.99695,79.29565,95.52088
"48102",653.01025,79.29809,95.50131
"48103",653.02356,79.3225,95.50379
"48104",653.03687,79.41039,95.57051
"48105",653.0502,79.59838,95.740074
"48106",653.0635,79.888916,96.01806
"48107",653.0768,80.26002,96.38569
"48108",653.0901,80.66285,96.796646
"48109",653.1034,81.02907,97.18358
"48110",653.1167,81.29519,97.48186
"48111",653.13,81.444115,97.67126
"48112",653.1433,81.480736,97.753006
"48113",653.1566,81.43923,97.757774
"48114",653.1699,81.35378,97.7173
"48115",653.1832,81.253685,97.65951
"48116",653.19653,81.160904,97.6059
"48117",653.20984,81.077896,97.55917
"48118",653.22314,81.00221,97.51717
"48119",653.23645,80.92409,97.47037
"48120",653.24976,80.83864,97.413795
"48121",653.26306,80.73365,97.335014
"48122",653.27637,80.601814,97.226105
"48123",653.2897,80.45533,97.09843
"48124",653.303,80.30396,96.96129
"48125",653.3163,80.15503,96.82185
"48126",653.3296,80.028076,96.699745
"48127",653.3429,79.93286,96.60541
"48128",653.3562,79.869385,96.53983
"48129",653.3695,79.83276,96.49913
"48130",653.3828,79.80835,96.46949
"48131",653.3961,79.79126,96.44641
"48132",653.4094,79.77173,96.42036
"48133",653.4227,79.74975,96.39124
"48134",653.43604,79.71801,96.351685
"48135",653.44934,79.68139,96.30625
"48136",653.46265,79.639885,96.25479
"48137",653.47595,79.5935,96.19715
"48138",653.48926,79.54223,96.13318
"48139",653.50256,79.49584,96.07249
"48140",653.51587,79.45434,96.01523
"48141",653.5292,79.41772,95.961555
"48142",653.5425,79.39086,95.916504
"48143",653.5558,79.36645,95.873055
"48144",653.5691,79.34936,95.83617
"48145",653.5824,79.33959,95.80607
"48146",653.5957,79.33715,95.78299
"48147",653.609,79.33959,95.76472
"48148",653.6223,79.34203,95.74652
"48149",653.6356,79.34203,95.72596
"48150",653.6489,79.33959,95.70296
"48151",653.66223,79.33227,95.674995
"48152",653.67554,79.32494,95.646805
"48153",653.68884,79.31518,95.615944
"48154",653.70215,79.30297,95.58234
"48155",653.71545,79.28832,95.545906
"48156",653.72876,79.273674,95.50902
"48157",653.74207,79.273674,95.48632
"48158",653.7554,79.30541,95.49536
"48159",653.7687,79.40307,95.57131
"48160",653.782,79.5935,95.74309
"48161",653.7953,79.88159,96.01848
"48162",653.8086,80.24292,96.37611
"48163",653.8219,80.63111,96.77189
"48164",653.8352,80.98512,97.14562
"48165",653.8485,81.248795,97.44008
"48166",653.8618,81.39773,97.62804
"48167",653.8751,81.44167,97.71566
"48168",653.8884,81.40505,97.72409
