"","Time..s.","PPG.trace","Preprocessed.PPG"
"55531",739.42615,80.147705,110.02658
"55532",739.4396,80.045166,109.92866
"55533",739.453,80.02075,109.905655
"55534",739.46643,80.059814,109.945366
"55535",739.47986,80.1355,110.02292
"55536",739.4933,80.22095,110.1126
"55537",739.5067,80.289314,110.187874
"55538",739.52014,80.32105,110.22865
"55539",739.53357,80.29664,110.21427
"55540",739.547,80.21118,110.138084
"55541",739.5604,80.06958,110.00308
"55542",739.57385,79.87427,109.809944
"55543",739.5873,79.63744,109.56919
"55544",739.6007,79.37377,109.29419
"55545",739.61414,79.10521,109.00606
"55546",739.62756,78.84642,108.71931
"55547",739.641,78.607155,108.44399
"55548",739.6544,78.38987,108.18318
"55549",739.66785,78.19455,107.937546
"55550",739.6813,78.02365,107.71023
"55551",739.6947,77.872284,107.4971
"55552",739.7081,77.73556,107.293884
"55553",739.72156,77.62325,107.11082
"55554",739.735,77.540245,106.95354
"55555",739.7484,77.486534,106.82296
"55556",739.76184,77.454796,106.71268
"55557",739.77527,77.44259,106.62093
"55558",739.7887,77.44503,106.54346
"55559",739.8021,77.45724,106.47582
"55560",739.81555,77.469444,106.40857
"55561",739.829,77.48409,106.34414
"55562",739.8424,77.49142,106.27284
"55563",739.85583,77.50118,106.204216
"55564",739.86926,77.52804,106.152985
"55565",739.8827,77.628136,106.175835
"55566",739.8961,77.874725,106.348305
"55567",739.90955,78.3386,106.745766
"55568",739.923,79.04906,107.404305
"55569",739.9364,79.97925,108.30478
"55570",739.9498,81.04616,109.37104
"55571",739.96326,82.12283,110.48041
"55572",739.9767,83.072556,111.49647
"55573",739.9901,83.807434,112.32736
"55574",740.00354,84.27131,112.91022
"55575",740.01697,84.456856,113.22924
"55576",740.0304,84.39094,113.3026
"55577",740.0438,84.12726,113.17613
"55578",740.05725,83.73174,112.90959
"55579",740.0707,83.26055,112.555016
"55580",740.0841,82.76738,112.163734
"55581",740.09753,82.286415,111.76925
"55582",740.11096,81.832306,111.38659
"55583",740.1244,81.41726,111.0288
"55584",740.1378,81.03639,110.69222
"55585",740.15125,80.69947,110.38769
"55586",740.1647,80.42359,110.13367
"55587",740.1781,80.22583,109.94914
"55588",740.1915,80.12085,109.85122
"55589",740.20496,80.111084,109.84523
"55590",740.2184,80.17944,109.91706
"55591",740.2318,80.306404,110.04963
"55592",740.24524,80.45533,110.20813
"55593",740.25867,80.59693,110.36396
"55594",740.2721,80.70435,110.490036
"55595",740.2855,80.75075,110.55844
"55596",740.29895,80.723885,110.55504
"55597",740.3124,80.62867,110.482445
"55598",740.3258,80.465096,110.33852
"55599",740.33923,80.2478,110.13576
"55600",740.35266,79.99878,109.89448
"55601",740.3661,79.73022,109.62588
"55602",740.3795,79.4519,109.33913
"55603",740.39294,79.17845,109.04855
"55604",740.4064,78.91966,108.76409
"55605",740.4198,78.67307,108.48374
"55606",740.4332,78.44846,108.21767
"55607",740.44666,78.25071,107.97143
"55608",740.4601,78.08469,107.75074
"55609",740.4735,77.943085,107.549286
"55610",740.48694,77.83322,107.375145
"55611",740.50037,77.7551,107.22931
"55612",740.5138,77.7087,107.11276
"55613",740.5272,77.68429,107.01675
"55614",740.54065,77.68429,106.94438
"55615",740.5541,77.70138,106.88911
"55616",740.5675,77.730675,106.84657
"55617",740.58093,77.7673,106.81229
"55618",740.59436,77.806366,106.78158
"55619",740.6078,77.84299,106.74965
"55620",740.6212,77.874725,106.71398
"55621",740.63464,77.908905,106.68175
"55622",740.6481,77.97238,106.67988
"55623",740.6615,78.12863,106.772766
"55624",740.6749,78.45579,107.04144
"55625",740.68835,79.012436,107.549835
"55626",740.7018,79.80347,108.310005
"55627",740.7152,80.782486,109.28288
"55628",740.72864,81.85428,110.37913
"55629",740.74207,82.88457,111.46736
"55630",740.7555,83.74883,112.42177
"55631",740.7689,84.37629,113.166374
"55632",740.78235,84.73029,113.657135
"55633",740.7958,84.81087,113.88553
"55634",740.8092,84.64973,113.874725
"55635",740.82263,84.31037,113.68067
"55636",740.83606,83.84894,113.353935
"55637",740.8495,83.32403,112.9493
"55638",740.8629,82.78935,112.5185
"55639",740.87634,82.269325,112.08564
"55640",740.8898,81.78104,111.66827
"55641",740.9032,81.33181,111.2747
"55642",740.9166,80.93141,110.91592
"55643",740.93005,80.59449,110.6081
"55644",740.9435,80.33814,110.37033
"55645",740.9569,80.177,110.21976
"55646",740.97034,80.12329,110.17158
"55647",740.98376,80.164795,110.216934
"55648",740.9972,80.28443,110.34172
"55649",741.0106,80.45045,110.516624
"55650",741.02405,80.621346,110.7016
"55651",741.0375,80.77028,110.86995
"55652",741.0509,80.87038,110.99412
"55653",741.06433,80.902115,111.053055
"55654",741.07776,80.86061,111.03974
"55655",741.0912,80.75075,110.95677
"55656",741.1046,80.57984,110.809326
"55657",741.11804,80.360115,110.60772
"55658",741.1315,80.11597,110.374825
"55659",741.1449,79.852295,110.11478
"55660",741.1583,79.588615,109.84648
"55661",741.17175,79.327385,109.572395
"55662",741.1852,79.080795,109.30479
"55663",741.1986,78.8513,109.04657
"55664",741.21204,78.643776,108.80315
"55665",741.22546,78.46555,108.58254
"55666",741.2389,78.311745,108.38078
"55667",741.2523,78.18234,108.19862
"55668",741.26575,78.07736,108.03684
"55669",741.2792,77.99924,107.898636
"55670",741.2926,77.94064,107.77752
"55671",741.306,77.91135,107.68387
"55672",741.31946,77.90402,107.611275
"55673",741.3329,77.91135,107.5531
"55674",741.3463,77.93088,107.50736
"55675",741.35974,77.95285,107.464676
"55676",741.37317,77.9675,107.41535
"55677",741.3866,77.98215,107.366486
"55678",741.4,77.996796,107.31808
"55679",741.41345,78.03586,107.29454
"55680",741.4269,78.16281,107.360115
"55681",741.4403,78.450905,107.5908
"55682",741.45374,78.95628,108.04777
"55683",741.46716,79.70336,108.76223
"55684",741.4806,80.66285,109.71245
"55685",741.494,81.74197,110.81228
"55686",741.50745,82.82109,111.94584
"55687",741.5209,83.775696,112.9886
"55688",741.5343,84.51545,113.846344
"55689",741.5477,84.98909,114.46109
"55690",741.56116,85.189285,114.81719
"55691",741.5746,85.138016,114.928085
"55692",741.588,84.874344,114.824974
"55693",741.60144,84.454414,114.557365
"55694",741.61487,83.93927,114.18142
"55695",741.6283,83.38262,113.74787
"55696",741.6417,82.82597,113.29693
"55697",741.65515,82.2913,112.85056
"55698",741.6686,81.795685,112.42655
"55699",741.682,81.358665,112.04565
"55700",741.69543,80.98512,111.71456
"55701",741.70886,80.689705,111.44993
"55702",741.7223,80.49683,111.27861
"55703",741.7357,80.41627,111.21357
"55704",741.74915,80.44068,111.25099
"55705",741.7626,80.5481,111.372185
"55706",741.776,80.709236,111.550446
"55707",741.7894,80.88747,111.75084
"55708",741.80286,81.0486,111.939705
"55709",741.8163,81.15846,112.08234
"55710",741.8297,81.20729,112.167366
"55711",741.84314,81.18532,112.18312
"55712",741.85657,81.0901,112.12495
"55713",741.87,80.92409,111.993
"55714",741.8834,80.706795,111.80458
"55715",741.89685,80.45045,111.57032
"55716",741.9103,80.16724,111.301186
"55717",741.9237,79.871826,111.011
"55718",741.93713,79.57885,110.71402
"55719",741.95056,79.293205,110.415215
"55720",741.964,79.027084,110.12701
"55721",741.9774,78.785385,109.854904
"55722",741.99084,78.56809,109.599655
"55723",742.0043,78.380104,109.36692
"55724",742.0177,78.22385,109.16004
"55725",742.0311,78.09689,108.977585
"55726",742.04456,77.99924,108.82046
"55727",742.058,77.92844,108.68713
"55728",742.0714,77.87717,108.57113
"55729",742.08484,77.84299,108.47061
"55730",742.09827,77.8259,108.386116
"55731",742.1117,77.81857,108.31085
"55732",742.1251,77.81613,108.24024
"55733",742.13855,77.81613,108.172
"55734",742.152,77.81857,108.10619
"55735",742.1654,77.855194,108.074646
"55736",742.17883,77.98703,108.13946
"55737",742.19226,78.294655,108.38418
"55738",742.2057,78.839096,108.87533
"55739",742.2191,79.64233,109.64228
"55740",742.23254,80.65797,110.64674
"55741",742.246,81.795685,111.80502
"55742",742.2594,82.92363,112.98908
"55743",742.2728,83.9173,114.07411
"55744",742.28625,84.69123,114.97046
"55745",742.2997,85.19661,115.62244
"55746",742.3131,85.42123,116.009445
"55747",742.32654,85.37972,116.13735
"55748",742.33997,85.118484,116.04423
"55749",742.3534,84.69123,115.776924
"55750",742.3668,84.15167,115.383965
"55751",742.38025,83.5584,114.92043
"55752",742.3937,82.950485,114.42371
"55753",742.4071,82.354774,113.920204
"55754",742.42053,81.78836,113.427376
"55755",742.43396,81.270775,112.965675
"55756",742.4474,80.816666,112.55128
"55757",742.4608,80.448006,112.20814
"55758",742.47424,80.184326,111.95846
"55759",742.4877,80.04761,111.8275
"55760",742.5011,80.03296,111.81434
"55761",742.5145,80.11841,111.90082
"55762",742.52795,80.27711,112.06322
"55763",742.5414,80.46998,112.26475
"55764",742.5548,80.655525,112.46498
"55765",742.56824,80.80202,112.63196
"55766",742.58167,80.88014,112.735146
"55767",742.5951,80.87526,112.75777
"55768",742.6085,80.78737,112.69723
"55769",742.62195,80.618904,112.55337
"55770",742.6354,80.38453,112.33833
"55771",742.6488,80.10132,112.06714
"55772",742.66223,79.78882,111.757805
"55773",742.67566,79.45922,111.42161
"55774",742.6891,79.12718,111.07267
"55775",742.7025,78.80492,110.72313
"55776",742.71594,78.502174,110.38304
"55777",742.7294,78.221405,110.055466
"55778",742.7428,77.97238,109.75086
"55779",742.7562,77.75998,109.4751
"55780",742.76965,77.58175,109.22687
"55781",742.7831,77.435265,109.004814
"55782",742.7965,77.32052,108.80992
"55783",742.80994,77.23262,108.63829
"55784",742.82336,77.16182,108.48101
"55785",742.8368,77.10811,108.33861
"55786",742.8502,77.066605,108.20673
"55787",742.86365,77.03731,108.08577
"55788",742.8771,77.03975,107.99563
"55789",742.8905,77.117874,107.98125
"55790",742.90393,77.33761,108.110916
"55791",742.91736,77.77463,108.46474
"55792",742.9308,78.47532,109.09589
"55793",742.9442,79.43481,110.00773
"55794",742.95764,80.57496,111.13022
"55795",742.97107,81.78836,112.36159
"55796",742.9845,82.93828,113.56739
"55797",742.9979,83.90997,114.630905
"55798",743.01135,84.62531,115.46843
"55799",743.0248,85.05257,116.04022
"55800",743.0382,85.19173,116.33727
"55801",743.05164,85.0721,116.37988
"55802",743.06506,84.73762,116.2039
"55803",743.0785,84.25178,115.86611
"55804",743.0919,83.67559,115.42279
"55805",743.10535,83.053024,114.915085
"55806",743.1188,82.41825,114.37572
"55807",743.1322,81.79324,113.82628
"55808",743.1456,81.19264,113.281715
"55809",743.15906,80.638435,112.76478
"55810",743.1725,80.15503,112.30132
"55811",743.1859,79.77661,111.92775
"55812",743.19934,79.52514,111.6693
"55813",743.21277,79.412834,111.54215
"55814",743.2262,79.432365,111.543335
"55815",743.2396,79.55688,111.65011
"55816",743.25305,79.75464,111.83402
"55817",743.2665,79.97925,112.050964
"55818",743.2799,80.19165,112.26272
"55819",743.29333,80.365,112.442055
"55820",743.30676,80.46998,112.55844
"55821",743.3202,80.49683,112.59998
"55822",743.3336,80.445564,112.56424
"55823",743.34705,80.32105,112.45365
"55824",743.3605,80.1355,112.27813
"55825",743.3739,79.90112,112.04799
"55826",743.3873,79.635,111.77878
"55827",743.40076,79.35424,111.48661
"55828",743.4142,79.06859,111.18078
"55829",743.4276,78.79027,110.87335
"55830",743.44104,78.52903,110.57431
"55831",743.45447,78.28489,110.2842
"55832",743.4679,78.065155,110.01087
"55833",743.4813,77.8674,109.752655
"55834",743.49475,77.68917,109.50778
"55835",743.5082,77.53048,109.27688
"55836",743.5216,77.39132,109.06055
"55837",743.53503,77.27169,108.8594
"55838",743.54846,77.18379,108.68624
"55839",743.5619,77.152054,108.5665
"55840",743.5753,77.23506,108.56051
"55841",743.58875,77.51339,108.75243
"55842",743.6022,78.05783,109.21917
"55843",743.6156,78.89525,109.995895
"55844",743.629,80.00122,111.067345
"55845",743.64246,81.287865,112.35403
"55846",743.6559,82.61845,113.72485
"55847",743.6693,83.85626,115.044495
"55848",743.68274,84.88167,116.19041
"55849",743.69617,85.628746,117.090034
"55850",743.7096,86.06088,117.69807
"55851",743.723,86.185394,118.01198
"55852",743.73645,86.031586,118.05146
"55853",743.7499,85.65316,117.86152
"55854",743.7633,85.10872,117.49374
"55855",743.77673,84.46662,117.011284
"55856",743.79016,83.77081,116.455055
"55857",743.8036,83.06035,115.86243
"55858",743.817,82.357216,115.25493
"55859",743.83044,81.688255,114.65963
"55860",743.8439,81.07301,114.097145
"55861",743.8573,80.5359,113.59356
"55862",743.8707,80.1062,113.18061
"55863",743.88416,79.80591,112.88364
"55864",743.8976,79.639885,112.71155
"55865",743.911,79.60082,112.66123
"55866",743.92444,79.65942,112.70735
"55867",743.93787,79.783936,112.82123
"55868",743.9513,79.94507,112.97561
"55869",743.9647,80.09888,113.1277
"55870",743.97815,80.20874,113.240654
"55871",743.9916,80.26246,113.300896
"55872",744.005,80.24048,113.28712
"55873",744.01843,80.14282,113.196976
"55874",744.03186,79.97681,113.03542
"55875",744.0453,79.76196,112.819855
"55876",744.0587,79.51049,112.56094
"55877",744.07214,79.237045,112.2722
"55878",744.0856,78.95384,111.96516
"55879",744.099,78.66575,111.64437
"55880",744.1124,78.380104,111.31703
"55881",744.12585,78.10422,110.990524
"55882",744.1393,77.838104,110.66517
"55883",744.1527,77.593956,110.35346
"55884",744.16614,77.37423,110.05855
"55885",744.17957,77.17891,109.78117
"55886",744.193,77.00313,109.517235
"55887",744.2064,76.84688,109.267334
"55888",744.21985,76.715034,109.03696
"55889",744.2333,76.646675,108.865944
"55890",744.2467,76.71015,108.82463
"55891",744.26013,76.998245,109.00992
"55892",744.27356,77.591515,109.509384
"55893",744.287,78.5095,110.352104
"55894",744.3004,79.72045,111.51648
"55895",744.31384,81.112076,112.89937
"55896",744.3273,82.54276,114.36481
"55897",744.3407,83.86359,115.76509
"55898",744.3541,84.962234,116.984474
"55899",744.36755,85.75815,117.935455
"55900",744.381,86.22934,118.586586
"55901",744.3944,86.37095,118.92286
"55902",744.40784,86.21469,118.96569
"55903",744.42126,85.81918,118.76439
"55904",744.4347,85.25033,118.37738
"55905",744.4481,84.56672,117.85784
"55906",744.46155,83.82208,117.25591
"55907",744.475,83.053024,116.60629
"55908",744.4884,82.28886,115.93753
"55909",744.50183,81.54421,115.26441
"55910",744.51526,80.85329,114.62174
"55911",744.5287,80.24292,114.03804
"55912",744.5421,79.74975,113.55246
"55913",744.55554,79.3933,113.188194
"55914",744.569,79.185776,112.96171
"55915",744.5824,79.11742,112.867905
"55916",744.5958,79.1638,112.88671
"55917",744.60925,79.28832,112.9851
"55918",744.6227,79.447014,113.12155
"55919",744.6361,79.60082,113.25808
"55920",744.64954,79.71801,113.36279
"55921",744.66296,79.77417,113.41014
"55922",744.6764,79.75464,113.38355
"55923",744.6898,79.65942,113.28066
"55924",744.70325,79.49584,113.106445
"55925",744.7167,79.27856,112.873405
"55926",744.7301,79.01488,112.58718
"55927",744.7435,78.71946,112.26098
"55928",744.75696,78.40452,111.90602
"55929",744.7704,78.08713,111.53877
"55930",744.7838,77.77463,111.1665
"55931",744.79724,77.471886,110.79421
"55932",744.81067,77.188675,110.432
"55933",744.8241,76.927444,110.08292
"55934",744.8375,76.69062,109.75008
"55935",744.85095,76.47822,109.43426
"55936",744.8644,76.29023,109.136215
"55937",744.8778,76.13153,108.86159
"55938",744.89124,76.00946,108.61863
"55939",744.90466,75.982605,108.46707
"55940",744.9181,76.1413,108.50022
"55941",744.9315,76.578316,108.81666
"55942",744.94495,77.36202,109.49344
"55943",744.9584,78.49729,110.54627
"55944",744.9718,79.91577,111.91779
"55945",744.9852,81.480736,113.480125
"55946",744.99866,83.02617,115.07183
"55947",745.0121,84.39826,116.53849
"55948",745.0255,85.49203,117.7697
"55949",745.03894,86.236664,118.68596
"55950",745.05237,86.61753,119.26172
"55951",745.0658,86.65659,119.507576
"55952",745.0792,86.40513,119.46413
"55953",745.09265,85.92172,119.18088
"55954",745.1061,85.2723,118.71651
"55955",745.1195,84.52033,118.129295
"55956",745.13293,83.70733,117.45755
"55957",745.14636,82.87236,116.738434
"55958",745.1598,82.04715,116.00298
"55959",745.1732,81.253685,115.27349
"55960",745.18665,80.52369,114.58267
"55961",745.2001,79.90112,113.97647
"55962",745.2135,79.40795,113.48021
"55963",745.2269,79.07347,113.12723
"55964",745.24036,78.89525,112.92005
"55965",745.2538,78.86107,112.85135
"55966",745.2672,78.92943,112.88412
"55967",745.28064,79.06615,112.98738
"55968",745.29407,79.2224,113.11445
"55969",745.3075,79.364006,113.23176
"55970",745.3209,79.4641,113.31198
"55971",745.33435,79.500725,113.331856
"55972",745.3478,79.45922,113.27475
"55973",745.3612,79.33959,113.13822
"55974",745.37463,79.151596,112.92959
"55975",745.38806,78.89769,112.64917
"55976",745.4015,78.59739,112.31442
"55977",745.4149,78.26536,111.93856
"55978",745.42834,77.92844,111.54743
"55979",745.4418,77.58907,111.14333
"55980",745.4552,77.26681,110.74573
"55981",745.4686,76.96895,110.36246
"55982",745.48206,76.69306,109.99185
"55983",745.4955,76.43427,109.62972
"55984",745.5089,76.19989,109.28391
"55985",745.52234,75.982605,108.947876
"55986",745.53577,75.79462,108.634346
"55987",745.5492,75.63592,108.34423
"55988",745.5626,75.53094,108.102875
"55989",745.57605,75.528496,107.96078
"55990",745.5895,75.72137,108.013916
"55991",745.6029,76.2121,108.37094
"55992",745.61633,77.069046,109.10952
"55993",745.62976,78.30442,110.2533
"55994",745.6432,79.84741,111.74331
"55995",745.6566,81.5613,113.45243
"55996",745.67004,83.26055,115.20047
"55997",745.6835,84.77669,116.8185
"55998",745.6969,85.9852,118.17628
"55999",745.7103,86.81529,119.193405
"56000",745.72375,87.24986,119.84095
"56001",745.7372,87.308464,120.12611
"56002",745.7506,87.04967,120.0957
"56003",745.76404,86.54673,119.813065
"56004",745.77747,85.86801,119.33893
"56005",745.7909,85.07454,118.72883
"56006",745.8043,84.21759,118.03046
"56007",745.81775,83.33868,117.28334
"56008",745.8312,82.46708,116.516075
"56009",745.8446,81.6321,115.758194
"56010",745.85803,80.867935,115.04503
"56011",745.87146,80.21362,114.41784
"56012",745.8849,79.69604,113.90693
"56013",745.8983,79.34203,113.54343
"56014",745.91174,79.151596,113.33243
"56015",745.9252,79.11253,113.26685
"56016",745.9386,79.185776,113.31236
"56017",745.952,79.33227,113.43341
"56018",745.96545,79.50561,113.585884
"56019",745.9789,79.65942,113.72424
"56020",745.9923,79.75708,113.811264
"56021",746.00574,79.783936,113.83053
"56022",746.01917,79.725334,113.765175
"56023",746.0326,79.58129,113.61255
"56024",746.046,79.35912,113.3773
"56025",746.05945,79.080795,113.07894
"56026",746.0729,78.76341,112.732834
"56027",746.0863,78.41917,112.349945
"56028",746.09973,78.06027,111.94165
"56029",746.11316,77.70138,111.52214
"56030",746.1266,77.349815,111.09875
"56031",746.14,77.01778,110.68389
"56032",746.15344,76.70771,110.28063
"56033",746.1669,76.42939,109.89943
"56034",746.1803,76.17792,109.53638
"56035",746.1937,75.95575,109.19477
"56036",746.20715,75.75311,108.86575
"56037",746.2206,75.577324,108.55725
"56038",746.234,75.45037,108.29209
"56039",746.24744,75.42596,108.1255
"56040",746.26086,75.59441,108.151024
"56041",746.2743,76.053406,108.47234
"56042",746.2877,76.8835,109.17911
"56043",746.30115,78.09201,110.29023
"56044",746.3146,79.61303,111.751625
"56045",746.328,81.30007,113.426575
"56046",746.34143,82.9749,115.14203
"56047",746.35486,84.46662,116.726715
"56048",746.3683,85.65072,118.05039
"56049",746.3817,86.46128,119.03754
"56050",746.39514,86.87633,119.654495
"56051",746.40857,86.92027,119.91332
"56052",746.422,86.64683,119.85613
"56053",746.4354,86.13168,119.5487
"56054",746.44885,85.4432,119.05183
"56055",746.4623,84.644844,118.42357
"56056",746.4757,83.79523,117.7191
"56057",746.48914,82.92363,116.9661
"56058",746.50256,82.056915,116.19075
"56059",746.516,81.22194,115.42005
"56060",746.5294,80.46021,114.69651
"56061",746.54285,79.80347,114.054146
"56062",746.5563,79.28832,113.53286
"56063",746.5697,78.93675,113.15905
"56064",746.5831,78.751205,112.94028
"56065",746.59656,78.70725,112.8573
"56066",746.61,78.765854,112.8755
"56067",746.6234,78.887924,112.95901
"56068",746.63684,79.03197,113.0683
"56069",746.65027,79.149155,113.155235
"56070",746.6637,79.21263,113.19212
"56071",746.6771,79.202866,113.15775
"56072",746.69055,79.11009,113.04007
"56073",746.704,78.93187,112.83404
"56074",746.7174,78.68528,112.55407
"56075",746.73083,78.382545,112.21025
"56076",746.74426,78.04318,111.82034
"56077",746.7577,77.68185,111.39786
"56078",746.7711,77.315636,110.959206
"56079",746.78455,76.961624,110.52131
"56080",746.798,76.6247,110.08944
"56081",746.8114,76.317085,109.676346
"56082",746.8248,76.0412,109.28537
"56083",746.83826,75.79706,108.91752
"56084",746.8517,75.57488,108.564
"56085",746.8651,75.38445,108.23529
"56086",746.87854,75.21599,107.92259
"56087",746.89197,75.07683,107.633934
"56088",746.9054,74.97917,107.38243
"56089",746.9188,74.969406,107.21577
"56090",746.93225,75.12077,107.20993
"56091",746.9457,75.53094,107.46762
"56092",746.9591,76.265816,108.06284
"56093",746.97253,77.330284,109.01062
"56094",746.98596,78.675514,110.27242
"56095",746.9994,80.164795,111.720314
"56096",747.0128,81.62966,113.19033
"56097",747.02625,82.92607,114.53767
"56098",747.0397,83.93683,115.63986
"56099",747.0531,84.60822,116.43428
"56100",747.0665,84.92073,116.89079
"56101",747.07996,84.9012,117.02503
"56102",747.0934,84.6009,116.87789
"56103",747.1068,84.09552,116.51629
"56104",747.12024,83.45098,115.99973
"56105",747.13367,82.72587,115.38246
"56106",747.1471,81.95926,114.701035
"56107",747.1605,81.18532,113.98832
"56108",747.17395,80.42115,113.26119
"56109",747.1874,79.69848,112.55168
"56110",747.2008,79.044174,111.887955
"56111",747.21423,78.49973,111.313644
"56112",747.22766,78.09201,110.85904
"56113",747.2411,77.840546,110.54795
"56114",747.2545,77.73556,110.37548
"56115",747.26794,77.75754,110.3267
"56116",747.2814,77.86496,110.364044
"56117",747.2948,78.011444,110.44381
"56118",747.3082,78.15793,110.52815
"56119",747.32166,78.27268,110.58534
"56120",747.3351,78.3386,110.59728
"56121",747.3485,78.33372,110.54048
"56122",747.36194,78.25803,110.41273
"56123",747.37537,78.116425,110.21668
"56124",747.3888,77.91623,109.95763
"56125",747.4022,77.66476,109.64104
"56126",747.41565,77.38644,109.28974
"56127",747.4291,77.09346,108.91509
"56128",747.4425,76.79805,108.528854
"56129",747.45593,76.51484,108.145584
"56130",747.46936,76.25849,107.78033
"56131",747.4828,76.033875,107.43879
"56132",747.4962,75.843445,107.12442
"56133",747.50964,75.67986,106.83095
"56134",747.5231,75.543144,106.55923
"56135",747.5365,75.4284,106.30521
"56136",747.5499,75.33074,106.06469
"56137",747.56335,75.25506,105.843094
"56138",747.5768,75.20134,105.6411
"56139",747.5902,75.17204,105.461845
"56140",747.60364,75.191574,105.330505
"56141",747.61707,75.30877,105.29744
"56142",747.6305,75.60662,105.44869
"56143",747.6439,76.16327,105.86805
"56144",747.65735,77.00801,106.592896
"56145",747.6708,78.118866,107.61025
"56146",747.6842,79.40551,108.83811
"56147",747.69763,80.73609,110.150116
"56148",747.71106,81.95682,111.393845
"56149",747.7245,82.95293,112.4511
"56150",747.7379,83.65118,113.24163
"56151",747.75134,84.034485,113.73904
"56152",747.7648,84.11261,113.94324
"56153",747.7782,83.929504,113.88865
"56154",747.7916,83.546196,113.628136
"56155",747.80505,83.02617,113.218925
"56156",747.8185,82.42069,112.708015
"56157",747.8319,81.77371,112.13668
"56158",747.84534,81.11452,111.53291
"56159",747.85876,80.46998,110.9232
"56160",747.8722,79.85718,110.32509
"56161",747.8856,79.310295,109.77374
"56162",747.89905,78.853745,109.29564
"56163",747.9125,78.51438,108.920456
"56164",747.9259,78.31663,108.67628
"56165",747.93933,78.25803,108.56508
"56166",747.95276,78.314186,108.566795
"56167",747.9662,78.45823,108.65816
"56168",747.9796,78.64622,108.797966
"56169",747.99304,78.84398,108.95342
"56170",748.0065,79.01732,109.09064
"56171",748.0199,79.13939,109.182
"56172",748.0333,79.19798,109.2137
"56173",748.04675,79.185776,109.17643
"56174",748.0602,79.10521,109.07042
"56175",748.0736,78.96117,108.898415
"56176",748.08704,78.77318,108.67796
"56177",748.10046,78.54612,108.41257
"56178",748.1139,78.30198,108.12299
"56179",748.1273,78.05295,107.8209
"56180",748.14075,77.81125,107.51836
"56181",748.1542,77.58175,107.22046
"56182",748.1676,77.37423,106.93737
"56183",748.181,77.19112,106.6722
"56184",748.19446,77.03975,106.43306
"56185",748.2079,76.91524,106.21604
"56186",748.2213,76.82002,106.02443
"56187",748.23474,76.754105,105.85914
"56188",748.24817,76.71015,105.71375
"56189",748.2616,76.680855,105.58165
"56190",748.275,76.66132,105.4584
"56191",748.28845,76.654,105.34674
"56192",748.3019,76.65644,105.24462
"56193",748.3153,76.680855,105.16455
"56194",748.32874,76.749214,105.12919
"56195",748.34216,76.927444,105.20583
"56196",748.3556,77.281456,105.46383
"56197",748.369,77.87961,105.97703
"56198",748.38245,78.73899,106.77015
"56199",748.3959,79.823,107.81475
"56200",748.4093,81.03151,109.01773
"56201",748.4227,82.230255,110.24871
"56202",748.43616,83.28741,111.37556
"56203",748.4496,84.102844,112.293724
"56204",748.463,84.63264,112.95173
"56205",748.47644,84.874344,113.3382
"56206",748.48987,84.84749,113.46367
"56207",748.5033,84.59846,113.36612
"56208",748.5167,84.18341,113.09477
"56209",748.53015,83.6585,112.70059
"56210",748.5436,83.06767,112.22409
"56211",748.557,82.44511,111.69739
"56212",748.57043,81.815216,111.143906
"56213",748.58386,81.20729,110.592705
"56214",748.5973,80.64576,110.0689
"56215",748.6107,80.15503,109.59835
"56216",748.62415,79.766846,109.21501
"56217",748.6376,79.50561,108.94649
"56218",748.651,79.381096,108.806526
"56219",748.6644,79.38842,108.79451
"56220",748.67786,79.500725,108.8877
"56221",748.6913,79.68627,109.05765
"56222",748.7047,79.90845,109.27002
"56223",748.71814,80.12329,109.482
"56224",748.73157,80.29908,109.661644
"56225",748.745,80.413826,109.785736
"56226",748.7584,80.462654,109.847496
"56227",748.77185,80.43336,109.83266
"56228",748.7853,80.33082,109.74366
"56229",748.7987,80.16968,109.59286
"56230",748.81213,79.9646,109.39308
"56231",748.82556,79.72045,109.14783
"56232",748.839,79.46166,108.8803
"56233",748.8524,79.200424,108.60224
"56234",748.86584,78.94652,108.32335
"56235",748.8793,78.709694,108.053604
"56236",748.8927,78.49973,107.80332
"56237",748.9061,78.314186,107.57089
"56238",748.91956,78.16037,107.364395
"56239",748.933,78.028534,107.17507
"56240",748.9464,77.91623,107.00116
"56241",748.95984,77.823456,106.84327
"56242",748.97327,77.7551,106.706894
"56243",748.9867,77.70382,106.585464
"56244",749.0001,77.6672,106.47709
"56245",749.01355,77.65011,106.3871
"56246",749.027,77.66476,106.328316
"56247",749.0404,77.738,106.32858
"56248",749.05383,77.93332,106.45322
"56249",749.06726,78.32395,106.77927
"56250",749.0807,78.96361,107.36655
"56251",749.0941,79.84985,108.220406
"56252",749.10754,80.92897,109.29483
"56253",749.121,82.09354,110.48843
"56254",749.1344,83.21416,111.67447
"56255",749.1478,84.17609,112.73684
"56256",749.16125,84.89876,113.59001
"56257",749.1747,85.3431,114.18744
"56258",749.1881,85.51156,114.522865
"56259",749.20154,85.42611,114.60965
"56260",749.21497,85.13313,114.48624
"56261",749.2284,84.68391,114.19742
"56262",749.2418,84.137024,113.796906
"56263",749.25525,83.53643,113.32559
"56264",749.2687,82.91142,112.8111
"56265",749.2821,82.286415,112.27707
"56266",749.29553,81.688255,111.75036
"56267",749.30896,81.13649,111.25135
"56268",749.3224,80.66041,110.81078
"56269",749.3358,80.2942,110.46521
"56270",749.34924,80.05737,110.23758
"56271",749.3627,79.957275,110.139275
"56272",749.3761,79.98657,110.16724
"56273",749.3895,80.113525,110.29377
"56274",749.40295,80.306404,110.4902
"56275",749.4164,80.52125,110.714615
"56276",749.4298,80.72144,110.9311
"56277",749.44324,80.87282,111.10502
"56278",749.45667,80.96071,111.220184
"56279",749.4701,80.96803,111.25753
"56280",749.4835,80.89723,111.21698
"56281",749.49695,80.75319,111.100975
"56282",749.5104,80.552986,110.92431
"56283",749.5238,80.308846,110.69745
"56284",749.53723,80.04028,110.43854
"56285",749.55066,79.764404,110.16392
"56286",749.5641,79.49096,109.88311
"56287",749.5775,79.22484,109.60108
"56288",749.59094,78.98314,109.33516
"56289",749.6044,78.768295,109.08854
"56290",749.6178,78.5803,108.86205
"56291",749.6312,78.41428,108.65167
"56292",749.64465,78.27268,108.46052
"56293",749.6581,78.14328,108.27714
"56294",749.6715,78.02609,108.10193
"56295",749.68494,77.93332,107.94747
"56296",749.69836,77.86008,107.80965
"56297",749.7118,77.823456,107.706154
"56298",749.7252,77.838104,107.65279
"56299",749.73865,77.962616,107.70974
"56300",749.7521,78.25559,107.93905
"56301",749.7655,78.7805,108.40945
"56302",749.77893,79.5642,109.15504
"56303",749.79236,80.5774,110.15462
"56304",749.8058,81.7322,111.32746
"56305",749.8192,82.90898,112.55837
"56306",749.83264,83.980774,113.72107
"56307",749.84607,84.84505,114.70974
"56308",749.8595,85.4432,115.4593
"56309",749.8729,85.750824,115.93702
"56310",749.88635,85.785,116.15091
"56311",749.8998,85.57748,116.12416
"56312",749.9132,85.18196,115.90294
"56313",749.92664,84.65705,115.53996
"56314",749.94006,84.04913,115.077576
"56315",749.9535,83.40215,114.55713
"56316",749.9669,82.74296,114.00425
"56317",749.98035,82.09354,113.440544
"56318",749.9938,81.48318,112.89561
"56319",750.0072,80.94362,112.4024
"56320",750.0206,80.50172,111.98998
"56321",750.03406,80.184326,111.68827
"56322",750.0475,80.008545,111.51825
"56323",750.0609,79.9646,111.47457
"56324",750.07434,80.028076,111.53694
"56325",750.08777,80.16968,111.67942
"56326",750.1012,80.34791,111.86295
"56327",750.1146,80.52369,112.04961
"56328",750.12805,80.67017,112.212456
"56329",750.1415,80.75807,112.3213
"56330",750.1549,80.7776,112.36452
"56331",750.16833,80.723885,112.3351
"56332",750.18176,80.59937,112.23321
"56333",750.1952,80.40894,112.06151
"56334",750.2086,80.16968,111.83502
"56335",750.22205,79.8938,111.564445
"56336",750.2355,79.59838,111.26571
"56337",750.2489,79.30297,110.95775
"56338",750.2623,79.012436,110.64543
"56339",750.27576,78.746315,110.34845
"56340",750.2892,78.504616,110.06757
"56341",750.3026,78.29221,109.80844
"56342",750.31604,78.101776,109.56464
"56343",750.32947,77.93332,109.33686
"56344",750.3429,77.786835,109.12579
"56345",750.3563,77.65743,108.92723
"56346",750.36975,77.54513,108.74172
"56347",750.3832,77.452354,108.572235
"56348",750.3966,77.383995,108.42426
"56349",750.41003,77.37423,108.33275
"56350",750.42346,77.47677,108.35323
"56351",750.4369,77.7673,108.56492
"56352",750.4503,78.30442,109.032265
"56353",750.46375,79.114975,109.78983
"56354",750.4772,80.15747,110.80467
"56355",750.4906,81.33669,111.988815
"56356",750.504,82.52567,113.21957
"56357",750.51746,83.59014,114.36296
"56358",750.5309,84.43,115.31501
"56359",750.5443,84.98909,116.012535
"56360",750.55774,85.25277,116.43212
"56361",750.57117,85.23811,116.58161
"56362",750.5846,84.98909,116.49628
"56363",750.598,84.55451,116.217606
"56364",750.61145,83.99298,115.7984
"56365",750.6249,83.35577,115.285965
"56366",750.6383,82.67948,114.71455
"56367",750.65173,81.99344,114.112236
"56368",750.66516,81.32937,113.51046
"56369",750.6786,80.706795,112.92943
"56370",750.692,80.15991,112.40463
"56371",750.70544,79.71801,111.96773
"56372",750.7189,79.40307,111.643974
"56373",750.7323,79.22728,111.44953
"56374",750.7457,79.183334,111.38144
"56375",750.75916,79.24681,111.419395
"56376",750.7726,79.38598,111.53503
"56377",750.786,79.56176,111.69162
"56378",750.79944,79.73754,111.85371
"56379",750.81287,79.88403,111.992
"56380",750.8263,79.96704,112.07138
"56381",750.8397,79.97925,112.08256
"56382",750.85315,79.906006,112.00867
"56383",750.8666,79.75952,111.859245
"56384",750.88,79.554436,111.646645
"56385",750.89343,79.30541,111.3837
"56386",750.90686,79.027084,111.083664
"56387",750.9203,78.74143,110.76761
"56388",750.9337,78.45823,110.445076
"56389",750.94714,78.18967,110.128334
"56390",750.9606,77.9382,109.8203
"56391",750.974,77.71114,109.52881
"56392",750.9874,77.503624,109.24976
"56393",751.00085,77.32296,108.99109
"56394",751.0143,77.16182,108.74629
"56395",751.0277,77.02022,108.516
"56396",751.04114,76.90303,108.305695
"56397",751.05457,76.80293,108.10882
"56398",751.068,76.72724,107.93322
"56399",751.0814,76.6833,107.787
"56400",751.09485,76.70283,107.70289
"56401",751.1083,76.83711,107.73414
"56402",751.1217,77.15694,107.955124
"56403",751.13513,77.72335,108.43269
"56404",751.14856,78.551,109.1892
"56405",751.162,79.59838,110.1913
"56406",751.1754,80.77028,111.35065
"56407",751.18884,81.93973,112.54417
"56408",751.2023,82.967575,113.63263
"56409",751.2157,83.756165,114.513954
"56410",751.2291,84.2591,115.13427
"56411",751.24255,84.46662,115.474884
"56412",751.256,84.40559,115.55343
"56413",751.2694,84.119934,115.40545
"56414",751.28284,83.66827,115.08253
"56415",751.29626,83.10918,114.63807
"56416",751.3097,82.48905,114.115105
"56417",751.3231,81.83963,113.543465
"56418",751.33655,81.19508,112.956406
"56419",751.35,80.57252,112.371185
"56420",751.3634,80.00122,111.81778
"56421",751.37683,79.50317,111.31976
"56422",751.39026,79.11009,110.91116
"56423",751.4037,78.84642,110.61968
"56424",751.4171,78.7219,110.459114
"56425",751.43054,78.72434,110.421616
"56426",751.444,78.83177,110.48918
"56427",751.4574,79.00511,110.626015
"56428",751.4708,79.20531,110.79512
"56429",751.48425,79.3933,110.95828
"56430",751.4977,79.54223,111.08825
"56431",751.5111,79.62768,111.15939
"56432",751.52454,79.639885,111.159966
"56433",751.53796,79.57397,111.082794
"56434",751.5514,79.43725,110.93276
"56435",751.5648,79.24193,110.71986
"56436",751.57825,79.009995,110.46423
"56437",751.5917,78.75853,110.18183
"56438",751.6051,78.49973,109.88424
"56439",751.6185,78.24338,109.581
"56440",751.63196,78.00168,109.28441
"56441",751.6454,77.77463,108.99491
"56442",751.6588,77.576866,108.72761
"56443",751.67224,77.40353,108.478546
"56444",751.68567,77.2546,108.24848
"56445",751.6991,77.12764,108.03573
"56446",751.7125,77.01778,107.836105
"56447",751.72595,76.92256,107.6477
"56448",751.7394,76.84444,107.473404
"56449",751.7528,76.80049,107.33085
"56450",751.76624,76.8127,107.24307
"56451",751.77966,76.93721,107.26798
"56452",751.7931,77.23506,107.47012
"56453",751.8065,77.76242,107.91108
"56454",751.81995,78.538795,108.61753
"56455",751.8334,79.52514,109.55821
"56456",751.8468,80.62623,110.64446
"56457",751.8602,81.722435,111.76024
"56458",751.87366,82.68925,112.780876
"56459",751.8871,83.43389,113.60956
"56460",751.9005,83.90753,114.190506
"56461",751.91394,84.102844,114.50793
"56462",751.92737,84.04425,114.577545
"56463",751.9408,83.77081,114.43049
"56464",751.9542,83.33135,114.108864
"56465",751.96765,82.78203,113.66364
"56466",751.9811,82.17166,113.14021
"56467",751.9945,81.53933,112.575745
"56468",752.00793,80.90944,111.99396
"56469",752.02136,80.31129,111.424225
"56470",752.0348,79.76929,110.89195
"56471",752.0482,79.31518,110.43063
"56472",752.06165,78.9807,110.07475
"56473",752.0751,78.78783,109.85003
"56474",752.0885,78.74387,109.768196
"56475",752.1019,78.82689,109.81196
"56476",752.11536,79.00755,109.95596
"56477",752.1288,79.23949,110.15688
"56478",752.1422,79.483635,110.377266
"56479",752.15564,79.70336,110.58086
"56480",752.16907,79.869385,110.73761
"56481",752.1825,79.96948,110.833626
"56482",752.1959,79.9939,110.857086
"56483",752.20935,79.94263,110.805626
"56484",752.2228,79.823,110.684204
"56485",752.2362,79.656975,110.51265
"56486",752.24963,79.45434,110.29929
"56487",752.26306,79.234604,110.06251
"56488",752.2765,79.009995,109.81398
"56489",752.2899,78.79027,109.56332
"56490",752.30334,78.58274,109.317986
"56491",752.3168,78.382545,109.0735
"56492",752.3302,78.19699,108.8374
"56493",752.3436,78.02365,108.60772
"56494",752.35706,77.86496,108.38727
"56495",752.3705,77.72579,108.18138
"56496",752.3839,77.61349,107.99801
"56497",752.39734,77.52804,107.83798
"56498",752.41077,77.4963,107.729
"56499",752.4242,77.56954,107.724
"56500",752.4376,77.821014,107.89952
"56501",752.45105,78.311745,108.32216
"56502",752.4645,79.05638,109.01404
"56503",752.4779,80.028076,109.956245
"56504",752.49133,81.129166,111.05821
"56505",752.50476,82.24246,112.206795
"56506",752.5182,83.23613,113.27054
"56507",752.5316,84.02228,114.157814
"56508",752.54504,84.54475,114.80598
"56509",752.5585,84.788895,115.19215
"56510",752.5719,84.771805,115.32471
"56511",752.5853,84.53254,115.23456
"56512",752.59875,84.122375,114.966034
"56513",752.6122,83.597466,114.56995
"56514",752.6256,83.00908,114.09398
"56515",752.63904,82.38407,113.563
"56516",752.65247,81.75662,113.010056
"56517",752.6659,81.143814,112.45214
"56518",752.6793,80.587166,111.93124
"56519",752.69275,80.113525,111.475945
"56520",752.7062,79.764404,111.13037
"56521",752.7196,79.554436,110.91304
"56522",752.73303,79.4934,110.83808
"56523",752.74646,79.569084,110.897934
"56524",752.7599,79.73998,111.05537
"56525",752.7733,79.96948,111.27674
"56526",752.78674,80.20874,111.515045
"56527",752.8002,80.41871,111.73154
"56528",752.8136,80.57252,111.89843
"56529",752.827,80.65308,111.99689
"56530",752.84045,80.65308,112.017296
"56531",752.8539,80.57984,111.96446
"56532",752.8673,80.445564,111.848305
"56533",752.88074,80.255135,111.6718
"56534",752.89417,80.025635,111.45027
"56535",752.9076,79.764404,111.18984
"56536",752.921,79.49096,110.909035
"56537",752.93445,79.217514,110.61968
"56538",752.9479,78.95384,110.33156
"56539",752.9613,78.70237,110.04739
"56540",752.97473,78.470436,109.77491
"56541",752.98816,78.25559,109.51227
"56542",753.0016,78.07004,109.2722
"56543",753.015,77.925995,109.06785
"56544",753.02844,77.87717,108.95421
"56545",753.0419,77.98703,108.997734
"56546",753.0553,78.331276,109.279076
"56547",753.0687,78.9514,109.84705
"56548",753.08215,79.84009,110.70297
"56549",753.0956,80.92653,111.78442
"56550",753.109,82.09842,112.98526
"56551",753.12244,83.22392,114.17634
"56552",753.13586,84.17853,115.23169
"56553",753.1493,84.87923,116.062965
"56554",753.1627,85.29427,116.630486
"56555",753.17615,85.418785,116.92044
"56556",753.1896,85.28451,116.9555
"56557",753.203,84.94026,116.77639
"56558",753.21643,84.44709,116.4376
"56559",753.22986,83.85626,115.98574
"56560",753.2433,83.2166,115.46658
"56561",753.2567,82.55985,114.910355
"56562",753.27014,81.9202,114.35069
"56563",753.28357,81.31716,113.80766
"56564",753.297,80.78493,113.31659
"56565",753.3104,80.35279,112.90898
"56566",753.32385,80.042725,112.60994
"56567",753.3373,79.86206,112.43061
"56568",753.3507,79.815674,112.37991
"56569",753.36414,79.87427,112.43275
"56570",753.37756,80.0061,112.56065
"56571",753.391,80.16724,112.72198
"56572",753.4044,80.32105,112.88102
"56573",753.41785,80.430916,113.000916
"56574",753.4313,80.48707,113.07053
"56575",753.4447,80.46998,113.068665
"56576",753.4581,80.38209,112.99546
"56577",753.47156,80.22827,112.853584
"56578",753.485,80.02075,112.6532
"56579",753.4984,79.77417,112.407265
"56580",753.51184,79.50317,112.1292
"56581",753.52527,79.21263,111.82314
"56582",753.5387,78.91722,111.50313
"56583",753.5521,78.624245,111.176315
"56584",753.56555,78.3386,110.84768
"56585",753.579,78.07736,110.53452
"56586",753.5924,77.85275,110.24983
"56587",753.60583,77.70626,110.03624
"56588",753.61926,77.69405,109.952354
"56589",753.6327,77.89426,110.0805
"56590",753.6461,78.363014,110.48345
"56591",753.65955,79.12474,111.19402
"56592",753.673,80.14038,112.18231
"56593",753.6864,81.31472,113.36104
"56594",753.6998,82.513466,114.60087
"56595",753.71326,83.597466,115.76341
"56596",753.7267,84.4593,116.73766
"56597",753.7401,85.03792,117.455635
"56598",753.75354,85.313805,117.888954
"56599",753.76697,85.313805,118.05501
"56600",753.7804,85.08186,117.98912
"56601",753.7938,84.67658,117.742645
"56602",753.80725,84.16632,117.378525
"56603",753.8207,83.60235,116.94475
"56604",753.8341,83.00908,116.46405
"56605",753.84753,82.408485,115.95749
"56606",753.86096,81.82498,115.44925
"56607",753.8744,81.26833,114.94963
"56608",753.8878,80.765396,114.48633
"56609",753.90125,80.34791,114.09276
"56610",753.9147,80.045166,113.80089
"56611",753.9281,79.8645,113.621635
"56612",753.9415,79.798584,113.55148
"56613",753.95496,79.823,113.5696
"56614",753.9684,79.906006,113.64708
"56615",753.9818,80.0061,113.74424
"56616",753.99524,80.09155,113.82988
"56617",754.00867,80.13794,113.87913
"56618",754.0221,80.130615,113.876114
"56619",754.0355,80.0647,113.81428
"56620",754.04895,79.940186,113.69179
"56621",754.0624,79.75708,113.50681
"56622",754.0758,79.5227,113.26484
"56623",754.08923,79.25414,112.98137
"56624",754.10266,78.97093,112.67485
"56625",754.1161,78.6804,112.35216
"56626",754.1295,78.40208,112.0326
"56627",754.14294,78.135956,111.716545
"56628",754.1564,77.88449,111.40683
"56629",754.1698,77.64767,111.1039
"56630",754.1832,77.45968,110.8424
"56631",754.19666,77.37179,110.675125
"56632",754.2101,77.46212,110.68333
"56633",754.2235,77.806366,110.948265
"56634",754.23694,78.45823,111.53158
"56635",754.25037,79.40063,112.4258
"56636",754.2638,80.56031,113.56675
"56637",754.2772,81.81033,114.83428
"56638",754.29065,83.00908,116.0896
"56639",754.3041,84.02228,117.19683
"56640",754.3175,84.76204,118.06229
"56641",754.33093,85.19905,118.64811
"56642",754.34436,85.3431,118.95463
"56643",754.3578,85.23079,119.009285
"56644",754.3712,84.93294,118.87489
"56645",754.38464,84.51545,118.61156
"56646",754.3981,84.03204,118.26926
"56647",754.4115,83.52178,117.884995
"56648",754.4249,83.004196,117.47746
"56649",754.43835,82.47929,117.04643
"56650",754.4518,81.951935,116.59656
"56651",754.4652,81.43191,116.13753
"56652",754.47864,80.94118,115.69154
"56653",754.49207,80.50416,115.283936
"56654",754.5055,80.15259,114.94812
"56655",754.5189,79.906006,114.70631
"56656",754.53235,79.764404,114.56177
"56657",754.5458,79.7058,114.495804
"56658",754.5592,79.70336,114.48417
"56659",754.57263,79.72045,114.49199
"56660",754.58606,79.73266,114.49546
"56661",754.5995,79.708244,114.46269
"56662",754.6129,79.639885,114.385216
"56663",754.62634,79.517815,114.25189
"56664",754.6398,79.344475,114.063484
"56665",754.6532,79.11986,113.81838
"56666",754.6666,78.86107,113.53209
"56667",754.68005,78.572975,113.208405
"56668",754.6935,78.27512,112.86596
"56669",754.7069,77.98215,112.51908
"56670",754.72034,77.69894,112.17281
"56671",754.73376,77.435265,111.837234
"56672",754.7472,77.19112,111.51294
"56673",754.7606,76.97139,111.20544
"56674",754.77405,76.78096,110.920364
"56675",754.7875,76.654,110.69281
"56676",754.8009,76.63691,110.57116
"56677",754.81433,76.8127,110.64185
"56678",754.82776,77.24971,110.97926
"56679",754.8412,77.98215,111.625755
"56680",754.8546,78.98802,112.56857
"56681",754.86804,80.181885,113.73081
"56682",754.8815,81.427025,114.981636
"56683",754.8949,82.56962,116.16882
"56684",754.9083,83.4876,117.16711
"56685",754.92175,84.11261,117.9011
"56686",754.9352,84.42756,118.34457
"56687",754.9486,84.46662,118.52199
"56688",754.96204,84.2884,118.483345
"56689",754.97546,83.963684,118.29264
"56690",754.9889,83.5584,118.01122
"56691",755.0023,83.1165,117.68052
"56692",755.01575,82.66239,117.3238
"56693",755.0292,82.193634,116.93824
"56694",755.0426,81.71267,116.525826
"56695",755.056,81.20729,116.07397
"56696",755.06946,80.69459,115.59899
"56697",755.0829,80.19409,115.1202
"56698",755.0963,79.742424,114.6746
"56699",755.10974,79.36889,114.293015
"56700",755.12317,79.10277,114.00717
"56701",755.1366,78.94652,113.82288
"56702",755.15,78.890366,113.73381
"56703",755.16345,78.89281,113.70158
"56704",755.1769,78.922104,113.69627
"56705",755.1903,78.94652,113.687004
"56706",755.20374,78.93431,113.64188
"56707",755.21716,78.86351,113.53777
"56708",755.2306,78.73899,113.37774
"56709",755.244,78.555885,113.15523
"56710",755.25745,78.32151,112.875725
"56711",755.2709,78.05539,112.55715
"56712",755.2843,77.77219,112.21318
"56713",755.2977,77.486534,111.85791
"56714",755.31116,77.21065,111.50348
"56715",755.3246,76.95674,111.16241
"56716",755.338,76.72724,110.83781
"56717",755.35144,76.52705,110.53534
"56718",755.36487,76.35371,110.25347
"56719",755.3783,76.2121,109.99792
"56720",755.3917,76.09491,109.76236
"56721",755.40515,76.00214,109.547554
"56722",755.4186,75.94354,109.36403
"56723",755.432,75.948425,109.24215
"56724",755.44543,76.07782,109.244934
"56725",755.45886,76.404976,109.449524
"56726",755.4723,76.99092,109.92313
"56727",755.4857,77.84543,110.6836
"56728",755.49915,78.92943,111.70027
"56729",755.5126,80.130615,112.868004
"56730",755.526,81.304955,114.046425
"56731",755.5394,82.31571,115.09796
"56732",755.55286,83.070114,115.92473
"56733",755.5663,83.51934,116.469894
"56734",755.5797,83.68047,116.741005
"56735",755.59314,83.60235,116.77789
"56736",755.60657,83.34844,116.63656
"56737",755.62,82.98955,116.3823
"56738",755.6334,82.58427,116.07044
"56739",755.64685,82.16434,115.73127
"56740",755.6603,81.74197,115.37653
"56741",755.6737,81.31472,115.00372
"56742",755.68713,80.87038,114.600464
"56743",755.70056,80.411385,114.16867
"56744",755.714,79.95239,113.722534
"56745",755.7274,79.51293,113.281586
"56746",755.74084,79.13451,112.88794
"56747",755.7543,78.84398,112.570366
"56748",755.7677,78.65354,112.3438
"56749",755.7811,78.55833,112.20651
"56750",755.79456,78.538795,112.14193
"56751",755.808,78.55833,112.1158
"56752",755.8214,78.58518,112.0976
"56753",755.83484,78.59495,112.063156
"56754",755.84827,78.56321,111.98751
"56755",755.8617,78.485085,111.86449
"56756",755.8751,78.35325,111.68531
"56757",755.88855,78.17258,111.45318
"56758",755.902,77.95285,111.176346
"56759",755.9154,77.713585,110.87311
"56760",755.92883,77.45968,110.54775
"56761",755.94226,77.205765,110.214455
"56762",755.9557,76.96895,109.89032
"56763",755.9691,76.756546,109.5832
"56764",755.98254,76.56611,109.291405
"56765",755.996,76.402534,109.02052
"56766",756.0094,76.26826,108.77383
"56767",756.0228,76.15839,108.54734
"56768",756.03625,76.06561,108.33452
"56769",756.0497,75.99237,108.13833
"56770",756.0631,75.93622,107.95694
"56771",756.07654,75.90204,107.79577
"56772",756.08997,75.894714,107.660385
"56773",756.1034,75.93378,107.57116
"56774",756.1168,76.06317,107.57349
"56775",756.13025,76.34394,107.73123
"56776",756.1437,76.83223,108.10527
"56777",756.1571,77.55245,108.7265
"56778",756.17053,78.4802,109.57777
"56779",756.18396,79.534904,110.58498
"56780",756.1974,80.587166,111.6227
"56781",756.2108,81.5198,112.573685
"56782",756.22424,82.22781,113.32919
"56783",756.2377,82.669716,113.84071
"56784",756.2511,82.84306,114.09749
"56785",756.2645,82.78935,114.13262
"56786",756.27795,82.5745,114.00494
"56787",756.2914,82.262,113.77289
"56788",756.3048,81.90799,113.48956
"56789",756.31824,81.54421,113.18541
"56790",756.33167,81.18288,112.87233
"56791",756.3451,80.81178,112.5382
"56792",756.3585,80.430916,112.1827
"56793",756.37195,80.03784,111.80309
"56794",756.3854,79.64233,111.40876
"56795",756.3988,79.276115,111.03137
"56796",756.41223,78.96361,110.69624
"56797",756.42566,78.72678,110.42703
"56798",756.4391,78.57542,110.23588
"56799",756.4525,78.50706,110.123
"56800",756.46594,78.502174,110.071465
"56801",756.4794,78.536354,110.05884
"56802",756.4928,78.5803,110.057045
"56803",756.5062,78.60471,110.037094
"56804",756.51965,78.59251,109.981285
"56805",756.5331,78.52659,109.87138
"56806",756.5465,78.4094,109.70815
"56807",756.55994,78.24582,109.494865
"56808",756.57336,78.04318,109.23741
"56809",756.5868,77.821014,108.954094
"56810",756.6002,77.593956,108.65894
"56811",756.61365,77.37179,108.36159
"56812",756.6271,77.16182,108.06949
"56813",756.6405,76.97627,107.79525
"56814",756.65393,76.81514,107.53963
"56815",756.66736,76.67841,107.303375
"56816",756.6808,76.56611,107.08727
"56817",756.6942,76.48798,106.90184
"56818",756.70764,76.436714,106.74082
"56819",756.72107,76.40986,106.602615
"56820",756.7345,76.40009,106.48066
"56821",756.7479,76.39765,106.36572
"56822",756.76135,76.39765,106.25315
"56823",756.7748,76.39765,106.14058
"56824",756.7882,76.40009,106.03045
"56825",756.80164,76.40742,105.92528
"56826",756.81506,76.439156,105.84475
"56827",756.8285,76.52216,105.81648
"56828",756.8419,76.700386,105.886024
"56829",756.85535,77.032425,106.11495
"56830",756.8688,77.56222,106.55201
"56831",756.8822,78.29221,107.205826
"56832",756.8956,79.17113,108.03137
"56833",756.90906,80.11841,108.95275
"56834",756.9225,81.02174,109.85979
"56835",756.9359,81.778595,110.64857
"56836",756.94934,82.32304,111.24859
"56837",756.96277,82.62577,111.62392
"56838",756.9762,82.70634,111.78654
"56839",756.9896,82.60624,111.77101
"56840",757.00305,82.37675,111.62296
"56841",757.0165,82.07889,111.399376
"56842",757.0299,81.75418,111.13963
"56843",757.04333,81.43435,110.87462
"56844",757.05676,81.11696,110.60205
"56845",757.0702,80.80446,110.324455
"56846",757.0836,80.49195,110.03709
"56847",757.09705,80.18921,109.74972
"56848",757.1105,79.90112,109.467545
"56849",757.1239,79.656975,109.22031
"56850",757.1373,79.48608,109.03869
"56851",757.15076,79.3933,108.929855
"56852",757.1642,79.378654,108.89625
"56853",757.1776,79.42504,108.92322
"56854",757.19104,79.51049,108.9907
"56855",757.20447,79.603264,109.06818
"56856",757.2179,79.67162,109.12414
"56857",757.2313,79.70092,109.14317
"56858",757.24475,79.68627,109.11918
"56859",757.2582,79.61547,109.038574
"56860",757.2716,79.4934,108.90449
"56861",757.28503,79.33227,108.72752
"56862",757.29846,79.14183,108.51622
"56863",757.3119,78.93187,108.27944
"56864",757.3253,78.71946,108.03365
"56865",757.33875,78.521706,107.79588
"56866",757.3522,78.34104,107.56902
"56867",757.3656,78.18234,107.35848
"56868",757.379,78.05051,107.169846
"56869",757.39246,77.945526,107.003944
"56870",757.4059,77.86984,106.86406
"56871",757.4193,77.81857,106.74622
"56872",757.43274,77.79172,106.6512
"56873",757.44617,77.78195,106.572426
"56874",757.4596,77.78439,106.505554
"56875",757.473,77.789276,106.4412
"56876",757.48645,77.79904,106.38188
"56877",757.4999,77.81125,106.32531
"56878",757.5133,77.8259,106.27156
"56879",757.52673,77.84543,106.22315
"56880",757.54016,77.874725,106.18512
"56881",757.5536,77.91135,106.15533
"56882",757.567,77.979706,106.15842
"56883",757.58044,78.12619,106.24177
"56884",757.5939,78.40696,106.46398
"56885",757.6073,78.870834,106.878075
"56886",757.6207,79.52758,107.499535
"56887",757.63416,80.34547,108.30266
"56888",757.6476,81.24391,109.2119
"56889",757.661,82.11063,110.117485
"56890",757.67444,82.84306,110.91588
"56891",757.68787,83.36797,111.52963
"56892",757.7013,83.65606,111.922966
"56893",757.7147,83.717094,112.09825
"56894",757.72815,83.58526,112.08257
"56895",757.7416,83.32159,111.93094
"56896",757.755,82.984665,111.697815
"56897",757.76843,82.61112,111.41754
"56898",757.78186,82.24002,111.12804
"56899",757.7953,81.881134,110.83915
"56900",757.8087,81.53933,110.55613
"56901",757.82214,81.21217,110.27708
"56902",757.8356,80.91188,110.01466
"56903",757.849,80.6482,109.77948
"56904",757.8624,80.44312,109.59466
"56905",757.87585,80.31129,109.47667
"56906",757.8893,80.2649,109.44001
"56907",757.9027,80.29664,109.48003
"56908",757.91614,80.38697,109.57963
"56909",757.92957,80.50904,109.71379
"56910",757.943,80.63355,109.85421
"56911",757.9564,80.726326,109.96678
"56912",757.96985,80.7776,110.04076
"56913",757.9833,80.77272,110.06017
"56914",757.9967,80.709236,110.020836
"56915",758.01013,80.584724,109.91849
"56916",758.02356,80.413826,109.76586
"56917",758.037,80.2063,109.571266
"56918",758.0504,79.98169,109.3531
"56919",758.06384,79.74975,109.12059
"56920",758.0773,79.53002,108.89304
"56921",758.0907,79.32983,108.67816
"56922",758.1041,79.15648,108.48387
"56923",758.11755,79.00755,108.308586
"56924",758.131,78.87816,108.14818
"56925",758.1444,78.77562,108.01058
"56926",758.15784,78.692604,107.889305
"56927",758.17126,78.63401,107.789856
"56928",758.1847,78.59495,107.70811
"56929",758.1981,78.572975,107.64223
"56930",758.21155,78.56565,107.59031
"56931",758.225,78.56809,107.54793
"56932",758.2384,78.57786,107.51295
"56933",758.25183,78.58762,107.47827
"56934",758.26526,78.59983,107.44634
"56935",758.2787,78.61204,107.414795
"56936",758.2921,78.61936,107.378746
"56937",758.30554,78.624245,107.340485
"56938",758.319,78.64866,107.32191
"56939",758.3324,78.72678,107.3578
"56940",758.3458,78.91966,107.510895
"56941",758.35925,79.290764,107.848236
"56942",758.3727,79.86694,108.40225
"56943",758.3861,80.635994,109.167145
"56944",758.39954,81.529564,110.08059
"56945",758.41296,82.442665,111.04149
"56946",758.4264,83.26299,111.93815
"56947",758.4398,83.897766,112.67489
"56948",758.45325,84.298164,113.19709
"56949",758.4667,84.456856,113.4901
"56950",758.4801,84.39582,113.56834
"56951",758.4935,84.16144,113.47132
"56952",758.50696,83.81232,113.25224
"56953",758.5204,83.40215,112.96121
"56954",758.5338,82.967575,112.63295
"56955",758.54724,82.533,112.29111
"56956",758.56067,82.11063,111.94789
"56957",758.5741,81.71023,111.61345
"56958",758.5875,81.34646,111.30312
"56959",758.60095,81.03639,111.03513
"56960",758.6144,80.799576,110.8307
"56961",758.6278,80.65308,110.7092
"56962",758.64124,80.601814,110.67834
"56963",758.65466,80.62867,110.724
"56964",758.6681,80.72144,110.83642
"56965",758.6815,80.85329,110.99081
"56966",758.69495,80.99245,111.15663
"56967",758.7084,81.112076,111.307274
"56968",758.7218,81.19264,111.42259
"56969",758.7352,81.21217,111.47939
"56970",758.74866,81.163345,111.468445
"56971",758.7621,81.04616,111.38761
"56972",758.7755,80.87282,111.24696
"56973",758.78894,80.655525,111.056946
"56974",758.80237,80.411385,110.83329
"56975",758.8158,80.15747,110.59223
"56976",758.8292,79.906006,110.34569
"56977",758.84265,79.6643,110.10104
"56978",758.8561,79.44213,109.868385
"56979",758.8695,79.23949,109.64831
"56980",758.88293,79.061264,109.44632
"56981",758.89636,78.9099,109.26562
"56982",758.9098,78.78294,109.1046
"56983",758.9232,78.677956,108.96158
"56984",758.93665,78.59983,108.84214
"56985",758.9501,78.54612,108.744675
"56986",758.9635,78.51194,108.66506
"56987",758.9769,78.49973,108.60635
"56988",758.99036,78.504616,108.564354
"56989",759.0038,78.51194,108.52495
"56990",759.0172,78.51682,108.48333
"56991",759.03064,78.519264,108.43942
"56992",759.04407,78.51438,108.38827
"56993",759.0575,78.51438,108.34184
"56994",759.0709,78.54856,108.3296
"56995",759.08435,78.675514,108.411194
"56996",759.0978,78.96117,108.65546
"56997",759.1112,79.449455,109.11128
"56998",759.12463,80.14526,109.78989
"56999",759.13806,81.01198,110.66114
"57000",759.1515,81.95926,111.640045
"57001",759.1649,82.86748,112.60949
"57002",759.17834,83.63409,113.465706
"57003",759.1918,84.18829,114.13348
"57004",759.2052,84.48615,114.56222
"57005",759.2186,84.542305,114.75856
"57006",759.23206,84.39094,114.74914
"57007",759.2455,84.08331,114.57873
"57008",759.2589,83.67315,114.296165
"57009",759.27234,83.209274,113.947075
"57010",759.28577,82.72587,113.56396
"57011",759.2992,82.24246,113.16573
"57012",759.3126,81.78104,112.77438
"57013",759.32605,81.35134,112.400345
"57014",759.3395,80.97536,112.06659
"57015",759.3529,80.67017,111.791885
"57016",759.36633,80.45533,111.597984
"57017",759.37976,80.343025,111.49991
"57018",759.3932,80.33326,111.50086
"57019",759.4066,80.40894,111.58696
"57020",759.42004,80.5359,111.72669
"57021",759.4335,80.689705,111.89725
"57022",759.4469,80.8362,112.06529
"57023",759.4603,80.95094,112.20617
"57024",759.47375,81.00954,112.29448
"57025",759.4872,81.00221,112.3187
"57026",759.5006,80.92409,112.2719
"57027",759.51404,80.7776,112.15429
"57028",759.52747,80.57496,111.975945
"57029",759.5409,80.33814,111.757095
"57030",759.5543,80.079346,111.508865
"57031",759.56775,79.81323,111.24523
"57032",759.5812,79.54955,110.975716
"57033",759.5946,79.29809,110.710175
"57034",759.60803,79.061264,110.451416
"57035",759.62146,78.84398,110.204796
"57036",759.6349,78.65354,109.97823
"57037",759.6483,78.487526,109.77014
"57038",759.66174,78.35325,109.5886
"57039",759.6752,78.25315,109.43704
"57040",759.6886,78.18967,109.31897
"57041",759.702,78.14816,109.220894
"57042",759.71545,78.12863,109.14349
"57043",759.7289,78.12375,109.08013
"57044",759.7423,78.12375,109.0215
"57045",759.75574,78.12375,108.96287
"57046",759.76917,78.12375,108.904236
"57047",759.7826,78.12131,108.84316
"57048",759.796,78.12863,108.79178
"57049",759.80945,78.170135,108.7748
"57050",759.8229,78.294655,108.84214
"57051",759.8363,78.56321,109.0574
"57052",759.84973,79.03197,109.48126
"57053",759.86316,79.71801,110.137054
"57054",759.8766,80.59693,111.007164
"57055",759.89,81.58083,112.00972
"57056",759.90344,82.562294,113.04058
"57057",759.9169,83.424126,113.98248
"57058",759.9303,84.08087,114.74623
"57059",759.9437,84.488594,115.28148
"57060",759.95715,84.6424,115.575554
"57061",759.9706,84.56184,115.64006
"57062",759.984,84.29572,115.5165
"57063",759.99744,83.90021,115.255226
"57064",760.01086,83.421684,114.89858
"57065",760.0243,82.90654,114.490364
"57066",760.0377,82.38651,114.061165
"57067",760.05115,81.881134,113.63036
"57068",760.0646,81.40505,113.213066
"57069",760.078,80.97536,112.82728
"57070",760.09143,80.61402,112.49642
"57071",760.10486,80.33814,112.23973
"57072",760.1183,80.16724,112.07939
"57073",760.1317,80.10864,112.026024
"57074",760.14514,80.15747,112.07825
"57075",760.15857,80.289314,112.21501
"57076",760.172,80.465096,112.39983
"57077",760.1854,80.65064,112.599915
"57078",760.19885,80.81178,112.78139
"57079",760.2123,80.91676,112.911736
"57080",760.2257,80.9485,112.97212
"57081",760.23914,80.907,112.96026
"57082",760.25256,80.78981,112.871414
"57083",760.266,80.60914,112.71542
"57084",760.2794,80.37965,112.50497
"57085",760.29285,80.11597,112.25315
"57086",760.3063,79.835205,111.97601
"57087",760.3197,79.54711,111.68277
"57088",760.3331,79.26635,111.387856
"57089",760.34656,78.99779,111.09637
"57090",760.36,78.75365,110.82091
"57091",760.3734,78.53391,110.562225
"57092",760.38684,78.34348,110.32598
"57093",760.40027,78.17746,110.10819
"57094",760.4137,78.03586,109.90964
"57095",760.4271,77.91623,109.72863
"57096",760.44055,77.821014,109.5683
"57097",760.454,77.74288,109.42207
"57098",760.4674,77.68185,109.290504
"57099",760.48083,77.645226,109.18144
"57100",760.49426,77.65011,109.11274
"57101",760.5077,77.738,109.1272
"57102",760.5211,77.97238,109.29089
"57103",760.53455,78.41917,109.67432
"57104",760.548,79.10521,110.31096
"57105",760.5614,80.01343,111.191216
"57106",760.5748,81.075455,112.25366
"57107",760.58826,82.176544,113.38836
"57108",760.6017,83.194626,114.47446
"57109",760.6151,84.02228,115.40194
"57110",760.62854,84.60334,116.108696
"57111",760.64197,84.91585,116.565056
"57112",760.6554,84.972,116.774826
"57113",760.6688,84.80354,116.76174
"57114",760.68225,84.456856,116.56516
"57115",760.6957,83.983215,116.2308
"57116",760.7091,83.43145,115.803505
"57117",760.72253,82.84062,115.31991
"57118",760.73596,82.24246,114.81052
"57119",760.7494,81.654076,114.292206
"57120",760.7628,81.10719,113.79701
"57121",760.77625,80.62379,113.348206
"57122",760.7897,80.23071,112.974625
"57123",760.8031,79.94995,112.70107
"57124",760.8165,79.801025,112.55058
"57125",760.82996,79.77417,112.51751
"57126",760.8434,79.84985,112.586136
"57127",760.8568,79.99634,112.72793
"57128",760.87024,80.177,112.90848
"57129",760.88367,80.35035,113.08736
"57130",760.8971,80.47486,113.22282
"57131",760.9105,80.53834,113.30113
"57132",760.92395,80.52857,113.30819
"57133",760.9374,80.445564,113.2417
"57134",760.9508,80.29664,113.1067
"57135",760.96423,80.096436,112.915764
"57136",760.97766,79.86206,112.6844
"57137",760.9911,79.60082,112.41885
"57138",761.0045,79.32983,112.13538
"57139",761.01794,79.05394,111.838554
"57140",761.0314,78.79027,111.54532
"57141",761.0448,78.54124,111.258484
"57142",761.0582,78.30442,110.97608
"57143",761.07166,78.08957,110.708244
"57144",761.0851,77.89914,110.458115
"57145",761.0985,77.72335,110.216675
"57146",761.11194,77.56954,109.99172
"57147",761.12537,77.42794,109.77417
"57148",761.1388,77.30587,109.571724
"57149",761.1522,77.20332,109.38499
"57150",761.16565,77.14229,109.23656
"57151",761.1791,77.171585,109.17655
"57152",761.1925,77.37423,109.29081
"57153",761.20593,77.803925,109.63845
"57154",761.21936,78.49729,110.26319
"57155",761.2328,79.43969,111.15863
"57156",761.2462,80.5481,112.249535
"57157",761.25964,81.69558,113.41414
"57158",761.2731,82.75029,114.521835
"57159",761.2865,83.60723,115.46472
"57160",761.2999,84.19806,116.168274
"57161",761.31335,84.5008,116.6022
"57162",761.3268,84.52766,116.76971
"57163",761.3402,84.317696,116.70123
"57164",761.35364,83.92462,116.443085
"57165",761.36707,83.404594,116.0457
"57166",761.3805,82.811325,115.55882
"57167",761.3939,82.19119,115.02654
"57168",761.40735,81.57595,114.479774
"57169",761.4208,80.987564,113.940636
"57170",761.4342,80.445564,113.4295
"57171",761.44763,79.96948,112.96734
"57172",761.46106,79.57885,112.57575
"57173",761.4745,79.30053,112.28427
"57174",761.4879,79.149155,112.11104
"57175",761.50134,79.11986,112.05515
"57176",761.5148,79.1931,112.10089
"57177",761.5282,79.33471,112.217285
"57178",761.5416,79.50561,112.36739
"57179",761.55505,79.67162,112.51796
"57180",761.5685,79.7937,112.629776
"57181",761.5819,79.85718,112.686806
"57182",761.59534,79.84253,112.667694
"57183",761.60876,79.7522,112.57244
"57184",761.6222,79.59594,112.40844
"57185",761.6356,79.38354,112.18341
"57186",761.64905,79.132065,111.912674
"57187",761.6625,78.86107,111.614555
"57188",761.6759,78.58274,111.30064
"57189",761.68933,78.311745,110.98535
"57190",761.70276,78.05783,110.67868
"57191",761.7162,77.823456,110.38361
"57192",761.7296,77.608604,110.100746
"57193",761.74304,77.41573,109.833145
"57194",761.7565,77.242386,109.57904
"57195",761.7699,77.086136,109.33662
"57196",761.7833,76.946976,109.1064
"57197",761.79675,76.82979,108.89381
"57198",761.8102,76.74433,108.70928
"57199",761.8236,76.71992,108.58313
"57200",761.83704,76.822464,108.583176
"57201",761.85046,77.120316,108.78173
"57202",761.8639,77.66964,109.241066
"57203",761.8773,78.48264,109.98125
"57204",761.89075,79.51537,110.96656
"57205",761.9042,80.67506,112.1111
"57206",761.9176,81.82742,113.28456
"57207",761.931,82.84062,114.354866
"57208",761.94446,83.6292,115.232216
"57209",761.9579,84.13458,115.851006
"57210",761.9713,84.349434,116.19506
"57211",761.98474,84.29084,116.272385
"57212",761.99817,84.00763,116.12326
"57213",762.0116,83.5584,115.79927
"57214",762.025,83.001755,115.35382
"57215",762.03845,82.391396,114.837265
"57216",762.0519,81.76395,114.284546
"57217",762.0653,81.146255,113.72198
"57218",762.07874,80.552986,113.16453
"57219",762.09216,80.01343,112.64225
"57220",762.1056,79.54955,112.178795
"57221",762.119,79.185776,111.80094
"57222",762.13245,78.95628,111.546005
"57223",762.1459,78.86107,111.418175
"57224",762.1593,78.887924,111.40944
"57225",762.1727,79.009995,111.49676
"57226",762.18616,79.1931,111.648926
"57227",762.1996,79.38598,111.81659
"57228",762.213,79.554436,111.96586
"57229",762.22644,79.67162,112.06912
"57230",762.23987,79.71557,112.102806
"57231",762.2533,79.67895,112.0573
"57232",762.2667,79.56664,111.93496
"57233",762.28015,79.39086,111.745636
"57234",762.2936,79.166245,111.50198
"57235",762.307,78.9099,111.21958
"57236",762.32043,78.641335,110.916954
"57237",762.33386,78.380104,110.613266
"57238",762.3473,78.135956,110.3185
"57239",762.3607,77.90646,110.030754
"57240",762.37415,77.69894,109.757805
"57241",762.3876,77.51339,109.50035
"57242",762.401,77.34249,109.25175
"57243",762.4144,77.19112,109.01733
"57244",762.42786,77.05928,108.797714
"57245",762.4413,76.94942,108.595955
"57246",762.4547,76.87129,108.4225
"57247",762.46814,76.86397,108.317406
"57248",762.48157,76.99336,108.3488
"57249",762.495,77.34005,108.60153
"57250",762.5084,77.95285,109.13121
"57251",762.52185,78.82933,109.94372
"57252",762.5353,79.91089,110.98869
"57253",762.5487,81.08034,112.15536
"57254",762.56213,82.19852,113.3073
"57255",762.57556,83.140915,114.3184
"57256",762.589,83.824524,115.10016
"57257",762.6024,84.210266,115.605415
"57258",762.61584,84.300606,115.827324
"57259",762.6293,84.1297,115.79081
"57260",762.6427,83.74883,115.538994
"57261",762.6561,83.2166,115.12391
"57262",762.66956,82.58915,114.59698
"57263",762.683,81.91287,114.00161
"57264",762.6964,81.21706,113.36557
"57265",762.70984,80.5359,112.72244
"57266",762.72327,79.89624,112.09953
"57267",762.7367,79.3225,111.52255
"57268",762.7501,78.84154,111.02042
"57269",762.76355,78.47776,110.62044
"57270",762.777,78.24338,110.338486
"57271",762.7904,78.1384,110.17861
"57272",762.80383,78.14572,110.12776
"57273",762.81726,78.23605,110.16015
"57274",762.8307,78.382545,110.25152
"57275",762.8441,78.54612,110.36455
"57276",762.85754,78.692604,110.4656
"57277",762.871,78.802475,110.534615
"57278",762.8844,78.85863,110.553345
"57279",762.8978,78.853745,110.512794
"57280",762.91125,78.78783,110.41106
"57281",762.9247,78.66819,110.25354
"57282",762.9381,78.50706,110.05079
"57283",762.95154,78.31663,109.813705
"57284",762.96497,78.11154,109.556015
"57285",762.9784,77.89914,109.2846
"57286",762.9918,77.69161,109.01142
"57287",763.00525,77.4963,108.74397
"57288",763.0187,77.31808,108.48751
"57289",763.0321,77.15938,108.245
"57290",763.04553,77.015335,108.01219
"57291",763.05896,76.88838,107.79197
"57292",763.0724,76.77852,107.58487
"57293",763.0858,76.68574,107.39142
"57294",763.09924,76.61738,107.21949
"57295",763.1127,76.58564,107.08205
"57296",763.1261,76.64423,107.03394
"57297",763.1395,76.86153,107.14637
"57298",763.15295,77.30587,107.49264
"57299",763.1664,78.00656,108.10914
"57300",763.1798,78.94652,108.9868
"57301",763.19324,80.04028,110.047646
"57302",763.20667,81.17311,111.18173
"57303",763.2201,82.20828,112.25356
"57304",763.2335,83.0457,113.15999
"57305",763.24695,83.62188,113.831345
"57306",763.2604,83.914856,114.2375
"57307",763.2738,83.93683,114.38181
"57308",763.28723,83.72686,114.29487
"57309",763.30066,83.34112,114.02559
"57310",763.3141,82.84306,113.63194
"57311",763.3275,82.28153,113.159256
"57312",763.34094,81.69314,112.64216
"57313",763.3544,81.10475,112.10668
"57314",763.3678,80.5359,111.57235
"57315",763.3812,80.008545,111.061745
"57316",763.39465,79.551994,110.60546
"57317",763.4081,79.19554,110.23501
"57318",763.4215,78.96117,109.975494
"57319",763.43494,78.86107,109.84293
"57320",763.44836,78.88304,109.829315
"57321",763.4618,78.99779,109.90916
"57322",763.4752,79.17601,110.05606
"57323",763.48865,79.37133,110.22563
"57324",763.5021,79.554436,110.38909
"57325",763.5155,79.70336,110.52409
"57326",763.52893,79.798584,110.61005
"57327",763.54236,79.823,110.62817
"57328",763.5558,79.77173,110.571365
"57329",763.5692,79.65453,110.44704
"57330",763.58264,79.47875,110.26046
"57331",763.59607,79.26635,110.03177
"57332",763.6095,79.03197,109.77446
"57333",763.6229,78.79515,109.50739
"57334",763.63635,78.55833,109.23292
"57335",763.6498,78.3386,108.96814
"57336",763.6632,78.133514,108.711136
"57337",763.67664,77.95041,108.4697
"57338",763.69006,77.79172,108.24696
"57339",763.7035,77.65499,108.04123
"57340",763.7169,77.5378,107.85076
"57341",763.73035,77.437706,107.67372
"57342",763.7438,77.35714,107.513084
"57343",763.7572,77.30099,107.374344
"57344",763.7706,77.30343,107.29244
"57345",763.78406,77.41085,107.3156
"57346",763.7975,77.69894,107.52277
"57347",763.8109,78.21652,107.96845
"57348",763.82434,78.98802,108.68422
"57349",763.83777,79.97681,109.64138
"57350",763.8512,81.08766,110.75151
"57351",763.8646,82.19852,111.896355
"57352",763.87805,83.17998,112.94652
"57353",763.8915,83.93683,113.80274
"57354",763.9049,84.41779,114.40673
"57355",763.91833,84.613106,114.7401
"57356",763.93176,84.54719,114.81834
"57357",763.9452,84.266426,114.67967
"57358",763.9586,83.82941,114.37598
"57359",763.97205,83.29473,113.96097
"57360",763.9855,82.70878,113.477974
"57361",763.9989,82.11307,112.96691
"57362",764.0123,81.529564,112.44944
"57363",764.02576,80.970474,111.93815
"57364",764.0392,80.462654,111.460655
"57365",764.0526,80.02319,111.03565
"57366",764.06604,79.676506,110.68969
"57367",764.07947,79.447014,110.45009
"57368",764.0929,79.344475,110.33027
"57369",764.1063,79.3518,110.31711
"57370",764.11975,79.45434,110.39939
"57371",764.1332,79.61303,110.54103
"57372",764.1466,79.7937,110.70961
"57373",764.16003,79.9646,110.87406
"57374",764.17346,80.09888,111.00723
"57375",764.1869,80.17212,111.083565
"57376",764.2003,80.17456,111.091385
"57377",764.21375,80.10376,111.02604
"57378",764.2272,79.9646,110.89012
"57379",764.2406,79.77417,110.698586
"57380",764.254,79.54467,110.46203
"57381",764.26746,79.29565,110.19878
"57382",764.2809,79.04173,109.92285
"57383",764.2943,78.79515,109.646324
"57384",764.30774,78.56077,109.37429
"57385",764.32117,78.345924,109.11447
"57386",764.3346,78.15549,108.872345
"57387",764.348,77.98947,108.64869
"57388",764.36145,77.84787,108.44426
"57389",764.3749,77.72335,108.25249
"57390",764.3883,77.62081,108.078804
"57391",764.40173,77.540245,107.92389
"57392",764.41516,77.47677,107.78355
"57393",764.4286,77.42794,107.65587
"57394",764.442,77.41573,107.563286
"57395",764.45544,77.48409,107.55089
"57396",764.4689,77.69894,107.68711
"57397",764.4823,78.135956,108.05222
"57398",764.4957,78.83177,108.68979
"57399",764.50916,79.77905,109.60056
"57400",764.5226,80.902115,110.71672
"57401",764.536,82.07645,111.91924
"57402",764.54944,83.16289,113.07057
"57403",764.56287,84.04669,114.053215
"57404",764.5763,84.65705,114.79003
"57405",764.5897,84.972,115.25051
"57406",764.60315,85.00862,115.442505
"57407",764.6166,84.79866,115.38906
"57408",764.63,84.41535,115.15571
"57409",764.64343,83.912415,114.79075
"57410",764.65686,83.336235,114.33683
"57411",764.6703,82.735634,113.840485
"57412",764.6837,82.13016,113.320496
"57413",764.69714,81.53689,112.79379
"57414",764.7106,80.98268,112.28761
"57415",764.724,80.482185,111.817825
"57416",764.7374,80.062256,111.412964
"57417",764.75085,79.74731,111.09996
"57418",764.7643,79.554436,110.89919
"57419",764.7777,79.483635,110.81447
"57420",764.79114,79.517815,110.83251
"57421",764.80457,79.63012,110.92975
"57422",764.818,79.78638,111.07445
"57423",764.8314,79.94995,111.231346
"57424",764.84485,80.093994,111.373825
"57425",764.8583,80.18921,111.47198
"57426",764.8717,80.218506,111.50719
"57427",764.88513,80.181885,111.477394
"57428",764.89856,80.07202,111.373215
"57429",764.912,79.89868,111.202126
"57430",764.9254,79.68139,110.98167
"57431",764.93884,79.42748,110.717804
"57432",764.9523,79.15404,110.42647
"57433",764.9657,78.87572,110.12171
"57434",764.9791,78.607155,109.818016
"57435",764.99255,78.35569,109.523026
"57436",765.006,78.12863,109.24458
"57437",765.0194,77.93088,108.98835
"57438",765.03284,77.76486,108.757675
"57439",765.04626,77.61837,108.541336
"57440",765.0597,77.4963,108.34484
"57441",765.0731,77.39132,108.16162
"57442",765.08655,77.30343,107.99221
"57443",765.1,77.23506,107.83958
"57444",765.1134,77.19356,107.71167
"57445",765.12683,77.21309,107.6435
"57446",765.14026,77.36202,107.705345
"57447",765.1537,77.713585,107.97447
"57448",765.1671,78.33616,108.5256
"57449",765.18054,79.237045,109.37449
"57450",765.194,80.36988,110.48348
"57451",765.2074,81.619896,111.745056
"57452",765.2208,82.84306,113.018845
"57453",765.23425,83.90753,114.17216
"57454",765.2477,84.71809,115.10482
"57455",765.2611,85.23323,115.7674
"57456",765.27454,85.452965,116.15067
"57457",765.28796,85.40902,116.27713
"57458",765.3014,85.1429,116.18004
"57459",765.3148,84.72053,115.91838
"57460",765.32825,84.190735,115.5361
"57461",765.3417,83.60723,115.08356
"57462",765.3551,83.00908,114.59813
"57463",765.3685,82.42069,114.103775
"57464",765.38196,81.85672,113.61545
"57465",765.3954,81.33425,113.151
"57466",765.4088,80.87282,112.73126
"57467",765.42224,80.49195,112.37767
"57468",765.43567,80.21118,112.112274
"57469",765.4491,80.045166,111.95286
"57470",765.4625,79.98413,111.893234
"57471",765.47595,80.01099,111.91959
"57472",765.4894,80.096436,112.00539
"57473",765.5028,80.20386,112.11582
"57474",765.51624,80.30396,112.2223
"57475",765.52966,80.37476,112.3026
"57476",765.5431,80.39918,112.33872
"57477",765.5565,80.36256,112.314575
"57478",765.56995,80.26246,112.22581
"57479",765.5834,80.1062,112.07775
"57480",765.5968,79.89868,111.87355
"57481",765.6102,79.656975,111.62868
"57482",765.62366,79.3933,111.35429
"57483",765.6371,79.12718,111.06921
"57484",765.6505,78.86595,110.7807
"57485",765.66394,78.61692,110.49623
"57486",765.67737,78.39475,110.23084
"57487",765.6908,78.19699,109.98292
"57488",765.7042,78.02365,109.753235
"57489",765.71765,77.87717,109.54499
"57490",765.7311,77.75754,109.359024
"57491",765.7445,77.659874,109.191284
"57492",765.75793,77.58175,109.04003
"57493",765.77136,77.51827,108.900986
"57494",765.7848,77.46456,108.76972
"57495",765.7982,77.42306,108.64899
"57496",765.81165,77.41573,108.561134
"57497",765.8251,77.488976,108.55362
"57498",765.8385,77.72091,108.707085
"57499",765.8519,78.187225,109.10218
"57500",765.86536,78.92943,109.787735
"57501",765.8788,79.92554,110.75039
"57502",765.8922,81.09743,111.91995
"57503",765.90564,82.31327,113.17009
"57504",765.91907,83.43389,114.363
"57505",765.9325,84.34211,115.378525
"57506",765.9459,84.96956,116.14166
"57507",765.95935,85.29916,116.62656
"57508",765.9728,85.34554,116.83854
"57509",765.9862,85.15022,116.810265
"57510",765.99963,84.771805,116.59279
"57511",766.01306,84.27131,116.24141
"57512",766.0265,83.69756,115.80114
"57513",766.0399,83.09941,115.318535
"57514",766.05334,82.493935,114.80991
"57515",766.0668,81.90555,114.29946
"57516",766.0802,81.34646,113.79992
"57517",766.0936,80.848404,113.34394
"57518",766.10706,80.430916,112.952965
"57519",766.1205,80.11841,112.65392
"57520",766.1339,79.920654,112.45987
"57521",766.14734,79.84253,112.379265
"57522",766.16077,79.869385,112.4012
"57523",766.1742,79.974365,112.5021
"57524",766.1876,80.12085,112.64778
"57525",766.20105,80.272224,112.80293
"57526",766.2145,80.396736,112.93595
"57527",766.2279,80.46754,113.01915
"57528",766.24133,80.465096,113.03132
"57529",766.25476,80.38941,112.97017
"57530",766.2682,80.24292,112.835846
"57531",766.2816,80.03784,112.63836
"57532",766.29504,79.781494,112.383194
"57533",766.3085,79.49828,112.093155
"57534",766.3219,79.19798,111.777176
"57535",766.3353,78.89525,111.44938
"57536",766.34875,78.59983,111.11944
"57537",766.3622,78.32639,110.802246
"57538",766.3756,78.08469,110.50824
"57539",766.38904,77.88693,110.25063
"57540",766.40247,77.72579,110.02346
"57541",766.4159,77.59884,109.82544
"57542",766.4293,77.50118,109.65275
"57543",766.44275,77.420616,109.494095
"57544",766.4562,77.3547,109.34757
"57545",766.4696,77.30343,109.21364
"57546",766.48303,77.26925,109.09519
"57547",766.49646,77.27169,109.0123
"57548",766.5099,77.349815,109.005165
"57549",766.5233,77.56954,109.142075
"57550",766.53674,78.00168,109.49826
"57551",766.5502,78.695045,110.12918
"57552",766.5636,79.64233,111.03568
"57553",766.577,80.78493,112.16711
"57554",766.59045,81.99832,113.40503
"57555",766.6039,83.15068,114.619835
"57556",766.6173,84.122375,115.68999
"57557",766.63074,84.82796,116.52439
"57558",766.64417,85.23567,117.08298
"57559",766.6576,85.35531,117.36623
"57560",766.671,85.2137,117.39197
"57561",766.68445,84.86214,117.20333
"57562",766.6979,84.36408,116.857216
"57563",766.7113,83.77081,116.40032
"57564",766.72473,83.12627,115.87361
"57565",766.73816,82.46708,115.31212
"57566",766.7516,81.81766,114.73979
"57567",766.765,81.197525,114.17646
"57568",766.77844,80.63111,113.64747
"57569",766.7919,80.14526,113.18134
"57570",766.8053,79.77173,112.81235
"57571",766.8187,79.52514,112.558624
"57572",766.83215,79.40795,112.4266
"57573",766.8456,79.40795,112.4081
"57574",766.859,79.49828,112.47993
"57575",766.87244,79.639885,112.60585
"57576",766.88586,79.798584,112.753296
"57577",766.8993,79.9353,112.88372
"57578",766.9127,80.02319,112.96959
"57579",766.92615,80.042725,112.989845
"57580",766.9396,79.98657,112.93503
"57581",766.953,79.8645,112.81254
"57582",766.96643,79.68627,112.63007
"57583",766.97986,79.45922,112.39322
"57584",766.9933,79.202866,112.119965
"57585",767.0067,78.93187,111.82406
"57586",767.02014,78.65598,111.51479
"57587",767.03357,78.38499,111.2018
"57588",767.047,78.135956,110.9023
"57589",767.0604,77.91135,110.61944
"57590",767.07385,77.71114,110.353966
"57591",767.0873,77.54269,110.11398
"57592",767.1007,77.40353,109.89803
"57593",767.11414,77.29122,109.70459
"57594",767.12756,77.20332,109.53204
"57595",767.141,77.137405,109.37873
"57596",767.1544,77.086136,109.23801
"57597",767.16785,77.04219,109.103004
"57598",767.1813,77.01045,108.978836
"57599",767.1947,76.99092,108.86588
"57600",767.2081,76.995804,108.77673
"57601",767.22156,77.066605,108.753654
"57602",767.235,77.264366,108.85975
"57603",767.2484,77.662315,109.17221
"57604",767.26184,78.30686,109.743706
"57605",767.27527,79.19798,110.58192
"57606",767.2887,80.27711,111.63598
"57607",767.3021,81.43679,112.80432
"57608",767.31555,82.54032,113.95275
"57609",767.329,83.475395,114.96721
"57610",767.3424,84.15167,115.75209
"57611",767.35583,84.53986,116.27002
"57612",767.36926,84.647285,116.51931
"57613",767.3827,84.50324,116.52049
"57614",767.3961,84.156555,116.31453
"57615",767.40955,83.67315,115.96101
"57616",767.423,83.104294,115.50694
"57617",767.4364,82.48905,114.98871
"57618",767.4498,81.85916,114.4366
"57619",767.46326,81.23903,113.874565
"57620",767.4767,80.6482,113.32246
"57621",767.4901,80.113525,112.80804
"57622",767.50354,79.6643,112.36236
"57623",767.51697,79.33471,112.02228
"57624",767.5304,79.14427,111.81105
"57625",767.5438,79.08568,111.725716
"57626",767.55725,79.14427,111.75574
"57627",767.5707,79.28344,111.868164
"57628",767.5841,79.46166,112.023994
"57629",767.59753,79.64233,112.187836
"57630",767.61096,79.79614,112.330475
"57631",767.6244,79.89624,112.4242
"57632",767.6378,79.93286,112.45758
"57633",767.65125,79.89624,112.41886
"57634",767.6647,79.783936,112.303314
"57635",767.6781,79.61059,112.123215
"57636",767.6915,79.39086,111.89132
"57637",767.70496,79.13939,111.62081
"57638",767.7184,78.87572,111.330246
"57639",767.7318,78.61448,111.033875
"57640",767.74524,78.363014,110.73911
"57641",767.75867,78.12863,110.453575
"57642",767.7721,77.91379,110.18025
"57643",767.7855,77.72579,109.92706
"57644",767.79895,77.56466,109.69486
"57645",767.8124,77.43038,109.48448
"57646",767.8258,77.32296,109.29676
"57647",767.83923,77.2375,109.12765
"57648",767.85266,77.16426,108.96808
"57649",767.8661,77.103226,108.81843
"57650",767.8795,77.0544,108.67908
"57651",767.89294,77.02022,108.55285
"57652",767.9064,77.00557,108.44508
"57653",767.9198,77.04463,108.39057
"57654",767.9332,77.196,108.449585
"57655",767.94666,77.523155,108.68912
"57656",767.9601,78.0798,109.168365
"57657",767.9735,78.87816,109.906715
"57658",767.98694,79.87915,110.87265
"57659",768.00037,80.97536,111.96508
"57660",768.0138,82.054474,113.07468
"57661",768.0272,82.99687,114.081276
"57662",768.04065,83.717094,114.89515
"57663",768.0541,84.17853,115.47274
"57664",768.0675,84.368965,115.793755
"57665",768.08093,84.31037,115.87169
"57666",768.09436,84.03937,115.73538
"57667",768.1078,83.612114,115.43436
"57668",768.1212,83.08476,115.01988
"57669",768.13464,82.50858,114.5401
"57670",768.1481,81.91287,114.02278
"57671",768.1615,81.324486,113.49417
"57672",768.1749,80.75563,112.966705
"57673",768.18835,80.22827,112.46296
"57674",768.2018,79.77661,112.01843
"57675",768.2152,79.432365,111.667206
"57676",768.22864,79.2224,111.4395
"57677",768.24207,79.14671,111.339516
"57678",768.2555,79.19798,111.36412
"57679",768.2689,79.34203,111.48311
"57680",768.28235,79.534904,111.65542
"57681",768.2958,79.742424,111.848404
"57682",768.3092,79.92554,112.02347
"57683",768.32263,80.05737,112.15298
"57684",768.33606,80.11841,112.215805
"57685",768.3495,80.096436,112.19753
"57686",768.3629,79.99878,112.10289
"57687",768.37634,79.83765,111.94172
"57688",768.3898,79.62768,111.72668
"57689",768.4032,79.38598,111.47334
"57690",768.4166,79.1223,111.190475
"57691",768.43005,78.8513,110.89205
"57692",768.4435,78.58274,110.58759
"57693",768.4569,78.33372,110.29428
"57694",768.47034,78.10666,110.01515
"57695",768.48376,77.91379,109.763115
"57696",768.4972,77.75754,109.54167
"57697",768.5106,77.63302,109.34708
"57698",768.52405,77.53536,109.17545
"57699",768.5375,77.45724,109.02031
"57700",768.5509,77.39864,108.882256
"57701",768.56433,77.347374,108.749695
"57702",768.57776,77.30831,108.62774
"57703",768.5912,77.281456,108.51677
"57704",768.6046,77.26925,108.41961
"57705",768.61804,77.28878,108.353806
"57706",768.6315,77.38644,108.36674
"57707",768.6449,77.625694,108.52432
"57708",768.6583,78.07004,108.89447
"57709",768.67175,78.76341,109.527534
"57710",768.6852,79.693596,110.419075
"57711",768.6986,80.79225,111.508156
"57712",768.71204,81.94705,112.68771
"57713",768.72546,83.03105,113.83256
"57714",768.7389,83.929504,114.82573
"57715",768.7523,84.57404,115.59306
"57716",768.76575,84.945145,116.1071
"57717",768.7792,85.04036,116.35685
"57718",768.7926,84.893875,116.367874
"57719",768.806,84.55207,116.179
"57720",768.81946,84.08087,115.85005
"57721",768.8329,83.52178,115.41849
"57722",768.8463,82.913864,114.92062
"57723",768.85974,82.28397,114.38179
"57724",768.87317,81.66384,113.83303
"57725",768.8866,81.07057,113.291756
"57726",768.9,80.533455,112.78809
"57727",768.91345,80.08667,112.35798
"57728",768.9269,79.764404,112.03842
"57729",768.9403,79.58373,111.85039
"57730",768.95374,79.54223,111.795876
"57731",768.96716,79.61791,111.857254
"57732",768.9806,79.77661,112.00401
"57733",768.994,79.97681,112.19723
"57734",769.00745,80.17456,112.39426
"57735",769.0209,80.3357,112.56085
"57736",769.0343,80.4358,112.67144
"57737",769.0477,80.45777,112.70703
"57738",769.06116,80.40162,112.665184
"57739",769.0746,80.26734,112.54346
"57740",769.088,80.06958,112.35405
"57741",769.10144,79.823,112.10964
"57742",769.11487,79.54467,111.82578
"57743",769.1283,79.25414,111.52103
"57744",769.1417,78.96605,111.209625
"57745",769.15515,78.695045,110.90631
"57746",769.1686,78.44114,110.611626
"57747",769.182,78.21896,110.34074
"57748",769.19543,78.02609,110.09221
"57749",769.20886,77.86496,109.86939
"57750",769.2223,77.74044,109.678154
"57751",769.2357,77.642784,109.50989
"57752",769.24915,77.5671,109.36054
"57753",769.2626,77.50851,109.22592
"57754",769.276,77.46456,109.10412
"57755",769.2894,77.43038,108.99071
"57756",769.30286,77.40841,108.888435
"57757",769.3163,77.401085,108.800125
"57758",769.3297,77.44015,108.75797
"57759",769.34314,77.57198,108.809814
"57760",769.35657,77.86496,109.02692
"57761",769.37,78.38499,109.480225
"57762",769.3834,79.15404,110.19881
"57763",769.39685,80.15015,111.16848
"57764",769.4103,81.28298,112.30601
"57765",769.4237,82.43778,113.5009
"57766",769.43713,83.48028,114.619576
"57767",769.45056,84.31037,115.558426
"57768",769.464,84.874344,116.257095
"57769",769.4774,85.155106,116.69018
"57770",769.49084,85.16731,116.86348
"57771",769.5043,84.945145,116.80279
"57772",769.5177,84.542305,116.55448
"57773",769.5311,83.99786,116.151985
"57774",769.54456,83.36797,115.647026
"57775",769.558,82.69169,115.07599
"57776",769.5714,82.003204,114.47162
"57777",769.58484,81.33669,113.86771
"57778",769.59827,80.723885,113.29667
"57779",769.6117,80.18921,112.784615
"57780",769.6251,79.766846,112.368164
"57781",769.63855,79.48119,112.075226
"57782",769.652,79.34203,111.91985
"57783",769.6654,79.34203,111.89929
"57784",769.67883,79.449455,111.98615
"57785",769.69226,79.63012,112.14961
"57786",769.7057,79.84253,112.350464
"57787",769.7191,80.045166,112.54818
"57788",769.73254,80.20386,112.70828
"57789",769.746,80.29664,112.807434
"57790",769.7594,80.30396,112.82403
"57791",769.7728,80.22095,112.75051
"57792",769.78625,80.062256,112.598724
"57793",769.7997,79.84985,112.38827
"57794",769.8131,79.5935,112.12722
"57795",769.82654,79.31762,111.83864
"57796",769.83997,79.03197,111.53166
"57797",769.8534,78.746315,111.21576
"57798",769.8668,78.46555,110.89582
"57799",769.88025,78.19699,110.57931
"57800",769.8937,77.960175,110.28615
"57801",769.9071,77.75021,110.01244
"57802",769.92053,77.56466,109.756584
"57803",769.93396,77.40841,109.52423
"57804",769.9474,77.27657,109.31141
"57805",769.9608,77.16426,109.11399
"57806",769.97424,77.066605,108.92772
"57807",769.9877,76.99336,108.76281
"57808",770.0011,76.944534,108.620026
"57809",770.0145,76.93233,108.51234
"57810",770.02795,77.00069,108.48483
"57811",770.0414,77.22041,108.61083
"57812",770.0548,77.65499,108.95855
"57813",770.06824,78.345924,109.5762
"57814",770.08167,79.28588,110.46447
"57815",770.0951,80.40894,111.565216
"57816",770.1085,81.59792,112.766975
"57817",770.12195,82.72587,113.944855
"57818",770.1354,83.67559,114.97976
"57819",770.1488,84.37385,115.79288
"57820",770.16223,84.791336,116.347046
"57821",770.17566,84.92561,116.63105
"57822",770.1891,84.805984,116.665344
"57823",770.2025,84.47639,116.48593
"57824",770.21594,83.99298,116.14241
"57825",770.2294,83.40215,115.67636
"57826",770.2428,82.74784,115.128365
"57827",770.2562,82.06668,114.53307
"57828",770.26965,81.38552,113.9165
"57829",770.2831,80.73121,113.30548
"57830",770.2965,80.13794,112.73506
"57831",770.30994,79.64965,112.25108
"57832",770.32336,79.290764,111.88125
"57833",770.3368,79.080795,111.64912
"57834",770.3502,79.01976,111.55936
"57835",770.36365,79.08812,111.597084
"57836",770.3771,79.24681,111.72728
"57837",770.3905,79.4641,111.921036
"57838",770.40393,79.69604,112.13622
"57839",770.41736,79.906006,112.33669
"57840",770.4308,80.05737,112.48512
"57841",770.4442,80.130615,112.56016
"57842",770.45764,80.11841,112.55203
"57843",770.47107,80.028076,112.4654
"57844",770.4845,79.869385,112.30759
"57845",770.4979,79.65942,112.09354
"57846",770.51135,79.42016,111.843636
"57847",770.5248,79.15648,111.56184
"57848",770.5382,78.887924,111.26692
"57849",770.55164,78.61936,110.96361
"57850",770.56506,78.36057,110.661674
"57851",770.5785,78.118866,110.36874
"57852",770.5919,77.89914,110.090225
"57853",770.60535,77.70382,109.829254
"57854",770.6188,77.53536,109.58904
"57855",770.6322,77.39376,109.37042
"57856",770.6456,77.26925,109.16447
"57857",770.65906,77.1667,108.976585
"57858",770.6725,77.0959,108.817245
"57859",770.6859,77.09346,108.72405
"57860",770.69934,77.225296,108.76506
"57861",770.71277,77.55245,109.00551
"57862",770.7262,78.12863,109.5052
"57863",770.7396,78.96361,110.2817
"57864",770.75305,80.0061,111.29181
"57865",770.7665,81.15358,112.439476
"57866",770.7799,82.28153,113.60348
"57867",770.79333,83.27032,114.66356
"57868",770.80676,84.03204,115.52748
"57869",770.8202,84.51789,116.13933
"57870",770.8336,84.71809,116.480705
"57871",770.84705,84.65705,116.56711
"57872",770.8605,84.37385,116.429436
"57873",770.8739,83.91974,116.11201
"57874",770.8873,83.346,115.66076
"57875",770.90076,82.69901,115.11833
"57876",770.9142,82.01541,114.51907
"57877",770.9276,81.322044,113.88869
"57878",770.94104,80.65797,113.26592
"57879",770.95447,80.062256,112.69077
"57880",770.9679,79.56664,112.197105
"57881",770.9813,79.20531,111.82223
"57882",770.99475,79.00267,111.59476
"57883",771.0082,78.95384,111.51476
"57884",771.0216,79.044174,111.5724
"57885",771.03503,79.234604,111.73296
"57886",771.04846,79.483635,111.95808
"57887",771.0619,79.73998,112.19829
"57888",771.0753,79.96704,112.41722
"57889",771.08875,80.128174,112.577324
"57890",771.1022,80.20874,112.661896
"57891",771.1156,80.2063,112.66598
"57892",771.129,80.12573,112.59186
"57893",771.14246,79.97925,112.4493
"57894",771.1559,79.78638,112.25578
"57895",771.1693,79.54955,112.01228
"57896",771.18274,79.290764,111.73942
"57897",771.19617,79.01976,111.44625
"57898",771.2096,78.746315,111.14217
"57899",771.223,78.4802,110.83688
"57900",771.23645,78.23117,110.54036
"57901",771.2499,78.00412,110.25803
"57902",771.2633,77.7966,109.988144
"57903",771.27673,77.61349,109.736176
"57904",771.29016,77.46212,109.51023
"57905",771.3036,77.36202,109.330826
"57906",771.317,77.347374,109.23374
"57907",771.33044,77.47677,109.28024
"57908",771.3439,77.81857,109.5432
"57909",771.3573,78.40696,110.063416
"57910",771.3707,79.237045,110.84372
"57911",771.38416,80.255135,111.83797
"57912",771.3976,81.356224,112.94703
"57913",771.411,82.41093,114.04411
"57914",771.42444,83.30694,115.015465
"57915",771.43787,83.97101,115.782875
"57916",771.4513,84.3592,116.29516
"57917",771.4647,84.473946,116.54613
"57918",771.47815,84.33967,116.55166
"57919",771.4916,84.00275,116.35035
"57920",771.505,83.50713,115.97982
"57921",771.51843,82.90898,115.491264
"57922",771.53186,82.2449,114.91809
"57923",771.5453,81.55398,114.29732
"57924",771.5587,80.87038,113.66228
"57925",771.57214,80.22095,113.04005
"57926",771.5856,79.656975,112.48298
"57927",771.599,79.21507,112.03036
"57928",771.6124,78.92943,111.720184
"57929",771.62585,78.81224,111.56954
"57930",771.6393,78.84886,111.569046
"57931",771.6527,79.009995,111.69421
"57932",771.66614,79.23949,111.89276
"57933",771.67957,79.4934,112.12291
"57934",771.693,79.727776,112.34145
"57935",771.7064,79.906006,112.51118
"57936",771.71985,80.0061,112.60834
"57937",771.7333,80.028076,112.6305
"57938",771.7467,79.971924,112.575226
"57939",771.76013,79.84009,112.44251
"57940",771.77356,79.64965,112.24708
"57941",771.787,79.41772,112.004196
"57942",771.8004,79.149155,111.71744
"57943",771.81384,78.86107,111.40276
"57944",771.8273,78.56809,111.074196
"57945",771.8407,78.277565,110.73892
"57946",771.8541,78.00412,110.41165
"57947",771.86755,77.75754,110.1027
"57948",771.881,77.540245,109.81533
"57949",771.8944,77.37911,109.57733
"57950",771.90784,77.315636,109.43195
"57951",771.92126,77.41573,109.448166
"57952",771.9347,77.738,109.689674
"57953",771.9481,78.32151,110.2025
"57954",771.96155,79.149155,110.97769
"57955",771.975,80.15991,111.96186
"57956",771.9884,81.23659,113.04353
"57957",772.00183,82.252235,114.097824
"57958",772.01526,83.09941,115.01538
"57959",772.0287,83.71221,115.72504
"57960",772.0421,84.05646,116.18529
"57961",772.05554,84.14435,116.39994
"57962",772.069,84.000305,116.38541
"57963",772.0824,83.67071,116.18082
"57964",772.0958,83.20195,115.82677
"57965",772.10925,82.63798,115.362854
"57966",772.1227,82.01541,114.82272
"57967",772.1361,81.373314,114.24361
"57968",772.14954,80.740974,113.65418
"57969",772.16296,80.147705,113.08407
"57970",772.1764,79.63012,112.5711
"57971",772.1898,79.22484,112.15426
"57972",772.20325,78.9514,111.8566
"57973",772.2167,78.819565,111.69199
"57974",772.2301,78.82445,111.65999
"57975",772.2435,78.93431,111.733116
"57976",772.25696,79.10765,111.87315
"57977",772.2704,79.30785,112.04547
"57978",772.2838,79.49096,112.20695
"57979",772.29724,79.62524,112.32532
"57980",772.31067,79.693596,112.381966
"57981",772.3241,79.68139,112.36018
"57982",772.3375,79.59106,112.259895
"57983",772.35095,79.43481,112.090866
"57984",772.3644,79.22728,111.86568
"57985",772.3778,78.98558,111.59983
"57986",772.39124,78.72434,111.30689
"57987",772.40466,78.45335,110.99603
"57988",772.4181,78.17746,110.671814
"57989",772.4315,77.91379,110.35119
"57990",772.44495,77.66476,110.036964
"57991",772.4584,77.45968,109.75891
"57992",772.4718,77.34493,109.56478
"57993",772.4852,77.383995,109.520874
"57994",772.49866,77.642784,109.697914
"57995",772.5121,78.16281,110.14428
"57996",772.5255,78.941635,110.86569
"57997",772.53894,79.91333,111.80431
"57998",772.55237,80.972916,112.86119
"57999",772.5658,81.98367,113.90235
"58000",772.5792,82.84062,114.82129
"58001",772.59265,83.46319,115.53262
"58002",772.6061,83.82208,115.99974
"58003",772.6195,83.9173,116.21439
"58004",772.63293,83.790344,116.209854
"58005",772.64636,83.492485,116.03044
"58006",772.6598,83.08232,115.729416
"58007",772.6732,82.6038,115.34721
"58008",772.68665,82.09598,114.92076
"58009",772.7001,81.57595,114.46623
"58010",772.7135,81.05592,113.99545
"58011",772.7269,80.54566,113.51819
"58012",772.74036,80.07202,113.0616
"58013",772.7538,79.66186,112.65369
"58014",772.7672,79.34203,112.323296
"58015",772.78064,79.12962,112.090324
"58016",772.79407,79.03197,111.96547
"58017",772.8075,79.03197,111.93522
"58018",772.8209,79.09544,111.968445
"58019",772.83435,79.18822,112.03295
"58020",772.8478,79.273674,112.09304
"58021",772.8612,79.327385,112.124054
"58022",772.87463,79.33227,112.10792
"58023",772.88806,79.28344,112.03822
"58024",772.9015,79.17601,111.9084
"58025",772.9149,79.012436,111.71908
"58026",772.92834,78.8098,111.48558
"58027",772.9418,78.57542,111.214005
"58028",772.9552,78.32395,110.91802
"58029",772.9686,78.07492,110.616615
"58030",772.98206,77.83322,110.31476
"58031",772.9955,77.60128,110.01511
"58032",773.0089,77.38644,109.7253
"58033",773.02234,77.20332,109.46052
"58034",773.03577,77.08858,109.25838
"58035",773.0492,77.0959,109.17472
"58036",773.0626,77.30343,109.2915
"58037",773.07605,77.75754,109.66134
"58038",773.0895,78.467995,110.30172
"58039",773.1029,79.38354,111.16939
"58040",773.11633,80.411385,112.17797
"58041",773.12976,81.42214,113.201584
"58042",773.1432,82.29374,114.11762
"58043",773.1566,82.93828,114.83384
"58044",773.17004,83.32647,115.31385
"58045",773.1835,83.46075,115.55208
"58046",773.1969,83.38262,115.5821
"58047",773.2103,83.140915,115.4461
"58048",773.22375,82.794235,115.19757
"58049",773.2372,82.39628,114.88693
"58050",773.2506,81.971466,114.537
"58051",773.26404,81.54177,114.168915
"58052",773.27747,81.109634,113.78496
"58053",773.2909,80.67994,113.38994
"58054",773.3043,80.257576,112.98882
"58055",773.31775,79.8645,112.6038
"58056",773.3312,79.5227,112.25776
"58057",773.3446,79.25414,111.97429
"58058",773.35803,79.07347,111.77031
"58059",773.37146,78.98558,111.653465
"58060",773.3849,78.97093,111.60712
"58061",773.3983,79.00755,111.61158
"58062",773.41174,79.06859,111.6416
"58063",773.4252,79.1223,111.66621
"58064",773.4386,79.14183,111.65831
"58065",773.452,79.11742,111.60708
"58066",773.46545,79.03685,111.49893
"58067",773.4789,78.907455,111.33944
"58068",773.4923,78.73411,111.13195
"58069",773.50574,78.53147,110.889755
"58070",773.51917,78.311745,110.62414
"58071",773.5326,78.082245,110.34188
"58072",773.546,77.857635,110.05734
"58073",773.55945,77.642784,109.77554
"58074",773.5729,77.44503,109.50413
"58075",773.5863,77.26681,109.24606
"58076",773.59973,77.11299,109.006836
"58077",773.61316,77.00557,108.8092
"58078",773.6266,76.9836,108.69365
"58079",773.64,77.10811,108.7239
"58080",773.65344,77.435265,108.960686
"58081",773.6669,78.00412,109.449394
"58082",773.6803,78.79515,110.178055
"58083",773.6937,79.744865,111.09012
"58084",773.70715,80.73365,112.07093
"58085",773.7206,81.64187,113.002075
"58086",773.734,82.36942,113.78094
"58087",773.74744,82.862595,114.34815
"58088",773.76086,83.11162,114.68663
"58089",773.7743,83.14336,114.815605
"58090",773.7877,83.01152,114.782
"58091",773.80115,82.76738,114.631966
"58092",773.8146,82.46464,114.4157
"58093",773.828,82.13748,114.165565
"58094",773.84143,81.80789,113.90277
"58095",773.85486,81.47341,113.62479
"58096",773.8683,81.12184,113.31926
"58097",773.8817,80.7483,112.980774
"58098",773.89514,80.36256,112.618416
"58099",773.90857,79.97925,112.24644
"58100",773.922,79.63256,111.8991
"58101",773.9354,79.35668,111.61174
"58102",773.94885,79.1638,111.39876
"58103",773.9623,79.05638,111.265205
"58104",773.9757,79.01976,111.1991
"58105",773.98914,79.03197,111.18067
"58106",774.00256,79.05882,111.17728
"58107",774.016,79.078354,111.1674
"58108",774.0294,79.06859,111.12883
"58109",774.04285,79.01732,111.048454
"58110",774.0563,78.91478,110.91521
"58111",774.0697,78.765854,110.73237
"58112",774.0831,78.58274,110.51069
"58113",774.09656,78.380104,110.26376
"58114",774.11,78.167694,110.00073
"58115",774.1234,77.95285,109.72863
"58116",774.13684,77.75754,109.469345
"58117",774.15027,77.57198,109.213715
"58118",774.1637,77.40353,108.96938
"58119",774.1771,77.25704,108.74176
"58120",774.19055,77.134964,108.533966
"58121",774.204,77.02998,108.339455
"58122",774.2174,76.94209,108.15875
"58123",774.23083,76.87129,107.99239
"58124",774.24426,76.824905,107.848236
"58125",774.2577,76.8127,107.73681
"58126",774.2711,76.88594,107.71045
"58127",774.28455,77.10567,107.83286
"58128",774.298,77.51827,108.15502
"58129",774.3114,78.14328,108.70248
"58130",774.3248,78.94896,109.450134
"58131",774.33826,79.8645,110.33283
"58132",774.3517,80.7776,111.2417
"58133",774.3651,81.58083,112.06923
"58134",774.37854,82.18875,112.72655
"58135",774.39197,82.56718,113.17337
"58136",774.4054,82.72343,113.40984
"58137",774.4188,82.69413,113.46565
"58138",774.43225,82.533,113.38871
"58139",774.4457,82.29862,113.23349
"58140",774.4591,82.0325,113.0392
"58141",774.47253,81.761505,112.83172
"58142",774.48596,81.48806,112.61332
"58143",774.4994,81.197525,112.369286
"58144",774.5128,80.885025,112.09421
"58145",774.52625,80.550545,111.787384
"58146",774.5397,80.201416,111.45546
"58147",774.5531,79.85474,111.115074
"58148",774.5665,79.54711,110.80291
"58149",774.57996,79.30785,110.5495
"58150",774.5934,79.15404,110.374054
"58151",774.6068,79.08812,110.2817
"58152",774.62024,79.09056,110.255646
"58153",774.63367,79.14427,110.28094
"58154",774.6471,79.20775,110.31767
"58155",774.6605,79.2517,110.33687
"58156",774.67395,79.25414,110.315926
"58157",774.6874,79.20531,110.24378
"58158",774.7008,79.10765,110.12129
"58159",774.71423,78.96849,109.95425
"58160",774.72766,78.79515,109.74867
"58161",774.7411,78.59983,109.5157
"58162",774.7545,78.399635,109.27175
"58163",774.76794,78.204315,109.02642
"58164",774.7814,78.02121,108.7872
"58165",774.7948,77.86008,108.56423
"58166",774.8082,77.72823,108.36552
"58167",774.82166,77.62325,108.189545
"58168",774.8351,77.54269,108.034706
"58169",774.8485,77.488976,107.904205
"58170",774.86194,77.44747,107.78423
"58171",774.87537,77.41573,107.67273
"58172",774.8888,77.38888,107.56512
"58173",774.9022,77.36935,107.46399
"58174",774.91565,77.347374,107.35981
"58175",774.9291,77.332726,107.26227
"58176",774.9425,77.33517,107.18136
"58177",774.95593,77.37179,107.134705
"58178",774.96936,77.48409,107.16488
"58179",774.9828,77.73556,107.33772
"58180",774.9962,78.16525,107.696655
"58181",775.00964,78.78294,108.25701
"58182",775.0231,79.5642,109.00024
"58183",775.0365,80.42359,109.84601
"58184",775.0499,81.25857,110.69422
"58185",775.06335,81.969025,111.44401
"58186",775.0768,82.48417,112.02068
"58187",775.0902,82.78203,112.39617
"58188",775.10364,82.87236,112.57344
"58189",775.11707,82.80156,112.5924
"58190",775.1305,82.62333,112.50172
"58191",775.1439,82.388954,112.34932
"58192",775.15735,82.13016,112.16518
"58193",775.1708,81.866486,111.96807
"58194",775.1842,81.59792,111.757835
"58195",775.19763,81.3196,111.52945
"58196",775.21106,81.02907,111.28015
"58197",775.2245,80.73121,111.01445
"58198",775.2379,80.4358,110.74189
"58199",775.25134,80.16968,110.48939
"58200",775.2648,79.94751,110.27252
"58201",775.2782,79.7937,110.11707
"58202",775.2916,79.710686,110.02761
"58203",775.30505,79.691154,109.99904
"58204",775.3185,79.72289,110.021126
"58205",775.3319,79.77905,110.06863
"58206",775.34534,79.82788,110.11055
"58207",775.35876,79.852295,110.129585
"58208",775.3722,79.84009,110.11276
"58209",775.3856,79.781494,110.04917
"58210",775.39905,79.67162,109.93247
"58211",775.4125,79.520256,109.77084
"58212",775.4259,79.33959,109.57519
"58213",775.43933,79.14183,109.35679
"58214",775.45276,78.93187,109.12001
"58215",775.4662,78.73411,108.88887
"58216",775.4796,78.551,108.66621
"58217",775.49304,78.38499,108.45491
"58218",775.5065,78.24094,108.26039
"58219",775.5199,78.12131,108.08579
"58220",775.5333,78.028534,107.93431
"58221",775.54675,77.960175,107.804344
"58222",775.5602,77.91867,107.6991
"58223",775.5736,77.89914,107.614525
"58224",775.58704,77.89426,107.54399
"58225",775.60046,77.90158,107.48551
"58226",775.6139,77.91379,107.432144
"58227",775.6273,77.92355,107.37672
"58228",775.64075,77.92844,107.31671
"58229",775.6542,77.92844,107.251976
"58230",775.6676,77.92111,107.17992
"58231",775.681,77.91379,107.10763
"58232",775.69446,77.90402,107.03267
"58233",775.7079,77.91135,106.974495
"58234",775.7213,77.95773,106.95561
"58235",775.73474,78.09201,107.02607
"58236",775.74817,78.37034,107.244774
"58237",775.7616,78.839096,107.662605
"58238",775.775,79.500725,108.28796
"58239",775.78845,80.31373,109.08536
"58240",775.8019,81.18532,109.96675
"58241",775.8153,82.003204,110.82168
"58242",775.82874,82.669716,111.55079
"58243",775.84216,83.1165,112.081
"58244",775.8556,83.32891,112.3908
"58245",775.869,83.32891,112.49483
"58246",775.88245,83.17021,112.440155
"58247",775.8959,82.913864,112.282875
"58248",775.9093,82.61356,112.07363
"58249",775.9227,82.30106,111.842804
"58250",775.93616,82.003204,111.61685
"58251",775.9496,81.71511,111.39136
"58252",775.963,81.43191,111.16175
"58253",775.97644,81.1487,110.92329
"58254",775.98987,80.87282,110.683304
"58255",776.0033,80.618904,110.456665
"58256",776.0167,80.40406,110.26116
"58257",776.03015,80.25269,110.12242
"58258",776.0436,80.17456,110.052185
"58259",776.057,80.164795,110.047874
"58260",776.07043,80.21118,110.09941
"58261",776.08386,80.289314,110.18414
"58262",776.0973,80.36744,110.27131
"58263",776.1107,80.42359,110.33894
"58264",776.12415,80.43824,110.36683
"58265",776.1376,80.396736,110.33902
"58266",776.151,80.30152,110.2562
"58267",776.1644,80.15747,110.121574
"58268",776.17786,79.971924,109.94095
"58269",776.1913,79.75952,109.72767
"58270",776.2047,79.54223,109.50286
"58271",776.21814,79.327385,109.27371
"58272",776.23157,79.12962,109.05493
"58273",776.245,78.95384,108.85195
"58274",776.2584,78.80492,108.670334
"58275",776.27185,78.677956,108.50603
"58276",776.2853,78.572975,108.35973
"58277",776.2987,78.485085,108.22725
"58278",776.31213,78.416725,108.11155
"58279",776.32556,78.37034,108.015686
"58280",776.339,78.34104,107.93546
"58281",776.3524,78.32639,107.86897
"58282",776.36584,78.328835,107.819115
"58283",776.3793,78.34348,107.78154
"58284",776.3927,78.35813,107.74442
"58285",776.4061,78.3679,107.70288
"58286",776.41956,78.3679,107.65188
"58287",776.433,78.35813,107.59111
"58288",776.4464,78.34104,107.52271
"58289",776.45984,78.32395,107.45378
"58290",776.47327,78.31663,107.39408
"58291",776.4867,78.36057,107.38542
"58292",776.5001,78.49729,107.47091
"58293",776.51355,78.78294,107.7096
"58294",776.527,79.2517,108.14033
"58295",776.5404,79.89868,108.76392
"58296",776.55383,80.67994,109.542015
"58297",776.56726,81.50759,110.390915
"58298",776.5807,82.27421,111.20464
"58299",776.5941,82.88701,111.88851
"58300",776.60754,83.29473,112.38645
"58301",776.621,83.475395,112.670074
"58302",776.6344,83.44366,112.74694
"58303",776.6478,83.24834,112.65923
"58304",776.66125,82.9456,112.45801
"58305",776.6747,82.59403,112.19849
"58306",776.6881,82.23758,111.923096
"58307",776.70154,81.900665,111.656105
"58308",776.71497,81.58572,111.40055
"58309",776.7284,81.29275,111.157135
"58310",776.7418,81.01686,110.921646
"58311",776.75525,80.762955,110.69952
"58312",776.7687,80.54322,110.503624
"58313",776.7821,80.36744,110.34482
"58314",776.79553,80.257576,110.24644
"58315",776.80896,80.218506,110.215416
"58316",776.8224,80.24536,110.2491
"58317",776.8358,80.32105,110.33246
"58318",776.84924,80.41871,110.44015
"58319",776.8627,80.5066,110.54112
"58320",776.8761,80.570076,110.62043
"58321",776.8895,80.58228,110.65045
"58322",776.90295,80.53834,110.6247
"58323",776.9164,80.43824,110.54143
"58324",776.9298,80.291756,110.40864
"58325",776.94324,80.10376,110.22976
"58326",776.95667,79.89136,110.0206
"58327",776.9701,79.674065,109.79991
"58328",776.9835,79.46166,109.577324
"58329",776.99695,79.26147,109.360306
"58330",777.0104,79.078354,109.15411
"58331",777.0238,78.91966,108.96662
"58332",777.03723,78.78783,108.801025
"58333",777.05066,78.675514,108.65083
"58334",777.0641,78.590065,108.523994
"58335",777.0775,78.52659,108.41646
"58336",777.09094,78.485085,108.32891
"58337",777.1044,78.46311,108.2596
"58338",777.1178,78.45335,108.201805
"58339",777.1312,78.45335,108.15347
"58340",777.14465,78.45823,108.11002
"58341",777.1581,78.46067,108.064285
"58342",777.1715,78.45579,108.0113
"58343",777.18494,78.44846,107.95572
"58344",777.19836,78.43626,107.89503
"58345",777.2118,78.42405,107.833954
"58346",777.2252,78.42649,107.78715
"58347",777.23865,78.47776,107.789246
"58348",777.2521,78.63157,107.895485
"58349",777.2655,78.93919,108.16035
"58350",777.27893,79.43481,108.62281
"58351",777.29236,80.1062,109.27654
"58352",777.3058,80.89723,110.07089
"58353",777.3192,81.70779,110.909485
"58354",777.33264,82.43534,111.69041
"58355",777.34607,82.99199,112.32316
"58356",777.3595,83.32891,112.75358
"58357",777.3729,83.441216,112.96991
"58358",777.38635,83.35821,112.99444
"58359",777.3998,83.12627,112.86744
"58360",777.4132,82.79912,112.637985
"58361",777.42664,82.423134,112.34947
"58362",777.44006,82.03494,112.037
"58363",777.4535,81.65652,111.72217
"58364",777.4669,81.30007,111.41749
"58365",777.48035,80.96803,111.126076
"58366",777.4938,80.67506,110.86335
"58367",777.5072,80.42359,110.63298
"58368",777.5206,80.23071,110.45334
"58369",777.53406,80.10132,110.331154
"58370",777.5475,80.04761,110.28061
"58371",777.5609,80.059814,110.294304
"58372",777.57434,80.12573,110.36209
"58373",777.58777,80.22339,110.46368
"58374",777.6012,80.32838,110.575645
"58375",777.6146,80.413826,110.67136
"58376",777.62805,80.45533,110.72579
"58377",777.6415,80.45045,110.73514
"58378",777.6549,80.38941,110.68818
"58379",777.66833,80.272224,110.58316
"58380",777.68176,80.10864,110.428085
"58381",777.6952,79.91821,110.24105
"58382",777.7086,79.710686,110.03097
"58383",777.72205,79.49828,109.809525
"58384",777.7355,79.290764,109.58633
"58385",777.7489,79.093,109.3664
"58386",777.7623,78.91234,109.157394
"58387",777.77576,78.751205,108.96227
"58388",777.7892,78.61692,108.78896
"58389",777.8026,78.50706,108.63588
"58390",777.81604,78.42893,108.5111
"58391",777.82947,78.380104,108.41318
"58392",777.8429,78.345924,108.32838
"58393",777.8563,78.32395,108.254715
"58394",777.86975,78.31663,108.195015
"58395",777.8832,78.314186,108.13997
"58396",777.8966,78.31663,108.08973
"58397",777.91003,78.32151,108.04201
"58398",777.92346,78.32395,107.992
"58399",777.9369,78.32639,107.94206
"58400",777.9503,78.328835,107.892204
"58401",777.96375,78.348366,107.85951
"58402",777.9772,78.42161,107.88114
"58403",777.9906,78.607155,108.017365
"58404",778.004,78.941635,108.30832
"58405",778.01746,79.45922,108.79283
"58406",778.0309,80.13794,109.45465
"58407",778.0443,80.91432,110.235344
"58408",778.05774,81.6907,111.04029
"58409",778.07117,82.371864,111.77429
"58410",778.0846,82.86992,112.346466
"58411",778.098,83.15556,112.721794
"58412",778.11145,83.21904,112.88388
"58413",778.1249,83.09209,112.85752
"58414",778.1383,82.82353,112.68559
"58415",778.15173,82.46708,112.41737
"58416",778.16516,82.074005,112.101395
"58417",778.1786,81.67849,111.77069
"58418",778.192,81.304955,111.44961
"58419",778.20544,80.95827,111.1437
"58420",778.2189,80.64332,110.858696
"58421",778.2323,80.365,110.60048
"58422",778.2457,80.130615,110.3775
"58423",778.25916,79.95972,110.210686
"58424",778.2726,79.85962,110.10933
"58425",778.286,79.83276,110.07809
"58426",778.29944,79.871826,110.11192
"58427",778.31287,79.95972,110.19581
"58428",778.3263,80.076904,110.31174
"58429",778.3397,80.198975,110.43621
"58430",778.35315,80.29908,110.542534
"58431",778.3666,80.360115,110.612915
"58432",778.38,80.36988,110.633934
"58433",778.39343,80.32105,110.596664
"58434",778.40686,80.21362,110.49927
"58435",778.4203,80.05737,110.34969
"58436",778.4337,79.86694,110.16106
"58437",778.44714,79.64965,109.939606
"58438",778.4606,79.42504,109.70405
"58439",778.474,79.20531,109.46635
"58440",778.4874,79.00267,109.23888
"58441",778.50085,78.82689,109.03193
"58442",778.5143,78.675514,108.843895
"58443",778.5277,78.54612,108.67311
"58444",778.54114,78.4387,108.520256
"58445",778.55457,78.35081,108.383575
"58446",778.568,78.28001,108.26124
"58447",778.5814,78.23117,108.15865
"58448",778.59485,78.204315,108.07652
"58449",778.6083,78.19699,108.013084
"58450",778.6217,78.20187,107.961624
"58451",778.63513,78.21652,107.92008
"58452",778.64856,78.23605,107.88388
"58453",778.662,78.25559,107.8483
"58454",778.6754,78.28245,107.82064
"58455",778.68884,78.33616,107.82068
"58456",778.7023,78.450905,107.88343
"58457",778.7157,78.677956,108.06207
"58458",778.7291,79.061264,108.40407
"58459",778.74255,79.61303,108.9265
"58460",778.756,80.308846,109.61022
"58461",778.7694,81.08278,110.39381
"58462",778.78284,81.83963,111.184494
"58463",778.79626,82.48173,111.88408
"58464",778.8097,82.933395,112.4133
"58465",778.8231,83.16533,112.7369
"58466",778.83655,83.18974,112.86023
"58467",778.85,83.03349,112.80366
"58468",778.8634,82.74784,112.6128
"58469",778.87683,82.38407,112.3349
"58470",778.89026,81.991,112.01633
"58471",778.9037,81.5906,111.67815
"58472",778.9171,81.21217,111.34943
"58473",778.93054,80.86305,111.038185
"58474",778.944,80.552986,110.75509
"58475",778.9574,80.28199,110.50137
"58476",778.9708,80.059814,110.28801
"58477",778.98425,79.89868,110.128746
"58478",778.9977,79.80347,110.030365
"58479",779.0111,79.77905,109.99981
"58480",779.02454,79.82544,110.03929
"58481",779.03796,79.920654,110.12905
"58482",779.0514,80.04761,110.253525
"58483",779.0648,80.181885,110.38929
"58484",779.07825,80.29664,110.50973
"58485",779.0917,80.36988,110.59224
"58486",779.1051,80.394295,110.62821
"58487",779.1185,80.36256,110.608795
"58488",779.13196,80.272224,110.52979
"58489",779.1454,80.1355,110.40157
"58490",779.1588,79.957275,110.227585
"58491",779.17224,79.75708,110.026054
"58492",779.18567,79.54711,109.808495
"58493",779.1991,79.34203,109.589264
"58494",779.2125,79.14671,109.37338
"58495",779.22595,78.97093,109.17094
"58496",779.2394,78.81712,108.98497
"58497",779.2528,78.68528,108.81616
"58498",779.26624,78.57542,108.665215
"58499",779.27966,78.49241,108.53769
"58500",779.2931,78.43626,108.434425
"58501",779.3065,78.39475,108.344055
"58502",779.31995,78.365456,108.264595
"58503",779.3334,78.35081,108.19887
"58504",779.3468,78.34348,108.14001
"58505",779.3602,78.34104,108.0858
"58506",779.37366,78.345924,108.03884
"58507",779.3871,78.365456,108.00668
"58508",779.4005,78.42405,108.0142
"58509",779.41394,78.56321,108.10411
"58510",779.42737,78.84154,108.33754
"58511",779.4408,79.30297,108.76277
"58512",779.4542,79.94507,109.38309
"58513",779.46765,80.726326,110.16263
"58514",779.4811,81.566185,111.025185
"58515",779.4945,82.36698,111.87492
"58516",779.50793,83.03105,112.61296
"58517",779.52136,83.49493,113.171555
"58518",779.5348,83.74151,113.52735
"58519",779.5482,83.77814,113.6809
"58520",779.56165,83.6292,113.65003
"58521",779.5751,83.34844,113.48268
"58522",779.5885,82.98711,113.22598
"58523",779.6019,82.59403,112.926254
"58524",779.61536,82.20096,112.61424
"58525",779.6288,81.82498,112.307045
"58526",779.6422,81.47341,112.012505
"58527",779.65564,81.143814,111.72895
"58528",779.66907,80.84108,111.46196
"58529",779.6825,80.57984,111.227005
"58530",779.6959,80.377205,111.04249
"58531",779.70935,80.255135,110.932205
"58532",779.7228,80.216064,110.90111
"58533",779.7362,80.2478,110.9396
"58534",779.74963,80.33814,111.03768
"58535",779.76306,80.46021,111.17032
"58536",779.7765,80.58228,111.30677
"58537",779.7899,80.67994,111.42262
"58538",779.80334,80.743416,111.50735
"58539",779.8168,80.75319,111.54035
"58540",779.8302,80.706795,111.517494
"58541",779.8436,80.59937,111.43216
"58542",779.85706,80.44312,111.29464
"58543",779.8705,80.25269,111.11806
"58544",779.8839,80.042725,110.915985
"58545",779.89734,79.82056,110.69515
"58546",779.91077,79.603264,110.47225
"58547",779.9242,79.398186,110.254776
"58548",779.9376,79.20775,110.04553
"58549",779.95105,79.027084,109.84011
"58550",779.9645,78.86839,109.65102
"58551",779.9779,78.73899,109.48625
"58552",779.99133,78.63157,109.339424
"58553",780.00476,78.54124,109.20633
"58554",780.0182,78.470436,109.08994
"58555",780.0316,78.41184,108.98355
"58556",780.04504,78.35569,108.87777
"58557",780.0585,78.30442,108.775116
"58558",780.0719,78.27268,108.69039
"58559",780.0853,78.277565,108.6413
"58560",780.09875,78.36057,108.67048
"58561",780.1122,78.57786,108.83653
"58562",780.1256,78.9807,109.19493
"58563",780.13904,79.58373,109.76611
"58564",780.15247,80.36256,110.53193
"58565",780.1659,81.24635,111.427055
"58566",780.1793,82.13016,112.34981
"58567",780.19275,82.90898,113.1952
"58568",780.2062,83.49737,113.87449
"58569",780.2196,83.861145,114.34756
"58570",780.23303,83.9881,114.59517
"58571",780.24646,83.90997,114.64167
"58572",780.2599,83.67071,114.52459
"58573",780.2733,83.32403,114.29262
"58574",780.28674,82.91142,113.98389
"58575",780.3002,82.476845,113.64029
"58576",780.3136,82.04227,113.28311
"58577",780.327,81.619896,112.92456
"58578",780.34045,81.2195,112.57478
"58579",780.3539,80.84596,112.23936
"58580",780.3673,80.51148,111.93131
"58581",780.38074,80.233154,111.66897
"58582",780.39417,80.02319,111.46629
"58583",780.4076,79.888916,111.33274
"58584",780.421,79.835205,111.27556
"58585",780.43445,79.852295,111.2875
"58586",780.4479,79.91821,111.3488
"58587",780.4613,80.00366,111.431694
"58588",780.47473,80.08423,111.512375
"58589",780.48816,80.14282,111.5736
"58590",780.5016,80.15259,111.58783
"58591",780.515,80.10864,111.54865
"58592",780.52844,80.01099,111.45439
"58593",780.5419,79.86206,111.30581
"58594",780.5553,79.674065,111.1135
"58595",780.5687,79.45922,110.88847
"58596",780.58215,79.22728,110.63963
"58597",780.5956,78.99046,110.37867
"58598",780.609,78.75609,110.11275
"58599",780.62244,78.53147,109.84926
"58600",780.63586,78.32639,109.59829
"58601",780.6493,78.14572,109.36532
"58602",780.6627,77.994354,109.156006
"58603",780.67615,77.86984,108.96882
"58604",780.6896,77.77219,108.804596
"58605",780.703,77.69405,108.656845
"58606",780.71643,77.63546,108.52619
"58607",780.72986,77.58663,108.40347
"58608",780.7433,77.55245,108.29388
"58609",780.7567,77.52804,108.19298
"58610",780.77014,77.51095,108.09864
"58611",780.78357,77.49874,108.00865
"58612",780.797,77.49874,107.93049
"58613",780.8104,77.540245,107.89383
"58614",780.82385,77.679405,107.95612
"58615",780.8373,77.98703,108.19123
"58616",780.8507,78.502174,108.64347
"58617",780.86414,79.219955,109.314445
"58618",780.87756,80.08667,110.156784
"58619",780.891,81.004654,111.07748
"58620",780.9044,81.85916,111.96338
"58621",780.91785,82.55009,112.7124
"58622",780.9313,83.02861,113.270615
"58623",780.9447,83.27276,113.609406
"58624",780.9581,83.29473,113.73365
"58625",780.97156,83.13359,113.67547
"58626",780.985,82.84062,113.48042
"58627",780.9984,82.46464,113.19321
"58628",781.01184,82.056915,112.8625
"58629",781.02527,81.64431,112.514175
"58630",781.0387,81.24635,112.1676
"58631",781.0521,80.867935,111.82813
"58632",781.06555,80.51148,111.4988
"58633",781.079,80.181885,111.18519
"58634",781.0924,79.888916,110.8979
"58635",781.10583,79.65453,110.66005
"58636",781.11926,79.48852,110.48324
"58637",781.1327,79.40307,110.381805
"58638",781.1461,79.38598,110.34606
"58639",781.15955,79.42748,110.36838
"58640",781.173,79.50317,110.42617
"58641",781.1864,79.586174,110.49365
"58642",781.1998,79.65453,110.54908
"58643",781.21326,79.69848,110.58223
"58644",781.2267,79.69848,110.57281
"58645",781.2401,79.64721,110.512115
"58646",781.25354,79.54955,110.403435
"58647",781.26697,79.40795,110.24776
"58648",781.2804,79.22728,110.048584
"58649",781.2938,79.02464,109.8218
"58650",781.30725,78.81224,109.57892
"58651",781.3207,78.59983,109.32939
"58652",781.3341,78.399635,109.08544
"58653",781.34753,78.21408,108.84988
"58654",781.36096,78.05051,108.63049
"58655",781.3744,77.91135,108.43041
"58656",781.3878,77.79416,108.247955
"58657",781.40125,77.70382,108.088684
"58658",781.4147,77.642784,107.955894
"58659",781.4281,77.611046,107.850494
"58660",781.4415,77.5964,107.76119
"58661",781.45496,77.59884,107.68852
"58662",781.4684,77.60616,107.62081
"58663",781.4818,77.61349,107.55333
"58664",781.49524,77.62081,107.48608
"58665",781.50867,77.625694,107.41661
"58666",781.5221,77.64034,107.35706
"58667",781.5355,77.679405,107.32239
"58668",781.54895,77.79172,107.36218
"58669",781.5624,78.04074,107.5422
"58670",781.5758,78.47532,107.91555
"58671",781.58923,79.10765,108.50024
"58672",781.60266,79.903564,109.268265
"58673",781.6161,80.7776,110.13929
"58674",781.6295,81.62234,111.00832
"58675",781.64294,82.33524,111.77193
"58676",781.6564,82.847946,112.357605
"58677",781.6698,83.14336,112.74201
"58678",781.6832,83.22392,112.92081
"58679",781.69666,83.11894,112.91657
"58680",781.7101,82.882126,112.77722
"58681",781.7235,82.55253,112.53769
"58682",781.73694,82.16922,112.234146
"58683",781.75037,81.76883,111.90154
"58684",781.7638,81.375755,111.56374
"58685",781.7772,80.99489,111.22587
"58686",781.79065,80.638435,110.900505
"58687",781.8041,80.31861,110.60063
"58688",781.8175,80.042725,110.3347
"58689",781.83093,79.823,110.11631
"58690",781.84436,79.67895,109.96673
"58691",781.8578,79.61547,109.89322
"58692",781.8712,79.63256,109.89829
"58693",781.88464,79.71313,109.96738
"58694",781.8981,79.84009,110.08537
"58695",781.9115,79.97925,110.219536
"58696",781.9249,80.10132,110.34096
"58697",781.93835,80.18921,110.432014
"58698",781.9518,80.23071,110.47943
"58699",781.9652,80.21362,110.46955
"58700",781.97864,80.14038,110.402985
"58701",781.99207,80.02075,110.28774
"58702",782.0055,79.8645,110.13214
"58703",782.0189,79.67895,109.94235
"58704",782.03235,79.47387,109.72724
"58705",782.0458,79.26635,109.50328
"58706",782.0592,79.06859,109.28259
"58707",782.07263,78.88548,109.07038
"58708",782.08606,78.7219,108.87197
"58709",782.0995,78.58518,108.69531
"58710",782.1129,78.47532,108.54124
"58711",782.12634,78.380104,108.39838
"58712",782.1398,78.3093,108.276955
"58713",782.1532,78.25803,108.17285
"58714",782.1666,78.22629,108.08667
"58715",782.18005,78.20676,108.01171
"58716",782.1935,78.204315,107.95323
"58717",782.2069,78.21408,107.90688
"58718",782.22034,78.22629,107.86328
