"","Time..s.","PPG.trace","Preprocessed.PPG"
"20163",268.33533,75.55779,106.32208
"20164",268.34863,76.207214,106.83269
"20165",268.36194,77.27413,107.78108
"20166",268.37524,78.77806,109.19983
"20167",268.38855,80.64332,111.0269
"20168",268.40186,82.71122,113.11491
"20169",268.41516,84.76204,115.25045
"20170",268.42847,86.588234,117.22546
"20171",268.44177,88.0238,118.866905
"20172",268.45508,88.971085,120.064926
"20173",268.46838,89.39834,120.77252
"20174",268.4817,89.3373,121.00519
"20175",268.495,88.86122,120.8209
"20176",268.5083,88.07263,120.30922
"20177",268.5216,87.07652,119.565384
"20178",268.5349,85.960785,118.670784
"20179",268.54822,84.805984,117.702255
"20180",268.56152,83.665825,116.71228
"20181",268.57483,82.579384,115.740395
"20182",268.58813,81.58083,114.82245
"20183",268.60144,80.71412,114.005135
"20184",268.61475,80.02319,113.336525
"20185",268.62805,79.534904,112.84896
"20186",268.64136,79.26391,112.56343
"20187",268.65466,79.200424,112.476944
"20188",268.66797,79.310295,112.56183
"20189",268.68127,79.53979,112.76977
"20190",268.69458,79.82788,113.04348
"20191",268.7079,80.11597,113.32619
"20192",268.7212,80.35523,113.56908
"20193",268.7345,80.499275,113.72422
"20194",268.7478,80.53101,113.77156
"20195",268.7611,80.44068,113.69782
"20196",268.7744,80.233154,113.50407
"20197",268.78772,79.920654,113.19885
"20198",268.80103,79.5227,112.798416
"20199",268.81433,79.06859,112.32939
"20200",268.82764,78.572975,111.80467
"20201",268.84094,78.07004,111.25714
"20202",268.85425,77.576866,110.70366
"20203",268.86755,77.11543,110.166504
"20204",268.88086,76.69306,109.65399
"20205",268.89417,76.32441,109.182
"20206",268.90747,76.00702,108.74975
"20207",268.92078,75.74334,108.36129
"20208",268.93408,75.53582,108.02075
"20209",268.9474,75.38201,107.72744
"20210",268.9607,75.27703,107.47815
"20211",268.974,75.208664,107.26219
"20212",268.9873,75.174484,107.078285
"20213",269.0006,75.16472,106.917725
"20214",269.01392,75.174484,106.77639
"20215",269.02722,75.1989,106.65001
"20216",269.04053,75.245285,106.546364
"20217",269.05383,75.35027,106.50277
"20218",269.06714,75.5993,106.60649
"20219",269.08044,76.09979,106.96947
"20220",269.09375,76.95674,107.70454
"20221",269.10706,78.21652,108.86922
"20222",269.12036,79.852295,110.44926
"20223",269.13367,81.73708,112.32943
"20224",269.14697,83.67559,114.32222
"20225",269.16028,85.46761,116.2291
"20226",269.17358,86.939804,117.872154
"20227",269.1869,87.972534,119.12175
"20228",269.2002,88.516975,119.91533
"20229",269.2135,88.58045,120.244965
"20230",269.2268,88.21179,120.14444
"20231",269.2401,87.49645,119.685715
"20232",269.25342,86.53208,118.95561
"20233",269.26672,85.40658,118.03423
"20234",269.28003,84.19318,116.989784
"20235",269.29333,82.95781,115.88545
"20236",269.30664,81.75906,114.77914
"20237",269.31995,80.6482,113.72324
"20238",269.33325,79.68383,112.77913
"20239",269.34656,78.924545,112.009964
"20240",269.35986,78.416725,111.46854
"20241",269.37317,78.17746,111.179794
"20242",269.38647,78.20187,111.147255
"20243",269.39978,78.4387,111.32789
"20244",269.4131,78.82445,111.66485
"20245",269.4264,79.281,112.08466
"20246",269.4397,79.7351,112.5163
"20247",269.453,80.12573,112.89865
"20248",269.4663,80.411385,113.18823
"20249",269.4796,80.56275,113.352455
"20250",269.49292,80.57252,113.37981
"20251",269.50623,80.44068,113.26586
"20252",269.51953,80.17944,113.018394
"20253",269.53284,79.82056,112.665115
"20254",269.54614,79.39086,112.22981
"20255",269.55945,78.924545,111.74446
"20256",269.57275,78.44846,111.23477
"20257",269.58606,77.98215,110.71997
"20258",269.59937,77.53292,110.20769
"20259",269.61267,77.117874,109.715546
"20260",269.62598,76.73945,109.247055
"20261",269.63928,76.402534,108.80825
"20262",269.6526,76.10956,108.402855
"20263",269.6659,75.86542,108.03714
"20264",269.6792,75.67254,107.71506
"20265",269.6925,75.56756,107.474846
"20266",269.7058,75.62127,107.390045
"20267",269.71912,75.94354,107.575485
"20268",269.73242,76.654,108.15918
"20269",269.74573,77.81613,109.21675
"20270",269.75903,79.429924,110.7623
"20271",269.77234,81.38796,112.70252
"20272",269.78564,83.50469,114.862625
"20273",269.79895,85.555504,117.02296
"20274",269.81226,87.3402,118.98126
"20275",269.82556,88.70252,120.57297
"20276",269.83887,89.55703,121.69943
"20277",269.85217,89.8793,122.320366
"20278",269.86548,89.71328,122.46307
"20279",269.87878,89.129776,122.18311
"20280",269.8921,88.233765,121.5724
"20281",269.9054,87.12047,120.716415
"20282",269.9187,85.87778,119.696236
"20283",269.932,84.576485,118.57862
"20284",269.9453,83.27276,117.41791
"20285",269.95862,82.02518,116.2726
"20286",269.97192,80.89479,115.2055
"20287",269.98523,79.94751,114.28618
"20288",269.99854,79.234604,113.57163
"20289",270.01184,78.79027,113.10338
"20290",270.02515,78.624245,112.89955
"20291",270.03845,78.69993,112.93224
"20292",270.05176,78.96117,113.152855
"20293",270.06506,79.33227,113.49149
"20294",270.07837,79.73998,113.87834
"20295",270.09167,80.113525,114.24376
"20296",270.10498,80.394295,114.528076
"20297",270.1183,80.54566,114.691765
"20298",270.1316,80.552986,114.71614
"20299",270.1449,80.42115,114.601585
"20300",270.1582,80.15991,114.35351
"20301",270.1715,79.80591,114.0045
"20302",270.1848,79.38598,113.57851
"20303",270.19812,78.91966,113.093
"20304",270.21143,78.42893,112.56851
"20305",270.22473,77.943085,112.03357
"20306",270.23804,77.46456,111.49077
"20307",270.25134,77.01045,110.95743
"20308",270.26465,76.592964,110.44652
"20309",270.27795,76.21454,109.961624
"20310",270.29126,75.8996,109.52839
"20311",270.30457,75.699394,109.20005
"20312",270.31787,75.72381,109.09007
"20313",270.33118,76.11932,109.35196
"20314",270.34448,77.00557,110.116936
"20315",270.3578,78.44358,111.46137
"20316",270.3711,80.396736,113.36589
"20317",270.3844,82.71366,115.69521
"20318",270.3977,85.152664,118.21902
"20319",270.411,87.45495,120.68232
"20320",270.42432,89.393456,122.85379
"20321",270.43762,90.80705,124.560936
"20322",270.45093,91.62005,125.711655
"20323",270.46423,91.8349,126.289635
"20324",270.47754,91.52483,126.34941
"20325",270.49084,90.79729,125.98202
"20326",270.50415,89.779205,125.30135
"20327",270.51746,88.587776,124.41553
"20328",270.53076,87.30602,123.402145
"20329",270.54407,85.994965,122.3194
"20330",270.55737,84.69123,121.203
"20331",270.57068,83.441216,120.09959
"20332",270.58398,82.2913,119.057205
"20333",270.5973,81.29275,118.13026
"20334",270.6106,80.50904,117.38695
"20335",270.6239,79.971924,116.86574
"20336",270.6372,79.693596,116.58653
"20337",270.6505,79.635,116.518364
"20338",270.66382,79.742424,116.61438
"20339",270.67712,79.94751,116.81142
"20340",270.69043,80.17456,117.03683
"20341",270.70374,80.36256,117.23028
"20342",270.71704,80.46021,117.339264
"20343",270.73035,80.43824,117.33167
"20344",270.74365,80.28443,117.19156
"20345",270.75696,79.99878,116.914795
"20346",270.77026,79.60082,116.5168
"20347",270.78357,79.1223,116.0258
"20348",270.79688,78.590065,115.46614
"20349",270.81018,78.028534,114.86055
"20350",270.8235,77.45968,114.23009
"20351",270.8368,76.90303,113.594055
"20352",270.8501,76.368355,112.9626
"20353",270.8634,75.862976,112.343735
"20354",270.8767,75.41131,111.76279
"20355",270.89,75.06218,111.27026
"20356",270.90332,74.91325,110.96703
"20357",270.91663,75.11589,111.01071
"20358",270.92993,75.826355,111.56855
"20359",270.94324,77.137405,112.749176
"20360",270.95654,79.04906,114.57137
"20361",270.96985,81.427025,116.919624
"20362",270.98315,84.03204,119.56924
"20363",270.99646,86.56626,122.229454
"20364",271.00977,88.76112,124.62951
"20365",271.02307,90.41886,126.561035
"20366",271.03638,91.439384,127.90715
"20367",271.04968,91.810486,128.63573
"20368",271.063,91.60784,128.80215
"20369",271.0763,90.948654,128.5057
"20370",271.0896,89.97208,127.87128
"20371",271.1029,88.80995,127.02078
"20372",271.1162,87.55749,126.043625
"20373",271.12952,86.27329,124.995605
"20374",271.14282,84.996414,123.914764
"20375",271.15613,83.73907,122.81355
"20376",271.16943,82.53544,121.72677
"20377",271.18274,81.427025,120.697586
"20378",271.19604,80.46754,119.78269
"20379",271.20935,79.71313,119.04289
"20380",271.22266,79.1931,118.5139
"20381",271.23596,78.90013,118.19572
"20382",271.24927,78.79759,118.05881
"20383",271.26257,78.83177,118.05541
"20384",271.27588,78.93431,118.121445
"20385",271.28918,79.03685,118.19068
"20386",271.3025,79.08568,118.20941
"20387",271.3158,79.03197,118.12713
"20388",271.3291,78.86107,117.92598
"20389",271.3424,78.55833,117.58765
"20390",271.3557,78.14572,117.12999
"20391",271.36902,77.645226,116.57155
"20392",271.38232,77.09102,115.943756
"20393",271.39563,76.5124,115.27423
"20394",271.40894,75.931335,114.58418
"20395",271.42224,75.36492,113.890625
"20396",271.43555,74.827805,113.208664
"20397",271.44885,74.33219,112.55142
"20398",271.46216,73.89761,111.93973
"20399",271.47546,73.56313,111.41455
"20400",271.48877,73.41665,111.06692
"20401",271.50208,73.60464,111.04918
"20402",271.51538,74.28092,111.52561
"20403",271.5287,75.56756,112.63353
"20404",271.542,77.47921,114.40667
"20405",271.5553,79.91577,116.76446
"20406",271.5686,82.633095,119.47915
"20407",271.5819,85.32357,122.25191
"20408",271.5952,87.68444,124.77914
"20409",271.60852,89.48379,126.81862
"20410",271.62183,90.60685,128.23805
"20411",271.63513,91.036545,128.9992
"20412",271.64844,90.851,129.15855
"20413",271.66174,90.18448,128.83113
"20414",271.67505,89.195694,128.16061
"20415",271.68835,88.02136,127.27365
"20416",271.70166,86.768906,126.271866
"20417",271.71497,85.504234,125.21872
"20418",271.72827,84.24689,124.13338
"20419",271.74158,83.0164,123.03561
"20420",271.75488,81.8201,121.93356
"20421",271.7682,80.69459,120.86493
"20422",271.7815,79.68871,119.88076
"20423",271.7948,78.86351,119.04583
"20424",271.8081,78.25559,118.4024
"20425",271.8214,77.874725,117.96702
"20426",271.83472,77.696495,117.722374
"20427",271.84802,77.67208,117.62598
"20428",271.86133,77.72823,117.60938
"20429",271.87463,77.803925,117.61408
"20430",271.88794,77.83078,117.57231
"20431",271.90125,77.77219,117.44593
"20432",271.91455,77.59884,117.202965
"20433",271.92786,77.30343,116.83252
"20434",271.94116,76.895706,116.34053
"20435",271.95447,76.40742,115.75523
"20436",271.96777,75.86542,115.10097
"20437",271.98108,75.30633,114.412674
"20438",271.9944,74.757,113.716675
"20439",272.0077,74.24429,113.04012
"20440",272.021,73.780426,112.39639
"20441",272.0343,73.36782,111.78943
"20442",272.0476,73.01137,111.22572
"20443",272.0609,72.71107,110.70703
"20444",272.07422,72.46204,110.230225
"20445",272.08752,72.26429,109.796906
"20446",272.10083,72.13977,109.43065
"20447",272.11414,72.166626,109.21187
"20448",272.12744,72.47669,109.277145
"20449",272.14075,73.23842,109.80377
"20450",272.15405,74.5861,110.940155
"20451",272.16736,76.57343,112.75831
"20452",272.18066,79.11253,115.19033
"20453",272.19397,81.971466,118.02153
"20454",272.20728,84.82063,120.932304
"20455",272.22058,87.34753,123.60984
"20456",272.2339,89.2958,125.78772
"20457",272.2472,90.528725,127.31114
"20458",272.2605,91.02434,128.13577
"20459",272.2738,90.86565,128.3216
"20460",272.2871,90.196686,127.99219
"20461",272.3004,89.18349,127.29764
"20462",272.31372,87.98474,126.38588
"20463",272.32703,86.710304,125.36096
"20464",272.34033,85.43343,124.293785
"20465",272.35364,84.1712,123.20135
"20466",272.36694,82.94072,122.10121
"20467",272.38025,81.74929,121.00168
"20468",272.39355,80.63111,119.93816
"20469",272.40686,79.63012,118.956894
"20470",272.42017,78.802475,118.11769
"20471",272.43347,78.18967,117.46746
"20472",272.44678,77.79172,117.01294
"20473",272.46008,77.58907,116.74129
"20474",272.4734,77.54269,116.61956
"20475",272.4867,77.58663,116.586716
"20476",272.5,77.65743,116.5821
"20477",272.5133,77.69161,116.543076
"20478",272.5266,77.645226,116.42455
"20479",272.53992,77.48165,116.18739
"20480",272.55322,77.19112,115.81816
"20481",272.56653,76.77852,115.31779
"20482",272.57983,76.26826,114.706856
"20483",272.59314,75.69451,114.016495
"20484",272.60645,75.09148,113.278915
"20485",272.61975,74.49088,112.52493
"20486",272.63306,73.92203,111.78392
"20487",272.64636,73.40444,111.0764
"20488",272.65967,72.94789,110.41374
"20489",272.67297,72.55482,109.80029
"20490",272.68628,72.234985,109.2478
"20491",272.6996,71.993286,108.76344
"20492",272.7129,71.82483,108.34477
"20493",272.7262,71.73205,107.99652
"20494",272.7395,71.70519,107.71129
"20495",272.7528,71.72961,107.47649
"20496",272.7661,71.79065,107.27908
"20497",272.77942,71.87366,107.105545
"20498",272.79272,71.96643,106.94437
"20499",272.80603,72.059204,106.78609
"20500",272.81934,72.15686,106.63559
"20501",272.83264,72.31068,106.54431
"20502",272.84595,72.62806,106.6214
"20503",272.85925,73.27993,107.04289
"20504",272.87256,74.43961,107.99258
"20505",272.88586,76.21942,109.598625
"20506",272.89917,78.607155,111.86822
"20507",272.91248,81.449,114.666534
"20508",272.92578,84.44953,117.71235
"20509",272.9391,87.274284,120.67615
"20510",272.9524,89.61562,123.24481
"20511",272.9657,91.27093,125.20061
"20512",272.979,92.157166,126.439064
"20513",272.9923,92.3061,126.96791
"20514",273.0056,91.83978,126.88616
"20515",273.01892,90.91936,126.33573
"20516",273.03223,89.71572,125.47333
"20517",273.04553,88.377815,124.43904
"20518",273.05884,87.00084,123.32387
"20519",273.07214,85.64095,122.182755
"20520",273.08545,84.3299,121.04798
"20521",273.09875,83.087204,119.94059
"20522",273.11206,81.93973,118.88959
"20523",273.12537,80.936295,117.94677
"20524",273.13867,80.12085,117.16058
"20525",273.15198,79.53002,116.57353
"20526",273.16528,79.1638,116.19263
"20527",273.1786,78.992905,115.9956
"20528",273.1919,78.97093,115.942154
"20529",273.2052,79.03441,115.97347
"20530",273.2185,79.11986,116.02875
"20531",273.2318,79.166245,116.04763
"20532",273.24512,79.12962,115.984955
"20533",273.25842,78.97337,115.801506
"20534",273.27173,78.68528,115.48133
"20535",273.28503,78.27024,115.02521
"20536",273.29834,77.75021,114.451126
"20537",273.31165,77.154495,113.7851
"20538",273.32495,76.51728,113.05897
"20539",273.33826,75.8703,112.303154
"20540",273.35156,75.24284,111.546646
"20541",273.36487,74.652016,110.80716
"20542",273.37817,74.11734,110.10536
"20543",273.39148,73.64858,109.452774
"20544",273.4048,73.2604,108.86611
"20545",273.4181,72.94545,108.34055
"20546",273.4314,72.71107,107.88572
"20547",273.4447,72.55482,107.50169
"20548",273.458,72.47669,107.1909
"20549",273.4713,72.46204,106.94115
"20550",273.48462,72.50599,106.74953
"20551",273.49792,72.59144,106.600784
"20552",273.51123,72.69886,106.476685
"20553",273.52454,72.8185,106.368164
"20554",273.53784,72.935684,106.26093
"20555",273.55115,73.03578,106.140274
"20556",273.56445,73.126114,106.01298
"20557",273.57776,73.22865,105.90071
"20558",273.59106,73.42397,105.88443
"20559",273.60437,73.848785,106.103745
"20560",273.61768,74.68864,106.75137
"20561",273.63098,76.09003,107.986786
"20562",273.6443,78.116425,109.891
"20563",273.6576,80.68238,112.398094
"20564",273.6709,83.56573,115.302765
"20565",273.6842,86.44663,118.2951
"20566",273.6975,89.005264,121.05518
"20567",273.71082,90.98772,123.319046
"20568",273.72412,92.245056,124.919754
"20569",273.73743,92.752884,125.81024
"20570",273.75073,92.57954,126.03542
"20571",273.76404,91.85687,125.70587
"20572",273.77734,90.74601,124.96554
"20573",273.79065,89.408104,123.96345
"20574",273.80396,87.96521,122.81456
"20575",273.81726,86.51011,121.60837
"20576",273.83057,85.08919,120.390884
"20577",273.84387,83.736626,119.19736
"20578",273.85718,82.49149,118.06899
"20579",273.87048,81.39773,117.053085
"20580",273.8838,80.499275,116.19831
"20581",273.8971,79.84253,115.55717
"20582",273.9104,79.432365,115.14208
"20583",273.9237,79.25414,114.94612
"20584",273.937,79.259026,114.9277
"20585",273.95032,79.381096,115.02661
"20586",273.96362,79.54223,115.1684
"20587",273.97693,79.676506,115.288376
"20588",273.99023,79.725334,115.327095
"20589",274.00354,79.65209,115.24527
"20590",274.01685,79.429924,115.01223
"20591",274.03015,79.06615,114.63064
"20592",274.04346,78.5803,114.11561
"20593",274.05676,77.99924,113.49018
"20594",274.07007,77.35958,112.788
"20595",274.08337,76.69306,112.03897
"20596",274.09668,76.02899,111.27156
"20597",274.11,75.3991,110.51758
"20598",274.1233,74.82048,109.79518
"20599",274.1366,74.305336,109.11818
"20600",274.1499,73.863434,108.49832
"20601",274.1632,73.49966,107.94278
"20602",274.1765,73.20912,107.44911
"20603",274.18982,72.99184,107.019615
"20604",274.20312,72.84291,106.65169
"20605",274.21643,72.76723,106.35235
"20606",274.22974,72.7599,106.119
"20607",274.24304,72.80873,105.94158
"20608",274.25635,72.901505,105.80963
"20609",274.26965,73.023575,105.70988
"20610",274.28296,73.15785,105.626144
"20611",274.29626,73.289696,105.544174
"20612",274.30957,73.39956,105.44434
"20613",274.32288,73.48501,105.32353
"20614",274.33618,73.56313,105.19807
"20615",274.3495,73.69009,105.12387
"20616",274.3628,73.99527,105.23187
"20617",274.3761,74.6569,105.70586
"20618",274.3894,75.841,106.72299
"20619",274.4027,77.645226,108.39725
"20620",274.41602,80.0354,110.71384
"20621",274.42932,82.8333,113.51284
"20622",274.44263,85.750824,116.518906
"20623",274.45593,88.45838,119.40617
"20624",274.46924,90.68009,121.89221
"20625",274.48254,92.23529,123.781166
"20626",274.49585,93.04341,124.97164
"20627",274.50916,93.12642,125.46226
"20628",274.52246,92.5893,125.33534
"20629",274.53577,91.580986,124.72044
"20630",274.54907,90.25529,123.75665
"20631",274.56238,88.763565,122.58541
"20632",274.57568,87.220566,121.31627
"20633",274.589,85.694664,120.01601
"20634",274.6023,84.23712,118.73642
"20635",274.6156,82.882126,117.51383
"20636",274.6289,81.68337,116.40514
"20637",274.6422,80.68482,115.4592
"20638",274.65552,79.92798,114.723755
"20639",274.66882,79.44213,114.23566
"20640",274.68213,79.217514,113.99361
"20641",274.69543,79.21019,113.96183
"20642",274.70874,79.35424,114.0812
"20643",274.72205,79.58129,114.28807
"20644",274.73535,79.80591,114.4996
"20645",274.74866,79.95972,114.64735
"20646",274.76196,79.991455,114.677826
"20647",274.77527,79.86694,114.55305
"20648",274.78857,79.57641,114.258354
"20649",274.80188,79.13451,113.803215
"20650",274.8152,78.57053,113.2122
"20651",274.8285,77.91867,112.51566
"20652",274.8418,77.222855,111.75481
"20653",274.8551,76.51972,110.96489
"20654",274.8684,75.83368,110.17009
"20655",274.8817,75.19646,109.40267
"20656",274.89502,74.62272,108.678825
"20657",274.90833,74.124664,108.01273
"20658",274.92163,73.70229,107.40676
"20659",274.93494,73.35561,106.86328
"20660",274.94824,73.08217,106.3822
"20661",274.96155,72.884415,105.96827
"20662",274.97485,72.764786,105.62628
"20663",274.98816,72.71839,105.35379
"20664",275.00146,72.73792,105.14577
"20665",275.01477,72.8185,104.999405
"20666",275.02808,72.938126,104.894615
"20667",275.04138,73.0724,104.80821
"20668",275.0547,73.21156,104.73089
"20669",275.068,73.340965,104.648155
"20670",275.0813,73.44839,104.547485
"20671",275.0946,73.54116,104.435524
"20672",275.1079,73.66079,104.35332
"20673",275.12122,73.9025,104.39693
"20674",275.13452,74.43473,104.73862
"20675",275.14783,75.43572,105.5657
"20676",275.16113,77.03975,107.02709
"20677",275.17444,79.26147,109.1563
"20678",275.18774,81.988556,111.86031
"20679",275.20105,84.95003,114.88393
"20680",275.21436,87.82605,117.914635
"20681",275.22766,90.309,120.64215
"20682",275.24097,92.174255,122.82957
"20683",275.25427,93.29977,124.335526
"20684",275.26758,93.6733,125.12468
"20685",275.28088,93.365685,125.244354
"20686",275.2942,92.50385,124.8002
"20687",275.3075,91.244064,123.93116
"20688",275.3208,89.74258,122.78105
"20689",275.3341,88.131226,121.47416
"20690",275.3474,86.502785,120.09982
"20691",275.36072,84.92073,118.72098
"20692",275.37402,83.43389,117.38791
"20693",275.38733,82.08865,116.14998
"20694",275.40063,80.94118,115.06777
"20695",275.41394,80.042725,114.19873
"20696",275.42725,79.43481,113.59215
"20697",275.44055,79.11742,113.257095
"20698",275.45386,79.061264,113.17336
"20699",275.46716,79.20531,113.28807
"20700",275.48047,79.46899,113.52692
"20701",275.49377,79.764404,113.80574
"20702",275.50708,80.01343,114.0474
"20703",275.5204,80.15991,114.194305
"20704",275.5337,80.15747,114.19686
"20705",275.547,79.991455,114.03577
"20706",275.5603,79.66186,113.7059
"20707",275.5736,79.19066,113.22414
"20708",275.5869,78.607155,112.61534
"20709",275.60022,77.943085,111.907745
"20710",275.61353,77.242386,111.14277
"20711",275.62683,76.53437,110.34858
"20712",275.64014,75.84589,109.551796
"20713",275.65344,75.20622,108.78232
"20714",275.66675,74.62272,108.04901
"20715",275.68005,74.110016,107.36827
"20716",275.69336,73.673,106.74719
"20717",275.70667,73.323875,106.200356
"20718",275.71997,73.057755,105.72561
"20719",275.73328,72.86488,105.315796
"20720",275.74658,72.74525,104.97319
"20721",275.7599,72.69398,104.695206
"20722",275.7732,72.7013,104.47421
"20723",275.7865,72.764786,104.309616
"20724",275.7998,72.87221,104.19094
"20725",275.8131,73.01625,104.11224
"20726",275.82642,73.18227,104.06002
"20727",275.83972,73.34341,104.00811
"20728",275.85303,73.48745,103.94414
"20729",275.86633,73.602196,103.85537
"20730",275.87964,73.69009,103.74333
"20731",275.89294,73.78775,103.643814
"20732",275.90625,74.01236,103.67429
"20733",275.91956,74.529945,104.00477
"20734",275.93286,75.543144,104.84703
"20735",275.94617,77.18623,106.350845
"20736",275.95947,79.47875,108.555435
"20737",275.97278,82.28886,111.34925
"20738",275.98608,85.35287,114.48479
"20739",275.9994,88.33143,117.63062
"20740",276.0127,90.91936,120.47891
"20741",276.026,92.88716,122.78795
"20742",276.0393,94.115204,124.41872
"20743",276.0526,94.58152,125.32613
"20744",276.06592,94.35447,125.554756
"20745",276.07922,93.54635,125.19521
"20746",276.09253,92.3061,124.37829
"20747",276.10583,90.78752,123.24428
"20748",276.11914,89.129776,121.923645
"20749",276.13245,87.432976,120.512146
"20750",276.14575,85.770355,119.0818
"20751",276.15906,84.19318,117.684944
"20752",276.17236,82.74784,116.37064
"20753",276.18567,81.49294,115.201614
"20754",276.19897,80.48463,114.23995
"20755",276.21228,79.76929,113.53976
"20756",276.2256,79.36889,113.13215
"20757",276.2389,79.26391,113.00745
"20758",276.2522,79.395744,113.11628
"20759",276.2655,79.68139,113.38304
"20760",276.2788,80.028076,113.71977
"20761",276.2921,80.35035,114.04292
"20762",276.30542,80.5774,114.28092
"20763",276.31873,80.655525,114.37709
"20764",276.33203,80.55543,114.29748
"20765",276.34534,80.272224,114.03163
"20766",276.35864,79.82544,113.59335
"20767",276.37195,79.24437,113.00683
"20768",276.38525,78.57053,112.30938
"20769",276.39856,77.838104,111.53228
"20770",276.41187,77.09346,110.72008
"20771",276.42517,76.35859,109.89438
"20772",276.43848,75.65545,109.077446
"20773",276.45178,75.003586,108.28982
"20774",276.4651,74.42008,107.55018
"20775",276.4784,73.9147,106.87043
"20776",276.4917,73.48745,106.25301
"20777",276.505,73.15053,105.71258
"20778",276.5183,72.89662,105.24463
"20779",276.53162,72.73548,104.86151
"20780",276.54492,72.65736,104.556366
"20781",276.55823,72.65736,104.326904
"20782",276.57153,72.71839,104.15848
"20783",276.58484,72.82338,104.03592
"20784",276.59814,72.952774,103.94105
"20785",276.61145,73.08949,103.857544
"20786",276.62476,73.216446,103.76855
"20787",276.63806,73.33608,103.6762
"20788",276.65137,73.48257,103.61444
"20789",276.66467,73.763336,103.69154
"20790",276.67798,74.34928,104.082596
"20791",276.69128,75.440605,104.99734
"20792",276.7046,77.16426,106.578514
"20793",276.7179,79.52758,108.85322
"20794",276.7312,82.38651,111.69739
"20795",276.7445,85.46761,114.853065
"20796",276.7578,88.43397,117.99028
"20797",276.77112,90.985275,120.805145
"20798",276.78442,92.911575,123.07474
"20799",276.79773,94.10544,124.67209
"20800",276.81104,94.54734,125.55479
"20801",276.82434,94.29832,125.76037
"20802",276.83765,93.47311,125.38198
"20803",276.85095,92.22308,124.55299
"20804",276.86426,90.69718,123.409065
"20805",276.87756,89.024796,122.07097
"20806",276.89087,87.30602,120.63422
"20807",276.90417,85.59945,119.15596
"20808",276.91748,83.9588,117.69029
"20809",276.9308,82.425575,116.28078
"20810",276.9441,81.07057,115.00157
"20811",276.9574,79.9646,113.929054
"20812",276.9707,79.17845,113.1418
"20813",276.984,78.73411,112.67178
"20814",276.9973,78.61936,112.51748
"20815",277.01062,78.77562,112.63059
"20816",277.02393,79.11009,112.9268
"20817",277.03723,79.520256,113.30916
"20818",277.05054,79.91333,113.68724
"20819",277.06384,80.21118,113.98238
"20820",277.07715,80.360115,114.13792
"20821",277.09045,80.325935,114.11499
"20822",277.10376,80.10376,113.903
"20823",277.11707,79.710686,113.51317
"20824",277.13037,79.17601,112.96945
"20825",277.14368,78.538795,112.30649
"20826",277.15698,77.82834,111.55037
"20827",277.1703,77.083694,110.73786
"20828",277.1836,76.33906,109.90209
"20829",277.1969,75.6115,109.060135
"20830",277.2102,74.93523,108.24672
"20831",277.2235,74.319984,107.473206
"20832",277.23682,73.79019,106.765915
"20833",277.25012,73.34829,106.12996
"20834",277.26343,72.99916,105.57297
"20835",277.27673,72.742805,105.09784
"20836",277.29004,72.57923,104.70747
"20837",277.30334,72.50111,104.397446
"20838",277.31665,72.49134,104.153336
"20839",277.32996,72.532845,103.96019
"20840",277.34326,72.60609,103.80008
"20841",277.35657,72.69398,103.656906
"20842",277.36987,72.78676,103.52138
"20843",277.38318,72.935684,103.44489
"20844",277.39648,73.26528,103.553734
"20845",277.4098,73.95865,104.036644
"20846",277.4231,75.20378,105.09299
"20847",277.4364,77.117874,106.8572
"20848",277.4497,79.66918,109.31844
"20849",277.463,82.68192,112.32085
"20850",277.47632,85.86069,115.58342
"20851",277.48962,88.868546,118.77442
"20852",277.50293,91.41009,121.59311
"20853",277.51624,93.29488,123.83447
"20854",277.52954,94.42039,125.37544
"20855",277.54285,94.78172,126.187416
"20856",277.55615,94.449684,126.31731
"20857",277.56946,93.54391,125.86308
"20858",277.58276,92.21332,124.95574
"20859",277.59607,90.60929,123.73338
"20860",277.60938,88.866104,122.32174
"20861",277.62268,87.06676,120.79945
"20862",277.636,85.28695,119.24048
"20863",277.6493,83.57549,117.69424
"20864",277.6626,81.99344,116.223915
"20865",277.6759,80.6067,114.89947
"20866",277.6892,79.48852,113.80025
"20867",277.7025,78.70481,113.00056
"20868",277.71582,78.29221,112.547485
"20869",277.72913,78.22629,112.42819
"20870",277.74243,78.44358,112.59006
"20871",277.75574,78.84886,112.9467
"20872",277.76904,79.33227,113.394135
"20873",277.78235,79.78882,113.82982
"20874",277.79565,80.130615,114.165016
"20875",277.80896,80.30396,114.342445
"20876",277.82227,80.28443,114.33241
"20877",277.83557,80.0647,114.12157
"20878",277.84888,79.67162,113.730515
"20879",277.86218,79.13939,113.18802
"20880",277.8755,78.49729,112.51903
"20881",277.8888,77.77951,111.75429
"20882",277.9021,77.0251,110.93049
"20883",277.9154,76.265816,110.07824
"20884",277.9287,75.528496,109.22423
"20885",277.94202,74.83513,108.39113
"20886",277.95532,74.215,107.6096
"20887",277.96863,73.68032,106.89414
"20888",277.98193,73.23598,106.25231
"20889",277.99524,72.89174,105.6967
"20890",278.00854,72.64515,105.22798
"20891",278.02185,72.49134,104.84433
"20892",278.03516,72.413216,104.531555
"20893",278.04846,72.39857,104.279816
"20894",278.06177,72.43519,104.07889
"20895",278.07507,72.50111,103.9084
"20896",278.08838,72.58167,103.75462
"20897",278.10168,72.68421,103.625336
"20898",278.115,72.87953,103.59204
"20899",278.1283,73.31655,103.80655
"20900",278.1416,74.19302,104.47417
"20901",278.1549,75.68719,105.786865
"20902",278.1682,77.874725,107.83963
"20903",278.18152,80.672615,110.571106
"20904",278.19482,83.85382,113.77333
"20905",278.20813,87.08873,117.12867
"20906",278.22144,90.040436,120.301895
"20907",278.23474,92.437935,123.01316
"20908",278.24805,94.12741,125.091324
"20909",278.26135,95.04051,126.44591
"20910",278.27466,95.19676,127.072174
"20911",278.28796,94.676735,127.02705
"20912",278.30127,93.61471,126.42367
"20913",278.31458,92.16449,125.39891
"20914",278.32788,90.46525,124.07981
"20915",278.3412,88.639046,122.58065
"20916",278.3545,86.77867,120.99025
"20917",278.3678,84.9427,119.36611
"20918",278.3811,83.1873,117.76517
"20919",278.3944,81.57351,116.25098
"20920",278.4077,80.17944,114.90608
"20921",278.42102,79.078354,113.8106
"20922",278.43433,78.33616,113.039604
"20923",278.44763,77.97482,112.626274
"20924",278.46094,77.95773,112.5459
"20925",278.47424,78.21408,112.73843
"20926",278.48755,78.63401,113.10255
"20927",278.50085,79.11253,113.53838
"20928",278.51416,79.54467,113.94279
"20929",278.52747,79.85474,114.238625
"20930",278.54077,79.9939,114.373245
"20931",278.55408,79.937744,114.3169
"20932",278.56738,79.68627,114.063484
"20933",278.5807,79.25414,113.62155
"20934",278.594,78.67307,113.01717
"20935",278.6073,77.98459,112.287224
"20936",278.6206,77.222855,111.46251
"20937",278.6339,76.42939,110.58226
"20938",278.64722,75.631035,109.672325
"20939",278.66052,74.86687,108.77163
"20940",278.67383,74.158844,107.9032
"20941",278.68713,73.531395,107.093216
"20942",278.70044,72.99428,106.35396
"20943",278.71375,72.55726,105.69801
"20944",278.72705,72.22766,105.13583
"20945",278.74036,71.99573,104.66101
"20946",278.75366,71.85657,104.27171
"20947",278.76697,71.80286,103.96352
"20948",278.78027,71.80774,103.712234
"20949",278.79358,71.84924,103.49773
"20950",278.8069,71.939575,103.33334
"20951",278.8202,72.13733,103.279205
"20952",278.8335,72.59388,103.49005
"20953",278.8468,73.50698,104.17171
"20954",278.8601,75.052414,105.51424
"20955",278.8734,77.279015,107.58623
"20956",278.88672,80.096436,110.31862
"20957",278.90002,83.265434,113.49063
"20958",278.91333,86.46128,116.78852
"20959",278.92664,89.356834,119.88599
"20960",278.93994,91.7055,122.527054
"20961",278.95325,93.35592,124.543274
"20962",278.96655,94.24704,125.85177
"20963",278.97986,94.398415,126.448364
"20964",278.99316,93.88815,126.388054
"20965",279.00647,92.83833,125.77224
"20966",279.01978,91.39788,124.73299
"20967",279.03308,89.7084,123.39969
"20968",279.0464,87.887085,121.88177
"20969",279.0597,86.01938,120.26053
"20970",279.073,84.159,118.58825
"20971",279.0863,82.37919,116.93841
"20972",279.0996,80.7483,115.38187
"20973",279.1129,79.34936,114.00631
"20974",279.12622,78.27268,112.9093
"20975",279.13953,77.574425,112.15707
"20976",279.15283,77.264366,111.77121
"20977",279.16614,77.30343,111.724785
"20978",279.17944,77.60616,111.94325
"20979",279.19275,78.07248,112.33476
"20980",279.20605,78.590065,112.792114
"20981",279.21936,79.063705,113.221695
"20982",279.23267,79.415276,113.54401
"20983",279.24597,79.59594,113.7064
"20984",279.25928,79.58129,113.67912
"20985",279.27258,79.381096,113.46584
"20986",279.2859,79.01488,113.080284
"20987",279.2992,78.51438,112.549
"20988",279.3125,77.908905,111.8971
"20989",279.3258,77.23018,111.15303
"20990",279.3391,76.50996,110.34625
"20991",279.35242,75.78241,109.50964
"20992",279.36572,75.071945,108.66738
"20993",279.37903,74.41276,107.854195
"20994",279.39233,73.829254,107.09609
"20995",279.40564,73.32876,106.40276
"20996",279.41895,72.91615,105.781685
"20997",279.43225,72.59388,105.238045
"20998",279.44556,72.34486,104.75758
"20999",279.45886,72.164185,104.33769
"21000",279.47217,72.03723,103.965866
"21001",279.48547,71.95911,103.6389
"21002",279.49878,71.95178,103.380295
"21003",279.5121,72.10803,103.285034
"21004",279.5254,72.59876,103.529144
"21005",279.5387,73.62661,104.3257
"21006",279.552,75.338066,105.83799
"21007",279.5653,77.7551,108.10934
"21008",279.5786,80.74586,111.029945
"21009",279.59192,84.04181,114.349205
"21010",279.60522,87.28649,117.72019
"21011",279.61853,90.160065,120.82147
"21012",279.63184,92.42817,123.40708
"21013",279.64514,93.961395,125.32869
"21014",279.65845,94.7158,126.51939
"21015",279.67175,94.73289,126.996346
"21016",279.68506,94.100555,126.82442
"21017",279.69836,92.95796,126.12247
"21018",279.71167,91.44671,125.01615
"21019",279.72498,89.703514,123.63067
"21020",279.73828,87.8407,122.07109
"21021",279.7516,85.943695,120.41911
"21022",279.7649,84.07599,118.737144
"21023",279.7782,82.29618,117.08471
"21024",279.7915,80.68238,115.54266
"21025",279.8048,79.31518,114.196785
"21026",279.8181,78.277565,113.13777
"21027",279.83142,77.61593,112.42231
"21028",279.84473,77.33517,112.06705
"21029",279.85803,77.39376,112.042366
"21030",279.87134,77.70138,112.26854
"21031",279.88464,78.150604,112.645935
"21032",279.89795,78.63645,113.07399
"21033",279.91125,79.06859,113.46352
"21034",279.92456,79.37133,113.73715
"21035",279.93787,79.50561,113.85178
"21036",279.95117,79.4519,113.78262
"21037",279.96448,79.217514,113.53111
"21038",279.97778,78.82445,113.113594
"21039",279.9911,78.2971,112.54951
"21040",280.0044,77.6672,111.866394
"21041",280.0177,76.97383,111.10013
"21042",280.031,76.24872,110.28045
"21043",280.0443,75.528496,109.443
"21044",280.05762,74.84245,108.617226
"21045",280.07092,74.212555,107.82616
"21046",280.08423,73.65591,107.08865
"21047",280.09753,73.18471,106.419205
"21048",280.11084,72.798965,105.82049
"21049",280.12415,72.49622,105.29272
"21050",280.13745,72.26429,104.826294
"21051",280.15076,72.0885,104.40877
"21052",280.16406,71.96399,104.03702
"21053",280.17737,71.885864,103.70776
"21054",280.19067,71.922485,103.490814
"21055",280.20398,72.21301,103.528915
"21056",280.2173,72.96254,104.035095
"21057",280.2306,74.36393,105.21657
"21058",280.2439,76.5124,107.18891
"21059",280.2572,79.33715,109.90468
"21060",280.2705,82.62577,113.172585
"21061",280.2838,86.029144,116.65801
"21062",280.29712,89.19081,120.00809
"21063",280.31042,91.82269,122.927185
"21064",280.32373,93.751434,125.22539
"21065",280.33704,94.89891,126.8026
"21066",280.35034,95.274895,127.64417
"21067",280.36365,94.959946,127.806564
"21068",280.37695,94.07126,127.385376
"21069",280.39026,92.755325,126.50917
"21070",280.40356,91.15373,125.30618
"21071",280.41687,89.38857,123.88958
"21072",280.43018,87.555046,122.34945
"21073",280.44348,85.71908,120.74957
"21074",280.4568,83.94171,119.150925
"21075",280.4701,82.28153,117.61392
"21076",280.4834,80.8069,116.21059
"21077",280.4967,79.59838,115.02728
"21078",280.51,78.712135,114.12849
"21079",280.52332,78.17746,113.553566
"21080",280.53662,77.977264,113.29642
"21081",280.54993,78.05051,113.30645
"21082",280.56323,78.30686,113.501884
"21083",280.57654,78.64866,113.79077
"21084",280.58984,78.992905,114.09279
"21085",280.60315,79.259026,114.32744
"21086",280.61646,79.395744,114.441
"21087",280.62976,79.37133,114.397705
"21088",280.64307,79.17113,114.17786
"21089",280.65637,78.81224,113.79307
"21090",280.66968,78.311745,113.255455
"21091",280.68298,77.70138,112.59233
"21092",280.6963,77.01778,111.8369
"21093",280.7096,76.29267,111.0186
"21094",280.7229,75.55779,110.16787
"21095",280.7362,74.844894,109.316154
"21096",280.7495,74.17105,108.48122
"21097",280.76282,73.56069,107.688705
"21098",280.77612,73.02602,106.952805
"21099",280.78943,72.57923,106.288086
"21100",280.80273,72.22278,105.69974
"21101",280.81604,71.956665,105.19058
"21102",280.82935,71.78088,104.76344
"21103",280.84265,71.67834,104.40405
"21104",280.85596,71.63683,104.10249
"21105",280.86926,71.63683,103.84114
"21106",280.88257,71.6881,103.63106
"21107",280.89587,71.82239,103.5056
"21108",280.90918,72.15686,103.58452
"21109",280.9225,72.87221,104.05476
"21110",280.9358,74.16861,105.128426
"21111",280.9491,76.15839,106.935974
"21112",280.9624,78.8098,109.46734
"21113",280.9757,81.934845,112.55519
"21114",280.989,85.2137,115.89451
"21115",281.00232,88.28016,119.12389
"21116",281.01562,90.81438,121.91687
"21117",281.02893,92.61616,124.0566
"21118",281.04224,93.61471,125.44941
"21119",281.05554,93.83444,126.094604
"21120",281.06885,93.365685,126.058174
"21121",281.08215,92.3476,125.45777
"21122",281.09546,90.948654,124.44469
"21123",281.10876,89.322655,123.160835
"21124",281.12207,87.589226,121.71874
"21125",281.13538,85.83627,120.20296
"21126",281.14868,84.12726,118.67632
"21127",281.162,82.51835,117.19639
"21128",281.1753,81.041275,115.79801
"21129",281.1886,79.764404,114.55368
"21130",281.2019,78.76097,113.542885
"21131",281.2152,78.09689,112.84009
"21132",281.22852,77.80148,112.48521
"21133",281.24182,77.88937,112.504395
"21134",281.25513,78.3093,112.85837
"21135",281.26843,78.94408,113.44031
"21136",281.28174,79.63012,114.09335
"21137",281.29504,80.22095,114.67262
"21138",281.30835,80.59937,115.05795
"21139",281.32166,80.71412,115.19143
"21140",281.33496,80.587166,115.08679
"21141",281.34827,80.27711,114.79508
"21142",281.36157,79.83276,114.3594
"21143",281.37488,79.26635,113.78776
"21144",281.38818,78.58518,113.083664
"21145",281.4015,77.823456,112.277725
"21146",281.4148,77.12276,111.50901
"21147",281.4281,76.66621,110.96255
"21148",281.4414,76.5124,110.70456
"21149",281.4547,76.52705,110.61022
"21150",281.46802,76.47578,110.450424
"21151",281.48132,76.16327,110.02779
"21152",281.49463,75.528496,109.27312
"21153",281.50793,74.6984,108.30329
"21154",281.52124,73.953766,107.39298
"21155",281.53455,73.55825,106.808525
"21156",281.54785,73.57534,106.62431
"21157",281.56116,73.85855,106.70676
"21158",281.57446,74.215,106.871284
"21159",281.58777,74.50553,106.98104
"21160",281.60107,74.71061,107.01442
"21161",281.61438,74.93767,107.07619
"21162",281.6277,75.38445,107.36478
"21163",281.641,76.25605,108.09214
"21164",281.6543,77.68185,109.40094
"21165",281.6676,79.674065,111.32072
"21166",281.6809,82.12283,113.7593
"21167",281.6942,84.82063,116.52344
"21168",281.70752,87.49645,119.3499
"21169",281.72083,89.89639,121.9841
"21170",281.73413,91.810486,124.20746
"21171",281.74744,93.11177,125.87782
"21172",281.76074,93.73678,126.912575
"21173",281.77405,93.7026,127.30767
"21174",281.78735,93.0898,127.12308
"21175",281.80066,92.018005,126.46034
"21176",281.81396,90.61906,125.43696
"21177",281.82727,89.01259,124.16234
"21178",281.84058,87.28649,122.71788
"21179",281.85388,85.49935,121.15845
"21180",281.8672,83.69756,119.52851
"21181",281.8805,81.93973,117.88622
"21182",281.8938,80.289314,116.296425
"21183",281.9071,78.82933,114.84548
"21184",281.9204,77.64767,113.627235
"21185",281.93372,76.81026,112.71632
"21186",281.94702,76.34394,112.15032
"21187",281.96033,76.241394,111.933525
"21188",281.97363,76.436714,112.01139
"21189",281.98694,76.824905,112.28823
"21190",282.00024,77.28878,112.652885
"21191",282.01355,77.73556,113.01494
"21192",282.02686,78.09445,113.30307
"21193",282.04016,78.32639,113.475464
"21194",282.05347,78.41428,113.511055
"21195",282.06677,78.36057,113.40779
"21196",282.08008,78.170135,113.16612
"21197",282.09338,77.84299,112.78179
"21198",282.1067,77.38888,112.26028
"21199",282.12,76.84688,111.63668
"21200",282.1333,76.25361,110.94488
"21201",282.1466,75.648125,110.22232
"21202",282.1599,75.06706,109.505264
"21203",282.17322,74.529945,108.813995
"21204",282.18652,74.04654,108.15965
"21205",282.19983,73.619286,107.54636
"21206",282.21313,73.253075,106.98075
"21207",282.22644,72.94545,106.46229
"21208",282.23975,72.68665,105.98304
"21209",282.25305,72.46937,105.53722
"21210",282.26636,72.288704,105.121216
"21211",282.27966,72.17639,104.76793
"21212",282.29297,72.22034,104.56738
"21213",282.30627,72.59632,104.70026
"21214",282.31958,73.50698,105.37955
"21215",282.3329,75.10124,106.770905
"21216",282.3462,77.41329,108.92987
"21217",282.3595,80.31861,111.75436
"21218",282.3728,83.55596,115.00166
"21219",282.3861,86.78844,118.34526
"21220",282.3994,89.688866,121.457825
"21221",282.41272,92.018005,124.089745
"21222",282.42603,93.63668,126.083984
"21223",282.43933,94.50828,127.38173
"21224",282.45264,94.659645,127.98648
"21225",282.46594,94.17868,127.96363
"21226",282.47925,93.18501,127.41305
"21227",282.49255,91.81781,126.45788
"21228",282.50586,90.20157,125.210945
"21229",282.51917,88.42664,123.75482
"21230",282.53247,86.57603,122.16754
"21231",282.54578,84.72297,120.51998
"21232",282.55908,82.930954,118.87556
"21233",282.5724,81.270775,117.30697
"21234",282.5857,79.83032,115.90623
"21235",282.599,78.68772,114.75832
"21236",282.6123,77.89426,113.92385
"21237",282.6256,77.454796,113.41859
"21238",282.63892,77.330284,113.21454
"21239",282.65222,77.45724,113.258064
"21240",282.66553,77.730675,113.45204
"21241",282.67883,78.06271,113.713165
"21242",282.69214,78.37278,113.96269
"21243",282.70544,78.59983,114.13889
"21244",282.71875,78.69993,114.19524
"21245",282.73206,78.65354,114.10822
"21246",282.74536,78.45579,113.86839
"21247",282.75867,78.10422,113.46857
"21248",282.77197,77.625694,112.9308
"21249",282.78528,77.049515,112.280426
"21250",282.79858,76.41718,111.55589
"21251",282.8119,75.76532,110.79207
"21252",282.8252,75.125656,110.02007
"21253",282.8385,74.52262,109.26472
"21254",282.8518,73.970856,108.54179
"21255",282.8651,73.47524,107.857765
"21256",282.87842,73.043106,107.22173
"21257",282.89172,72.672005,106.63323
"21258",282.90503,72.35706,106.089294
"21259",282.91833,72.09338,105.58678
"21260",282.93164,71.87854,105.12485
"21261",282.94495,71.727165,104.71968
"21262",282.95825,71.707634,104.44162
"21263",282.97156,71.96887,104.443726
"21264",282.98486,72.708626,104.93251
"21265",282.99817,74.10269,106.098724
"21266",283.01147,76.224304,108.03605
"21267",283.02478,79.00023,110.693985
"21268",283.0381,82.193634,113.85615
"21269",283.0514,85.472496,117.20356
"21270",283.0647,88.49012,120.3922
"21271",283.078,90.98772,123.155106
"21272",283.0913,92.79439,125.305145
"21273",283.1046,93.84421,126.75479
"21274",283.11792,94.151825,127.49504
"21275",283.13123,93.79294,127.5784
"21276",283.14453,92.87984,127.09633
"21277",283.15784,91.55169,126.17068
"21278",283.17114,89.933014,124.912994
"21279",283.18445,88.13855,123.42894
"21280",283.19775,86.24887,121.793594
"21281",283.21106,84.351875,120.09187
"21282",283.22437,82.55009,118.42608
"21283",283.23767,80.990005,116.94569
"21284",283.25098,79.818115,115.80473
"21285",283.26428,79.11253,115.09347
"21286",283.2776,78.84886,114.80206
"21287",283.2909,78.93919,114.85642
"21288",283.3042,79.23949,115.123566
"21289",283.3175,79.61547,115.475784
"21290",283.3308,79.97681,115.8251
"21291",283.34412,80.28199,116.12956
"21292",283.35742,80.50904,116.365425
"21293",283.37073,80.61402,116.48631
"21294",283.38403,80.552986,116.444466
"21295",283.39734,80.30152,116.21028
"21296",283.41064,79.86206,115.78024
"21297",283.42395,79.26147,115.17534
"21298",283.43726,78.53147,114.422264
"21299",283.45056,77.70626,113.55116
"21300",283.46387,76.82979,112.60301
"21301",283.47717,75.93378,111.60793
"21302",283.49048,75.06218,110.60927
"21303",283.50378,74.246735,109.63952
"21304",283.5171,73.50942,108.72242
"21305",283.5304,72.86977,107.87994
"21306",283.5437,72.33265,107.12
"21307",283.557,71.88098,106.42873
"21308",283.5703,71.51232,105.80635
"21309",283.58362,71.2169,105.2457
"21310",283.59692,70.98985,104.74417
"21311",283.61023,70.82872,104.30147
"21312",283.62354,70.767685,103.95383
"21313",283.63684,70.89464,103.79227
"21314",283.65015,71.35851,103.9716
"21315",283.66345,72.359505,104.702545
"21316",283.67676,74.04166,106.145935
"21317",283.69006,76.43183,108.349915
"21318",283.70337,79.40063,111.20721
"21319",283.71667,82.67948,114.46733
"21320",283.72998,85.926605,117.79819
"21321",283.7433,88.80751,120.864296
"21322",283.7566,91.08049,123.412506
"21323",283.7699,92.62104,125.299324
"21324",283.7832,93.402306,126.475
"21325",283.7965,93.45113,126.94265
"21326",283.8098,92.86519,126.777054
"21327",283.82312,91.77142,126.08533
"21328",283.83643,90.309,124.99076
"21329",283.84973,88.59266,123.59658
"21330",283.86304,86.72007,121.99251
"21331",283.87634,84.76936,120.2518
"21332",283.88965,82.81865,118.45013
"21333",283.90295,80.955826,116.675385
"21334",283.91626,79.28344,115.03287
"21335",283.92957,77.91623,113.643265
"21336",283.94287,76.93721,112.59913
"21337",283.95618,76.387886,111.954094
"21338",283.96948,76.25361,111.70694
"21339",283.9828,76.46113,111.797386
"21340",283.9961,76.910355,112.136024
"21341",284.0094,77.48409,112.61321
"21342",284.0227,78.07248,113.12298
"21343",284.036,78.57786,113.56812
"21344",284.04932,78.93919,113.88502
"21345",284.06262,79.11009,114.022766
"21346",284.07593,79.08812,113.972984
"21347",284.08923,78.8806,113.73697
"21348",284.10254,78.519264,113.34065
"21349",284.11584,78.03342,112.80853
"21350",284.12915,77.45724,112.1709
"21351",284.14246,76.82002,111.45422
"21352",284.15576,76.15106,110.68589
"21353",284.16907,75.47723,109.89178
"21354",284.18237,74.81804,109.091255
"21355",284.19568,74.195465,108.30675
"21356",284.20898,73.62905,107.558945
"21357",284.2223,73.12123,106.852036
"21358",284.2356,72.68665,106.2025
"21359",284.2489,72.342415,105.629715
"21360",284.2622,72.11536,105.16336
"21361",284.2755,72.09094,104.89255
"21362",284.28882,72.41566,104.97011
"21363",284.30212,73.2604,105.577835
"21364",284.31543,74.73258,106.83941
"21365",284.32874,76.841995,108.78422
"21366",284.34204,79.4519,111.29543
"21367",284.35535,82.31327,114.13968
"21368",284.36865,85.103836,117.00253
"21369",284.38196,87.53796,119.596146
"21370",284.39526,89.41299,121.70674
"21371",284.40857,90.61906,123.20697
"21372",284.42188,91.1342,124.05396
"21373",284.43518,91.00725,124.274956
"21374",284.4485,90.31876,123.93045
"21375",284.4618,89.18349,123.11764
"21376",284.4751,87.71374,121.934875
"21377",284.4884,86.012054,120.47424
"21378",284.5017,84.156555,118.80662
"21379",284.515,82.230255,117.01021
"21380",284.52832,80.33326,115.18291
"21381",284.54163,78.57786,113.43792
"21382",284.55493,77.086136,111.90176
"21383",284.56824,75.96796,110.69252
"21384",284.58154,75.28924,109.8878
"21385",284.59485,75.054855,109.50621
"21386",284.60815,75.20378,109.5006
"21387",284.62146,75.63592,109.78286
"21388",284.63477,76.226746,110.23731
"21389",284.64807,76.859085,110.75174
"21390",284.66138,77.435265,111.22977
"21391",284.67468,77.88449,111.59885
"21392",284.688,78.167694,111.81594
"21393",284.7013,78.2678,111.85879
"21394",284.7146,78.19699,111.73385
"21395",284.7279,77.96994,111.450455
"21396",284.7412,77.61837,111.035446
"21397",284.75452,77.16914,110.511795
"21398",284.76782,76.654,109.90819
"21399",284.78113,76.09979,109.24942
"21400",284.79443,75.53338,108.56113
"21401",284.80774,74.97429,107.86246
"21402",284.82104,74.44694,107.178055
"21403",284.83435,73.95865,106.516235
"21404",284.84766,73.52407,105.89287
"21405",284.86096,73.15785,105.32428
"21406",284.87427,72.90883,104.86144
"21407",284.88757,72.87221,104.603226
"21408",284.90088,73.216446,104.724724
"21409",284.91418,74.10025,105.396545
"21410",284.9275,75.63348,106.74541
"21411",284.9408,77.79416,108.76964
"21412",284.9541,80.430916,111.33746
"21413",284.9674,83.282524,114.20254
"21414",284.9807,86.03647,117.05906
"21415",284.99402,88.41932,119.63055
"21416",285.00732,90.23819,121.712524
"21417",285.02063,91.39544,123.18972
"21418",285.03394,91.8764,124.026794
"21419",285.04724,91.737236,124.258766
"21420",285.06055,91.070724,123.959045
"21421",285.07385,89.99405,123.22833
"21422",285.08716,88.6244,122.171
"21423",285.10046,87.047226,120.86334
"21424",285.11377,85.347984,119.38432
"21425",285.12708,83.60235,117.80581
"21426",285.14038,81.89334,116.20937
"21427",285.1537,80.31129,114.686485
"21428",285.167,78.94896,113.333885
"21429",285.1803,77.8967,112.24878
"21430",285.1936,77.205765,111.49212
"21431",285.2069,76.8835,111.082535
"21432",285.2202,76.89815,110.999794
"21433",285.23352,77.1667,111.17142
"21434",285.24683,77.58419,111.50037
"21435",285.26013,78.05051,111.89119
"21436",285.27344,78.47532,112.25508
"21437",285.28674,78.79271,112.524826
"21438",285.30005,78.96117,112.655556
"21439",285.31335,78.96117,112.62309
"21440",285.32666,78.80003,112.4295
"21441",285.33997,78.49973,112.0917
"21442",285.35327,78.08957,111.63465
"21443",285.36658,77.60372,111.0891
"21444",285.37988,77.07149,110.48199
"21445",285.3932,76.51728,109.836266
"21446",285.4065,75.95331,109.16346
"21447",285.4198,75.3991,108.482796
"21448",285.4331,74.87175,107.81167
"21449",285.4464,74.39323,107.17289
"21450",285.45972,74.00015,106.60461
"21451",285.47302,73.777985,106.19495
"21452",285.48633,73.87076,106.093285
"21453",285.49963,74.444496,106.47549
"21454",285.51294,75.64324,107.500626
"21455",285.52625,77.51095,109.232185
"21456",285.53955,79.957275,111.60073
"21457",285.55286,82.7625,114.40462
"21458",285.56616,85.62142,117.34987
"21459",285.57947,88.22888,120.132996
"21460",285.59277,90.34318,122.50444
"21461",285.60608,91.81781,124.3023
"21462",285.6194,92.60883,125.46263
"21463",285.6327,92.74799,125.99582
"21464",285.646,92.32075,125.96695
"21465",285.6593,91.45159,125.48282
"21466",285.6726,90.269936,124.65903
"21467",285.6859,88.89296,123.60299
"21468",285.69922,87.39147,122.37941
"21469",285.71252,85.82895,121.04787
"21470",285.72583,84.2591,119.66017
"21471",285.73914,82.735634,118.2698
"21472",285.75244,81.33181,116.95146
"21473",285.76575,80.12329,115.78456
"21474",285.77905,79.17601,114.84113
"21475",285.79236,78.521706,114.16108
"21476",285.80566,78.16281,113.75599
"21477",285.81897,78.05783,113.5936
"21478",285.83228,78.14084,113.61591
"21479",285.84558,78.33372,113.750694
"21480",285.8589,78.56321,113.928116
"21481",285.8722,78.751205,114.07121
"21482",285.8855,78.84398,114.12496
"21483",285.8988,78.81468,114.05954
"21484",285.9121,78.6511,113.85892
"21485",285.9254,78.365456,113.53112
"21486",285.93872,77.977264,113.09185
"21487",285.95203,77.50851,112.55988
"21488",285.96533,76.98604,111.95956
"21489",285.97864,76.436714,111.31605
"21490",285.99194,75.880066,110.64805
"21491",286.00525,75.33318,109.97242
"21492",286.01855,74.813156,109.30656
"21493",286.03186,74.33463,108.66595
"21494",286.04517,73.944,108.098274
"21495",286.05847,73.72671,107.691734
"21496",286.07178,73.84146,107.61045
"21497",286.08508,74.46403,108.040565
"21498",286.0984,75.72381,109.12735
"21499",286.1117,77.65255,110.92246
"21500",286.125,80.14526,113.34182
"21501",286.1383,82.967575,116.16867
"21502",286.1516,85.80942,119.10325
"21503",286.16492,88.360725,121.8361
"21504",286.17822,90.38224,124.11888
"21505",286.19153,91.73968,125.800766
"21506",286.20483,92.4062,126.83415
"21507",286.21814,92.44038,127.25603
"21508",286.23145,91.95209,127.1565
"21509",286.24475,91.08293,126.66085
"21510",286.25806,89.96231,125.88657
"21511",286.27136,88.68299,124.91858
"21512",286.28467,87.310905,123.81784
"21513",286.29797,85.88022,122.615616
"21514",286.31128,84.42756,121.34671
"21515",286.3246,82.984665,120.042175
"21516",286.3379,81.60525,118.75603
"21517",286.3512,80.35523,117.556175
"21518",286.3645,79.30297,116.515015
"21519",286.3778,78.502174,115.69244
"21520",286.3911,77.97482,115.11828
"21521",286.40442,77.70382,114.78399
"21522",286.41772,77.6379,114.64632
"21523",286.43103,77.70138,114.63598
"21524",286.44434,77.81369,114.67646
"21525",286.45764,77.90646,114.70091
"21526",286.47095,77.93088,114.659904
"21527",286.48425,77.85275,114.51712
"21528",286.49756,77.6672,114.264465
"21529",286.51086,77.36935,113.893715
"21530",286.52417,76.97627,113.418434
"21531",286.53748,76.50996,112.85763
"21532",286.55078,75.99725,112.23586
"21533",286.5641,75.457695,111.57122
"21534",286.5774,74.91814,110.88972
"21535",286.5907,74.390785,110.20356
"21536",286.604,73.89273,109.53022
"21537",286.6173,73.43374,108.88038
"21538",286.6306,73.040665,108.28211
"21539",286.64392,72.764786,107.78876
"21540",286.65723,72.723274,107.52115
"21541",286.67053,73.0724,107.64288
"21542",286.68384,73.97818,108.33218
"21543",286.69714,75.545586,109.7114
"21544",286.71045,77.75998,111.7866
"21545",286.72375,80.465096,114.421715
"21546",286.73706,83.389946,117.3611
"21547",286.75037,86.20981,120.286896
"21548",286.76367,88.62684,122.89798
"21549",286.77698,90.43595,124.976685
"21550",286.79028,91.54681,126.413666
"21551",286.8036,91.964294,127.19199
"21552",286.8169,91.776306,127.37789
"21553",286.8302,91.11711,127.08671
"21554",286.8435,90.13565,126.45266
"21555",286.8568,88.95155,125.585304
"21556",286.87012,87.64782,124.56131
"21557",286.88342,86.27329,123.42578
"21558",286.89673,84.86214,122.21066
"21559",286.91003,83.43633,120.9368
"21560",286.92334,82.03494,119.64279
"21561",286.93665,80.71168,118.38312
"21562",286.94995,79.54223,117.23591
"21563",286.96326,78.5803,116.259674
"21564",286.97656,77.86496,115.49997
"21565",286.98987,77.3962,114.96449
"21566",287.00317,77.154495,114.64142
"21567",287.01648,77.083694,114.4817
"21568",287.0298,77.11299,114.41986
"21569",287.0431,77.171585,114.38824
"21570",287.0564,77.20332,114.33159
"21571",287.0697,77.1667,114.20757
"21572",287.083,77.03487,113.9872
"21573",287.0963,76.79561,113.65528
"21574",287.10962,76.45136,113.2109
"21575",287.12292,76.02655,112.67519
"21576",287.13623,75.543144,112.06762
"21577",287.14954,75.028,111.4132
"21578",287.16284,74.50797,110.7378
"21579",287.17615,74.0148,110.073006
"21580",287.18945,73.55581,109.42698
"21581",287.20276,73.14076,108.810555
"21582",287.21606,72.76967,108.22511
"21583",287.22937,72.45716,107.68666
"21584",287.24268,72.20325,107.19704
"21585",287.25598,72.00549,106.75563
"21586",287.2693,71.89075,106.39105
"21587",287.2826,71.905396,106.15228
"21588",287.2959,72.166626,106.16055
"21589",287.3092,72.82826,106.57739
"21590",287.3225,74.04654,107.571556
"21591",287.33582,75.897156,109.23613
"21592",287.34912,78.33616,111.54692
"21593",287.36243,81.16823,114.326996
"21594",287.37573,84.09796,117.293236
"21595",287.38904,86.79576,120.119095
"21596",287.40234,88.98329,122.51899
"21597",287.41565,90.4921,124.30853
"21598",287.42896,91.268486,125.412796
"21599",287.44226,91.36858,125.865036
"21600",287.45557,90.90715,125.75887
"21601",287.46887,90.02579,125.21836
"21602",287.48218,88.87587,124.38175
"21603",287.49548,87.57702,123.360275
"21604",287.5088,86.20981,122.22984
"21605",287.5221,84.81819,121.03228
"21606",287.5354,83.43145,119.796104
"21607",287.5487,82.07645,118.54833
"21608",287.562,80.78737,117.32414
"21609",287.57532,79.61303,116.17441
"21610",287.58862,78.60471,115.154
"21611",287.60193,77.803925,114.30961
"21612",287.61523,77.23018,113.66724
"21613",287.62854,76.876175,113.22668
"21614",287.64185,76.70283,112.95571
"21615",287.65515,76.65644,112.80629
"21616",287.66846,76.67841,112.72378
"21617",287.68176,76.700386,112.64195
"21618",287.69507,76.66621,112.50466
"21619",287.70837,76.541695,112.27597
"21620",287.72168,76.30732,111.933525
"21621",287.735,75.96063,111.47144
"21622",287.7483,75.508965,110.89355
"21623",287.7616,74.986496,110.230736
"21624",287.7749,74.41764,109.50521
"21625",287.7882,73.831696,108.74482
"21626",287.8015,73.2604,107.98077
"21627",287.81482,72.725716,107.23547
"21628",287.82812,72.23987,106.52231
"21629",287.84143,71.81262,105.852554
"21630",287.85474,71.45373,105.23781
"21631",287.86804,71.165634,104.68265
"21632",287.88135,70.94835,104.189285
"21633",287.89465,70.79454,103.75261
"21634",287.90796,70.694435,103.36484
"21635",287.92126,70.63828,103.01788
"21636",287.93457,70.61387,102.70091
"21637",287.94788,70.608986,102.40271
"21638",287.96118,70.61387,102.11412
"21639",287.9745,70.63584,101.84277
"21640",287.9878,70.71397,101.628265
"21641",288.0011,70.93858,101.56269
"21642",288.0144,71.45617,101.797104
"21643",288.0277,72.4181,102.492035
"21644",288.04102,73.92691,103.763916
"21645",288.05432,75.97772,105.62495
"21646",288.06763,78.44358,107.96511
"21647",288.08093,81.075455,110.54835
"21648",288.09424,83.580376,113.086876
"21649",288.10754,85.68978,115.30817
"21650",288.12085,87.22301,117.019196
"21651",288.13416,88.097046,118.11895
"21652",288.14746,88.326546,118.60149
"21653",288.16077,88.006714,118.541855
"21654",288.18738,86.24399,117.256424
"21655",288.20068,85.05745,116.26501
"21656",288.214,83.792786,115.15839
"21657",288.2273,82.513466,113.99759
"21658",288.2406,81.25857,112.821236
"21659",288.2539,80.0647,111.666695
"21660",288.2672,78.97337,110.57739
"21661",288.28052,78.03586,109.607796
"21662",288.29382,77.29122,108.80178
"21663",288.30713,76.75899,108.1849
"21664",288.32043,76.44404,107.76867
"21665",288.33374,76.32929,107.5428
"21666",288.34705,76.368355,107.467155
"21667",288.36035,76.50507,107.49039
"21668",288.37366,76.68574,107.56184
"21669",288.38696,76.84932,107.62185
"21670",288.40027,76.95186,107.62593
"21671",288.41357,76.95674,107.53556
"21672",288.42688,76.85176,107.33548
"21673",288.4402,76.64179,107.02713
"21674",288.4535,76.33906,106.61945
"21675",288.4668,75.95819,106.12418
"21676",288.4801,75.52117,105.56086
"21677",288.4934,75.05974,104.959465
"21678",288.5067,74.59098,104.33633
"21679",288.52002,74.13443,103.71075
"21680",288.53333,73.7145,103.10752
"21681",288.54663,73.340965,102.53757
"21682",288.55994,73.01869,102.0072
"21683",288.57324,72.75014,101.520485
"21684",288.58655,72.54261,101.0864
"21685",288.59985,72.393684,100.70444
"21686",288.61316,72.30335,100.3764
"21687",288.62646,72.26429,100.09682
"21688",288.63977,72.271614,99.8624
"21689",288.65308,72.31312,99.662384
"21690",288.66638,72.379036,99.48808
"21691",288.6797,72.45228,99.323166
"21692",288.693,72.532845,99.16786
"21693",288.7063,72.61585,99.01752
"21694",288.7196,72.71595,98.886856
"21695",288.7329,72.903946,98.84723
"21696",288.74622,73.304344,99.02588
"21697",288.75952,74.06119,99.57349
"21698",288.77283,75.2868,100.61351
"21699",288.78613,77.00801,102.18744
"21700",288.81274,81.497826,106.55694
"21701",288.82605,83.82208,108.928
"21702",288.83936,85.86313,111.088486
"21703",288.85266,87.4403,112.84888
"21704",288.86597,88.45594,114.09703
"21705",288.87927,88.885635,114.79097
"21706",288.89258,88.7831,114.96611
"21707",288.90588,88.25086,114.70834
"21708",288.9192,87.40856,114.123886
"21709",288.9325,86.366066,113.31291
"21710",288.9458,85.21614,112.36192
"21711",288.9591,84.01984,111.32862
"21712",288.9724,82.8333,110.2677
"21713",288.98572,81.7029,109.225845
"21714",288.99902,80.67506,108.25121
"21715",289.01233,79.80347,107.40072
"21716",289.02563,79.12718,106.71829
"21717",289.03894,78.675514,106.23935
"21718",289.05225,78.44846,105.97091
"21719",289.06555,78.42405,105.89801
"21720",289.07886,78.56077,105.98548
"21721",289.09216,78.802475,106.18221
"21722",289.10547,79.080795,106.42311
"21723",289.11877,79.344475,106.658066
"21724",289.13208,79.53979,106.83289
"21725",289.1454,79.63256,106.911285
"21726",289.1587,79.603264,106.87051
"21727",289.172,79.45434,106.70918
"21728",289.1853,79.19798,106.435776
"21729",289.1986,78.856186,106.06892
"21730",289.2119,78.45579,105.632774
"21731",289.22522,78.01877,105.1475
"21732",289.23853,77.56466,104.63148
"21733",289.25183,77.117874,104.10859
"21734",289.26514,76.69306,103.59371
"21735",289.27844,76.30488,103.10219
"21736",289.29175,75.9704,102.65224
"21737",289.30505,75.682304,102.23822
"21738",289.31836,75.44549,101.86648
"21739",289.33167,75.25994,101.538605
"21740",289.34497,75.12077,101.25131
"21741",289.35828,75.03044,101.00851
"21742",289.37158,74.98161,100.80438
"21743",289.3849,74.97673,100.64268
"21744",289.3982,75.001144,100.51012
"21745",289.4115,75.04509,100.39785
"21746",289.4248,75.0988,100.29672
"21747",289.4381,75.159836,100.2046
"21748",289.45142,75.23552,100.12903
"21749",289.46472,75.372246,100.11687
"21750",289.47803,75.667656,100.26766
"21751",289.49133,76.25605,100.72067
"21752",289.50464,77.25704,101.60467
"21753",289.51794,78.7219,102.98381
"21754",289.53125,80.61402,104.83599
"21755",289.54456,82.78203,107.023186
"21756",289.55786,85.00618,109.334274
"21757",289.57117,87.04234,111.52688
"21758",289.58447,88.69276,113.39736
"21759",289.59778,89.83292,114.80917
"21760",289.61108,90.409096,115.692635
"21761",289.6244,90.43839,116.04722
"21762",289.6377,89.99893,115.93396
"21763",289.651,89.2079,115.4554
"21764",289.6643,88.18005,114.7153
"21765",289.6776,87.01305,113.803925
"21766",289.69092,85.78989,112.79992
"21767",289.70422,84.56916,111.760124
"21768",289.71753,83.39239,110.726135
"21769",289.73083,82.303505,109.74326
"21770",289.74414,81.356224,108.867966
"21771",289.75745,80.59205,108.14617
"21772",289.77075,80.05737,107.63
"21773",289.78406,79.76196,107.33638
"21774",289.79736,79.69604,107.263016
"21775",289.81067,79.823,107.38048
"21776",289.82397,80.08179,107.633736
"21777",289.83728,80.39918,107.95368
"21778",289.8506,80.709236,108.276215
"21779",289.8639,80.95827,108.54741
"21780",289.8772,81.10719,108.72628
"21781",289.8905,81.13161,108.78529
"21782",289.9038,81.03395,108.723
"21783",289.9171,80.81911,108.54047
"21784",289.93042,80.50172,108.24867
"21785",289.94373,80.111084,107.87372
"21786",289.95703,79.66918,107.43529
"21787",289.97034,79.20775,106.96352
"21788",289.98364,78.74143,106.47244
"21789",289.99695,78.28977,105.98145
"21790",290.01025,77.86496,105.5032
"21791",290.02356,77.47677,105.04829
"21792",290.03687,77.13252,104.62519
"21793",290.05017,76.841995,104.245056
"21794",290.06348,76.60517,103.909546
"21795",290.07678,76.41474,103.61303
"21796",290.0901,76.27314,103.35939
"21797",290.1034,76.175476,103.14526
"21798",290.1167,76.10956,102.95983
"21799",290.13,76.06561,102.79431
"21800",290.1433,76.04608,102.65183
"21801",290.15662,76.0412,102.52339
"21802",290.16992,76.05829,102.41677
"21803",290.18323,76.138855,102.37416
"21804",290.19653,76.387886,102.50253
"21805",290.20984,76.929886,102.931656
"21806",290.22314,77.88693,103.79276
"21807",290.23645,79.3225,105.1623
"21808",290.24976,81.19997,107.01859
"21809",290.26306,83.36797,109.2241
"21810",290.27637,85.609215,111.57059
"21811",290.28967,87.682,113.81866
"21812",290.30298,89.38125,115.757965
"21813",290.31628,90.57511,117.244995
"21814",290.3296,91.205,118.20536
"21815",290.3429,91.28069,118.63121
"21816",290.3562,90.86076,118.563805
"21817",290.3695,90.055084,118.09753
"21818",290.3828,88.97597,117.332634
"21819",290.39612,87.73815,116.37532
"21820",290.40942,86.417336,115.296326
"21821",290.42273,85.084305,114.16383
"21822",290.43604,83.79767,113.03608
"21823",290.44934,82.60136,111.95844
"21824",290.46265,81.54421,110.98259
"21825",290.47595,80.68726,110.1739
"21826",290.48926,80.0647,109.57281
"21827",290.50256,79.70336,109.21349
"21828",290.51587,79.60082,109.101685
"21829",290.52917,79.71801,109.2064
"21830",290.54248,79.99634,109.475914
"21831",290.5558,80.36256,109.84202
"21832",290.5691,80.740974,110.231766
"21833",290.5824,81.07057,110.58452
"21834",290.5957,81.30251,110.849915
"21835",290.609,81.40261,110.990715
"21836",290.6223,81.36111,110.99304
"21837",290.63562,81.18288,110.857346
"21838",290.64893,80.88258,110.59402
"21839",290.66223,80.48707,110.22608
"21840",290.67554,80.028076,109.78231
"21841",290.68884,79.53246,109.287575
"21842",290.70215,79.027084,108.767586
"21843",290.71545,78.52659,108.23669
"21844",290.72876,78.04562,107.70968
"21845",290.74207,77.59884,107.20182
"21846",290.75537,77.19844,106.72639
"21847",290.76868,76.84932,106.28972
"21848",290.78198,76.558784,105.90073
"21849",290.7953,76.32929,105.5637
"21850",290.8086,76.1535,105.2732
"21851",290.8219,76.02167,105.021164
"21852",290.8352,75.92645,104.80163
"21853",290.8485,75.85565,104.60353
"21854",290.86182,75.80194,104.42031
"21855",290.87512,75.775085,104.26227
"21856",290.88843,75.809265,104.16442
"21857",290.90173,75.99237,104.21657
"21858",290.91504,76.45869,104.55765
"21859",290.92834,77.35226,105.34055
"21860",290.94165,78.75609,106.661644
"21861",290.95496,80.66285,108.52953
"21862",290.96826,82.950485,110.83788
"21863",290.98157,85.39193,113.37153
"21864",290.99487,87.725945,115.87404
"21865",291.00818,89.71084,118.10037
"21866",291.02148,91.17815,119.87115
"21867",291.0348,92.035095,121.077415
"21868",291.0481,92.27436,121.69278
"21869",291.0614,91.949646,121.75164
"21870",291.0747,91.17082,121.346245
"21871",291.088,90.04776,120.57227
"21872",291.10132,88.70252,119.54103
"21873",291.11462,87.2401,118.350555
"21874",291.12793,85.74105,117.07776
"21875",291.14124,84.27131,115.78742
"21876",291.15454,82.88945,114.53904
"21877",291.16785,81.64431,113.38419
"21878",291.18115,80.59205,112.383316
"21879",291.19446,79.783936,111.593704
"21880",291.20776,79.259026,111.06204
"21881",291.22107,79.02464,110.804504
"21882",291.23438,79.061264,110.810646
"21883",291.24768,79.31274,111.03278
"21884",291.261,79.70092,111.39949
"21885",291.2743,80.13794,111.82716
"21886",291.2876,80.54322,112.236755
"21887",291.3009,80.85573,112.56624
"21888",291.3142,81.03639,112.77364
"21889",291.3275,81.06569,112.83533
"21890",291.34082,80.94118,112.74412
"21891",291.35413,80.68238,112.51473
"21892",291.36743,80.308846,112.16252
"21893",291.38074,79.84741,111.71074
"21894",291.39404,79.32983,111.188385
"21895",291.40735,78.79027,110.627884
"21896",291.42065,78.24582,110.04563
"21897",291.43396,77.72335,109.468346
"21898",291.44727,77.23506,108.90891
"21899",291.46057,76.788284,108.37573
"21900",291.47388,76.385445,107.87253
"21901",291.48718,76.03143,107.40556
"21902",291.5005,75.72381,106.97392
"21903",291.5138,75.46502,106.581505
"21904",291.5271,75.24773,106.222496
"21905",291.5404,75.0695,105.89577
"21906",291.5537,74.932785,105.60497
"21907",291.56702,74.881516,105.395355
"21908",291.58032,75.020676,105.374565
"21909",291.59363,75.50408,105.70237
"21910",291.60693,76.47822,106.53601
"21911",291.62024,78.028534,107.97627
"21912",291.63354,80.130615,110.01675
"21913",291.64685,82.62821,112.518425
"21914",291.66016,85.27718,115.24953
"21915",291.67346,87.78699,117.92424
"21916",291.68677,89.915924,120.296524
"21917",291.70007,91.48821,122.17869
"21918",291.71338,92.403755,123.45324
"21919",291.72668,92.65034,124.08744
"21920",291.74,92.29389,124.12632
"21921",291.7533,91.439384,123.656
"21922",291.7666,90.21866,122.792755
"21923",291.7799,88.7538,121.64723
"21924",291.7932,87.15709,120.32408
"21925",291.80652,85.51156,118.90221
"21926",291.81982,83.88068,117.44356
"21927",291.83313,82.3328,116.01695
"21928",291.84644,80.936295,114.693344
"21929",291.85974,79.7522,113.538506
"21930",291.87305,78.839096,112.61766
"21931",291.88635,78.23605,111.97834
"21932",291.89966,77.95285,111.640015
"21933",291.91296,77.9675,111.59069
"21934",291.92627,78.221405,111.78108
"21935",291.93958,78.63157,112.135666
"21936",291.95288,79.10277,112.5641
"21937",291.9662,79.54955,112.98285
"21938",291.9795,79.903564,113.322784
"21939",291.9928,80.11841,113.534615
"21940",292.0061,80.17456,113.59447
"21941",292.0194,80.06958,113.49494
"21942",292.0327,79.823,113.250534
"21943",292.04602,79.45922,112.881226
"21944",292.05933,79.00267,112.407776
"21945",292.07263,78.487526,111.861465
"21946",292.08594,77.94797,111.27464
"21947",292.09924,77.39864,110.661194
"21948",292.11255,76.86153,110.042786
"21949",292.12585,76.35371,109.43689
"21950",292.13916,75.88739,108.85663
"21951",292.15247,75.46502,108.30574
"21952",292.16577,75.09148,107.79048
"21953",292.17908,74.776535,107.32215
"21954",292.19238,74.510414,106.8928
"21955",292.2057,74.288246,106.499084
"21956",292.219,74.107574,106.13992
"21957",292.2323,74.00015,105.848366
"21958",292.2456,74.05142,105.71214
"21959",292.2589,74.41032,105.88515
"21960",292.27222,75.2575,106.557655
"21961",292.28552,76.71259,107.86455
"21962",292.29883,78.80003,109.84926
"21963",292.31213,81.39529,112.40701
"21964",292.32544,84.263985,115.31931
"21965",292.33875,87.098495,118.28707
"21966",292.35205,89.60586,121.01626
"21967",292.36536,91.55413,123.26472
"21968",292.37866,92.81636,124.888016
"21969",292.39197,93.35592,125.82809
"21970",292.40527,93.206985,126.09653
"21971",292.41858,92.472115,125.774376
"21972",292.4319,91.28069,124.97271
"21973",292.4452,89.779205,123.823746
"21974",292.4585,88.08728,122.43742
"21975",292.4718,86.30503,120.9079
"21976",292.4851,84.505684,119.30558
"21977",292.4984,82.76738,117.70808
"21978",292.51172,81.1487,116.17587
"21979",292.52502,79.7351,114.79817
"21980",292.53833,78.59495,113.64974
"21981",292.55164,77.79416,112.805046
"21982",292.56494,77.35958,112.30154
"21983",292.57825,77.27413,112.133575
"21984",292.59155,77.469444,112.243706
"21985",292.60486,77.86008,112.55526
"21986",292.61816,78.35325,112.98156
"21987",292.63147,78.84886,113.42571
"21988",292.64478,79.273674,113.81455
"21989",292.65808,79.57885,114.09703
"21990",292.6714,79.727776,114.232796
"21991",292.6847,79.71557,114.21208
"21992",292.698,79.53979,114.02741
"21993",292.7113,79.2224,113.69564
"21994",292.7246,78.79027,113.23921
"21995",292.7379,78.27512,112.686264
"21996",292.75122,77.7087,112.06594
"21997",292.76453,77.1252,111.410835
"21998",292.77783,76.54902,110.74482
"21999",292.79114,75.999695,110.087654
"22000",292.80444,75.48699,109.44994
"22001",292.81775,75.018234,108.84016
"22002",292.83105,74.59586,108.26211
"22003",292.84436,74.22476,107.72213
"22004",292.85767,73.90494,107.22183
"22005",292.87097,73.63149,106.75792
"22006",292.88428,73.41421,106.34162
"22007",292.89758,73.31167,106.03328
"22008",292.9109,73.45327,105.96587
"22009",292.9242,74.02945,106.33747
"22010",292.9375,75.21355,107.33499
"22011",292.9508,77.086136,109.05801
"22012",292.9641,79.586174,111.46699
"22013",292.97742,82.50858,114.376465
"22014",292.99072,85.54818,117.49445
"22015",293.00403,88.37049,120.49014
"22016",293.01733,90.70939,123.09062
"22017",293.03064,92.386665,125.10257
"22018",293.04395,93.3193,126.42229
"22019",293.05725,93.50973,127.028946
"22020",293.07056,93.02876,126.97016
"22021",293.08386,91.998474,126.34702
"22022",293.09717,90.56779,125.29129
"22023",293.11047,88.868546,123.922295
"22024",293.12378,87.02281,122.3537
"22025",293.1371,85.11604,120.66639
"22026",293.1504,83.22148,118.9317
"22027",293.1637,81.41238,117.22327
"22028",293.177,79.766846,115.62187
"22029",293.1903,78.37766,114.2254
"22030",293.2036,77.3254,113.122444
"22031",293.21692,76.65888,112.372345
"22032",293.23022,76.387886,111.99694
"22033",293.24353,76.46845,111.96463
"22034",293.25684,76.81758,112.2034
"22035",293.27014,77.3254,112.61177
"22036",293.28345,77.87961,113.0824
"22037",293.29675,78.38987,113.5264
"22038",293.31006,78.785385,113.8716
"22039",293.32336,79.01488,114.06313
"22040",293.33667,79.05882,114.076294
"22041",293.34998,78.924545,113.912605
"22042",293.36328,78.62913,113.58358
"22043",293.3766,78.19211,113.10372
"22044",293.3899,77.65011,112.505226
"22045",293.4032,77.0251,111.806786
"22046",293.4165,76.35615,111.04487
"22047",293.4298,75.65789,110.23274
"22048",293.4431,74.96208,109.401245
"22049",293.45642,74.28092,108.56265
"22050",293.46973,73.64126,107.74427
"22051",293.48303,73.04799,106.95229
"22052",293.49634,72.515755,106.20281
"22053",293.50964,72.047,105.50017
"22054",293.52295,71.641716,104.84636
"22055",293.53625,71.30236,104.245804
"22056",293.54956,71.05577,103.72742
"22057",293.56287,71.00206,103.394196
"22058",293.57617,71.31945,103.430405
"22059",293.58948,72.21057,104.05026
"22060",293.60278,73.829254,105.42552
"22061",293.6161,76.209656,107.61309
"22062",293.6294,79.2224,110.507385
"22063",293.6427,82.581825,113.842514
"22064",293.656,85.92905,117.27042
"22065",293.6693,88.9247,120.45135
"22066",293.68262,91.31487,123.12042
"22067",293.69592,92.95064,125.10978
"22068",293.70923,93.78317,126.34702
"22069",293.72253,93.84909,126.843666
"22070",293.73584,93.23628,126.66364
"22071",293.74915,92.08392,125.92492
"22072",293.76245,90.531166,124.74979
"22073",293.77576,88.71961,123.267334
"22074",293.78906,86.751816,121.57202
"22075",293.80237,84.72297,119.754166
"22076",293.81567,82.718544,117.89733
"22077",293.82898,80.814224,116.077965
"22078",293.8423,79.10521,114.394394
"22079",293.8556,77.68917,112.95039
"22080",293.8689,76.65644,111.84545
"22081",293.8822,76.053406,111.13793
"22082",293.8955,75.877625,110.83882
"22083",293.9088,76.07294,110.90531
"22084",293.92212,76.53681,111.24647
"22085",293.93542,77.154495,111.75593
"22086",293.94873,77.81613,112.32864
"22087",293.96204,78.42405,112.86832
"22088",293.97534,78.9099,113.30492
"22089",293.98865,79.22728,113.588234
"22090",294.00195,79.35424,113.69105
"22091",294.01526,79.28832,113.60495
"22092",294.02856,79.0515,113.34589
"22093",294.04187,78.677956,112.9427
"22094",294.05518,78.204315,112.42775
"22095",294.06848,77.662315,111.829636
"22096",294.0818,77.083694,111.17796
"22097",294.0951,76.490425,110.49356
"22098",294.1084,75.90204,109.7955
"22099",294.1217,75.338066,109.10347
"22100",294.135,74.80827,108.42799
"22101",294.14832,74.319984,107.777466
"22102",294.16162,73.88052,107.16051
"22103",294.17493,73.494774,106.58353
"22104",294.18823,73.18471,106.070175
"22105",294.20154,73.023575,105.69607
"22106",294.21484,73.15785,105.612335
"22107",294.22815,73.78287,106.02354
"22108",294.24146,75.07439,107.12077
"22109",294.25476,77.09834,108.99081
"22110",294.26807,79.77905,111.58084
"22111",294.28137,82.89189,114.686775
"22112",294.29468,86.10239,117.98764
"22113",294.30798,89.0663,121.14225
"22114",294.3213,91.510185,123.86946
"22115",294.3346,93.260704,125.979675
"22116",294.3479,94.2446,127.37797
"22117",294.3612,94.46433,128.04285
"22118",294.3745,93.995575,128.0261
"22119",294.38782,92.95552,127.4234
"22120",294.40112,91.48333,126.35607
"22121",294.41443,89.71572,124.94732
"22122",294.42773,87.76257,123.29779
"22123",294.44104,85.72152,121.49931
"22124",294.45435,83.67071,119.6273
"22125",294.46765,81.69802,117.76932
"22126",294.48096,79.903564,116.02792
"22127",294.49426,78.380104,114.50145
"22128",294.50757,77.22041,113.29114
"22129",294.52087,76.470894,112.45476
"22130",294.53418,76.138855,112.012436
"22131",294.5475,76.17059,111.923515
"22132",294.5608,76.47578,112.10903
"22133",294.5741,76.944534,112.46766
"22134",294.5874,77.47433,112.90197
"22135",294.6007,77.9675,113.316216
"22136",294.614,78.35569,113.64089
"22137",294.62732,78.59495,113.828766
"22138",294.64062,78.66575,113.85566
"22139",294.65393,78.56565,113.71387
"22140",294.66724,78.314186,113.41758
"22141",294.68054,77.93576,112.98647
"22142",294.69385,77.46456,112.45077
"22143",294.70715,76.92256,111.82954
"22144",294.72046,76.34638,111.15719
"22145",294.73376,75.75311,110.449745
"22146",294.74707,75.16228,109.7262
"22147",294.76038,74.58854,109.00128
"22148",294.77368,74.05142,108.29506
"22149",294.787,73.55825,107.616
"22150",294.8003,73.111465,106.96791
"22151",294.8136,72.725716,106.3669
"22152",294.8269,72.42542,105.83928
"22153",294.8402,72.308235,105.48538
"22154",294.85352,72.552376,105.48915
"22155",294.86682,73.37759,106.08162
"22156",294.88013,74.94255,107.43964
"22157",294.89343,77.27657,109.615616
"22158",294.90674,80.24536,112.4993
"22159",294.92004,83.56817,115.82977
"22160",294.93335,86.87877,119.25188
"22161",294.94666,89.8378,122.425865
"22162",294.95996,92.19379,125.08929
"22163",294.97327,93.80026,127.07682
"22164",294.98657,94.60349,128.31131
"22165",294.99988,94.63767,128.80185
"22166",295.01318,93.995575,128.61717
"22167",295.0265,92.80415,127.86311
"22168",295.0398,91.21477,126.67386
"22169",295.0531,89.36416,125.17371
"22170",295.0664,87.36706,123.469246
"22171",295.0797,85.3016,121.634
"22172",295.09302,83.25567,119.753746
"22173",295.10632,81.307396,117.90721
"22174",295.11963,79.54467,116.18534
"22175",295.13293,78.0676,114.69404
"22176",295.14624,76.95674,113.5228
"22177",295.15955,76.25361,112.72456
"22178",295.17285,75.948425,112.30231
"22179",295.18616,75.98993,112.2172
"22180",295.19946,76.28535,112.38731
"22181",295.21277,76.7248,112.71068
"22182",295.22607,77.21065,113.09418
"22183",295.23938,77.65499,113.451355
"22184",295.2527,77.98703,113.71011
"22185",295.266,78.16525,113.82543
"22186",295.2793,78.170135,113.77298
"22187",295.2926,78.009,113.554665
"22188",295.3059,77.69405,113.1775
"22189",295.3192,77.25704,112.66843
"22190",295.33252,76.7248,112.05047
"22191",295.34583,76.13641,111.35973
"22192",295.35913,75.51629,110.61887
"22193",295.37244,74.89372,109.85619
"22194",295.38574,74.29557,109.09847
"22195",295.39905,73.73159,108.35623
"22196",295.41235,73.216446,107.6452
"22197",295.42566,72.7599,106.97668
"22198",295.43896,72.359505,106.35003
"22199",295.45227,72.010376,105.76213
"22200",295.46558,71.74181,105.2439
"22201",295.47888,71.63683,104.880844
"22202",295.4922,71.88342,104.86609
"22203",295.5055,72.71107,105.440094
"22204",295.5188,74.31022,106.81146
"22205",295.5321,76.72968,109.05312
"22206",295.5454,79.84741,112.06866
"22207",295.55872,83.372856,115.58933
"22208",295.57202,86.9276,119.24947
"22209",295.58533,90.13565,122.67401
"22210",295.59863,92.72602,125.58112
"22211",295.61194,94.53513,127.787926
"22212",295.62524,95.50927,129.21628
"22213",295.63855,95.66552,129.8572
"22214",295.65186,95.099106,129.78033
"22215",295.66516,93.941864,129.09494
"22216",295.67847,92.35493,127.94369
"22217",295.69177,90.48234,126.45719
"22218",295.70508,88.446175,124.748604
"22219",295.71838,86.33433,122.900696
"22220",295.7317,84.2298,120.99411
"22221",295.745,82.213165,119.10966
"22222",295.7583,80.365,117.33065
"22223",295.7716,78.77806,115.75512
"22224",295.7849,77.540245,114.47912
"22225",295.79822,76.70527,113.567276
"22226",295.81152,76.27558,113.03463
"22227",295.82483,76.19745,112.84011
"22228",295.83813,76.39521,112.919044
"22229",295.85144,76.771194,113.18238
"22230",295.86475,77.21553,113.52582
"22231",295.87805,77.6379,113.861176
"22232",295.89136,77.96506,114.11452
"22233",295.90466,78.150604,114.23647
"22234",295.91797,78.16525,114.19333
"22235",295.93127,77.99924,113.96998
"22236",295.94458,77.67452,113.58274
"22237",295.9579,77.22041,113.05596
"22238",295.9712,76.663765,112.41245
"22239",295.9845,76.04364,111.68807
"22240",295.9978,75.39178,110.912575
"22241",296.0111,74.73991,110.1167
"22242",296.0244,74.107574,109.31999
"22243",296.03772,73.514305,108.54259
"22244",296.05103,72.97475,107.800354
"22245",296.06433,72.49622,107.102295
"22246",296.07764,72.076294,106.447876
"22247",296.09094,71.7174,105.84137
"22248",296.10425,71.41711,105.28224
"22249",296.11755,71.19249,104.78941
"22250",296.13086,71.12657,104.44826
"22251",296.14417,71.397575,104.44197
"22252",296.15747,72.23743,105.013
"22253",296.17078,73.8439,106.37689
"22254",296.18408,76.28779,108.6284
"22255",296.1974,79.45678,111.68139
"22256",296.2107,83.06767,115.27531
"22257",296.224,86.72251,119.02601
"22258",296.2373,90.03311,122.546684
"22259",296.2506,92.70893,125.53604
"22260",296.26392,94.58152,127.805786
"22261",296.27722,95.59716,129.2771
"22262",296.29053,95.78027,129.94763
"22263",296.30383,95.23338,129.89388
"22264",296.31714,94.09567,129.23221
"22265",296.33044,92.523384,128.1004
"22266",296.34375,90.66056,126.62894
"22267",296.35706,88.62928,124.9308
"22268",296.37036,86.51743,123.08862
"22269",296.38367,84.40559,121.18044
"22270",296.39697,82.36942,119.28195
"22271",296.41028,80.49195,117.47852
"22272",296.42358,78.87572,115.87766
"22273",296.4369,77.60372,114.57053
"22274",296.4502,76.734566,113.626495
"22275",296.4635,76.27314,113.06303
"22276",296.4768,76.17792,112.85134
"22277",296.4901,76.368355,112.92234
"22278",296.50342,76.74189,113.18239
"22279",296.51672,77.19112,113.5298
"22280",296.53003,77.625694,113.8766
"22281",296.54333,77.96994,114.14665
"22282",296.55664,78.17258,114.28585
"22283",296.56995,78.20187,114.25804
"22284",296.58325,78.05539,114.05537
"22285",296.59656,77.74532,113.68453
"22286",296.60986,77.29122,113.15997
"22287",296.62317,76.732124,112.51623
"22288",296.63647,76.09735,111.779335
"22289",296.64978,75.421074,110.9811
"22290",296.6631,74.74235,110.15929
"22291",296.6764,74.08316,109.3358
"22292",296.6897,73.46792,108.53566
"22293",296.703,72.91615,107.77977
"22294",296.7163,72.430305,107.072556
"22295",296.7296,72.01526,106.42096
"22296",296.74292,71.66613,105.82231
"22297",296.75623,71.378044,105.27379
"22298",296.76953,71.14366,104.76997
"22299",296.78284,70.98741,104.33696
"22300",296.79614,70.98497,104.05287
"22301",296.80945,71.31701,104.103195
"22302",296.82275,72.20813,104.72298
"22303",296.83606,73.85367,106.125015
"22304",296.84937,76.32441,108.40369
"22305",296.86267,79.51049,111.47491
"22306",296.87598,83.12627,115.075386
"22307",296.88928,86.78111,118.82793
"22308",296.9026,90.089264,122.347984
"22309",296.9159,92.752884,125.3269
"22310",296.9292,94.608376,127.58092
"22311",296.9425,95.59716,129.02621
"22312",296.9558,95.75586,129.67233
"22313",296.96912,95.17723,129.58607
"22314",296.98242,94.0029,128.88603
"22315",296.99573,92.384224,127.70495
"22316",297.00903,90.477455,126.18519
"22317",297.02234,88.40223,124.437386
"22318",297.03564,86.24643,122.54416
"22319",297.04895,84.085754,120.57868
"22320",297.06226,82.00076,118.62137
"22321",297.07556,80.079346,116.762474
"22322",297.08887,78.42649,115.1121
"22323",297.10217,77.134964,113.7714
"22324",297.11548,76.27558,112.82249
"22325",297.12878,75.860535,112.29105
"22326",297.1421,75.841,112.142166
"22327",297.1554,76.121765,112.29296
"22328",297.1687,76.592964,112.64297
"22329",297.182,77.134964,113.0785
"22330",297.1953,77.64767,113.50167
"22331",297.20862,78.048065,113.82856
"22332",297.22192,78.28489,114.00439
"22333",297.23523,78.3386,114.0045
"22334",297.24854,78.20676,113.82074
"22335",297.26184,77.8967,113.45464
"22336",297.27515,77.435265,112.92748
"22337",297.28845,76.8542,112.26627
"22338",297.30176,76.18768,111.50145
"22339",297.31506,75.474785,110.66942
"22340",297.32837,74.757,109.81023
"22341",297.34167,74.06363,108.95301
"22342",297.35498,73.42397,108.127846
"22343",297.3683,72.85756,107.355934
"22344",297.3816,72.376595,106.65177
"22345",297.3949,71.98352,106.02046
"22346",297.4082,71.68078,105.46721
"22347",297.4215,71.45373,104.98018
"22348",297.4348,71.28771,104.54709
"22349",297.44812,71.168076,104.1552
"22350",297.46143,71.09972,103.81084
"22351",297.47473,71.13634,103.56932
"22352",297.48804,71.412224,103.56822
"22353",297.50134,72.14465,104.03229
"22354",297.51465,73.56313,105.20529
"22355",297.52795,75.78729,107.2283
"22356",297.54126,78.77562,110.084984
"22357",297.55457,82.30595,113.57705
"22358",297.56787,86.012054,117.35522
"22359",297.58118,89.49111,121.02215
"22360",297.59448,92.40864,124.236275
"22361",297.6078,94.55222,126.76763
"22362",297.6211,95.836426,128.50659
"22363",297.6344,96.26124,129.4263
"22364",297.6477,95.904785,129.578
"22365",297.661,94.89159,129.06183
"22366",297.67432,93.37789,128.01349
"22367",297.68762,91.51507,126.568726
"22368",297.70093,89.43496,124.848465
"22369",297.71423,87.24254,122.95089
"22370",297.72754,85.02327,120.95795
"22371",297.74084,82.85527,118.94692
"22372",297.75415,80.83864,117.019516
"22373",297.76746,79.07347,115.280556
"22374",297.78076,77.66964,113.84777
"22375",297.79407,76.70527,112.81058
"22376",297.80737,76.20233,112.20468
"22377",297.82068,76.12909,112.012764
"22378",297.83398,76.39277,112.15548
"22379",297.8473,76.87862,112.5286
"22380",297.8606,77.46212,113.014565
"22381",297.8739,78.0383,113.51144
"22382",297.8872,78.51682,113.92866
"22383",297.9005,78.84154,114.20702
"22384",297.91382,78.97826,114.30754
"22385",297.92712,78.91478,114.212135
"22386",297.94043,78.65354,113.916985
"22387",297.95374,78.21896,113.44033
"22388",297.96704,77.645226,112.810936
"22389",297.98035,76.96895,112.06107
"22390",297.99365,76.23163,111.229034
"22391",298.00696,75.47723,110.35687
"22392",298.02026,74.73991,109.47822
"22393",298.03357,74.04654,108.620476
"22394",298.04688,73.426414,107.81431
"22395",298.06018,72.89418,107.07665
"22396",298.0735,72.4596,106.42002
"22397",298.0868,72.12268,105.84746
"22398",298.1001,71.87854,105.35715
"22399",298.1134,71.71252,104.93733
"22400",298.1267,71.60754,104.573364
"22401",298.14,71.5465,104.25006
"22402",298.15332,71.52453,103.96391
"22403",298.16663,71.5465,103.72102
"22404",298.17993,71.66369,103.574036
"22405",298.19324,72.02258,103.672424
"22406",298.20654,72.83559,104.23613
"22407",298.21985,74.31266,105.48932
"22408",298.23315,76.56855,107.56748
"22409",298.24646,79.56176,110.45346
"22410",298.25977,83.06279,113.940796
"22411",298.27307,86.710304,117.68402
"22412",298.28638,90.108795,121.292206
"22413",298.29968,92.93111,124.43042
"22414",298.313,94.97948,126.88289
"22415",298.3263,96.17334,128.54486
"22416",298.3396,96.52735,129.4043
"22417",298.3529,96.11963,129.51306
"22418",298.3662,95.07225,128.96942
"22419",298.37952,93.539024,127.9072
"22420",298.39282,91.66155,126.45283
"22421",298.40613,89.566795,124.722496
"22422",298.41943,87.35973,122.8144
"22423",298.43274,85.13069,120.81535
"22424",298.44604,82.967575,118.81257
"22425",298.45935,80.972916,116.910645
"22426",298.47266,79.256584,115.22472
"22427",298.48596,77.91867,113.86357
"22428",298.49927,77.03975,112.91961
"22429",298.51257,76.6247,112.412056
"22430",298.52588,76.629585,112.31146
"22431",298.53918,76.95674,112.533295
"22432",298.5525,77.48165,112.963104
"22433",298.5658,78.07736,113.48012
"22434",298.5791,78.641335,113.98401
"22435",298.5924,79.08324,114.38345
"22436",298.6057,79.34936,114.620926
"22437",298.61902,79.40795,114.65919
"22438",298.63232,79.256584,114.48932
"22439",298.64563,78.907455,114.11696
"22440",298.65894,78.38743,113.56279
"22441",298.67224,77.73556,112.86053
"22442",298.68555,77.00069,112.05489
"22443",298.69885,76.224304,111.184784
"22444",298.71216,75.440605,110.2831
"22445",298.72546,74.69352,109.39353
"22446",298.73877,74.01236,108.54655
"22447",298.75208,73.41421,107.761284
"22448",298.76538,72.903946,107.04522
"22449",298.7787,72.48402,106.40354
"22450",298.792,72.13977,105.82442
"22451",298.8053,71.86633,105.30534
"22452",298.8186,71.64904,104.83388
"22453",298.8319,71.48791,104.41177
"22454",298.8452,71.38781,104.04567
"22455",298.85852,71.38293,103.77165
"22456",298.87183,71.568474,103.68791
"22457",298.88513,72.12024,103.9762
"22458",298.89844,73.2433,104.85301
"22459",298.91174,75.089035,106.4876
"22460",298.92505,77.66964,108.91474
"22461",298.93835,80.831314,112.00359
"22462",298.95166,84.27375,115.47201
"22463",298.96497,87.61852,118.95033
"22464",298.97827,90.52384,122.093735
"22465",298.99158,92.755325,124.65409
"22466",299.00488,94.188446,126.48582
"22467",299.0182,94.803696,127.54446
"22468",299.0315,94.642555,127.84593
"22469",299.0448,93.81003,127.470985
"22470",299.0581,92.44282,126.53534
"22471",299.0714,90.68009,125.16145
"22472",299.08472,88.653694,123.46881
"22473",299.09802,86.47349,121.55904
"22474",299.11133,84.227356,119.5152
"22475",299.12463,82.00076,117.42071
"22476",299.13794,79.90112,115.38359
"22477",299.15125,78.05539,113.53477
"22478",299.16455,76.59785,112.01646
"22479",299.17786,75.631035,110.94333
"22480",299.19116,75.19646,110.37222
"22481",299.20447,75.25506,110.280716
"22482",299.21777,75.699394,110.576775
"22483",299.23108,76.387886,111.130875
"22484",299.2444,77.17403,111.80414
"22485",299.2577,77.93576,112.47756
"22486",299.271,78.5803,113.057594
"22487",299.2843,79.04906,113.48199
"22488",299.2976,79.30297,113.706184
"22489",299.3109,79.33471,113.71614
"22490",299.32422,79.14671,113.507355
"22491",299.33752,78.765854,113.09983
"22492",299.35083,78.23361,112.52902
"22493",299.36414,77.593956,111.83417
"22494",299.37744,76.88594,111.050964
"22495",299.39075,76.155945,110.223656
"22496",299.40405,75.43328,109.38087
"22497",299.41736,74.73991,108.544785
"22498",299.43066,74.090485,107.73099
"22499",299.44397,73.5021,106.95793
"22500",299.45728,72.98207,106.23485
"22501",299.47058,72.54261,105.57608
"22502",299.4839,72.19592,104.99635
"22503",299.4972,71.97864,104.53519
"22504",299.5105,71.973755,104.27963
"22505",299.5238,72.342415,104.39748
"22506",299.5371,73.27993,105.09569
"22507",299.5504,74.9279,106.53366
"22508",299.56372,77.30099,108.748245
"22509",299.57703,80.26246,111.625374
"22510",299.59033,83.53399,114.905106
"22511",299.60364,86.746925,118.22848
"22512",299.61694,89.56924,121.26163
"22513",299.63025,91.7641,123.75553
"22514",299.64355,93.206985,125.56605
"22515",299.65686,93.87106,126.642845
"22516",299.67017,93.80026,127.005516
"22517",299.68347,93.0898,126.72631
"22518",299.69678,91.84955,125.89512
"22519",299.71008,90.20645,124.62232
"22520",299.7234,88.272835,123.00766
"22521",299.7367,86.14877,121.14212
"22522",299.75,83.92218,119.10767
"22523",299.7633,81.69314,117.0012
"22524",299.7766,79.588615,114.949585
"22525",299.78992,77.75754,113.10565
"22526",299.80322,76.334175,111.61221
"22527",299.81653,75.42596,110.58944
"22528",299.82983,75.06706,110.08761
"22529",299.84314,75.20134,110.06773
"22530",299.85645,75.70916,110.4256
"22531",299.86975,76.44648,111.02883
"22532",299.88306,77.26681,111.73811
"22533",299.89636,78.04074,112.426636
"22534",299.90967,78.677956,113.002625
"22535",299.92297,79.12474,113.4081
"22536",299.93628,79.34936,113.60536
"22537",299.9496,79.35424,113.58991
"22538",299.9629,79.15892,113.37441
"22539",299.9762,78.79271,112.98192
"22540",299.9895,78.294655,112.44614
"22541",300.0028,77.70382,111.80201
"22542",300.0161,77.0544,111.08083
"22543",300.02942,76.383,110.31739
"22544",300.04272,75.7116,109.53296
"22545",300.05603,75.06462,108.75197
"22546",300.06934,74.45426,107.98738
"22547",300.08264,73.89517,107.25499
"22548",300.09595,73.40688,106.57593
"22549",300.10925,73.03578,105.998795
"22550",300.12256,72.89906,105.64445
"22551",300.13586,73.196915,105.7204
"22552",300.14917,74.15152,106.46241
"22553",300.16248,75.91669,108.044815
"22554",300.17578,78.504616,110.50514
"22555",300.1891,81.74197,113.69576
"22556",300.2024,85.3016,117.30983
"22557",300.2157,88.7831,120.957
"22558",300.229,91.825134,124.27351
"22559",300.2423,94.18356,127.00148
"22560",300.2556,95.73144,128.99258
"22561",300.26892,96.43702,130.18977
"22562",300.28223,96.35157,130.61798
"22563",300.29553,95.58251,130.35991
"22564",300.30884,94.2739,129.53825
"22565",300.32214,92.57221,128.28262
"22566",300.33545,90.61173,126.71503
"22567",300.34875,88.499886,124.9348
"22568",300.36206,86.3148,123.015335
"22569",300.37537,84.14191,121.03978
"22570",300.38867,82.08133,119.108635
"22571",300.40198,80.2478,117.34015
"22572",300.41528,78.75853,115.85862
"22573",300.4286,77.70138,114.76267
"22574",300.4419,77.11543,114.1049
"22575",300.4552,76.978714,113.87804
"22576",300.4685,77.205765,114.01067
"22577",300.4818,77.67696,114.394554
"22578",300.49512,78.25803,114.90303
"22579",300.50842,78.83177,115.42233
"22580",300.52173,79.293205,115.84726
"22581",300.53503,79.57885,116.11082
"22582",300.54834,79.65453,116.17334
"22583",300.56165,79.5227,116.03071
"22584",300.57495,79.19798,115.69108
"22585",300.58826,78.71458,115.18261
"22586",300.60156,78.10666,114.53452
"22587",300.61487,77.41573,113.78443
"22588",300.62817,76.67109,112.95903
"22589",300.64148,75.90692,112.090836
"22590",300.6548,75.14763,111.203636
"22591",300.6681,74.41764,110.322014
"22592",300.6814,73.74868,109.47861
"22593",300.6947,73.18471,108.719284
"22594",300.708,72.82338,108.14498
"22595",300.7213,72.84779,107.94513
"22596",300.73462,73.49233,108.366165
"22597",300.74792,74.93523,109.6057
"22598",300.76123,77.23018,111.74238
"22599",300.77454,80.26002,114.68566
"22600",300.78784,83.74151,118.17528
"22601",300.80115,87.28161,121.8323
"22602",300.81445,90.48966,125.2679
"22603",300.82776,93.07515,128.18118
"22604",300.84106,94.86473,130.37936
"22605",300.85437,95.799805,131.77896
"22606",300.86768,95.90723,132.38013
"22607",300.88098,95.294426,132.26443
"22608",300.8943,94.12253,131.5705
"22609",300.9076,92.5478,130.43709
"22610",300.9209,90.72404,129.00545
"22611",300.9342,88.76845,127.38499
"22612",300.9475,86.75426,125.644806
"22613",300.96082,84.735176,123.83679
"22614",300.97412,82.78203,122.03162
"22615",300.98743,80.96315,120.299675
"22616",301.00073,79.37133,118.73795
"22617",301.01404,78.09445,117.44143
"22618",301.02734,77.19844,116.48587
"22619",301.04065,76.69306,115.892944
"22620",301.05396,76.53437,115.63091
"22621",301.06726,76.64912,115.63736
"22622",301.08057,76.929886,115.813416
"22623",301.09387,77.26681,116.0544
"22624",301.10718,77.56954,116.27172
"22625",301.12048,77.7673,116.39353
"22626",301.1338,77.81613,116.37259
"22627",301.1471,77.69161,116.179825
"22628",301.1604,77.40353,115.8196
"22629",301.1737,76.96651,115.301445
"22630",301.187,76.4123,114.65244
"22631",301.20032,75.772644,113.90067
"22632",301.21362,75.08171,113.07764
"22633",301.22693,74.371254,112.213486
"22634",301.24023,73.66323,111.32957
"22635",301.25354,72.97963,110.447945
"22636",301.26685,72.342415,109.59135
"22637",301.28015,71.79797,108.8076
"22638",301.29346,71.45129,108.204605
"22639",301.30676,71.49279,107.97896
"22640",301.32007,72.149536,108.36986
"22641",301.33337,73.61196,109.58696
"22642",301.34668,75.931335,111.70671
"22643",301.36,78.98558,114.63381
"22644",301.3733,82.48905,118.10558
"22645",301.3866,86.05112,121.74543
"22646",301.3999,89.27627,125.159676
"22647",301.4132,91.8642,128.03749
"22648",301.4265,93.62936,130.1734
"22649",301.43982,94.51072,131.48068
"22650",301.45312,94.55222,131.97565
"22651",301.46643,93.87106,131.74924
"22652",301.47974,92.645454,130.95709
"22653",301.49304,91.06096,129.76776
"22654",301.50635,89.26894,128.3214
"22655",301.51965,87.38415,126.72626
"22656",301.53296,85.46273,125.0356
"22657",301.54626,83.55352,123.2971
"22658",301.55957,81.69802,121.55264
"22659",301.57288,79.957275,119.86496
"22660",301.58618,78.416725,118.323074
"22661",301.5995,77.15694,117.01381
"22662",301.6128,76.24628,116.014305
"22663",301.6261,75.701836,115.35256
"22664",301.6394,75.49676,115.01317
"22665",301.6527,75.562675,114.93836
"22666",301.66602,75.80438,115.041405
"22667",301.67932,76.112,115.21791
"22668",301.69263,76.39765,115.382065
"22669",301.70593,76.58076,115.4526
"22670",301.71924,76.61738,115.38237
"22671",301.73254,76.4831,115.14239
"22672",301.74585,76.18768,114.73707
"22673",301.75916,75.755554,114.18581
"22674",301.77246,75.21843,113.516045
"22675",301.78577,74.617836,112.76603
"22676",301.79907,73.98062,111.960625
"22677",301.81238,73.3312,111.1231
"22678",301.82568,72.68421,110.267715
"22679",301.839,72.059204,109.41409
"22680",301.8523,71.468376,108.57512
"22681",301.8656,70.93614,107.776276
"22682",301.8789,70.501564,107.05846
"22683",301.8922,70.26231,106.52237
"22684",301.90552,70.38682,106.342575
"22685",301.91882,71.09483,106.750175
"22686",301.93213,72.584114,107.96117
"22687",301.94543,74.93523,110.080536
"22688",301.95874,78.05295,113.039986
"22689",301.97205,81.67361,116.5998
"22690",301.98535,85.39681,120.375305
"22691",301.99866,88.80507,123.95221
"22692",302.01196,91.563896,126.98619
"22693",302.02527,93.46822,129.25189
"22694",302.03857,94.44724,130.6518
"22695",302.05188,94.54734,131.20337
"22696",302.0652,93.9028,131.01343
"22697",302.0785,92.696724,130.2418
"22698",302.0918,91.121994,129.06384
"22699",302.1051,89.339745,127.62916
"22700",302.1184,87.45495,126.03623
"22701",302.1317,85.53353,124.34778
"22702",302.14502,83.61944,122.606606
"22703",302.15833,81.76883,120.8691
"22704",302.17163,80.042725,119.19827
"22705",302.18494,78.52659,117.68347
"22706",302.19824,77.315636,116.426476
"22707",302.21155,76.46113,115.48808
"22708",302.22485,75.96796,114.88432
"22709",302.23816,75.80682,114.59719
"22710",302.25146,75.8996,114.55893
"22711",302.26477,76.1535,114.6847
"22712",302.27808,76.46113,114.87212
"22713",302.29138,76.72724,115.02765
"22714",302.3047,76.88106,115.07919
"22715",302.318,76.87373,114.9744
"22716",302.3313,76.69062,114.693596
"22717",302.3446,76.3415,114.24106
"22718",302.3579,75.85321,113.63844
"22719",302.37122,75.26238,112.91803
"22720",302.38452,74.615395,112.12299
"22721",302.39783,73.944,111.28333
"22722",302.41113,73.28237,110.43246
"22723",302.42444,72.6598,109.59996
"22724",302.43774,72.09094,108.80173
"22725",302.45105,71.588005,108.051636
"22726",302.46436,71.15343,107.35419
"22727",302.47766,70.78966,106.71396
"22728",302.49097,70.49668,106.13316
"22729",302.50427,70.28184,105.62134
"22730",302.51758,70.18173,105.21754
"22731",302.53088,70.30137,105.03035
"22732",302.5442,70.82628,105.252174
"22733",302.5575,71.97864,106.11786
"22734",302.5708,73.91226,107.80081
"22735",302.5841,76.64179,110.3401
"22736",302.5974,80.008545,113.60191
"22737",302.61072,83.6878,117.28143
"22738",302.62402,87.26208,120.970955
"22739",302.63733,90.33585,124.27167
"22740",302.65063,92.63569,126.8945
"22741",302.66394,94.012665,128.66634
"22742",302.67725,94.45457,129.54613
"22743",302.69055,94.05905,129.60231
"22744",302.70386,92.98726,128.96986
"22745",302.71716,91.42962,127.81808
"22746",302.73047,89.56924,126.31487
"22747",302.74377,87.5404,124.585075
"22748",302.75708,85.44808,122.72839
"22749",302.7704,83.36309,120.81365
"22750",302.7837,81.358665,118.91432
"22751",302.797,79.50805,117.10616
"22752",302.8103,77.89426,115.477
"22753",302.8236,76.60517,114.12211
"22754",302.8369,75.69695,113.1078
"22755",302.85022,75.18181,112.45819
"22756",302.86353,75.02556,112.151375
"22757",302.87683,75.159836,112.1302
"22758",302.89014,75.48211,112.30122
"22759",302.90344,75.88251,112.56044
"22760",302.91675,76.25849,112.807755
"22761",302.93005,76.53193,112.96427
"22762",302.94336,76.64179,112.96576
"22763",302.95667,76.558784,112.77781
"22764",302.96997,76.28779,112.39928
"22765",302.98328,75.85321,111.848694
"22766",302.99658,75.29168,111.15758
"22767",303.0099,74.64469,110.36346
"22768",303.0232,73.94888,109.5003
"22769",303.0365,73.24086,108.60318
"22770",303.0498,72.55726,107.70836
"22771",303.0631,71.920044,106.83856
"22772",303.07642,71.35119,106.01721
"22773",303.08972,70.86778,105.263535
"22774",303.10303,70.486916,104.59729
"22775",303.11633,70.203705,104.01679
"22776",303.12964,70.01083,103.517784
"22777",303.14294,69.90097,103.09576
"22778",303.15625,69.85458,102.73377
"22779",303.16956,69.8497,102.41184
"22780",303.18286,69.86679,102.11173
"22781",303.19617,69.908295,101.83657
"22782",303.20947,70.00107,101.613976
"22783",303.22278,70.25498,101.55542
"22784",303.23608,70.86046,101.85636
"22785",303.2494,72.04944,102.759735
"22786",303.2627,73.98306,104.4449
"22787",303.276,76.68574,106.95955
"22788",303.2893,80.00122,110.17146
"22789",303.3026,83.612114,113.782394
"22790",303.31592,87.11803,117.401184
"22791",303.32922,90.14053,120.646126
"22792",303.34253,92.41108,123.23357
"22793",303.35583,93.79538,125.005714
"22794",303.36914,94.276344,125.917786
"22795",303.38245,93.93454,126.02212
"22796",303.39575,92.911575,125.43461
"22797",303.40906,91.39056,124.31708
"22798",303.42236,89.5375,122.81998
"22799",303.43567,87.50378,121.084305
"22800",303.44897,85.39437,119.2094
"22801",303.46228,83.29229,117.27589
"22802",303.4756,81.27322,115.359695
"22803",303.4889,79.429924,113.55619
"22804",303.5022,77.85275,111.961205
"22805",303.5155,76.629585,110.67094
"22806",303.5288,75.826355,109.76238
"22807",303.5421,75.45037,109.255974
"22808",303.55542,75.46014,109.123566
"22809",303.56873,75.76288,109.28444
"22810",303.58203,76.243835,109.63299
"22811",303.59534,76.78096,110.052734
"22812",303.60864,77.27169,110.44287
"22813",303.62195,77.63058,110.7165
"22814",303.63525,77.80881,110.82069
"22815",303.64856,77.78439,110.7278
"22816",303.66187,77.55978,110.433945
"22817",303.67517,77.15938,109.95729
"22818",303.68848,76.61494,109.32408
"22819",303.70178,75.96796,108.57132
"22820",303.7151,75.26971,107.74707
"22821",303.7284,74.55436,106.8839
"22822",303.7417,73.85611,106.01548
"22823",303.755,73.20424,105.171616
"22824",303.7683,72.620735,104.37575
"22825",303.78162,72.1178,103.64221
"22826",303.79492,71.710075,102.988174
"22827",303.80823,71.395134,102.41417
"22828",303.82153,71.17296,101.923096
"22829",303.83484,71.026474,101.50076
"22830",303.84814,70.941025,101.13489
"22831",303.86145,70.89952,100.81029
"22832",303.87476,70.8922,100.51857
"22833",303.88806,70.906845,100.2486
"22834",303.90137,70.977646,100.03523
"22835",303.91467,71.18761,99.96324
"22836",303.92798,71.710075,100.21033
"22837",303.94128,72.740364,100.98155
"22838",303.9546,74.442055,102.456375
"22839",303.9679,76.8542,104.69484
"22840",303.9812,79.86206,107.60439
"22841",303.9945,83.18486,110.92288
"22842",304.0078,86.4564,114.293945
"22843",304.02112,89.32998,117.369286
"22844",304.03442,91.54192,119.872795
"22845",304.04773,92.95308,121.64464
"22846",304.06104,93.52682,122.62316
"22847",304.07434,93.331505,122.85056
"22848",304.08765,92.47944,122.41511
"22849",304.10095,91.11711,121.442764
"22850",304.11426,89.39834,120.0714
"22851",304.12756,87.46227,118.42904
"22852",304.14087,85.418785,116.618744
"22853",304.15417,83.36553,114.734825
"22854",304.16748,81.38796,112.86243
"22855",304.1808,79.57641,111.094246
"22856",304.1941,78.030975,109.535576
"22857",304.2074,76.841995,108.285065
"22858",304.2207,76.068054,107.41244
"22859",304.234,75.72869,106.9502
"22860",304.2473,75.789734,106.87777
"22861",304.26062,76.155945,107.11241
"22862",304.27393,76.70771,107.54405
"22863",304.28723,77.3254,108.05886
"22864",304.30054,77.90402,108.5539
"22865",304.31384,78.365456,108.94984
"22866",304.32715,78.65354,109.186844
"22867",304.34045,78.74387,109.2351
"22868",304.35376,78.63645,109.088425
"22869",304.36707,78.348366,108.75773
"22870",304.38037,77.90158,108.25933
"22871",304.39368,77.34005,107.632225
"22872",304.40698,76.70527,106.91432
"22873",304.4203,76.033875,106.13997
"22874",304.4336,75.36248,105.344635
"22875",304.4469,74.71549,104.55273
"22876",304.4602,74.12222,103.79432
"22877",304.4735,73.599754,103.08817
"22878",304.48682,73.162735,102.45115
"22879",304.50012,72.8185,101.89325
"22880",304.51343,72.56214,101.412476
"22881",304.52673,72.3888,101.0067
"22882",304.54004,72.2765,100.65654
"22883",304.55334,72.217896,100.35658
"22884",304.56665,72.19348,100.088974
"22885",304.57996,72.18616,99.83769
"22886",304.59326,72.20813,99.61548
"22887",304.60657,72.30091,99.46477
"22888",304.61987,72.586555,99.50981
"22889",304.63318,73.25063,99.942215
"22890",304.64648,74.486,100.96667
"22891",304.6598,76.404976,102.71333
"22892",304.6731,78.98558,105.181595
"22893",304.6864,82.037384,108.2017
"22894",304.6997,85.25277,111.48075
"22895",304.713,88.272835,114.66496
"22896",304.72632,90.79973,117.45038
"22897",304.73962,92.630806,119.61895
"22898",304.75293,93.678185,121.06104
"22899",304.76624,93.94675,121.75705
"22900",304.77954,93.50973,121.75587
"22901",304.79285,92.48432,121.15264
"22902",304.80615,91.00969,120.068146
"22903",304.81946,89.22499,118.6275
"22904",304.83276,87.25475,116.94554
"22905",304.84607,85.206375,115.12387
"22906",304.85938,83.17265,113.252846
"22907",304.87268,81.23903,111.418365
"22908",304.886,79.50561,109.72366
"22909",304.8993,78.07004,108.272644
"22910",304.9126,77.015335,107.15763
"22911",304.9259,76.39521,106.44424
"22912",304.9392,76.207214,106.14359
"22913",304.9525,76.40009,106.21795
"22914",304.96582,76.87129,106.57665
"22915",304.97913,77.503624,107.11121
"22916",304.99243,78.17502,107.7046
"22917",305.00574,78.78294,108.25549
"22918",305.01904,79.256584,108.6911
"22919",305.03235,79.54467,108.955956
"22920",305.04565,79.63012,109.027176
"22921",305.05896,79.52514,108.91064
"22922",305.07227,79.24925,108.61991
"22923",305.08557,78.83177,108.17897
"22924",305.09888,78.30442,107.61511
"22925",305.11218,77.696495,106.9542
"22926",305.1255,77.04707,106.232796
"22927",305.1388,76.387886,105.48133
"22928",305.1521,75.75067,104.73124
"22929",305.1654,75.16228,104.010056
"22930",305.1787,74.63981,103.33641
"22931",305.19202,74.19058,102.71968
"22932",305.20532,73.81949,102.167046
"22933",305.21863,73.52651,101.68093
"22934",305.23193,73.3019,101.25403
"22935",305.24524,73.13344,100.87625
"22936",305.25854,73.00893,100.53716
"22937",305.27185,72.92348,100.233246
"22938",305.28516,72.918594,100.007225
"22939",305.29846,73.10414,99.97148
"22940",305.31177,73.673,100.324844
"22941",305.32507,74.80827,101.262405
"22942",305.33838,76.62226,102.914154
"22943",305.35168,79.09544,105.281784
"22944",305.365,82.05203,108.210106
"22945",305.3783,85.19661,111.41881
"22946",305.3916,88.18738,114.57197
"22947",305.4049,90.72892,117.36937
"22948",305.4182,92.6186,119.59433
"22949",305.43152,93.7612,121.13126
"22950",305.44482,94.134735,121.93484
"22951",305.45813,93.802704,122.04452
"22952",305.47144,92.87251,121.54566
"22953",305.48474,91.476006,120.55142
"22954",305.49805,89.75235,119.18639
"22955",305.51135,87.82117,117.559975
"22956",305.52466,85.78256,115.76578
"22957",305.53796,83.7293,113.89322
"22958",305.55127,81.74929,112.02975
"22959",305.56458,79.94507,110.28019
"22960",305.57788,78.42161,108.75501
"22961",305.5912,77.26925,107.55333
"22962",305.6045,76.55146,106.750206
"22963",305.6178,76.27558,106.36656
"22964",305.6311,76.39765,106.372246
"22965",305.6444,76.824905,106.68693
"22966",305.6577,77.44015,107.20295
"22967",305.67102,78.12375,107.80656
"22968",305.68433,78.77318,108.397354
"22969",305.69763,79.30785,108.89369
"22970",305.71094,79.67162,109.23583
"22971",305.72424,79.84009,109.394035
"22972",305.73755,79.815674,109.364624
"22973",305.75085,79.61303,109.15622
"22974",305.76416,79.256584,108.78768
"22975",305.77747,78.78294,108.29081
"22976",305.79077,78.22873,107.69856
"22977",305.80408,77.63302,107.0475
"22978",305.81738,77.01778,106.35829
"22979",305.8307,76.41718,105.664505
"22980",305.844,75.85077,104.98613
"22981",305.8573,75.33074,104.33644
"22982",305.8706,74.86687,103.726654
"22983",305.8839,74.461586,103.160965
"22984",305.89722,74.110016,102.63632
"22985",305.91052,73.80484,102.14709
"22986",305.92383,73.5436,101.69225
"22987",305.93713,73.338524,101.285416
"22988",305.95044,73.248184,100.98691
"22989",305.96375,73.40444,100.932175
"22990",305.97705,73.99283,101.31445
"22991",305.99036,75.194016,102.32792
"22992",306.00366,77.09834,104.08206
"22993",306.01697,79.65453,106.54758
"22994",306.03027,82.66483,109.54708
"22995",306.04358,85.821625,112.78715
"22996",306.0569,88.7831,115.93054
"22997",306.0702,91.26116,118.683075
"22998",306.0835,93.067825,120.84165
"22999",306.0968,94.117645,122.29984
"23000",306.1101,94.398415,123.02179
"23001",306.1234,93.97604,123.04937
"23002",306.13672,92.9604,122.47048
"23003",306.15002,91.493095,121.40819
"23004",306.16333,89.71084,119.98509
"23005",306.17664,87.73815,118.31587
"23006",306.18994,85.677574,116.497116
"23007",306.20325,83.62432,114.621284
"23008",306.21655,81.65652,112.76674
"23009",306.22986,79.871826,111.03381
"23010",306.24316,78.37278,109.53076
"23011",306.25647,77.24971,108.35684
"23012",306.26978,76.55634,107.57753
"23013",306.28308,76.297554,107.21113
"23014",306.2964,76.422066,107.21994
"23015",306.3097,76.83711,107.52318
"23016",306.323,77.4255,108.012726
"23017",306.3363,78.07248,108.579254
"23018",306.3496,78.68284,109.12938
"23019",306.3629,79.18089,109.58627
"23020",306.37622,79.51293,109.892715
"23021",306.38953,79.65453,110.0191
"23022",306.40283,79.61059,109.964355
"23023",306.41614,79.398186,109.739784
"23024",306.42944,79.046616,109.36941
"23025",306.44275,78.58518,108.87818
"23026",306.45605,78.048065,108.29685
"23027",306.46936,77.46212,107.64991
"23028",306.48267,76.85664,106.965126
"23029",306.49597,76.25849,106.268745
"23030",306.50928,75.69695,105.59029
"23031",306.52258,75.18181,104.940674
"23032",306.5359,74.72526,104.33356
"23033",306.5492,74.322426,103.76589
"23034",306.5625,73.970856,103.2369
"23035",306.5758,73.66079,102.73843
"23036",306.5891,73.409325,102.288864
"23037",306.60242,73.27993,101.953514
"23038",306.61572,73.42153,101.88512
"23039",306.62903,74.02945,102.28746
"23040",306.64233,75.27459,103.34602
"23041",306.65564,77.24483,105.168594
"23042",306.66895,79.87427,107.71194
"23043",306.68225,82.94072,110.77446
"23044",306.69556,86.12436,114.049995
"23045",306.70886,89.07118,117.1882
"23046",306.72217,91.5053,119.90579
"23047",306.73547,93.24361,122.00364
"23048",306.74878,94.20798,123.381874
"23049",306.7621,94.40574,124.023636
"23050",306.7754,93.90524,123.97332
"23051",306.7887,92.83101,123.333626
"23052",306.802,91.3222,122.225784
"23053",306.8153,89.51064,120.76805
"23054",306.8286,87.518425,119.073044
"23055",306.84192,85.452965,117.24254
"23056",306.85522,83.39971,115.35969
"23057",306.86853,81.449,113.51521
"23058",306.88184,79.69604,111.80753
"23059",306.89514,78.238495,110.34049
"23060",306.90845,77.15938,109.20633
"23061",306.92175,76.50507,108.46326
"23062",306.93506,76.280464,108.12943
"23063",306.94836,76.43183,108.164566
"23064",306.96167,76.87129,108.49252
"23065",306.97498,77.47677,109.00023
"23066",306.98828,78.13107,109.57568
"23067",307.0016,78.73411,110.120316
"23068",307.0149,79.21019,110.55684
"23069",307.0282,79.517815,110.83978
"23070",307.0415,79.63256,110.93946
"23071",307.0548,79.56176,110.85718
"23072",307.0681,79.32983,110.61155
"23073",307.08142,78.958725,110.219505
"23074",307.09473,78.485085,109.713326
"23075",307.10803,77.945526,109.12643
"23076",307.12134,77.37179,108.48849
"23077",307.13464,76.7834,107.81797
"23078",307.14795,76.207214,107.141266
"23079",307.16125,75.65789,106.47342
"23080",307.17456,75.142746,105.822586
"23081",307.18787,74.67399,105.20204
"23082",307.20117,74.25407,104.615685
"23083",307.21448,73.882965,104.065025
"23084",307.22778,73.5729,103.563805
"23085",307.2411,73.3605,103.15056
"23086",307.2544,73.35317,102.93575
"23087",307.2677,73.73403,103.1089
"23088",307.281,74.69352,103.87258
"23089",307.2943,76.35859,105.371826
"23090",307.30762,78.73655,107.635994
"23091",307.32092,81.67605,110.53601
"23092",307.33423,84.88655,113.79889
"23093",307.34753,88.01892,117.08396
"23094",307.36084,90.74357,120.059204
"23095",307.37415,92.826126,122.4775
"23096",307.38745,94.134735,124.18693
"23097",307.40076,94.63767,125.13158
"23098",307.41406,94.39109,125.34242
"23099",307.42737,93.50973,124.91078
"23100",307.44067,92.13275,123.955986
"23101",307.45398,90.409096,122.61148
"23102",307.4673,88.47303,121.0007
"23103",307.4806,86.431984,119.22444
"23104",307.4939,84.38117,117.374626
"23105",307.5072,82.4036,115.533966
"23106",307.5205,80.58961,113.79508
"23107",307.5338,79.03441,112.25831
"23108",307.54712,77.82834,111.022064
"23109",307.56042,77.032425,110.15829
"23110",307.57373,76.66621,109.69933
"23111",307.58704,76.68818,109.61713
"23112",307.60034,77.02266,109.848114
"23113",307.61365,77.55978,110.29219
"23114",307.62695,78.184784,110.84094
"23115",307.64026,78.79271,111.39214
"23116",307.65356,79.30053,111.862236
"23117",307.66687,79.64721,112.18706
"23118",307.68018,79.801025,112.32985
"23119",307.69348,79.76196,112.28457
"23120",307.7068,79.54711,112.06228
"23121",307.7201,79.18822,111.68923
"23122",307.7334,78.712135,111.18778
"23123",307.7467,78.15549,110.59089
"23124",307.76,77.557335,109.9351
"23125",307.77332,76.94209,109.24352
"23126",307.78662,76.334175,108.54005
"23127",307.79993,75.755554,107.84687
"23128",307.81323,75.21599,107.17467
"23129",307.82654,74.72282,106.532
"23130",307.83984,74.27848,105.92275
"23131",307.85315,73.89517,105.36065
"23132",307.86646,73.582664,104.85737
"23133",307.87976,73.41665,104.490814
"23134",307.89307,73.54604,104.41448
"23135",307.90637,74.16617,104.832924
"23136",307.91968,75.44793,105.93238
"23137",307.93298,77.46456,107.80676
"23138",307.9463,80.147705,110.410675
"23139",307.9596,83.267876,113.53546
"23140",307.9729,86.49302,116.862724
"23141",307.9862,89.45693,120.02954
"23142",307.9995,91.878845,122.74699
"23143",308.01282,93.56832,124.80768
"23144",308.02612,94.44724,126.11061
"23145",308.03943,94.53025,126.645096
"23146",308.05273,93.91257,126.48148
"23147",308.06604,92.72846,125.73215
"23148",308.07935,91.13176,124.53321
"23149",308.09265,89.25918,123.0085
"23150",308.10596,87.23277,121.27145
"23151",308.11926,85.14778,119.412476
"23152",308.13257,83.09941,117.52497
"23153",308.14587,81.180435,115.70285
"23154",308.15918,79.483635,114.04294
"23155",308.1725,78.11154,112.65471
"23156",308.1858,77.13252,111.61668
"23157",308.1991,76.58808,110.98263
"23158",308.2124,76.45869,110.74661
"23159",308.2257,76.67597,110.85323
"23160",308.239,77.14229,111.215675
"23161",308.25232,77.73556,111.71964
"23162",308.26562,78.348366,112.26169
"23163",308.27893,78.87572,112.73743
"23164",308.29224,79.25414,113.08072
"23165",308.30554,79.43725,113.24052
"23166",308.31885,79.4226,113.20828
"23167",308.33215,79.21507,112.98271
"23168",308.34546,78.84154,112.58465
"23169",308.35876,78.33372,112.04063
"23170",308.37207,77.72823,111.38307
"23171",308.38538,77.05928,110.64313
"23172",308.39868,76.35615,109.8481
"23173",308.412,75.64324,109.021324
"23174",308.4253,74.949875,108.19181
"23175",308.4386,74.29069,107.37481
"23176",308.4519,73.670555,106.57626
"23177",308.4652,73.10414,105.81206
"23178",308.47852,72.601204,105.09363
"23179",308.49182,72.17151,104.432724
"23180",308.50513,71.85657,103.87314
"23181",308.51843,71.77112,103.5332
"23182",308.53174,72.095825,103.60075
"23183",308.54504,73.02602,104.283936
"23184",308.55835,74.70573,105.74571
"23185",308.57166,77.152054,108.026596
"23186",308.58496,80.218506,111.00405
"23187",308.59827,83.612114,114.40449
"23188",308.61157,86.96422,117.86947
"23189",308.62488,89.92813,121.05101
"23190",308.63818,92.242615,123.67575
"23191",308.6515,93.753876,125.569595
"23192",308.6648,94.43015,126.67568
"23193",308.6781,94.312965,127.00944
"23194",308.6914,93.51949,126.663246
"23195",308.7047,92.19623,125.76247
"23196",308.71802,90.50187,124.44924
"23197",308.73132,88.568245,122.8438
"23198",308.74463,86.50767,121.05098
"23199",308.75793,84.422676,119.16935
"23200",308.77124,82.39872,117.2836
"23201",308.78455,80.533455,115.49329
"23202",308.79785,78.93187,113.90838
"23203",308.81116,77.68429,112.62742
"23204",308.82446,76.859085,111.72985
"23205",308.83777,76.470894,111.24351
"23206",308.85107,76.4831,111.14543
"23207",308.86438,76.8127,111.36513
"23208",308.8777,77.34249,111.79532
"23209",308.891,77.95041,112.32019
"23210",308.9043,78.53147,112.837204
"23211",308.9176,79.009995,113.26984
"23212",308.9309,79.327385,113.55629
"23213",308.9442,79.45678,113.664665
"23214",308.95752,79.398186,113.589096
"23215",308.97083,79.1638,113.33591
"23216",308.98413,78.77318,112.91915
"23217",308.99744,78.2678,112.375435
"23218",309.01074,77.69405,111.74756
"23219",309.02405,77.08125,111.0627
"23220",309.03735,76.46601,110.35625
"23221",309.05066,75.877625,109.657425
"23222",309.06396,75.318535,108.96951
"23223",309.07727,74.80827,108.31296
"23224",309.09058,74.35172,107.69417
"23225",309.10388,73.94644,107.11238
"23226",309.1172,73.59731,106.57408
"23227",309.1305,73.32632,106.103004
"23228",309.1438,73.19447,105.76261
"23229",309.1571,73.340965,105.696434
"23230",309.1704,73.95621,106.103584
"23231",309.18372,75.228195,107.18671
"23232",309.19702,77.242386,109.05178
"23233",309.21033,79.95239,111.67561
"23234",309.22363,83.15556,114.8773
"23235",309.23694,86.519875,118.34022
"23236",309.25024,89.6791,121.703186
"23237",309.26355,92.318306,124.64487
"23238",309.27686,94.222626,126.934135
"23239",309.29016,95.28954,128.44551
"23240",309.30347,95.516594,129.15036
"23241",309.31677,94.994125,129.1128
"23242",309.33008,93.85397,128.44121
"23243",309.34338,92.25971,127.279884
"23244",309.3567,90.36271,125.766
"23245",309.37,88.289925,124.01705
"23246",309.3833,86.14877,122.134964
"23247",309.3966,84.03204,120.21038
"23248",309.4099,82.0325,118.33684
"23249",309.42322,80.23804,116.60589
"23250",309.43652,78.75609,115.13138
"23251",309.44983,77.662315,113.99873
"23252",309.46313,76.98848,113.25185
"23253",309.47644,76.7248,112.89406
"23254",309.48975,76.80293,112.86984
"23255",309.50305,77.117874,113.08488
"23256",309.51636,77.557335,113.43427
"23257",309.52966,78.011444,113.81205
"23258",309.54297,78.397194,114.13566
"23259",309.55627,78.65598,114.34436
"23260",309.56958,78.74876,114.395134
"23261",309.5829,78.66575,114.273026
"23262",309.5962,78.41428,113.979866
"23263",309.6095,78.013885,113.529915
"23264",309.6228,77.49386,112.94782
"23265",309.6361,76.893265,112.26891
"23266",309.6494,76.24872,111.52728
"23267",309.66272,75.596855,110.758194
"23268",309.67603,74.966965,109.99071
"23269",309.68933,74.38102,109.24748
"23270",309.70264,73.84146,108.53233
"23271",309.71594,73.35073,107.84915
"23272",309.72925,72.90883,107.19946
"23273",309.74255,72.518196,106.587234
"23274",309.75586,72.19104,106.026276
"23275",309.76917,71.97864,105.56984
"23276",309.78247,71.990845,105.331375
"23277",309.79578,72.40345,105.4937
"23278",309.80908,73.41665,106.2695
"23279",309.8224,75.16716,107.814285
"23280",309.8357,77.65743,110.153534
"23281",309.849,80.743416,113.16631
"23282",309.8623,84.12726,116.57339
"23283",309.8756,87.430534,120.00564
"23284",309.88892,90.301674,123.10898
"23285",309.90222,92.48188,125.611115
"23286",309.91553,93.82956,127.348854
"23287",309.92883,94.32029,128.27176
"23288",309.94214,94.029755,128.42873
"23289",309.95544,93.0898,127.9272
"23290",309.96875,91.66155,126.90801
"23291",309.98206,89.90372,125.5146
"23292",309.99536,87.94812,123.8685
"23293",310.00867,85.89975,122.06851
"23294",310.02197,83.85626,120.20939
"23295",310.03528,81.898224,118.37186
"23296",310.04858,80.113525,116.64648
"23297",310.0619,78.58518,115.12168
"23298",310.0752,77.39864,113.89093
"23299",310.0885,76.58564,112.996635
"23300",310.1018,76.15106,112.45536
"23301",310.1151,76.050964,112.234985
"23302",310.12842,76.2121,112.27271
"23303",310.14172,76.53437,112.476616
"23304",310.15503,76.912796,112.74674
"23305",310.16833,77.26925,113.00672
"23306",310.18164,77.53292,113.18506
"23307",310.19495,77.65499,113.230034
"23308",310.20825,77.61593,113.11769
"23309",310.22156,77.420616,112.84788
"23310",310.23486,77.08125,112.42791
"23311",310.24817,76.627144,111.88259
"23312",310.26147,76.087585,111.23763
"23313",310.27478,75.4992,110.526985
"23314",310.2881,74.89372,109.78086
"23315",310.3014,74.29801,109.02558
"23316",310.3147,73.738914,108.2883
"23317",310.328,73.23842,107.59215
"23318",310.3413,72.80385,106.94628
"23319",310.3546,72.43519,106.352745
"23320",310.36792,72.13245,105.8136
"23321",310.38123,71.885864,105.32115
