"","Time..s.","PPG.trace","Preprocessed.PPG"
"38982",518.82776,72.41566,106.425316
"38983",518.84106,71.92493,105.69757
"38984",518.8544,71.519646,105.03995
"38985",518.8677,71.18761,104.4429
"38986",518.881,70.91905,103.89896
"38987",518.8943,70.70664,103.40277
"38988",518.9076,70.57725,102.982956
"38989",518.9209,70.62119,102.73244
"38990",518.9342,71.03624,102.85439
"38991",518.9475,72.0885,103.62654
"38992",518.9608,74.002594,105.293396
"38993",518.9741,76.822464,107.92585
"38994",518.9874,80.39918,111.40327
"38995",519.00073,84.37385,115.39041
"38996",519.01404,88.28748,119.44073
"38997",519.02734,91.70794,123.12016
"38998",519.04065,94.35203,126.13013
"38999",519.05396,96.09277,128.31937
"39000",519.06726,96.917984,129.64748
"39001",519.08057,96.87892,130.1371
"39002",519.0939,96.0708,129.85645
"39003",519.1072,94.61082,128.89868
"39004",519.1205,92.64301,127.38747
"39005",519.1338,90.304115,125.443665
"39006",519.1471,87.71374,123.17529
"39007",519.1604,84.981766,120.68437
"39008",519.1737,82.24002,118.098305
"39009",519.187,79.639885,115.56817
"39010",519.2003,77.37667,113.2937
"39011",519.2136,75.63592,111.47097
"39012",519.2269,74.5568,110.25548
"39013",519.24023,74.18082,109.7094
"39014",519.25354,74.43473,109.78146
"39015",519.26685,75.159836,110.33266
"39016",519.28015,76.14862,111.17019
"39017",519.29346,77.205765,112.10698
"39018",519.30676,78.16525,112.97915
"39019",519.32007,78.92943,113.68599
"39020",519.3334,79.43481,114.15791
"39021",519.3467,79.66186,114.3673
"39022",519.36,79.61791,114.31279
"39023",519.3733,79.33227,114.015205
"39024",519.3866,78.836655,113.498726
"39025",519.3999,78.167694,112.79341
"39026",519.4132,77.37179,111.94025
"39027",519.4265,76.50263,110.98896
"39028",519.4398,75.60418,109.98122
"39029",519.4531,74.72526,108.96493
"39030",519.46643,73.89517,107.97001
"39031",519.47974,73.13344,107.0175
"39032",519.49304,72.447395,106.11688
"39033",519.50635,71.84436,105.27783
"39034",519.51965,71.34142,104.520035
"39035",519.53296,70.98253,103.890564
"39036",519.54626,70.87511,103.50134
"39037",519.5596,71.23399,103.57507
"39038",519.5729,72.30335,104.3705
"39039",519.5862,74.24429,106.07092
"39040",519.5995,77.04219,108.68896
"39041",519.6128,80.49683,112.05117
"39042",519.6261,84.23224,115.8021
"39043",519.6394,87.80896,119.51108
"39044",519.6527,90.84123,122.787384
"39045",519.666,93.10445,125.38939
"39046",519.6793,94.51072,127.20518
"39047",519.6926,95.0576,128.20552
"39048",519.70593,94.801254,128.41972
"39049",519.71924,93.84421,127.92522
"39050",519.73254,92.301216,126.81486
"39051",519.74585,90.301674,125.19973
"39052",519.75916,87.955444,123.17543
"39053",519.77246,85.36996,120.83855
"39054",519.78577,82.66483,118.30123
"39055",519.7991,79.97925,115.69892
"39056",519.8124,77.51339,113.232414
"39057",519.8257,75.474785,111.116104
"39058",519.839,74.05875,109.558655
"39059",519.8523,73.36294,108.677185
"39060",519.8656,73.375145,108.48199
"39061",519.8789,73.968414,108.86823
"39062",519.8922,74.93767,109.649
"39063",519.9055,76.068054,110.62119
"39064",519.9188,77.171585,111.60185
"39065",519.9321,78.11398,112.455864
"39066",519.94543,78.80736,113.0903
"39067",519.95874,79.219955,113.46563
"39068",519.97205,79.35424,113.57554
"39069",519.98535,79.22972,113.43084
"39070",519.99866,78.88304,113.06009
"39071",520.01196,78.35325,112.49539
"39072",520.02527,77.68673,111.77741
"39073",520.0386,76.927444,110.94584
"39074",520.0519,76.11932,110.0417
"39075",520.0652,75.301445,109.102554
"39076",520.0785,74.50065,108.15493
"39077",520.0918,73.741356,107.223785
"39078",520.1051,73.03822,106.32507
"39079",520.1184,72.4181,105.4874
"39080",520.1317,71.94934,104.78171
"39081",520.145,71.79309,104.37387
"39082",520.1583,72.215454,104.539764
"39083",520.17163,73.494774,105.57582
"39084",520.18494,75.78241,107.66017
"39085",520.19824,79.01732,110.76328
"39086",520.21155,82.92363,114.638885
"39087",520.22485,87.061874,118.86849
"39088",520.23816,90.94377,122.97107
"39089",520.25146,94.17868,126.54797
"39090",520.2648,96.55665,129.36902
"39091",520.2781,97.99954,131.32932
"39092",520.2914,98.51957,132.41183
"39093",520.3047,98.18265,132.65366
"39094",520.318,97.1133,132.15251
"39095",520.3313,95.46044,131.03445
"39096",520.3446,93.37789,129.43504
"39097",520.3579,91.002365,127.47758
"39098",520.3712,88.446175,125.26521
"39099",520.3845,85.8143,122.89728
"39100",520.3978,83.2166,120.48127
"39101",520.41113,80.8069,118.17209
"39102",520.42444,78.751205,116.14161
"39103",520.43774,77.208206,114.559586
"39104",520.45105,76.265816,113.52995
"39105",520.46436,75.931335,113.07878
"39106",520.47766,76.11932,113.139626
"39107",520.49097,76.66865,113.56768
"39108",520.5043,77.40597,114.2009
"39109",520.5176,78.167694,114.88156
"39110",520.5309,78.82689,115.4835
"39111",520.5442,79.29565,115.915596
"39112",520.5575,79.52514,116.12308
"39113",520.5708,79.50805,116.09115
"39114",520.5841,79.25414,115.82187
"39115",520.5974,78.79759,115.34201
"39116",520.6107,78.18234,114.689186
"39117",520.624,77.44503,113.89507
"39118",520.6373,76.629585,112.99979
"39119",520.65063,75.76776,112.03264
"39120",520.66394,74.89128,111.0239
"39121",520.67725,74.02701,109.999985
"39122",520.69055,73.20668,108.993004
"39123",520.70386,72.46693,108.04096
"39124",520.71716,71.922485,107.26111
"39125",520.73047,71.79553,106.88173
"39126",520.7438,72.38392,107.21373
"39127",520.7571,73.94644,108.53825
"39128",520.7704,76.58076,110.9834
"39129",520.7837,80.1355,114.43129
"39130",520.797,84.2591,118.55913
"39131",520.8103,88.45594,122.88906
"39132",520.8236,92.2475,126.94487
"39133",520.8369,95.28222,130.36232
"39134",520.8502,97.38674,132.94441
"39135",520.8635,98.512245,134.61325
"39136",520.87683,98.70023,135.37975
"39137",520.89014,98.06058,135.32448
"39138",520.90344,96.74952,134.57782
"39139",520.91675,94.95262,133.30435
"39140",520.93005,92.8481,131.6671
"39141",520.94336,90.57023,129.79073
"39142",520.95667,88.21423,127.76505
"39143",520.97,85.841156,125.64867
"39144",520.9833,83.52422,123.51427
"39145",520.9966,81.358665,121.45884
"39146",521.0099,79.4641,119.606735
"39147",521.0232,77.95529,118.08118
"39148",521.0365,76.92012,116.98211
"39149",521.0498,76.36103,116.326775
"39150",521.0631,76.224304,116.07633
"39151",521.0764,76.39521,116.12925
"39152",521.0897,76.74433,116.36572
"39153",521.103,77.14717,116.666824
"39154",521.11633,77.49142,116.92192
"39155",521.12964,77.70138,117.05349
"39156",521.14294,77.72579,117.00607
"39157",521.15625,77.54513,116.75434
"39158",521.16956,77.16914,116.30164
"39159",521.18286,76.627144,115.67118
"39160",521.19617,75.95331,114.891945
"39161",521.2095,75.18913,114.00131
"39162",521.2228,74.36393,113.02577
"39163",521.2361,73.50698,111.9927
"39164",521.2494,72.64515,110.92796
"39165",521.2627,71.800415,109.85339
"39166",521.276,71.01427,108.811005
"39167",521.2893,70.37461,107.89055
"39168",521.3026,70.07187,107.28701
"39169",521.3159,70.37705,107.28194
"39170",521.3292,71.568474,108.17264
"39171",521.3425,73.795074,110.13576
"39172",521.35583,76.998245,113.14503
"39173",521.36914,80.88991,116.94289
"39174",521.38245,85.01106,121.09185
"39175",521.39575,88.86366,125.10104
"39176",521.40906,92.0473,128.56168
"39177",521.42236,94.32517,131.21602
"39178",521.43567,95.63378,132.97229
"39179",521.449,96,133.82706
"39180",521.4623,95.54101,133.86807
"39181",521.4756,94.42527,133.23799
"39182",521.4889,92.84566,132.10916
"39183",521.5022,90.97063,130.63556
"39184",521.5155,88.93935,128.94711
"39185",521.5288,86.83238,127.11951
"39186",521.5421,84.70344,125.20407
"39187",521.5554,82.581825,123.22944
"39188",521.5687,80.52613,121.254425
"39189",521.58203,78.626686,119.37142
"39190",521.59534,76.98848,117.6903
"39191",521.60864,75.70916,116.31687
"39192",521.62195,74.83757,115.311195
"39193",521.63525,74.36393,114.67623
"39194",521.64856,74.2272,114.36338
"39195",521.66187,74.33219,114.28797
"39196",521.6752,74.564125,114.34279
"39197",521.6885,74.813156,114.42195
"39198",521.7018,74.99626,114.44297
"39199",521.7151,75.04753,114.337875
"39200",521.7284,74.93523,114.07081
"39201",521.7417,74.6569,113.63421
"39202",521.755,74.2272,113.037544
"39203",521.7683,73.67544,112.30538
"39204",521.7816,73.03334,111.465645
"39205",521.7949,72.33509,110.54969
"39206",521.8082,71.61486,109.589935
"39207",521.82153,70.89708,108.61012
"39208",521.83484,70.19882,107.627396
"39209",521.84814,69.542076,106.66436
"39210",521.86145,68.93416,105.72963
"39211",521.87476,68.404366,104.85403
"39212",521.88806,68.016174,104.10347
"39213",521.90137,67.9234,103.6362
"39214",521.9147,68.37751,103.71291
"39215",521.928,69.63973,104.61193
"39216",521.9413,71.86633,106.51477
"39217",521.9546,75.003586,109.39784
"39218",521.9679,78.785385,113.023506
"39219",521.9812,82.78447,116.984634
"39220",521.9945,86.52476,120.811935
"39221",522.0078,89.61318,124.104256
"39222",522.0211,91.83002,126.621506
"39223",522.0344,93.10933,128.27051
"39224",522.0477,93.487755,129.0586
"39225",522.06104,93.084915,129.07724
"39226",522.07434,92.069275,128.4705
"39227",522.08765,90.62394,127.402336
"39228",522.10095,88.92226,126.03265
"39229",522.11426,87.09361,124.482834
"39230",522.12756,85.20882,122.81971
"39231",522.14087,83.30938,121.083046
"39232",522.1542,81.42458,119.30167
"39233",522.1675,79.61547,117.53707
"39234",522.1808,77.95285,115.862434
"39235",522.1941,76.524605,114.37022
"39236",522.2074,75.41619,113.1532
"39237",522.2207,74.66422,112.25799
"39238",522.234,74.26627,111.6933
"39239",522.2473,74.161285,111.409134
"39240",522.2606,74.27116,111.33655
"39241",522.2739,74.493324,111.37969
"39242",522.28723,74.73991,111.45419
"39243",522.30054,74.92302,111.47293
"39244",522.31384,74.98894,111.380196
"39245",522.32715,74.90837,111.143036
"39246",522.34045,74.67155,110.7471
"39247",522.35376,74.285805,110.19485
"39248",522.36707,73.780426,109.5109
"39249",522.3804,73.18471,108.720825
"39250",522.3937,72.54017,107.86331
"39251",522.407,71.88342,106.97345
"39252",522.4203,71.2462,106.08258
"39253",522.4336,70.65537,105.2182
"39254",522.4469,70.12802,104.39883
"39255",522.4602,69.678795,103.6411
"39256",522.4735,69.31014,102.949905
"39257",522.4868,69.02693,102.332634
"39258",522.5001,68.81209,101.77488
"39259",522.5134,68.65339,101.266556
"39260",522.52673,68.55085,100.80943
"39261",522.54004,68.52888,100.42967
"39262",522.55334,68.697334,100.239655
"39263",522.56665,69.263756,100.452866
"39264",522.57996,70.47715,101.33075
"39265",522.59326,72.50843,103.06444
"39266",522.60657,75.3576,105.67949
"39267",522.6199,78.82445,109.00127
"39268",522.6332,82.55009,112.69017
"39269",522.6465,86.09262,116.31239
"39270",522.6598,89.0663,119.47646
"39271",522.6731,91.24895,121.94243
"39272",522.6864,92.560005,123.60502
"39273",522.6997,93.02144,124.458954
"39274",522.713,92.73579,124.58022
"39275",522.7263,91.85443,124.09686
"39276",522.7396,90.54337,123.15626
"39277",522.7529,88.973526,121.91589
"39278",522.76624,87.274284,120.49707
"39279",522.77954,85.53109,118.9812
"39280",522.79285,83.79767,117.42062
"39281",522.80615,82.10574,115.847374
"39282",522.81946,80.49683,114.30427
"39283",522.83276,79.03685,112.85981
"39284",522.84607,77.80148,111.594345
"39285",522.8594,76.859085,110.583244
"39286",522.8727,76.243835,109.86984
"39287",522.886,75.95087,109.459496
"39288",522.8993,75.91669,109.29878
"39289",522.9126,76.07294,109.32743
"39290",522.9259,76.32197,109.45374
"39291",522.9392,76.58076,109.597595
"39292",522.9525,76.77608,109.686066
"39293",522.9658,76.85176,109.661
"39294",522.9791,76.78096,109.49182
"39295",522.99243,76.55634,109.16661
"39296",523.00574,76.18524,108.6879
"39297",523.01904,75.68963,108.073074
"39298",523.03235,75.11101,107.35976
"39299",523.04565,74.47379,106.56976
"39300",523.05896,73.814606,105.737885
"39301",523.07227,73.162735,104.89272
"39302",523.0856,72.549934,104.06626
"39303",523.0989,71.993286,103.276794
"39304",523.1122,71.50988,102.54318
"39305",523.1255,71.12169,101.88968
"39306",523.1388,70.8336,101.32414
"39307",523.1521,70.63828,100.84238
"39308",523.1654,70.53086,100.4424
"39309",523.1787,70.49668,100.112305
"39310",523.192,70.518654,99.837296
"39311",523.2053,70.572365,99.59471
"39312",523.2186,70.64561,99.37334
"39313",523.23193,70.728615,99.16402
"39314",523.24524,70.84581,98.99148
"39315",523.25854,71.09972,98.95932
"39316",523.27185,71.6881,99.26958
"39317",523.28516,72.85268,100.17441
"39318",523.29846,74.75212,101.8505
"39319",523.31177,77.39376,104.32815
"39320",523.3251,80.59937,107.45232
"39321",523.3384,84.02716,110.898834
"39322",523.3517,87.274284,114.271805
"39323",523.365,89.99405,117.21889
"39324",523.3783,91.97406,119.511215
"39325",523.3916,93.14595,121.0573
"39326",523.4049,93.5317,121.85386
"39327",523.4182,93.21919,121.96422
"39328",523.4315,92.34272,121.50085
"39329",523.4448,91.06096,120.6048
"39330",523.4581,89.52285,119.412346
"39331",523.47144,87.852905,118.03999
"39332",523.48474,86.136566,116.56906
"39333",523.49805,84.43,115.05426
"39334",523.51135,82.77959,113.54228
"39335",523.52466,81.24635,112.09591
"39336",523.53796,79.8938,110.7823
"39337",523.5513,78.802475,109.68766
"39338",523.5646,78.030975,108.87874
"39339",523.5779,77.60616,108.392395
"39340",523.5912,77.4963,108.207726
"39341",523.6045,77.645226,108.27841
"39342",523.6178,77.95529,108.51489
"39343",523.6311,78.33616,108.83186
"39344",523.6444,78.69016,109.13387
"39345",523.6577,78.95628,109.35906
"39346",523.671,79.078354,109.44852
"39347",523.6843,79.03685,109.37821
"39348",523.69763,78.82689,109.13815
"39349",523.71094,78.467995,108.7426
"39350",523.72424,77.98215,108.20888
"39351",523.73755,77.401085,107.56476
"39352",523.75085,76.76143,106.84389
"39353",523.76416,76.09735,106.078606
"39354",523.77747,75.44305,105.302345
"39355",523.7908,74.82048,104.53738
"39356",523.8041,74.246735,103.80177
"39357",523.8174,73.738914,103.11417
"39358",523.8307,73.31411,102.493706
"39359",523.844,72.97719,101.94785
"39360",523.8573,72.73792,101.48913
"39361",523.8706,72.589,101.113266
"39362",523.8839,72.52064,100.81331
"39363",523.8972,72.515755,100.57469
"39364",523.9105,72.549934,100.374985
"39365",523.9238,72.61097,100.2032
"39366",523.93713,72.674446,100.03577
"39367",523.95044,72.74525,99.87764
"39368",523.96375,72.850235,99.75592
"39369",523.97705,73.10658,99.78884
"39370",523.99036,73.70229,100.169136
"39371",524.00366,74.85466,101.1247
"39372",524.01697,76.70771,102.81696
"39373",524.0303,79.24437,105.25074
"39374",524.0436,82.28153,108.26429
"39375",524.0569,85.49935,111.553406
"39376",524.0702,88.531624,114.75753
"39377",524.0835,91.06584,117.558365
"39378",524.0968,92.91402,119.75235
"39379",524.1101,93.99802,121.239914
"39380",524.1234,94.33738,122.016716
"39381",524.1367,94.00046,122.12784
"39382",524.15,93.102005,121.6669
"39383",524.1633,91.79584,120.77017
"39384",524.17664,90.2211,119.56406
"39385",524.18994,88.497444,118.15981
"39386",524.20325,86.72007,116.64798
"39387",524.21655,84.95491,115.09282
"39388",524.22986,83.25811,113.55086
"39389",524.24316,81.69802,112.09258
"39390",524.2565,80.360115,110.80774
"39391",524.2698,79.32494,109.78382
"39392",524.2831,78.643776,109.08156
"39393",524.2964,78.3386,108.734
"39394",524.3097,78.363014,108.7065
"39395",524.323,78.63645,108.92878
"39396",524.3363,79.04906,109.298775
"39397",524.3496,79.500725,109.720726
"39398",524.3629,79.906006,110.110405
"39399",524.3762,80.19409,110.39555
"39400",524.3895,80.323494,110.53102
"39401",524.40283,80.272224,110.48986
"39402",524.41614,80.05249,110.27863
"39403",524.42944,79.67162,109.89941
"39404",524.44275,79.16136,109.37888
"39405",524.45605,78.56077,108.75208
"39406",524.46936,77.90646,108.0528
"39407",524.48267,77.22774,107.308655
"39408",524.496,76.558784,106.55307
"39409",524.5093,75.91913,105.80588
"39410",524.5226,75.33074,105.089966
"39411",524.5359,74.813156,104.42647
"39412",524.5492,74.371254,103.82248
"39413",524.5625,74.019684,103.29501
"39414",524.5758,73.760895,102.84934
"39415",524.5891,73.582664,102.47614
"39416",524.6024,73.47524,102.16818
"39417",524.629,73.426414,101.71004
"39418",524.64233,73.45327,101.53147
"39419",524.65564,73.494774,101.36839
"39420",524.66895,73.548485,101.21882
"39421",524.68225,73.633934,101.10266
"39422",524.69556,73.848785,101.118576
"39423",524.70886,74.371254,101.44882
"39424",524.72217,75.4284,102.33007
"39425",524.7355,77.17891,103.93772
"39426",524.7488,79.639885,106.31054
"39427",524.7621,82.66239,109.32179
"39428",524.7754,85.94614,112.688736
"39429",524.7887,89.11757,116.04598
"39430",524.802,91.842224,119.05556
"39431",524.8153,93.9028,121.486206
"39432",524.8286,95.19676,123.21463
"39433",524.8419,95.71191,124.20467
"39434",524.8552,95.49706,124.48083
"39435",524.8685,94.66209,124.130135
"39436",524.88184,93.351036,123.277275
"39437",524.89514,91.71038,122.05384
"39438",524.90845,89.87198,120.58139
"39439",524.92175,87.95056,118.968475
"39440",524.93506,86.01938,117.28575
"39441",524.94836,84.15167,115.60615
"39442",524.9617,82.42069,114.004906
"39443",524.975,80.919205,112.57906
"39444",524.9883,79.73266,111.42124
"39445",525.0016,78.93187,110.6121
"39446",525.0149,78.54368,110.19053
"39447",525.0282,78.53147,110.13281
"39448",525.0415,78.8098,110.36525
"39449",525.0548,79.27123,110.78949
"39450",525.0681,79.798584,111.29407
"39451",525.0814,80.2942,111.78339
"39452",525.0947,80.6775,112.17588
"39453",525.10803,80.88991,112.40946
"39454",525.12134,80.91188,112.45924
"39455",525.13464,80.73365,112.30951
"39456",525.14795,80.377205,111.97599
"39457",525.16125,79.869385,111.47996
"39458",525.17456,79.24681,110.8533
"39459",525.18787,78.54368,110.12663
"39460",525.2012,77.803925,109.34137
"39461",525.2145,77.06172,108.53054
"39462",525.2278,76.34638,107.72338
"39463",525.2411,75.684746,106.94757
"39464",525.2544,75.10368,106.23166
"39465",525.2677,74.60563,105.5806
"39466",525.281,74.195465,105.00186
"39467",525.2943,73.87564,104.50065
"39468",525.3076,73.633934,104.06756
"39469",525.3209,73.46548,103.700165
"39470",525.3342,73.3605,103.39098
"39471",525.34753,73.3019,103.12491
"39472",525.36084,73.27505,102.88874
"39473",525.37415,73.270164,102.673706
"39474",525.38745,73.3019,102.49514
"39475",525.40076,73.45815,102.44208
"39476",525.41406,73.9147,102.6942
"39477",525.42737,74.91081,103.500145
"39478",525.4407,76.627144,105.05744
"39479",525.454,79.11253,107.43743
"39480",525.4673,82.230255,110.52742
"39481",525.4806,85.68734,114.0542
"39482",525.4939,89.09804,117.642624
"39483",525.5072,92.09125,120.92015
"39484",525.5205,94.42039,123.627144
"39485",525.5338,95.95361,125.61101
"39486",525.5471,96.65186,126.80781
"39487",525.5604,96.55665,127.23296
"39488",525.5737,95.77051,126.96422
"39489",525.58704,94.435036,126.121574
"39490",525.60034,92.70649,124.844124
"39491",525.61365,90.7338,123.26852
"39492",525.62695,88.639046,121.50919
"39493",525.64026,86.51011,119.65022
"39494",525.65356,84.42512,117.76867
"39495",525.6669,82.46708,115.94891
"39496",525.6802,80.74586,114.30479
"39497",525.6935,79.35912,112.94136
"39498",525.7068,78.399635,111.961845
"39499",525.7201,77.908905,111.421104
"39500",525.7334,77.857635,111.30449
"39501",525.7467,78.15549,111.53539
"39502",525.76,78.68528,112.007545
"39503",525.7733,79.310295,112.59148
"39504",525.7866,79.903564,113.16319
"39505",525.7999,80.377205,113.63382
"39506",525.81323,80.66529,113.93369
"39507",525.82654,80.743416,114.03261
"39508",525.83984,80.6067,113.91912
"39509",525.85315,80.26734,113.598724
"39510",525.86646,79.76196,113.1017
"39511",525.87976,79.12474,112.45704
"39512",525.89307,78.39231,111.69726
"39513",525.9064,77.60372,110.85843
"39514",525.9197,76.80049,109.980316
"39515",525.933,76.016785,109.09663
"39516",525.9463,75.27947,108.23484
"39517",525.9596,74.60807,107.415924
"39518",525.9729,74.019684,106.65904
"39519",525.9862,73.52895,105.98143
"39520",525.9995,73.13344,105.3837
"39521",526.0128,72.8307,104.86639
"39522",526.0261,72.60853,104.42017
"39523",526.0394,72.4596,104.04027
"39524",526.05273,72.361946,103.70697
"39525",526.06604,72.29847,103.4048
"39526",526.07935,72.271614,103.13727
"39527",526.09265,72.325325,102.94946
"39528",526.10596,72.603645,102.987946
"39529",526.11926,73.34829,103.50145
"39530",526.13257,74.79607,104.74136
"39531",526.1459,77.07881,106.86149
"39532",526.1592,80.15503,109.84642
"39533",526.1725,83.78058,113.476814
"39534",526.1858,87.569695,117.38407
"39535",526.1991,91.10979,121.16072
"39536",526.2124,94.05417,124.452286
"39537",526.2257,96.20508,127.04239
"39538",526.239,97.47463,128.81836
"39539",526.2523,97.85794,129.74774
"39540",526.2656,97.425804,129.87366
"39541",526.27893,96.3003,129.29271
"39542",526.29224,94.63767,128.13947
"39543",526.30554,92.60639,126.56561
"39544",526.31885,90.35294,124.706116
"39545",526.33215,87.99939,122.676094
"39546",526.34546,85.63363,120.56032
"39547",526.35876,83.353325,118.45606
"39548",526.3721,81.26345,116.47098
"39549",526.3854,79.483635,114.730644
"39550",526.3987,78.12375,113.35462
"39551",526.412,77.25948,112.431725
"39552",526.4253,76.90791,111.994514
"39553",526.4386,77.01289,112.00287
"39554",526.4519,77.452354,112.34898
"39555",526.4652,78.08713,112.904144
"39556",526.4785,78.7805,113.53774
"39557",526.4918,79.41039,114.129524
"39558",526.5051,79.89136,114.592064
"39559",526.51843,80.164795,114.86211
"39560",526.53174,80.21118,114.91364
"39561",526.54504,80.03296,114.74202
"39562",526.55835,79.64233,114.35242
"39563",526.57166,79.080795,113.77971
"39564",526.58496,78.380104,113.05029
"39565",526.59827,77.58907,112.20864
"39566",526.6116,76.74433,111.28856
"39567",526.6249,75.88739,110.32988
"39568",526.6382,75.04997,109.363945
"39569",526.6515,74.26627,108.42556
"39570",526.6648,73.55337,107.53348
"39571",526.6781,72.9308,106.70946
"39572",526.6914,72.40345,105.9612
"39573",526.7047,71.97864,105.298996
"39574",526.718,71.656364,104.72606
"39575",526.7313,71.42199,104.23094
"39576",526.7446,71.26086,103.80174
"39577",526.75793,71.15343,103.42122
"39578",526.77124,71.09239,103.083725
"39579",526.78455,71.09483,102.8078
"39580",526.79785,71.28527,102.719955
"39581",526.81116,71.905396,103.06775
"39582",526.82446,73.23842,104.14781
"39583",526.83777,75.4699,106.168
"39584",526.8511,78.6096,109.16613
"39585",526.8644,82.44511,112.95819
"39586",526.8777,86.58579,117.175285
"39587",526.891,90.56779,121.36308
"39588",526.9043,93.98581,125.11135
"39589",526.9176,96.58839,128.15099
"39590",526.9309,98.2559,130.33688
"39591",526.9442,98.96147,131.61296
"39592",526.9575,98.75639,132.00043
"39593",526.9708,97.74563,131.5758
"39594",526.98413,96.095215,130.47995
"39595",526.99744,93.98093,128.86864
"39596",527.01074,91.57122,126.895836
"39597",527.02405,89.005264,124.69148
"39598",527.03735,86.39048,122.35811
"39599",527.05066,83.81964,119.98697
"39600",527.06396,81.40017,117.68686
"39601",527.0773,79.26147,115.59191
"39602",527.0906,77.54269,113.85005
"39603",527.1039,76.35859,112.589165
"39604",527.1172,75.76776,111.884544
"39605",527.1305,75.733574,111.7181
"39606",527.1438,76.14618,111.99738
"39607",527.1571,76.841995,112.57277
"39608",527.1704,77.65255,113.28464
"39609",527.1837,78.4387,113.99743
"39610",527.197,79.09056,114.6005
"39611",527.2103,79.53246,115.013985
"39612",527.22363,79.725334,115.192245
"39613",527.23694,79.66186,115.120186
"39614",527.25024,79.35424,114.802
"39615",527.26355,78.83177,114.25935
"39616",527.27686,78.14572,113.5368
"39617",527.29016,77.34249,112.67562
"39618",527.30347,76.46601,111.716095
"39619",527.3168,75.560234,110.69988
"39620",527.3301,74.66178,109.66269
"39621",527.3434,73.8024,108.63649
"39622",527.3567,73.01137,107.65179
"39623",527.37,72.31556,106.73759
"39624",527.3833,71.72228,105.904175
"39625",527.3966,71.24132,105.164536
"39626",527.4099,70.85802,104.50752
"39627",527.4232,70.56016,103.92398
"39628",527.4365,70.330666,103.39949
"39629",527.4498,70.1622,102.928856
"39630",527.46313,70.06943,102.52865
"39631",527.47644,70.16708,102.31597
"39632",527.48975,70.69688,102.53848
"39633",527.50305,71.96399,103.51487
"39634",527.51636,74.19302,105.49278
"39635",527.52966,77.418175,108.53647
"39636",527.54297,81.449,112.48661
"39637",527.5563,85.88754,116.970436
"39638",527.5696,90.2211,121.487976
"39639",527.5829,93.99802,125.584305
"39640",527.5962,96.92287,128.9466
"39641",527.6095,98.861374,131.41394
"39642",527.6228,99.77936,132.92134
"39643",527.6361,99.72076,133.48085
"39644",527.6494,98.7979,133.17427
"39645",527.6627,97.16945,132.13326
"39646",527.676,95.00877,130.50912
"39647",527.68933,92.489204,128.45859
"39648",527.70264,89.76456,126.12423
"39649",527.71594,86.96178,123.626595
"39650",527.72925,84.17853,121.0609
"39651",527.74255,81.529564,118.54251
"39652",527.75586,79.14671,116.20746
"39653",527.76917,77.188675,114.222755
"39654",527.7825,75.77997,112.7262
"39655",527.7958,74.9987,111.81306
"39656",527.8091,74.83269,111.49075
"39657",527.8224,75.18425,111.68084
"39658",527.8357,75.88983,112.23593
"39659",527.849,76.76387,112.98153
"39660",527.8623,77.645226,113.76176
"39661",527.8756,78.40208,114.44502
"39662",527.8889,78.94408,114.93709
"39663",527.9022,79.22484,115.18485
"39664",527.9155,79.234604,115.170395
"39665",527.92883,78.99046,114.902336
"39666",527.94214,78.51682,114.39715
"39667",527.95544,77.85275,113.68673
"39668",527.96875,77.04707,112.81395
"39669",527.98206,76.14618,111.82078
"39670",527.99536,75.194016,110.748184
"39671",528.00867,74.24185,109.645836
"39672",528.022,73.323875,108.54792
"39673",528.0353,72.47913,107.49455
"39674",528.0486,71.724724,106.50511
"39675",528.0619,71.07286,105.59465
"39676",528.0752,70.52354,104.76636
"39677",528.0885,70.07919,104.02587
"39678",528.1018,69.72274,103.35939
"39679",528.1151,69.43954,102.75502
"39680",528.1284,69.224686,102.21015
"39681",528.1417,69.11726,101.766
"39682",528.155,69.280846,101.58949
"39683",528.16833,70.0206,101.99427
"39684",528.18164,71.656364,103.31818
"39685",528.19495,74.38834,105.78941
"39686",528.20825,78.167694,109.3934
"39687",528.22156,82.686806,113.855255
"39688",528.23486,87.45495,118.70736
"39689",528.24817,91.92279,123.40817
"39690",528.2615,95.65087,127.50884
"39691",528.2748,98.39994,130.74701
"39692",528.2881,100.07721,132.99928
"39693",528.3014,100.69001,134.2395
"39694",528.3147,100.30427,134.50032
"39695",528.328,99.0518,133.88237
"39696",528.3413,97.110855,132.53679
"39697",528.3546,94.67185,130.6325
"39698",528.3679,91.91058,128.32973
"39699",528.3812,88.971085,125.762436
"39700",528.39453,85.97055,123.04225
"39701",528.40784,83.01152,120.2698
"39702",528.42114,80.20874,117.56113
"39703",528.43445,77.71114,115.07005
"39704",528.44775,75.69695,112.98434
"39705",528.46106,74.305336,111.45825
"39706",528.47437,73.60464,110.5796
"39707",528.4877,73.56069,110.3358
"39708",528.501,74.0441,110.61798
"39709",528.5143,74.864426,111.25219
"39710",528.5276,75.81903,112.04631
"39711",528.5409,76.74433,112.84096
"39712",528.5542,77.51339,113.50828
"39713",528.5675,78.0383,113.95548
"39714",528.5808,78.29221,114.148094
"39715",528.5941,78.2678,114.07031
"39716",528.6074,77.98215,113.73053
"39717",528.6207,77.469444,113.15477
"39718",528.63403,76.771194,112.37744
"39719",528.64734,75.931335,111.43668
"39720",528.66064,75.001144,110.37935
"39721",528.67395,74.02945,109.25144
"39722",528.68726,73.06264,108.09805
"39723",528.70056,72.14465,106.96328
"39724",528.71387,71.30724,105.88039
"39725",528.7272,70.56504,104.86653
"39726",528.7405,69.93515,103.941795
"39727",528.7538,69.41512,103.10724
"39728",528.7671,69.00252,102.36385
"39729",528.7804,68.680244,101.69791
"39730",528.7937,68.44343,101.107346
"39731",528.807,68.34089,100.64366
"39732",528.8203,68.558174,100.4966
"39733",528.8336,69.42245,101.00331
"39734",528.8469,71.28039,102.5307
"39735",528.8602,74.302895,105.280716
"39736",528.87354,78.399635,109.199425
"39737",528.88684,83.20683,113.95661
"39738",528.90015,88.17517,119.02516
"39739",528.91345,92.72602,123.83148
"39740",528.92676,96.43946,127.94261
"39741",528.94006,99.107956,131.12485
"39742",528.95337,100.680244,133.29427
"39743",528.9667,101.18318,134.44347
"39744",528.98,100.71198,134.63425
"39745",528.9933,99.39849,133.968
"39746",529.0066,97.41848,132.5942
"39747",529.0199,94.95018,130.67023
"39748",529.0332,92.16937,128.35661
"39749",529.0465,89.20302,125.77055
"39750",529.0598,86.16586,123.020996
"39751",529.0731,83.17021,120.218025
"39752",529.0864,80.35279,117.49967
"39753",529.09973,77.874725,115.03263
"39754",529.11304,75.91913,113.01062
"39755",529.12634,74.617836,111.5818
"39756",529.13965,74.02457,110.82034
"39757",529.15295,74.08072,110.689766
"39758",529.16626,74.63981,111.06388
"39759",529.17957,75.4992,111.75577
"39760",529.1929,76.46845,112.58437
"39761",529.2062,77.37667,113.38223
"39762",529.2195,78.11154,114.035126
"39763",529.2328,78.59739,114.46196
"39764",529.2461,78.80736,114.6281
"39765",529.2594,78.74143,114.5249
"39766",529.2727,78.41917,114.16331
"39767",529.286,77.87961,113.57435
"39768",529.2993,77.16426,112.79274
"39769",529.3126,76.32441,111.86427
"39770",529.3259,75.406425,110.83143
"39771",529.33923,74.46403,109.74548
"39772",529.35254,73.53384,108.642296
"39773",529.36584,72.6598,107.56619
"39774",529.37915,71.85901,106.536026
"39775",529.39246,71.1461,105.56871
"39776",529.40576,70.52842,104.67435
"39777",529.41907,70.00351,103.85345
"39778",529.4324,69.556725,103.09427
"39779",529.4457,69.18562,102.39681
"39780",529.459,68.89754,101.770775
"39781",529.4723,68.795,101.32128
"39782",529.4856,69.12947,101.305595
"39783",529.4989,70.26963,102.10605
"39784",529.5122,72.52552,104.05786
"39785",529.5255,75.98505,107.28381
"39786",529.5388,80.445564,111.618866
"39787",529.5521,85.46029,116.647514
"39788",529.5654,90.43351,121.79137
"39789",529.57874,94.80858,126.492485
"39790",529.59204,98.23392,130.38058
"39791",529.60535,100.55573,133.27222
"39792",529.61865,101.76181,135.12067
"39793",529.63196,101.90097,135.93988
"39794",529.64526,101.085526,135.80884
"39795",529.65857,99.476616,134.85886
"39796",529.6719,97.25979,133.25067
"39797",529.6852,94.6157,131.14595
"39798",529.6985,91.7055,128.69249
"39799",529.7118,88.65125,126.00404
"39800",529.7251,85.56527,123.188416
"39801",529.7384,82.56718,120.364235
"39802",529.7517,79.79614,117.67342
"39803",529.765,77.420616,115.29153
"39804",529.7783,75.60174,113.392044
"39805",529.7916,74.45426,112.107124
"39806",529.80493,73.99771,111.47727
"39807",529.81824,74.14664,111.43863
"39808",529.83154,74.737465,111.84654
"39809",529.84485,75.577324,112.52195
"39810",529.85815,76.47822,113.28464
"39811",529.87146,77.2839,113.98026
"39812",529.88477,77.89426,114.505745
"39813",529.8981,78.25315,114.798836
"39814",529.9114,78.331276,114.82237
"39815",529.9247,78.1384,114.57735
"39816",529.938,77.70626,114.087036
"39817",529.9513,77.07149,113.380585
"39818",529.9646,76.27802,112.495605
"39819",529.9779,75.38201,111.483284
"39820",529.9912,74.424965,110.38193
"39821",530.0045,73.45083,109.233574
"39822",530.0178,72.51087,108.08896
"39823",530.0311,71.62951,106.97356
"39824",530.04443,70.83116,105.913635
"39825",530.05774,70.12558,104.921524
"39826",530.07104,69.5201,104.00747
"39827",530.08435,69.00252,103.162384
"39828",530.09766,68.5655,102.38169
"39829",530.11096,68.206604,101.66547
"39830",530.12427,67.98932,101.079636
"39831",530.1376,68.11871,100.833694
"39832",530.1509,68.95125,101.29494
"39833",530.1642,70.872665,102.87108
"39834",530.1775,74.07095,105.784134
"39835",530.1908,78.43626,109.96416
"39836",530.2041,83.560844,115.03988
"39837",530.2174,88.84413,120.43444
"39838",530.2307,93.65621,125.5229
"39839",530.244,97.547874,129.84132
"39840",530.2573,100.316475,133.1583
"39841",530.2706,101.93027,135.40698
"39842",530.28394,102.43809,136.60013
"39843",530.29724,101.9498,136.81303
"39844",530.31055,100.611885,136.16106
"39845",530.32385,98.60258,134.79587
"39846",530.33716,96.10986,132.88449
"39847",530.35046,93.30709,130.58514
"39848",530.3638,90.33097,128.02487
"39849",530.3771,87.28649,125.30324
"39850",530.3904,84.27375,122.5182
"39851",530.4037,81.40749,119.7855
"39852",530.417,78.83177,117.25376
"39853",530.4303,76.70283,115.08831
"39854",530.4436,75.16228,113.444725
"39855",530.4569,74.288246,112.41952
"39856",530.4702,74.05386,112.006645
"39857",530.4835,74.34928,112.11625
"39858",530.4968,75.003586,112.59397
"39859",530.51013,75.82391,113.25816
"39860",530.52344,76.63691,113.94066
"39861",530.53674,77.315636,114.51429
"39862",530.55005,77.77707,114.89184
"39863",530.56335,77.97238,115.017685
"39864",530.57666,77.8967,114.87864
"39865",530.58997,77.56466,114.48087
"39866",530.6033,77.01289,113.853004
"39867",530.6166,76.27802,113.02479
"39868",530.6299,75.41131,112.04176
"39869",530.6432,74.4567,110.94376
"39870",530.6565,73.46548,109.77931
"39871",530.6698,72.47913,108.58877
"39872",530.6831,71.54894,107.42355
"39873",530.6964,70.70908,106.319595
"39874",530.7097,69.979095,105.29926
"39875",530.723,69.37118,104.37819
"39876",530.7363,68.88533,103.56019
"39877",530.74963,68.50202,102.829544
"39878",530.76294,68.20416,102.17237
"39879",530.77625,67.97711,101.5767
"39880",530.78955,67.84039,101.06426
"39881",530.80286,67.947815,100.791695
"39882",530.81616,68.63142,101.09866
"39883",530.82947,70.29893,102.410904
"39884",530.8428,73.216446,105.02526
"39885",530.8561,77.37179,108.96862
"39886",530.8694,82.442665,113.95737
"39887",530.8827,87.86511,119.45615
"39888",530.896,92.97261,124.80943
"39889",530.9093,97.23781,129.48003
"39890",530.9226,100.38972,133.17062
"39891",530.9359,102.35508,135.77316
"39892",530.9492,103.17296,137.28964
"39893",530.9625,102.941025,137.78186
"39894",530.9758,101.8082,137.36594
"39895",530.98914,99.96002,136.19926
"39896",531.00244,97.59182,134.45482
"39897",531.01575,94.87938,132.29211
"39898",531.02905,91.97894,129.85666
"39899",531.04236,89.00038,127.25244
"39900",531.05566,86.03891,124.572235
"39901",531.069,83.20439,121.92643
"39902",531.0823,80.62379,119.44596
"39903",531.0956,78.44358,117.28525
"39904",531.1089,76.79317,115.5862
"39905",531.1222,75.74334,114.43616
"39906",531.1355,75.29656,113.85636
"39907",531.1488,75.36492,113.77774
"39908",531.1621,75.80194,114.069916
"39909",531.1754,76.44404,114.580826
"39910",531.1887,77.13252,115.15819
"39911",531.202,77.738,115.67406
"39912",531.21533,78.16037,116.02574
"39913",531.22864,78.345924,116.15381
"39914",531.24194,78.27268,116.02888
"39915",531.25525,77.945526,115.64774
"39916",531.26855,77.38644,115.02445
"39917",531.28186,76.63935,114.195694
"39918",531.29517,75.74334,113.194664
"39919",531.3085,74.74479,112.063095
"39920",531.3218,73.69741,110.851494
"39921",531.3351,72.654915,109.612045
"39922",531.3484,71.656364,108.38396
"39923",531.3617,70.750595,107.21745
"39924",531.375,69.96689,106.1447
"39925",531.3883,69.32723,105.191505
"39926",531.4016,68.82918,104.359924
"39927",531.4149,68.472725,103.65438
"39928",531.4282,68.2359,103.05733
"39929",531.4415,68.08453,102.53833
"39930",531.45483,67.99176,102.0732
"39931",531.46814,67.94293,101.64911
"39932",531.48145,67.96246,101.291855
"39933",531.49475,68.20172,101.15494
"39934",531.50806,68.95857,101.54309
"39935",531.52136,70.58701,102.826485
"39936",531.53467,73.31655,105.26186
"39937",531.548,77.12276,108.859215
"39938",531.5613,81.71511,113.36166
"39939",531.5746,86.58091,118.28105
"39940",531.5879,91.141525,123.04732
"39941",531.6012,94.923325,127.17729
"39942",531.6145,97.68215,130.40247
"39943",531.6278,99.354546,132.62743
"39944",531.6411,99.981995,133.85971
"39945",531.6544,99.667046,134.1692
"39946",531.6677,98.55375,133.6705
"39947",531.681,96.80812,132.50468
"39948",531.69434,94.61082,130.83264
"39949",531.70764,92.11566,128.79407
"39950",531.72095,89.44717,126.50419
"39951",531.73425,86.712746,124.064995
"39952",531.74756,84.00763,121.56965
"39953",531.76086,81.43923,119.12649
"39954",531.7742,79.13695,116.86918
"39955",531.7875,77.24483,114.95009
"39956",531.8008,75.87518,113.49435
"39957",531.8141,75.07927,112.569534
"39958",531.8274,74.83269,112.16918
"39959",531.8407,75.037766,112.21278
"39960",531.854,75.54803,112.56798
"39961",531.8673,76.20233,113.08316
"39962",531.8806,76.8542,113.616356
"39963",531.8939,77.39132,114.05517
"39964",531.9072,77.73556,114.31789
"39965",531.92053,77.84543,114.356995
"39966",531.93384,77.713585,114.15782
"39967",531.94714,77.349815,113.7226
"39968",531.96045,76.78584,113.07581
"39969",531.97375,76.05585,112.24538
"39970",531.98706,75.211105,111.27738
"39971",532.00037,74.29557,110.2122
"39972",532.0137,73.36294,109.1013
"39973",532.027,72.45472,107.98568
"39974",532.0403,71.61974,106.91492
"39975",532.0536,70.88487,105.91817
"39976",532.0669,70.27451,105.022964
"39977",532.0802,69.788666,104.23319
"39978",532.0935,69.42489,103.55031
"39979",532.1068,69.16365,102.958595
"39980",532.1201,68.98543,102.441734
"39981",532.1334,68.8658,101.9779
"39982",532.1467,68.790115,101.55427
"39983",532.16003,68.76814,101.181984
"39984",532.17334,68.858475,100.92132
"39985",532.18665,69.23201,100.94668
"39986",532.19995,70.16708,101.54525
"39987",532.21326,71.92493,102.99581
"39988",532.22656,74.62272,105.44125
"39989",532.23987,78.16037,108.81087
"39990",532.2532,82.22293,112.81594
"39991",532.2665,86.348976,117.01145
"39992",532.2798,90.07706,120.937935
"39993",532.2931,93.06294,124.23873
"39994",532.3064,95.150375,126.73438
"39995",532.3197,96.31251,128.36996
"39996",532.333,96.59327,129.16049
"39997",532.3463,96.08789,129.17365
"39998",532.3596,94.925766,128.51427
"39999",532.3729,93.25582,127.31075
"40000",532.3862,91.22453,125.69371
"40001",532.39954,88.956436,123.77638
"40002",532.41284,86.554054,121.653885
"40003",532.42615,84.1004,119.405045
"40004",532.43945,81.69802,117.1308
"40005",532.45276,79.47143,114.95727
"40006",532.46606,77.56222,113.03154
"40007",532.4794,76.10712,111.50026
"40008",532.4927,75.1989,110.47039
"40009",532.506,74.84245,109.96391
"40010",532.5193,74.966965,109.92725
"40011",532.5326,75.43572,110.23873
"40012",532.5459,76.102234,110.76261
"40013",532.5592,76.81514,111.353714
"40014",532.5725,77.45724,111.896286
"40015",532.5858,77.945526,112.305115
"40016",532.5991,78.221405,112.51679
"40017",532.6124,78.27024,112.51005
"40018",532.62573,78.09201,112.27776
"40019",532.63904,77.71114,111.83727
"40020",532.65234,77.16182,111.21642
"40021",532.66565,76.4831,110.44901
"40022",532.67896,75.716484,109.572495
"40023",532.69226,74.90837,108.63052
"40024",532.70557,74.09781,107.66085
"40025",532.7189,73.32632,106.70492
"40026",532.7322,72.62806,105.79811
"40027",532.7455,72.03479,104.97447
"40028",532.7588,71.55627,104.24704
"40029",532.7721,71.19005,103.61696
"40030",532.7854,70.92882,103.080414
"40031",532.7987,70.748146,102.61627
"40032",532.812,70.626076,102.20508
"40033",532.8253,70.54307,101.82913
"40034",532.8386,70.4918,101.48233
"40035",532.8519,70.484474,101.17787
"40036",532.86523,70.59434,100.99037
"40037",532.87854,70.992294,101.0944
"40038",532.89185,71.920044,101.74066
"40039",532.90515,73.6144,103.182526
"40040",532.91846,76.173035,105.54161
"40041",532.93176,79.49096,108.739944
"40042",532.94507,83.26299,112.49607
"40043",532.9584,87.0692,116.40424
"40044",532.9717,90.48722,120.043175
"40045",532.985,93.21675,123.10043
"40046",532.9983,95.113754,125.41046
"40047",533.0116,96.15625,126.92526
"40048",533.0249,96.38819,127.66209
"40049",533.0382,95.89014,127.67616
"40050",533.0515,94.77928,127.061874
"40051",533.0648,93.187454,125.9319
"40052",533.0781,91.24162,124.39818
"40053",533.09143,89.06142,122.569275
"40054",533.10474,86.729836,120.52086
"40055",533.11804,84.34211,118.34344
"40056",533.13135,82.01053,116.147545
"40057",533.14465,79.86206,114.061905
"40058",533.15796,78.05295,112.24848
"40059",533.17126,76.717476,110.852165
"40060",533.1846,75.931335,109.96345
"40061",533.1979,75.69451,109.59948
"40062",533.2112,75.92401,109.694435
"40063",533.2245,76.47822,110.12127
"40064",533.2378,77.19844,110.73144
"40065",533.2511,77.94064,111.38609
"40066",533.2644,78.590065,111.97116
"40067",533.2777,79.07347,112.41051
"40068",533.291,79.33959,112.647675
"40069",533.3043,79.381096,112.66854
"40070",533.3176,79.1931,112.461205
"40071",533.33093,78.79759,112.04048
"40072",533.34424,78.23117,111.436485
"40073",533.35754,77.53292,110.68296
"40074",533.37085,76.749214,109.82216
"40075",533.38416,75.928894,108.90025
"40076",533.39746,75.11589,107.96003
"40077",533.41077,74.34928,107.040794
"40078",533.4241,73.65591,106.17084
"40079",533.4374,73.057755,105.374435
"40080",533.4507,72.567024,104.66676
"40081",533.464,72.18616,104.05362
"40082",533.4773,71.902954,103.52623
"40083",533.4906,71.70031,103.07056
"40084",533.5039,71.55871,102.669586
"40085",533.5172,71.46349,102.31058
"40086",533.5305,71.397575,101.97789
"40087",533.5438,71.35851,101.67
"40088",533.5571,71.378044,101.41948
"40089",533.57043,71.56603,101.33803
"40090",533.58374,72.11536,101.623795
"40091",533.59705,73.270164,102.53221
"40092",533.61035,75.194016,104.24576
"40093",533.62366,77.88937,106.79093
"40094",533.63696,81.16823,110.00383
"40095",533.65027,84.68635,113.55846
"40096",533.6636,88.03601,117.054565
"40097",533.6769,90.86565,120.13533
"40098",533.6902,92.96773,122.576965
"40099",533.7035,94.2739,124.28838
"40100",533.7168,94.79881,125.25935
"40101",533.7301,94.60105,125.524055
"40102",533.7434,93.785614,125.1649
"40103",533.7567,92.472115,124.2822
"40104",533.77,90.777756,122.9776
"40105",533.7833,88.814835,121.35149
"40106",533.79663,86.67368,119.485794
"40107",533.80994,84.44221,117.46287
"40108",533.82324,82.21561,115.375084
"40109",533.83655,80.113525,113.34224
"40110",533.84985,78.2678,111.50006
"40111",533.86316,76.81758,109.99571
"40112",533.87646,75.85809,108.936775
"40113",533.8898,75.41863,108.36788
"40114",533.9031,75.45525,108.26134
"40115",533.9164,75.85809,108.522156
"40116",533.9297,76.48554,109.02017
"40117",533.943,77.19112,109.61592
"40118",533.9563,77.85275,110.18978
"40119",533.9696,78.37522,110.64515
"40120",533.9829,78.70725,110.92641
"40121",533.9962,78.82201,111.00076
"40122",534.0095,78.72434,110.86629
"40123",534.0228,78.433815,110.5359
"40124",534.03613,77.979706,110.032845
"40125",534.04944,77.3962,109.38621
"40126",534.06274,76.72724,108.63588
"40127",534.07605,76.01434,107.82071
"40128",534.08936,75.29168,106.973495
"40129",534.10266,74.600746,106.13543
"40130",534.11597,73.9733,105.33926
"40131",534.1293,73.41909,104.59672
"40132",534.1426,72.94545,103.91743
"40133",534.1559,72.552376,103.3039
"40134",534.1692,72.2301,102.748886
"40135",534.1825,71.95911,102.23508
"40136",534.1958,71.74181,101.76651
"40137",534.2091,71.58556,101.35219
"40138",534.2224,71.505,101.00867
"40139",534.2357,71.568474,100.80667
"40140",534.249,71.91028,100.884995
"40141",534.2623,72.71839,101.44031
"40142",534.27563,74.14908,102.64345
"40143",534.28894,76.24628,104.55781
"40144",534.30225,78.89525,107.08948
"40145",534.31555,81.846954,110.00666
"40146",534.32886,84.75716,112.97458
"40147",534.34216,87.30114,115.66722
"40148",534.35547,89.26162,117.855865
"40149",534.3688,90.53849,119.422165
"40150",534.3821,91.13176,120.344765
"40151",534.3954,91.087814,120.64869
"40152",534.4087,90.48234,120.38971
"40153",534.422,89.41543,119.650375
"40154",534.4353,87.98718,118.516365
"40155",534.4486,86.29038,117.06917
"40156",534.4619,84.403145,115.3785
"40157",534.4752,82.388954,113.50191
"40158",534.4885,80.34547,111.53307
"40159",534.50183,78.38987,109.58827
"40160",534.51514,76.67841,107.8265
"40161",534.52844,75.36248,106.40677
"40162",534.54175,74.56901,105.468376
"40163",534.55505,74.32975,105.0594
"40164",534.56836,74.60319,105.15565
"40165",534.58167,75.2575,105.64131
"40166",534.595,76.13397,106.36958
"40167",534.6083,77.06416,107.17896
"40168",534.6216,77.92355,107.94661
"40169",534.6349,78.61448,108.57265
"40170",534.6482,79.09544,109.010315
"40171",534.6615,79.34692,109.23352
"40172",534.6748,79.381096,109.24729
"40173",534.6881,79.22484,109.07169
"40174",534.7014,78.907455,108.73009
"40175",534.7147,78.46311,108.2516
"40176",534.728,77.925995,107.66646
"40177",534.74133,77.330284,107.005936
"40178",534.75464,76.70771,106.299934
"40179",534.76794,76.09247,105.58181
"40180",534.78125,75.50408,104.871315
"40181",534.79456,74.95964,104.18638
"40182",534.80786,74.46891,103.53814
"40183",534.82117,74.04166,102.93804
"40184",534.8345,73.6852,102.39539
"40185",534.8478,73.42153,101.93439
"40186",534.8611,73.29702,101.6043
"40187",534.8744,73.4313,101.52911
"40188",534.8877,74.005035,101.89758
"40189",534.901,75.18425,102.88946
"40190",534.9143,77.0251,104.57982
"40191",534.9276,79.432365,106.89412
"40192",534.9409,82.178986,109.623
"40193",534.9542,84.93294,112.445045
"40194",534.9675,87.37194,115.0382
"40195",534.98083,89.27383,117.170456
"40196",534.99414,90.54337,118.72981
"40197",535.00745,91.16594,119.68186
"40198",535.02075,91.18547,120.05033
"40199",535.03406,90.667885,119.88229
"40200",535.04736,89.703514,119.2513
"40201",535.06067,88.38514,118.23616
"40202",535.074,86.800644,116.9137
"40203",535.0873,85.01839,115.343956
"40204",535.1006,83.106735,113.58913
"40205",535.1139,81.15846,111.73794
"40206",535.1272,79.28344,109.89912
"40207",535.1405,77.63058,108.22386
"40208",535.1538,76.34638,106.86562
"40209",535.1671,75.54803,105.953094
"40210",535.1804,75.26971,105.53565
"40211",535.1937,75.47967,105.59779
"40212",535.20703,76.05829,106.03516
"40213",535.22034,76.8542,106.70789
"40214",535.23364,77.71847,107.473854
"40215",535.24695,78.52659,108.21068
"40216",535.26025,79.183334,108.82138
"40217",535.27356,79.64477,109.25729
"40218",535.28687,79.89136,109.49278
"40219",535.3002,79.937744,109.535774
"40220",535.3135,79.798584,109.39467
"40221",535.3268,79.51293,109.10272
"40222",535.3401,79.10277,108.67734
"40223",535.3534,78.6096,108.15613
"40224",535.3667,78.06027,107.563354
"40225",535.38,77.48409,106.92656
"40226",535.3933,76.90791,106.27176
"40227",535.4066,76.34394,105.61116
"40228",535.4199,75.809265,104.962234
"40229",535.4332,75.32098,104.34299
"40230",535.44653,74.90593,103.78172
"40231",535.45984,74.666664,103.38327
"40232",535.47314,74.76921,103.31915
"40233",535.48645,75.42596,103.81244
"40234",535.49976,76.77852,105.022064
"40235",535.51306,78.84154,106.98441
"40236",535.52637,81.45876,109.56544
"40237",535.5397,84.33967,112.49193
"40238",535.553,87.13023,115.418106
"40239",535.5663,89.52529,118.03598
"40240",535.5796,91.32952,120.13788
"40241",535.5929,92.472115,121.63452
"40242",535.6062,92.962845,122.51501
"40243",535.6195,92.85542,122.812675
"40244",535.6328,92.23285,122.591835
"40245",535.6461,91.20012,121.94138
"40246",535.6594,89.864655,120.955925
"40247",535.6727,88.31678,119.716324
"40248",535.68604,86.63218,118.291626
"40249",535.69934,84.874344,116.74104
"40250",535.71265,83.10918,115.1282
"40251",535.72595,81.41726,113.53344
"40252",535.73926,79.906006,112.066475
"40253",535.75256,78.68528,110.84281
"40254",535.76587,77.84787,109.96432
"40255",535.7792,77.43038,109.479576
"40256",535.7925,77.40841,109.377304
"40257",535.8058,77.70626,109.59417
"40258",535.8191,78.20187,110.018105
"40259",535.8324,78.77806,110.5381
"40260",535.8457,79.32983,111.05168
"40261",535.859,79.77661,111.47752
"40262",535.8723,80.06958,111.76351
"40263",535.8856,80.184326,111.88043
"40264",535.8989,80.12573,111.8276
"40265",535.91223,79.91089,111.616684
"40266",535.92554,79.56664,111.26965
"40267",535.93884,79.12718,110.81665
"40268",535.95215,78.61204,110.27423
"40269",535.96545,78.05051,109.66933
"40270",535.97876,77.467,109.0249
"40271",535.99207,76.87862,108.35736
"40272",536.0054,76.30732,107.68852
"40273",536.0187,75.77997,107.04578
"40274",536.032,75.36004,106.49397
"40275",536.0453,75.18425,106.17319
"40276",536.0586,75.45281,106.29126
"40277",536.0719,76.36103,107.05738
"40278",536.0852,77.996796,108.57943
"40279",536.0985,80.29908,110.819115
"40280",536.1118,83.038376,113.56776
"40281",536.1251,85.88266,116.50699
"40282",536.1384,88.49012,119.29828
"40283",536.15173,90.597084,121.67056
"40284",536.16504,92.08392,123.48856
"40285",536.17834,92.91646,124.69872
"40286",536.19165,93.1313,125.31721
"40287",536.20496,92.79683,125.39309
"40288",536.21826,92.02289,125.01905
"40289",536.23157,90.91203,124.28391
"40290",536.2449,89.57412,123.287
"40291",536.2582,88.097046,122.10912
"40292",536.2715,86.54429,120.8094
"40293",536.2848,84.964676,119.434296
"40294",536.2981,83.407036,118.0318
"40295",536.3114,81.92508,116.65631
"40296",536.3247,80.604256,115.395645
"40297",536.338,79.520256,114.33053
"40298",536.3513,78.73411,113.52939
"40299",536.3646,78.27024,113.02596
"40300",536.3779,78.10666,112.80833
"40301",536.39124,78.18234,112.824844
"40302",536.40454,78.42161,113.00731
"40303",536.41785,78.73167,113.26804
"40304",536.43115,79.03197,113.52871
"40305",536.44446,79.26391,113.7304
"40306",536.45776,79.378654,113.82214
"40307",536.47107,79.3518,113.77587
"40308",536.4844,79.18089,113.58471
"40309",536.4977,78.887924,113.26614
"40310",536.511,78.485085,112.82855
"40311",536.5243,78.00168,112.297806
"40312",536.5376,77.467,111.70068
"40313",536.5509,76.895706,111.05023
"40314",536.5642,76.30488,110.3624
"40315",536.5775,75.7116,109.65365
"40316",536.5908,75.140305,108.94834
"40317",536.6041,74.63004,108.28622
"40318",536.61743,74.28092,107.76929
"40319",536.63074,74.268715,107.57836
"40320",536.64404,74.80095,107.931496
"40321",536.65735,76.02899,108.99707
"40322",536.67065,77.98459,110.828575
"40323",536.68396,80.53834,113.31934
"40324",536.69727,83.40948,116.207306
"40325",536.7106,86.25132,119.15569
"40326",536.7239,88.74891,121.84863
"40327",536.7372,90.6923,124.06543
"40328",536.7505,91.983826,125.69109
"40329",536.7638,92.62104,126.702805
"40330",536.7771,92.65522,127.13139
"40331",536.7904,92.17914,127.05079
"40332",536.8037,91.30755,126.5598
"40333",536.817,90.15762,125.76324
"40334",536.8303,88.834366,124.75741
"40335",536.8436,87.40856,123.60768
"40336",536.85693,85.93149,122.36212
"40337",536.87024,84.437325,121.053314
"40338",536.88354,82.96513,119.71979
"40339",536.89685,81.57595,118.42326
"40340",536.91016,80.33814,117.2347
"40341",536.92346,79.3225,116.22963
"40342",536.93677,78.57786,115.46381
"40343",536.9501,78.12131,114.96282
"40344",536.9634,77.92355,114.70636
"40345",536.9767,77.93576,114.65368
"40346",536.99,78.08469,114.7381
"40347",537.0033,78.28489,114.87845
"40348",537.0166,78.470436,115.0104
"40349",537.0299,78.58274,115.074905
"40350",537.0432,78.58518,115.03306
"40351",537.0565,78.46555,114.86922
"40352",537.0698,78.22385,114.57956
"40353",537.0831,77.872284,114.17249
"40354",537.09644,77.437706,113.671425
"40355",537.10974,76.93477,113.08842
"40356",537.12305,76.39765,112.45551
"40357",537.13635,75.83856,111.78385
"40358",537.14966,75.27459,111.089836
"40359",537.16296,74.71549,110.38307
"40360",537.1763,74.178375,109.68082
"40361",537.1896,73.68032,109.00084
"40362",537.2029,73.255516,108.37855
"40363",537.2162,73.00404,107.91631
"40364",537.2295,73.08705,107.7807
"40365",537.2428,73.721825,108.19945
"40366",537.2561,75.054855,109.33629
"40367",537.2694,77.12276,111.24966
"40368",537.2827,79.798584,113.83557
"40369",537.296,82.811325,116.84202
"40370",537.3093,85.80698,119.92552
"40371",537.32263,88.463264,122.763275
"40372",537.33594,90.55558,125.12007
"40373",537.34924,91.981384,126.87574
"40374",537.36255,92.72114,127.989914
"40375",537.37585,92.81392,128.48022
"40376",537.38916,92.35493,128.42166
"40377",537.40247,91.46868,127.92151
"40378",537.4158,90.284584,127.09581
"40379",537.4291,88.91493,126.047554
"40380",537.4424,87.44274,124.85396
"40381",537.4557,85.92172,123.56552
"40382",537.469,84.3885,122.21735
"40383",537.4823,82.87724,120.84323
"40384",537.4956,81.446556,119.50246
"40385",537.5089,80.16724,118.26834
"40386",537.5222,79.10277,117.2091
"40387",537.5355,78.3093,116.387596
"40388",537.5488,77.80148,115.82694
"40389",537.56213,77.55489,115.51165
"40390",537.57544,77.51827,115.39862
"40391",537.58875,77.62325,115.42605
"40392",537.60205,77.78439,115.51292
"40393",537.61536,77.93332,115.592606
"40394",537.62866,78.00412,115.59882
"40395",537.64197,77.962616,115.49495
"40396",537.6553,77.79172,115.26038
"40397",537.6686,77.49874,114.8984
"40398",537.6819,77.100784,114.42228
"40399",537.6952,76.61738,113.848274
"40400",537.7085,76.07782,113.20301
"40401",537.7218,75.50652,112.50915
"40402",537.7351,74.92302,111.785225
"40403",537.7484,74.354164,111.05772
"40404",537.7617,73.814606,110.34173
"40405",537.775,73.31655,109.65038
"40406",537.7883,72.86977,108.99474
"40407",537.80164,72.47181,108.37397
"40408",537.81494,72.12512,107.79202
"40409",537.82825,71.82727,107.24808
"40410",537.84155,71.59533,106.76074
"40411",537.85486,71.49767,106.40044
"40412",537.86816,71.6881,106.325165
"40413",537.8815,72.3888,106.76611
"40414",537.8948,73.7731,107.91257
"40415",537.9081,75.91913,109.864006
"40416",537.9214,78.72678,112.544136
"40417",537.9347,81.94705,115.72462
"40418",537.948,85.22835,119.06676
"40419",537.9613,88.20935,122.21114
"40420",537.9746,90.6215,124.87984
"40421",537.9879,92.315865,126.90613
"40422",538.0012,93.23872,128.21385
"40423",538.0145,93.42428,128.81311
"40424",538.02783,92.96529,128.77362
"40425",538.04114,92.00824,128.22174
"40426",538.05444,90.69962,127.28838
"40427",538.06775,89.17616,126.09929
"40428",538.08105,87.535515,124.74539
"40429",538.09436,85.841156,123.286514
"40430",538.10767,84.14191,121.7698
"40431",538.121,82.49882,120.25614
"40432",538.1343,80.98024,118.81565
"40433",538.1476,79.66674,117.53278
"40434",538.1609,78.626686,116.482315
"40435",538.1742,77.91135,115.72406
"40436",538.1875,77.51583,115.263275
"40437",538.2008,77.40353,115.07334
"40438",538.2141,77.4963,115.08498
"40439",538.2274,77.71114,115.22158
"40440",538.2407,77.960175,115.399086
"40441",538.254,78.167694,115.54286
"40442",538.26733,78.277565,115.595474
"40443",538.28064,78.260475,115.52456
"40444",538.29395,78.09689,115.30662
"40445",538.30725,77.786835,114.93709
"40446",538.32056,77.347374,114.42847
"40447",538.33386,76.80293,113.80113
"40448",538.34717,76.18036,113.07865
"40449",538.3605,75.51873,112.29766
"40450",538.3738,74.8571,111.495995
"40451",538.3871,74.22476,110.70294
"40452",538.4004,73.64126,109.938965
"40453",538.4137,73.126114,109.22511
"40454",538.427,72.689095,108.57329
"40455",538.4403,72.325325,107.98105
"40456",538.4536,72.02991,107.4458
"40457",538.4669,71.79797,106.9648
"40458",538.4802,71.6173,106.52782
"40459",538.4935,71.47814,106.12669
"40460",538.50684,71.36584,105.74808
"40461",538.52014,71.292595,105.405014
"40462",538.53345,71.31945,105.15976
"40463",538.54675,71.59289,105.16193
"40464",538.56006,72.33021,105.63652
"40465",538.57336,73.73647,106.8031
"40466",538.5867,75.8996,108.77049
"40467",538.6,78.75609,111.49885
"40468",538.6133,82.06912,114.77301
"40469",538.6266,85.47494,118.243484
"40470",538.6399,88.59754,121.53718
"40471",538.6532,91.14641,124.35472
"40472",538.6665,92.9482,126.50484
"40473",538.6798,93.9321,127.89337
"40474",538.6931,94.12253,128.51918
"40475",538.7064,93.60494,128.44292
"40476",538.7197,92.52094,127.78407
"40477",538.73303,91.0219,126.67631
"40478",538.74634,89.26162,125.26047
"40479",538.75964,87.362175,123.65045
"40480",538.77295,85.418785,121.93713
"40481",538.78625,83.49737,120.18505
"40482",538.79956,81.67849,118.475464
"40483",538.81287,80.03784,116.88727
"40484",538.8262,78.66575,115.51636
"40485",538.8395,77.63058,114.43949
"40486",538.8528,76.97383,113.7087
"40487",538.8661,76.6833,113.3236
"40488",538.8794,76.700386,113.237045
"40489",538.8927,76.94209,113.37564
"40490",538.906,77.30099,113.63898
"40491",538.9193,77.67696,113.93061
"40492",538.9326,77.994354,114.17541
"40493",538.9459,78.187225,114.3056
"40494",538.9592,78.21652,114.27825
"40495",538.97253,78.07248,114.078476
"40496",538.98584,77.7551,113.70086
"40497",538.99915,77.29366,113.16927
"40498",539.01245,76.717476,112.508514
"40499",539.02576,76.06317,111.75163
"40500",539.03906,75.36736,110.9328
"40501",539.05237,74.669106,110.089775
"40502",539.0657,73.99771,109.25179
"40503",539.079,73.37026,108.436775
"40504",539.0923,72.81117,107.67051
"40505",539.1056,72.33021,106.9649
"40506",539.1189,71.93225,106.327255
"40507",539.1322,71.622185,105.765076
"40508",539.1455,71.39269,105.27377
"40509",539.1588,71.22911,104.84122
"40510",539.1721,71.11925,104.45726
"40511",539.1854,71.04845,104.10893
"40512",539.1987,71.0045,103.78525
"40513",539.21204,70.98009,103.47972
"40514",539.22534,71.00694,103.2247
"40515",539.23865,71.18028,103.117004
"40516",539.25195,71.68566,103.34677
"40517",539.26526,72.75014,104.15143
"40518",539.27856,74.53727,105.712006
"40519",539.2919,77.086136,108.090164
"40520",539.3052,80.257576,111.17055
"40521",539.3185,83.74639,114.66741
"40522",539.3318,87.166855,118.20495
"40523",539.3451,90.160065,121.42212
"40524",539.3584,92.46723,124.04679
"40525",539.3717,93.95163,125.92079
"40526",539.385,94.58396,126.98911
"40527",539.3983,94.415504,127.276405
"40528",539.4116,93.556114,126.8675
"40529",539.4249,92.15961,125.89462
"40530",539.43823,90.38712,124.50213
"40531",539.45154,88.38514,122.824745
"40532",539.46484,86.27329,120.97493
"40533",539.47815,84.137024,119.0347
"40534",539.49146,82.07156,117.09852
"40535",539.50476,80.164795,115.256485
"40536",539.51807,78.52415,113.62099
"40537",539.5314,77.24727,112.29799
"40538",539.5447,76.404976,111.369675
"40539",539.558,76.00946,110.86182
"40540",539.5713,76.019226,110.74688
"40541",539.5846,76.34394,110.9472
"40542",539.5979,76.86153,111.35053
"40543",539.6112,77.44747,111.8384
"40544",539.6245,77.99924,112.3104
"40545",539.6378,78.42649,112.67513
"40546",539.6511,78.6804,112.87987
"40547",539.6644,78.729225,112.88746
"40548",539.67773,78.57542,112.69394
"40549",539.69104,78.23605,112.31006
"40550",539.70435,77.74044,111.75932
"40551",539.71765,77.12764,111.07591
"40552",539.73096,76.439156,110.29767
"40553",539.74426,75.71404,109.46128
"40554",539.75757,74.986496,108.5998
"40555",539.7709,74.29069,107.74732
"40556",539.7842,73.651024,106.929245
"40557",539.7975,73.08949,106.16931
"40558",539.8108,72.61829,105.48216
"40559",539.8241,72.24231,104.8755
"40560",539.8374,71.95911,104.34987
"40561",539.8507,71.76135,103.90083
"40562",539.864,71.641716,103.52374
"40563",539.8773,71.58312,103.20395
"40564",539.8906,71.56603,102.92383
"40565",539.90393,71.58068,102.67491
"40566",539.91724,71.61486,102.445984
"40567",539.93054,71.67101,102.2401
"40568",539.94385,71.817505,102.12631
"40569",539.95715,72.21057,102.26367
"40570",539.97046,73.08461,102.89429
"40571",539.98376,74.65934,104.252914
"40572",539.9971,77.0251,106.45178
"40573",540.0104,80.113525,109.44724
"40574",540.0237,83.67315,113.010414
"40575",540.037,87.31823,116.77028
"40576",540.0503,90.65568,120.336426
"40577",540.0636,93.37789,123.39163
"40578",540.0769,95.294426,125.72623
"40579",540.0902,96.327156,127.23691
"40580",540.1035,96.49073,127.910706
"40581",540.1168,95.868164,127.803474
"40582",540.1301,94.59861,127.0298
"40583",540.14343,92.843216,125.73061
"40584",540.15674,90.76311,124.05186
"40585",540.17004,88.497444,122.12254
"40586",540.18335,86.1561,120.04674
"40587",540.19666,83.83917,117.92219
"40588",540.20996,81.65652,115.859505
"40589",540.22327,79.72289,113.977646
"40590",540.2366,78.16037,112.40646
"40591",540.2499,77.066605,111.25521
"40592",540.2632,76.4831,110.58004
"40593",540.2765,76.385445,110.37248
"40594",540.2898,76.68574,110.55982
"40595",540.3031,77.24971,111.020226
"40596",540.3164,77.9382,111.62277
"40597",540.3297,78.6218,112.24194
"40598",540.343,79.19554,112.77261
"40599",540.3563,79.59838,113.150314
"40600",540.3696,79.783936,113.32332
"40601",540.38293,79.744865,113.2775
"40602",540.39624,79.49096,113.01562
"40603",540.40955,79.04906,112.55781
"40604",540.42285,78.45579,111.93482
"40605",540.43616,77.7551,111.185875
"40606",540.44946,76.98848,110.349106
"40607",540.46277,76.19745,109.46397
"40608",540.4761,75.41863,108.56632
"40609",540.4894,74.68131,107.68584
"40610",540.5027,74.00748,106.845795
"40611",540.516,73.42153,106.072586
"40612",540.5293,72.9308,105.37628
"40613",540.5426,72.53773,104.7623
"40614",540.5559,72.23987,104.23125
"40615",540.5692,72.025024,103.773895
"40616",540.5825,71.88342,103.38307
"40617",540.5958,71.79797,103.043976
"40618",540.60913,71.75159,102.74127
"40619",540.62244,71.73205,102.463974
"40620",540.63574,71.73937,102.21292
"40621",540.64905,71.82483,102.04024
"40622",540.66235,72.13489,102.09482
"40623",540.67566,72.90883,102.62297
"40624",540.68896,74.390785,103.88333
"40625",540.7023,76.70771,106.02497
"40626",540.7156,79.81323,109.02761
"40627",540.7289,83.47295,112.681496
"40628",540.7422,87.29626,116.61333
"40629",540.7555,90.87053,120.4156
"40630",540.7688,93.85153,123.73631
"40631",540.7821,96.024414,126.34206
"40632",540.7954,97.29641,128.1148
"40633",540.8087,97.66018,129.01909
"40634",540.822,97.17677,129.08755
"40635",540.8353,95.96582,128.41338
"40636",540.84863,94.18356,127.13005
"40637",540.86194,91.99603,125.38576
"40638",540.87524,89.56191,123.326515
"40639",540.88855,87.01305,121.07646
"40640",540.90186,84.456856,118.739426
"40641",540.91516,82.00809,116.42993
"40642",540.92847,79.78882,114.273415
"40643",540.9418,77.94064,112.41864
"40644",540.9551,76.59052,111.004166
"40645",540.9684,75.809265,110.11636
"40646",540.9817,75.60662,109.78276
"40647",540.995,75.8996,109.938446
"40648",541.0083,76.54902,110.45973
"40649",541.0216,77.38155,111.184425
"40650",541.0349,78.24338,111.964424
"40651",541.0482,79.01488,112.68103
"40652",541.0615,79.603264,113.23863
"40653",541.0748,79.957275,113.580246
"40654",541.08813,80.05493,113.67657
"40655",541.10144,79.90112,113.524475
"40656",541.11475,79.52514,113.1454
"40657",541.12805,78.96605,112.57147
"40658",541.14136,78.26536,111.83847
"40659",541.15466,77.47433,110.99323
"40660",541.16797,76.63447,110.07445
"40661",541.1813,75.78241,109.11722
"40662",541.1946,74.9572,108.16021
"40663",541.2079,74.18814,107.23357
"40664",541.2212,73.497215,106.36102
"40665",541.2345,72.903946,105.564545
"40666",541.2478,72.410774,104.849625
"40667",541.2611,72.02258,104.22427
"40668",541.2744,71.73449,103.68689
"40669",541.2877,71.52209,103.21619
"40670",541.301,71.380486,102.80965
"40671",541.31433,71.28771,102.44751
"40672",541.32764,71.23155,102.119095
"40673",541.34094,71.22667,101.840195
"40674",541.35425,71.38293,101.72229
"40675",541.36755,71.91516,101.985245
"40676",541.38086,73.091934,102.90936
"40677",541.39417,75.1281,104.72965
"40678",541.4075,78.065155,107.514465
"40679",541.4208,81.72732,111.116165
"40680",541.4341,85.76059,115.203415
"40681",541.4474,89.723045,119.34589
"40682",541.4607,93.19722,123.12391
"40683",541.474,95.90967,126.24877
"40684",541.4873,97.71877,128.55505
"40685",541.5006,98.57328,129.96327
"40686",541.5139,98.50492,130.47533
"40687",541.5272,97.60647,130.15515
"40688",541.5405,96.024414,129.12329
"40689",541.55383,93.92233,127.52197
"40690",541.56714,91.47112,125.50584
"40691",541.58044,88.814835,123.20802
"40692",541.59375,86.07553,120.74419
"40693",541.60706,83.36065,118.21916
"40694",541.62036,80.797134,115.760666
"40695",541.63367,78.52903,113.51747
"40696",541.647,76.71259,111.65507
"40697",541.6603,75.474785,110.31453
"40698",541.6736,74.87663,109.57497
"40699",541.6869,74.8864,109.42463
"40700",541.7002,75.39422,109.77265
"40701",541.7135,76.224304,110.45881
"40702",541.7268,77.196,111.312515
"40703",541.7401,78.14816,112.177055
"40704",541.7534,78.96361,112.93463
"40705",541.7667,79.55688,113.495514
"40706",541.78,79.888916,113.813705
"40707",541.79333,79.94507,113.86639
"40708",541.80664,79.744865,113.66447
"40709",541.81995,79.31518,113.22681
"40710",541.83325,78.70481,112.59504
"40711",541.84656,77.95285,111.802605
"40712",541.85986,77.11299,110.89877
"40713",541.87317,76.226746,109.92231
"40714",541.8865,75.335625,108.91328
"40715",541.8998,74.476234,107.90813
"40716",541.9131,73.68032,106.9396
"40717",541.9264,72.969864,106.031654
"40718",541.9397,72.35462,105.196724
"40719",541.953,71.84192,104.4451
"40720",541.9663,71.42687,103.775116
"40721",541.9796,71.09972,103.18005
"40722",541.9929,70.84825,102.65045
"40723",542.0062,70.6627,102.17891
"40724",542.01953,70.538185,101.7626
"40725",542.03284,70.504005,101.43274
"40726",542.04614,70.70908,101.341064
"40727",542.05945,71.42199,101.763626
"40728",542.07275,72.9308,103.00438
"40729",542.08606,75.403984,105.25665
"40730",542.09937,78.81712,108.52617
"40731",542.1127,82.91875,112.59083
"40732",542.126,87.27184,117.03513
"40733",542.1393,91.37591,121.36644
"40734",542.1526,94.83299,125.17902
"40735",542.1659,97.40627,128.21584
"40736",542.1792,98.985886,130.33939
"40737",542.1925,99.562065,131.50888
"40738",542.2058,99.193405,131.75154
"40739",542.2191,98.004425,131.16235
"40740",542.2324,96.148926,129.86949
"40741",542.2457,93.80759,128.0328
"40742",542.25903,91.14641,125.803116
"40743",542.27234,88.30457,123.30961
"40744",542.28564,85.399254,120.6638
"40745",542.29895,82.545204,117.97848
"40746",542.31226,79.871826,115.384636
"40747",542.32556,77.540245,113.04905
"40748",542.33887,75.716484,111.14842
"40749",542.3522,74.53483,109.83291
"40750",542.3655,74.04166,109.16895
"40751",542.3788,74.19058,109.13168
"40752",542.3921,74.844894,109.604454
"40753",542.4054,75.81415,110.41261
"40754",542.4187,76.89815,111.36581
"40755",542.432,77.93088,112.301605
"40756",542.4453,78.78294,113.08901
"40757",542.4586,79.38598,113.654015
"40758",542.4719,79.70092,113.94977
"40759",542.4852,79.73266,113.97216
"40760",542.49854,79.49828,113.72943
"40761",542.51184,79.03685,113.25232
"40762",542.52515,78.38499,112.57036
"40763",542.53845,77.591515,111.72642
"40764",542.55176,76.700386,110.760025
"40765",542.56506,75.76776,109.72429
"40766",542.57837,74.83513,108.6594
"40767",542.5917,73.94156,107.60443
"40768",542.605,73.11635,106.5899
"40769",542.6183,72.38636,105.6448
"40770",542.6316,71.75403,104.774536
"40771",542.6449,71.22911,103.99193
"40772",542.6582,70.801865,103.29059
"40773",542.6715,70.467384,102.66867
"40774",542.6848,70.20615,102.109535
"40775",542.6981,70.00839,101.60572
"40776",542.7114,69.90097,101.18606
"40777",542.72473,70.01816,100.98765
"40778",542.73804,70.62852,101.28607
"40779",542.75134,72.05188,102.41657
"40780",542.76465,74.50309,104.6194
"40781",542.77795,77.977264,107.9218
"40782",542.79126,82.22537,112.1067
"40783",542.80457,86.79332,116.74419
"40784",542.8179,91.15129,121.314445
"40785",542.8312,94.85985,125.37148
"40786",542.8445,97.65041,128.62642
"40787",542.8578,99.422905,130.95049
"40788",542.8711,100.16022,132.29477
"40789",542.8844,99.9234,132.68796
"40790",542.8977,98.827194,132.21436
"40791",542.911,97.02785,131.00336
"40792",542.9243,94.69871,129.20633
"40793",542.9376,92.01068,126.97764
"40794",542.9509,89.10536,124.447655
"40795",542.96423,86.0975,121.724335
"40796",542.97754,83.09941,118.91679
"40797",542.99084,80.24048,116.15471
"40798",543.00415,77.6672,113.58894
"40799",543.01746,75.55779,111.40664
"40800",543.03076,74.06851,109.77854
"40801",543.04407,73.29214,108.81681
"40802",543.0574,73.21156,108.52662
"40803",543.0707,73.7145,108.81742
"40804",543.084,74.61051,109.51701
"40805",543.0973,75.69207,110.43015
"40806",543.1106,76.76875,111.372215
"40807",543.1239,77.69161,112.1941
"40808",543.1372,78.37766,112.808014
"40809",543.1505,78.7805,113.16016
"40810",543.1638,78.89769,113.239235
"40811",543.1771,78.74143,113.04853
"40812",543.1904,78.34348,112.61125
"40813",543.20374,77.74044,111.95644
"40814",543.21704,76.978714,111.12411
"40815",543.23035,76.10712,110.1581
"40816",543.24365,75.174484,109.10381
"40817",543.25696,74.2272,108.00574
"40818",543.27026,73.31167,106.909805
"40819",543.28357,72.4596,105.84873
"40820",543.2969,71.690544,104.84404
"40821",543.3102,71.011826,103.905655
"40822",543.3235,70.41856,103.03151
"40823",543.3368,69.90341,102.21694
"40824",543.3501,69.454185,101.452194
"40825",543.3634,69.07332,100.74177
"40826",543.3767,68.82185,100.14884
"40827",543.39,68.88289,99.86056
"40828",543.4033,69.576256,100.20651
"40829",543.4166,71.22911,101.53362
"40830",543.42993,74.0148,104.04523
"40831",543.44324,77.85031,107.6937
"40832",543.45654,82.4036,112.17982
"40833",543.46985,87.14732,116.99865
"40834",543.48315,91.53704,121.61172
"40835",543.49646,95.15282,125.58803
"40836",543.50977,97.78714,128.69588
"40837",543.5231,99.37652,130.8411
"40838",543.5364,99.94537,132.01547
"40839",543.5497,99.562065,132.25546
"40840",543.563,98.35111,131.65582
"40841",543.5763,96.46632,130.3445
"40842",543.5896,94.07858,128.47134
"40843",543.6029,91.34417,126.17689
"40844",543.6162,88.39246,123.57969
"40845",543.6295,85.34066,120.790146
"40846",543.6428,82.29618,117.91256
"40847",543.6561,79.40063,115.08876
"40848",543.66943,76.83711,112.506516
"40849",543.68274,74.79607,110.36663
"40850",543.69604,73.43862,108.846565
"40851",543.70935,72.84047,108.04337
"40852",543.72266,72.96742,107.946594
"40853",543.73596,73.67544,108.434845
"40854",543.74927,74.74723,109.309
"40855",543.7626,75.96063,110.35825
"40856",543.7759,77.13008,111.401474
"40857",543.7892,78.1091,112.29081
"40858",543.8025,78.82445,112.94707
"40859",543.8158,79.24193,113.32781
"40860",543.8291,79.364006,113.4262
"40861",543.8424,79.21263,113.25495
"40862",543.8557,78.83177,112.84949
"40863",543.869,78.25315,112.23436
"40864",543.8823,77.53536,111.46198
"40865",543.8956,76.717476,110.56708
"40866",543.90894,75.85077,109.59779
"40867",543.92224,74.969406,108.58677
"40868",543.93555,74.110016,107.570175
"40869",543.94885,73.29214,106.56824
"40870",543.96216,72.535286,105.60177
"40871",543.97546,71.8468,104.68001
"40872",543.9888,71.22423,103.80264
"40873",544.0021,70.67246,102.97664
"40874",544.0154,70.220795,102.23348
"40875",544.0287,69.976654,101.68374
"40876",544.042,70.203705,101.59756
"40877",544.0553,71.26574,102.353455
"40878",544.0686,73.44106,104.25583
"40879",544.0819,76.788284,107.39809
"40880",544.0952,81.0901,111.59954
"40881",544.1085,85.892426,116.43593
"40882",544.1218,90.614174,121.34181
"40883",544.13513,94.73289,125.79222
"40884",544.14844,97.936066,129.4558
"40885",544.16174,100.08942,132.16965
"40886",544.17505,101.18074,133.88876
"40887",544.18835,101.25887,134.6288
"40888",544.20166,100.42878,134.46304
"40889",544.21497,98.83452,133.50719
"40890",544.2283,96.64942,131.91068
"40891",544.2416,94.04196,129.82352
"40892",544.2549,91.15373,127.3741
"40893",544.2682,88.10193,124.67085
"40894",544.2815,84.996414,121.81853
"40895",544.2948,81.9617,118.93995
"40896",544.3081,79.15892,116.19847
"40897",544.3214,76.773636,113.7869
"40898",544.3347,74.98894,111.90138
"40899",544.348,73.90738,110.66323
"40900",544.3613,73.54604,110.1115
"40901",544.37463,73.80972,110.1735
"40902",544.38794,74.53483,110.70516
"40903",544.40125,75.50652,111.50607
"40904",544.41455,76.53437,112.3935
"40905",544.42786,77.467,113.217834
"40906",544.44116,78.19211,113.863785
"40907",544.45447,78.6511,114.26628
"40908",544.4678,78.82689,114.39992
"40909",544.4811,78.729225,114.265594
"40910",544.4944,78.38499,113.881645
"40911",544.5077,77.83322,113.27941
"40912",544.521,77.1252,112.50368
"40913",544.5343,76.30244,111.59108
"40914",544.5476,75.40887,110.58196
"40915",544.5609,74.495766,109.52539
"40916",544.5742,73.58999,108.44761
"40917",544.5875,72.725716,107.383026
"40918",544.6008,71.9176,106.347595
"40919",544.61414,71.1754,105.35281
"40920",544.62744,70.49424,104.39589
"40921",544.64075,69.879,103.48359
"40922",544.65405,69.34188,102.63019
"40923",544.66736,68.99031,101.94555
"40924",544.68066,69.07576,101.68694
"40925",544.694,69.979095,102.24889
"40926",544.7073,72.02258,103.979225
"40927",544.7206,75.301445,107.00879
"40928",544.7339,79.63256,111.19308
"40929",544.7472,84.56672,116.11575
"40930",544.7605,89.50088,121.19262
"40931",544.7738,93.87106,125.85971
"40932",544.7871,97.32082,129.74294
"40933",544.8004,99.69146,132.65485
"40934",544.8137,100.97078,134.54953
"40935",544.827,101.207596,135.44168
"40936",544.84033,100.506905,135.40373
"40937",544.85364,99.017624,134.5553
"40938",544.86694,96.90578,133.03775
"40939",544.88025,94.3447,131.00497
"40940",544.89355,91.48577,128.59431
"40941",544.90686,88.45594,125.923416
"40942",544.92017,85.36019,123.09192
"40943",544.9335,82.31571,120.21494
"40944",544.9468,79.47143,117.44302
"40945",544.9601,76.98848,114.94356
"40946",544.9734,75.03288,112.89385
"40947",544.9867,73.73403,111.43978
"40948",545,73.131,110.64094
"40949",545.0133,73.16762,110.462906
"40950",545.0266,73.704735,110.786514
"40951",545.0399,74.55192,111.43697
"40952",545.0532,75.51873,112.233536
"40953",545.0665,76.439156,113.01392
"40954",545.07983,77.196,113.65949
"40955",545.09314,77.70626,114.08213
"40956",545.10645,77.94797,114.25216
"40957",545.11975,77.908905,114.14897
"40958",545.13306,77.61593,113.79065
"40959",545.14636,77.100784,113.201004
"40960",545.15967,76.40986,112.41948
"40961",545.173,75.58709,111.48452
"40962",545.1863,74.68131,110.44084
"40963",545.1996,73.73403,109.327354
"40964",545.2129,72.79408,108.1916
"40965",545.2262,71.902954,107.07529
"40966",545.2395,71.08751,106.006805
"40967",545.2528,70.35996,105.00075
"40968",545.2661,69.72518,104.06471
"40969",545.2794,69.18074,103.19918
"40970",545.2927,68.71198,102.39232
"40971",545.306,68.3238,101.65138
"40972",545.31934,68.06256,101.02526
"40973",545.33264,68.11871,100.70837
"40974",545.34595,68.841385,101.059746
"40975",545.35925,70.61143,102.48108
"40976",545.37256,73.64858,105.22484
"40977",545.38586,77.88205,109.25983
"40978",545.3992,82.9456,114.257195
"40979",545.4125,88.24353,119.64717
"40980",545.4258,93.14595,124.807205
"40981",545.4391,97.17433,129.2464
"40982",545.4524,100.09186,132.70062
"40983",545.4657,101.85458,135.09122
"40984",545.479,102.504005,136.4236
"40985",545.4923,102.135345,136.7582
"40986",545.5056,100.895096,136.20967
"40987",545.5189,98.95903,134.92657
"40988",545.5322,96.52003,133.08005
"40989",545.54553,93.7441,130.82037
"40990",545.55884,90.777756,128.28352
"40991",545.57214,87.73083,125.5734
"40992",545.58545,84.698555,122.782715
"40993",545.59875,81.795685,120.02667
"40994",545.61206,79.15892,117.44602
"40995",545.62537,76.94942,115.210236
"40996",545.6387,75.30633,113.47182
"40997",545.652,74.322426,112.34124
"40998",545.6653,73.99039,111.83178
"40999",545.6786,74.215,111.86859
"41000",545.6919,74.83757,112.31039
"41001",545.7052,75.67498,112.98647
"41002",545.7185,76.54658,113.722916
"41003",545.7318,77.31808,114.3865
"41004",545.7451,77.8967,114.88131
"41005",545.7584,78.22385,115.14273
"41006",545.7717,78.277565,115.140945
"41007",545.78503,78.07004,114.87959
"41008",545.79834,77.625694,114.37494
"41009",545.81165,76.97383,113.64888
"41010",545.82495,76.1535,112.733986
"41011",545.83826,75.21599,111.67627
"41012",545.85156,74.21011,110.5209
"41013",545.86487,73.18471,109.31456
"41014",545.8782,72.19348,108.11036
"41015",545.8915,71.28039,106.95331
"41016",545.9048,70.47227,105.872696
"41017",545.9181,69.77402,104.8767
"41018",545.9314,69.188065,103.97118
"41019",545.9447,68.70466,103.1499
"41020",545.958,68.30671,102.39897
"41021",545.9713,67.98688,101.71372
"41022",545.9846,67.75983,101.11126
"41023",545.9979,67.74273,100.711655
"41024",546.0112,68.21149,100.79737
"41025",546.02454,69.556725,101.774216
"41026",546.03784,72.08362,103.974754
"41027",546.05115,75.84833,107.49208
"41028",546.06445,80.59937,112.11339
"41029",546.07776,85.83139,117.364136
"41030",546.09106,90.90227,122.61724
"41031",546.1044,95.26269,127.31836
"41032",546.1177,98.57816,131.1108
"41033",546.131,100.753494,133.8667
"41034",546.1443,101.8082,135.56995
"41035",546.1576,101.820404,136.26366
"41036",546.1709,100.912186,136.03732
"41037",546.1842,99.247116,135.02576
"41038",546.1975,96.99855,133.37866
"41039",546.2108,94.34959,131.2609
"41040",546.2241,91.44671,128.80644
"41041",546.2374,88.41444,126.13188
"41042",546.25073,85.350426,123.330826
"41043",546.26404,82.36454,120.51214
"41044",546.27734,79.59838,117.81987
"41045",546.29065,77.21553,115.42447
"41046",546.30396,75.37469,113.49661
"41047",546.31726,74.19058,112.16797
"41048",546.33057,73.69009,111.48593
"41049",546.3439,73.80728,111.405945
"41050",546.3572,74.39323,111.79837
"41051",546.3705,75.264824,112.49476
"41052",546.3838,76.23407,113.31603
"41053",546.3971,77.137405,114.101685
"41054",546.4104,77.857635,114.73246
"41055",546.4237,78.31907,115.126945
"41056",546.437,78.49485,115.2502
"41057",546.4503,78.382545,115.09086
"41058",546.4636,78.009,114.66677
"41059",546.4769,77.40841,114.00396
"41060",546.49023,76.6247,113.13927
"41061",546.50354,75.70916,112.11825
"41062",546.51685,74.70817,110.98317
"41063",546.53015,73.68032,109.789955
"41064",546.54346,72.674446,108.58659
"41065",546.55676,71.73449,107.41771
"41066",546.57007,70.887314,106.31224
"41067",546.5834,70.15976,105.29991
"41068",546.5967,69.55428,104.386925
"41069",546.61,69.065994,103.572205
"41070",546.6233,68.682686,102.847206
"41071",546.6366,68.384834,102.19569
"41072",546.6499,68.157776,101.60565
"41073",546.6632,68.01129,101.089096
"41074",546.6765,68.00885,100.712006
"41075",546.6898,68.370186,100.698616
"41076",546.7031,69.44686,101.41186
"41077",546.71643,71.57824,103.21345
"41078",546.72974,74.90837,106.280396
"41079",546.74304,79.29565,110.50856
"41080",546.75635,84.32014,115.51104
"41081",546.76965,89.38125,120.70715
"41082",546.78296,93.88815,125.507225
"41083",546.79626,97.43801,129.49109
"41084",546.8096,99.86481,132.46283
"41085",546.8229,101.16853,134.38733
"41086",546.8362,101.41268,135.293
"41087",546.8495,100.714424,135.26389
"41088",546.8628,99.2227,134.4195
"41089",546.8761,97.10353,132.90103
"41090",546.8894,94.52781,130.8598
"41091",546.9027,91.649345,128.43533
"41092",546.916,88.59022,125.74025
"41093",546.9293,85.45052,122.869
"41094",546.9426,82.33524,119.92405
"41095",546.95593,79.38842,117.0502
"41096",546.96924,76.79317,114.43584
"41097",546.98254,74.73502,112.27748
"41098",546.99585,73.36782,110.74575
"41099",547.00916,72.75014,109.920815
"41100",547.02246,72.84535,109.789474
"41101",547.03577,73.5021,110.22264
"41102",547.0491,74.512856,111.03034
"41103",547.0624,75.66277,112.00879
"41104",547.0757,76.76387,112.97435
"41105",547.089,77.67452,113.783875
"41106",547.1023,78.3093,114.345985
"41107",547.1156,78.63645,114.6203
"41108",547.1289,78.64866,114.5899
"41109",547.1422,78.37278,114.27179
"41110",547.1555,77.840546,113.688705
"41111",547.1688,77.100784,112.88146
"41112",547.1821,76.19745,111.88753
"41113",547.19543,75.18425,110.7555
"41114",547.20874,74.1149,109.53566
"41115",547.22205,73.04799,108.28484
"41116",547.23535,72.027466,107.04707
"41117",547.24866,71.09483,105.865295
"41118",547.26196,70.28672,104.7789
"41119",547.27527,69.62264,103.81128
"41120",547.2886,69.10506,102.9694
"41121",547.3019,68.72907,102.252945
"41122",547.3152,68.47517,101.64682
"41123",547.3285,68.316475,101.127975
"41124",547.3418,68.223694,100.67008
"41125",547.3551,68.18707,100.26545
"41126",547.3684,68.22125,99.93047
"41127",547.3817,68.44587,99.787
"41128",547.395,69.13924,100.1193
"41129",547.4083,70.677345,101.31801
"41130",547.42163,73.338524,103.68785
"41131",547.43494,77.16182,107.30298
"41132",547.44824,81.88602,111.938484
"41133",547.46155,87.010605,117.12201
"41134",547.47485,91.91058,122.241066
"41135",547.48816,96.05371,126.7564
"41136",547.50146,99.13725,130.34161
"41137",547.5148,101.083084,132.88548
"41138",547.5281,101.92294,134.38419
"41139",547.5414,101.749596,134.89594
"41140",547.5547,100.69001,134.51602
"41141",547.568,98.897995,133.37057
"41142",547.5813,96.53712,131.60027
"41143",547.5946,93.76364,129.34357
"41144",547.6079,90.72404,126.73408
"41145",547.6212,87.53307,123.87824
"41146",547.6345,84.30549,120.88606
"41147",547.6478,81.16823,117.88335
"41148",547.66113,78.28245,115.03407
"41149",547.67444,75.83612,112.53407
"41150",547.68774,74.01236,110.58019
"41151",547.70105,72.94789,109.32861
"41152",547.71436,72.66468,108.82503
"41153",547.72766,73.06996,109.00108
"41154",547.74097,73.98306,109.697624
"41155",547.7543,75.174484,110.70102
"41156",547.7676,76.41718,111.79292
"41157",547.7809,77.53536,112.79914
"41158",547.7942,78.4094,113.59616
"41159",547.8075,78.97337,114.11043
"41160",547.8208,79.21019,114.31516
"41161",547.8341,79.12474,114.20503
"41162",547.8474,78.751205,113.804146
"41163",547.8607,78.12863,113.14255
"41164",547.874,77.30587,112.26131
"41165",547.8873,76.334175,111.20542
"41166",547.90063,75.267265,110.02396
"41167",547.91394,74.158844,108.76764
"41168",547.92725,73.057755,107.48402
"41169",547.94055,72.02014,106.22946
"41170",547.95386,71.07774,105.03769
"41171",547.96716,70.27207,103.9532
"41172",547.98047,69.61288,102.990005
"41173",547.9938,69.10994,102.16247
"41174",548.0071,68.74616,101.458374
"41175",548.0204,68.509346,100.86987
"41176",548.0337,68.37751,100.37895
"41177",548.047,68.31892,99.95715
"41178",548.0603,68.31403,99.587234
"41179",548.0736,68.35554,99.26355
"41180",548.0869,68.48737,99.031494
"41181",548.1002,68.88289,99.06724
"41182",548.1135,69.874115,99.71105
"41183",548.12683,71.8468,101.3673
"41184",548.14014,75.00603,104.27174
"41185",548.15344,79.281,108.390656
"41186",548.16675,84.298164,113.38535
"41187",548.18005,89.47158,118.693085
"41188",548.19336,94.1738,123.69129
"41189",548.20667,97.94583,127.90626
"41190",548.22,100.58991,131.11115
"41191",548.2333,102.08896,133.25363
"41192",548.2466,102.518654,134.37361
"41193",548.2599,101.9913,134.54997
"41194",548.2732,100.63386,133.87976
"41195",548.2865,98.597694,132.4884
"41196",548.2998,96.03662,130.50851
"41197",548.3131,93.10445,128.07748
"41198",548.3264,89.935455,125.31801
"41199",548.3397,86.62974,122.32278
"41200",548.353,83.3045,119.20471
"41201",548.36633,80.093994,116.09747
"41202",548.37964,77.18379,113.19021
"41203",548.39294,74.77898,110.69739
"41204",548.40625,73.077286,108.83254
"41205",548.41956,72.20325,107.74217
"41206",548.43286,72.16174,107.457016
"41207",548.44617,72.83803,107.88835
"41208",548.4595,74.005035,108.83155
"41209",548.4728,75.41375,110.052925
"41210",548.4861,76.822464,111.31832
"41211",548.4994,78.04562,112.442184
"41212",548.5127,78.97093,113.30642
"41213",548.526,79.54223,113.84556
"41214",548.5393,79.74731,114.03633
"41215",548.5526,79.62035,113.90148
"41216",548.5659,79.19066,113.45992
"41217",548.5792,78.504616,112.74859
"41218",548.5925,77.61837,111.81561
"41219",548.60583,76.58564,110.70846
"41220",548.61914,75.46014,109.47626
"41221",548.63245,74.31022,108.18447
"41222",548.64575,73.19203,106.88848
"41223",548.65906,72.15198,105.63568
"41224",548.67236,71.22911,104.46756
"41225",548.68567,70.43809,103.40245
"41226",548.699,69.786224,102.451775
"41227",548.7123,69.263756,101.61012
"41228",548.7256,68.860916,100.87177
"41229",548.7389,68.55573,100.21849
"41230",548.7522,68.336006,99.64113
"41231",548.7655,68.189514,99.130135
"41232",548.7788,68.17975,98.75129
"41233",548.7921,68.50202,98.70418
"41234",548.8054,69.51766,99.360504
"41235",548.8187,71.588005,101.10327
"41236",548.83203,74.898605,104.151
"41237",548.84534,79.327385,108.420364
"41238",548.85864,84.439766,113.51173
"41239",548.87195,89.61562,118.826324
"41240",548.88525,94.22995,123.74114
"41241",548.89856,97.848175,127.804054
"41242",548.91187,100.31892,130.83255
"41243",548.9252,101.66415,132.81274
"41244",548.9385,101.97421,133.79982
"41245",548.9518,101.366295,133.8786
"41246",548.9651,99.96979,133.1498
"41247",548.9784,97.918976,131.72304
"41248",548.9917,95.36523,129.72925
"41249",549.005,92.437935,127.28212
"41250",549.0183,89.25674,124.48961
"41251",549.0316,85.924164,121.44631
"41252",549.0449,82.55985,118.26713
"41253",549.0582,79.31518,115.10245
"41254",549.07153,76.387886,112.153755
"41255",549.08484,74.0148,109.66779
"41256",549.09814,72.39124,107.8572
"41257",549.11145,71.64416,106.872345
"41258",549.12476,71.75891,106.72598
"41259",549.13806,72.59144,107.30098
"41260",549.15137,73.90982,108.38785
"41261",549.1647,75.44305,109.73076
"41262",549.178,76.93721,111.08252
"41263",549.1913,78.2092,112.2588
"41264",549.2046,79.151596,113.14523
"41265",549.2179,79.72045,113.68758
"41266",549.2312,79.91577,113.87416
"41267",549.2445,79.76929,113.725044
"41268",549.2578,79.32494,113.27349
"41269",549.2711,78.63401,112.56146
"41270",549.2844,77.752655,111.63742
"41271",549.2977,76.73945,110.553986
"41272",549.31104,75.648125,109.36077
"41273",549.32434,74.54215,108.118805
"41274",549.33765,73.46548,106.871574
"41275",549.35095,72.4596,105.6615
"41276",549.36426,71.5465,104.51276
"41277",549.37756,70.748146,103.450226
"41278",549.39087,70.07187,102.484825
"41279",549.4042,69.51034,101.61304
"41280",549.4175,69.05623,100.83112
"41281",549.4308,68.70954,100.14244
"41282",549.4441,68.47517,99.55524
"41283",549.4574,68.404366,99.12428
"41284",549.4707,68.680244,99.037796
"41285",549.484,69.61776,99.62157
"41286",549.4973,71.55627,101.23563
"41287",549.5106,74.67887,104.09436
"41288",549.5239,78.873276,108.12248
"41289",549.53723,83.734184,112.94818
"41290",549.55054,88.68299,118.01368
"41291",549.56384,93.119095,122.72113
"41292",549.57715,96.6128,126.62481
"41293",549.59045,99.000534,129.5317
"41294",549.60376,100.30183,131.42676
"41295",549.61707,100.60212,132.36148
"41296",549.6304,100.00641,132.40959
"41297",549.6437,98.62699,131.65538
"41298",549.657,96.59327,130.20375
"41299",549.6703,94.049286,128.17831
"41300",549.6836,91.11711,125.68518
"41301",549.6969,87.90662,122.8221
"41302",549.7102,84.52766,119.690216
"41303",549.7235,81.12184,116.42589
"41304",549.7368,77.8674,113.206505
"41305",549.7501,75.01091,110.28337
"41306",549.7634,72.8185,107.93505
"41307",549.77673,71.51232,106.40446
"41308",549.79004,71.19493,105.82182
"41309",549.80334,71.8053,106.15703
"41310",549.81665,73.128555,107.2242
"41311",549.82996,74.87419,108.755104
"41312",549.84326,76.72236,110.44309
"41313",549.85657,78.41428,112.03259
"41314",549.8699,79.781494,113.35025
"41315",549.8832,80.7483,114.31023
"41316",549.8965,81.29519,114.8805
"41317",549.9098,81.45144,115.077225
"41318",549.9231,81.25857,114.92971
"41319",549.9364,80.765396,114.47587
"41320",549.9497,80.025635,113.760025
"41321",549.963,79.10277,112.83796
"41322",549.9763,78.05051,111.75766
"41323",549.9896,76.91768,110.56391
"41324",550.0029,75.757996,109.30791
"41325",550.01624,74.61051,108.02786
"41326",550.02954,73.514305,106.76324
"41327",550.04285,72.49622,105.54248
"41328",550.05615,71.588005,104.399765
"41329",550.06946,70.83116,103.38005
"41330",550.08276,70.311134,102.5735
"41331",550.09607,70.240326,102.19991
"41332",550.1094,70.95079,102.605385
"41333",550.1227,72.75502,104.12683
"41334",550.136,75.76776,106.91317
"41335",550.1493,79.818115,110.83127
"41336",550.1626,84.473946,115.481415
"41337",550.1759,89.14198,120.28926
"41338",550.1892,93.25826,124.69122
"41339",550.2025,96.44923,128.29651
"41340",550.2158,98.58793,130.94925
"41341",550.2291,99.69634,132.63853
"41342",550.24243,99.86725,133.42496
"41343",550.25574,99.193405,133.37196
"41344",550.26904,97.794464,132.57281
"41345",550.28235,95.79248,131.1269
"41346",550.29565,93.314415,129.14236
"41347",550.30896,90.46525,126.709274
"41348",550.32227,87.34264,123.91371
"41349",550.3356,84.0589,120.85942
"41350",550.3489,80.77028,117.69764
"41351",550.3622,77.68185,114.63328
"41352",550.3755,75.04753,111.92652
"41353",550.3888,73.13588,109.86011
"41354",550.4021,72.12024,108.62997
"41355",550.4154,72.03967,108.30316
"41356",550.4287,72.779434,108.79416
"41357",550.442,74.10025,109.889336
"41358",550.4553,75.699394,111.304115
"41359",550.4686,77.29122,112.76155
"41360",550.48193,78.66575,114.05143
"41361",550.49524,79.70336,115.04735
"41362",550.50854,80.35767,115.69239
"41363",550.52185,80.63111,115.977005
"41364",550.53516,80.570076,115.93569
"41365",550.54846,80.218506,115.60194
"41366",550.56177,79.62035,115.01061
"41367",550.5751,78.82689,114.205284
"41368",550.5884,77.88693,113.22867
"41369",550.6017,76.84932,112.12502
"41370",550.615,75.76288,110.940125
"41371",550.6283,74.67155,109.716385
"41372",550.6416,73.6144,108.49273
"41373",550.6549,72.62318,107.301956
"41374",550.6682,71.75891,106.20717
"41375",550.6815,71.1461,105.33682
"41376",550.6948,71.06554,104.97957
"41377",550.7081,71.8761,105.510925
"41378",550.72144,73.8732,107.25415
"41379",550.73474,77.10567,110.29516
"41380",550.74805,81.339134,114.43818
"41381",550.76135,86.080414,119.221306
"41382",550.77466,90.72892,124.05982
"41383",550.78796,94.752426,128.41861
"41384",550.8013,97.83597,131.96317
"41385",550.8146,99.877014,134.56158
"41386",550.8279,100.89754,136.20326
"41387",550.8412,100.96834,136.92711
"41388",550.8545,100.20416,136.81819
"41389",550.8678,98.73441,135.97983
"41390",550.8811,96.722664,134.55353
"41391",550.8944,94.31785,132.6713
"41392",550.9077,91.64202,130.4429
"41393",550.921,88.78798,127.952675
"41394",550.9343,85.84848,125.287796
"41395",550.94763,82.94316,122.56524
"41396",550.96094,80.23071,119.94476
"41397",550.97424,77.91379,117.63505
"41398",550.98755,76.1828,115.83887
"41399",551.00085,75.159836,114.69662
"41400",551.01416,74.86687,114.252396
"41401",551.02747,75.20622,114.43134
"41402",551.0408,75.982605,115.05792
"41403",551.0541,76.981155,115.93093
"41404",551.0674,77.99191,116.84735
"41405",551.0807,78.85863,117.65131
"41406",551.094,79.483635,118.240654
"41407",551.1073,79.81323,118.554115
"41408",551.1206,79.84253,118.577576
"41409",551.1339,79.58129,118.31142
"41410",551.1472,79.06859,117.78563
"41411",551.1605,78.35081,117.03874
"41412",551.1738,77.48165,116.11805
"41413",551.18713,76.50019,115.05789
"41414",551.20044,75.45525,113.90359
"41415",551.21375,74.37614,112.68245
"41416",551.22705,73.3019,111.43247
"41417",551.24036,72.2765,110.197754
"41418",551.25366,71.38537,109.06526
"41419",551.26697,70.801865,108.212555
"41420",551.2803,70.838486,107.96173
"41421",551.2936,71.834595,108.67154
"41422",551.3069,74.00015,110.581924
"41423",551.3202,77.30099,113.69527
"41424",551.3335,81.449,117.758934
"41425",551.3468,85.95346,122.30868
"41426",551.3601,90.247955,126.789215
"41427",551.3734,93.88571,130.74722
"41428",551.3867,96.61524,133.91068
"41429",551.4,98.36088,136.17554
"41430",551.4133,99.12993,137.51837
"41431",551.42664,99.000534,137.98679
"41432",551.43994,98.0972,137.67722
"41433",551.45325,96.58106,136.72662
"41434",551.46655,94.625465,135.28918
"41435",551.47986,92.38911,133.50987
"41436",551.49316,89.986725,131.49464
"41437",551.5065,87.49889,129.3189
"41438",551.5198,84.98909,127.04343
"41439",551.5331,82.54032,124.750565
"41440",551.5464,80.274666,122.56429
"41441",551.5597,78.328835,120.627045
"41442",551.573,76.84444,119.09042
"41443",551.5863,75.89227,118.03965
"41444",551.5996,75.47723,117.49624
"41445",551.6129,75.51629,117.39397
"41446",551.6262,75.87518,117.61275
"41447",551.6395,76.402534,118.0112
"41448",551.65283,76.94942,118.44566
"41449",551.66614,77.39864,118.79956
"41450",551.67944,77.66964,118.989265
"41451",551.69275,77.72091,118.96771
"41452",551.70605,77.540245,118.71583
"41453",551.71936,77.14473,118.24345
"41454",551.73267,76.56367,117.57316
"41455",551.746,75.83368,116.73579
"41456",551.7593,74.98894,115.76085
"41457",551.7726,74.06851,114.68383
"41458",551.7859,73.111465,113.54143
"41459",551.7992,72.15198,112.36668
"41460",551.8125,71.22423,111.19368
"41461",551.8258,70.37705,110.072266
"41462",551.8391,69.698326,109.09282
"41463",551.8524,69.36141,108.433975
"41464",551.8657,69.6495,108.3896
"41465",551.879,70.86534,109.28199
"41466",551.89233,73.17738,111.30858
"41467",551.90564,76.524605,114.4426
"41468",551.91895,80.60914,118.418526
"41469",551.93225,84.95979,122.788216
"41470",551.94556,89.05409,127.037506
"41471",551.95886,92.46967,130.73602
"41472",551.97217,94.974594,133.63062
"41473",551.9855,96.498055,135.62204
"41474",551.9988,97.07179,136.71133
"41475",552.0121,96.79347,136.9665
"41476",552.0254,95.80957,136.5074
"41477",552.0387,94.29832,135.4902
"41478",552.052,92.44038,134.07909
"41479",552.0653,90.374916,132.40239
"41480",552.0786,88.19714,130.54883
"41481",552.0919,85.96567,128.57352
"41482",552.1052,83.7293,126.523575
"41483",552.1185,81.55154,124.46235
"41484",552.13184,79.534904,122.4942
"41485",552.14514,77.7966,120.74136
"41486",552.15845,76.44648,119.32239
"41487",552.17175,75.545586,118.31045
"41488",552.18506,75.0988,117.724464
"41489",552.19836,75.03288,117.50539
"41490",552.2117,75.23796,117.555244
"41491",552.225,75.58953,117.758
"41492",552.2383,75.96307,117.99372
"41493",552.2516,76.241394,118.14589
"41494",552.2649,76.36347,118.15051
"41495",552.2782,76.280464,117.953865
"41496",552.2915,75.99481,117.55198
"41497",552.3048,75.511406,116.94341
"41498",552.3181,74.87175,116.16349
"41499",552.3314,74.12222,115.25371
"41500",552.3447,73.30923,114.257034
"41501",552.35803,72.47425,113.212975
"41502",552.37134,71.64904,112.15259
"41503",552.38464,70.8629,111.105484
"41504",552.39795,70.12558,110.08263
"41505",552.41125,69.44442,109.09289
"41506",552.42456,68.83894,108.15755
"41507",552.43787,68.32624,107.29606
"41508",552.4512,67.964905,106.569916
"41509",552.4645,67.879456,106.10837
"41510",552.4778,68.30183,106.15197
"41511",552.4911,69.505455,106.99003
"41512",552.5044,71.68566,108.84228
"41513",552.5177,74.85466,111.75145
"41514",552.531,78.78783,115.52383
"41515",552.5443,83.07988,119.778
"41516",552.5576,87.22545,124.01981
"41517",552.5709,90.78264,127.802795
"41518",552.5842,93.4609,130.81801
"41519",552.59753,95.15282,132.93057
"41520",552.61084,95.87793,134.12921
"41521",552.62415,95.73144,134.47891
"41522",552.63745,94.8745,134.11359
"41523",552.65076,93.487755,133.19168
"41524",552.66406,91.747,131.87242
"41525",552.67737,89.80118,130.29369
"41526",552.6907,87.743034,128.54182
"41527",552.704,85.63363,126.67439
"41528",552.7173,83.51202,124.72883
"41529",552.7306,81.42947,122.75603
"41530",552.7439,79.4641,120.835335
"41531",552.7572,77.72579,119.08028
"41532",552.7705,76.32441,117.60783
"41533",552.7838,75.33318,116.50174
"41534",552.7971,74.76433,115.78705
"41535",552.8104,74.564125,115.42323
"41536",552.8237,74.63737,115.32661
"41537",552.83704,74.864426,115.386086
"41538",552.85034,75.125656,115.48683
"41539",552.86365,75.32098,115.52983
"41540",552.87695,75.389336,115.45197
"41541",552.89026,75.2868,115.20535
"41542",552.90356,75.001144,114.772415
"41543",552.9169,74.54215,114.15721
"41544",552.9302,73.93912,113.38362
"41545",552.9435,73.231094,112.4862
"41546",552.9568,72.45472,111.4983
"41547",552.9701,71.656364,110.46416
"41548",552.9834,70.87511,109.422165
"41549",552.9967,70.14755,108.409454
"41550",553.01,69.5079,107.46191
"41551",553.0233,68.9659,106.592026
"41552",553.0366,68.53132,105.81263
"41553",553.0499,68.19928,105.12219
"41554",553.06323,67.9527,104.506836
"41555",553.07654,67.76715,103.94481
"41556",553.08984,67.632866,103.428246
"41557",553.10315,67.544975,102.95388
"41558",553.11646,67.51324,102.53292
"41559",553.12976,67.5816,102.21107
"41560",553.14307,67.879456,102.12085
"41561",553.1564,68.62409,102.48672
"41562",553.1697,70.05478,103.561905
"41563",553.183,72.32288,105.51922
"41564",553.1963,75.41375,108.37018
"41565",553.2096,79.114975,111.928085
"41566",553.2229,83.04326,115.82871
"41567",553.2362,86.75914,119.639694
"41568",553.2495,89.89151,122.983284
"41569",553.2628,92.208435,125.60932
"41570",553.2761,93.62447,127.406876
"41571",553.2894,94.16403,128.3722
"41572",553.30273,93.927216,128.578
"41573",553.31604,93.067825,128.15384
"41574",553.32935,91.75433,127.24872
"41575",553.34265,90.14786,126.00957
"41576",553.35596,88.377815,124.55665
"41577",553.36926,86.522316,122.96295
"41578",553.38257,84.627754,121.27221
"41579",553.3959,82.73319,119.52226
"41580",553.4092,80.902115,117.776596
"41581",553.4225,79.219955,116.12263
"41582",553.4358,77.79172,114.67001
"41583",553.4491,76.697945,113.50723
"41584",553.4624,75.99237,112.69847
"41585",553.4757,75.66033,112.241196
"41586",553.489,75.6408,112.08605
"41587",553.5023,75.83368,112.14271
"41588",553.5156,76.13153,112.31036
"41589",553.52893,76.43427,112.49222
"41590",553.54224,76.65156,112.598076
"41591",553.55554,76.72236,112.56424
"41592",553.56885,76.627144,112.3666
"41593",553.58215,76.35859,111.992645
"41594",553.59546,75.928894,111.44916
"41595",553.60876,75.372246,110.76529
"41596",553.6221,74.72282,109.971245
"41597",553.6354,74.00992,109.09344
"41598",553.6487,73.28237,108.1787
"41599",553.662,72.57191,107.258316
"41600",553.6753,71.90784,106.36212
"41601",553.6886,71.31945,105.52086
"41602",553.7019,70.8336,104.76375
"41603",553.7152,70.4625,104.1062
"41604",553.7285,70.19638,103.54203
"41605",553.7418,70.02548,103.064766
"41606",553.7551,69.93759,102.66517
"41607",553.76843,69.910736,102.32386
"41608",553.78174,69.9205,102.01833
"41609",553.79504,69.95468,101.737526
"41610",553.80835,70.00351,101.472435
"41611",553.82166,70.066986,101.22352
"41612",553.83496,70.17197,101.01809
"41613",553.84827,70.421,100.95999
"41614",553.8616,70.994736,101.23438
"41615",553.8749,72.11047,102.06871
"41616",553.8882,73.92447,103.636154
"41617",553.9015,76.46601,105.98784
"41618",553.9148,79.59594,109.00733
"41619",553.9281,83.02617,112.424934
"41620",553.9414,86.37827,115.871605
"41621",553.9547,89.30312,118.99577
"41622",553.968,91.57122,121.554596
"41623",553.9813,93.05562,123.4006
"41624",553.9946,93.73434,124.487305
"41625",554.00793,93.67574,124.85791
"41626",554.02124,92.999466,124.609
"41627",554.03455,91.842224,123.857994
"41628",554.04785,90.34806,122.7339
"41629",554.06116,88.64637,121.35559
"41630",554.07446,86.82506,119.804474
"41631",554.08777,84.95735,118.15005
"41632",554.1011,83.104294,116.451904
"41633",554.1144,81.34402,114.788635
"41634",554.1277,79.77417,113.26079
"41635",554.141,78.48264,111.962204
"41636",554.1543,77.540245,110.97239
"41637",554.1676,76.97383,110.32911
"41638",554.1809,76.75899,110.0197
"41639",554.1942,76.824905,109.98434
"41640",554.2075,77.08125,110.141464
"41641",554.2208,77.420616,110.38962
"41642",554.23413,77.7551,110.64349
"41643",554.24744,78.00412,110.822365
"41644",554.26074,78.11154,110.86742
"41645",554.27405,78.05539,110.75225
"41646",554.28735,77.823456,110.45955
"41647",554.30066,77.435265,110.00334
"41648",554.31396,76.91768,109.40561
"41649",554.3273,76.30244,108.694046
"41650",554.3406,75.61883,107.89489
"41651",554.3539,74.90593,107.04508
"41652",554.3672,74.20035,106.18031
"41653",554.3805,73.53628,105.33501
"41654",554.3938,72.93324,104.52998
"41655",554.4071,72.41566,103.791565
"41656",554.4204,71.990845,103.129745
"41657",554.4337,71.66369,102.55231
"41658",554.447,71.42687,102.05498
"41659",554.4603,71.28039,101.64058
"41660",554.47363,71.20958,101.29729
"41661",554.48694,71.20958,101.02258
"41662",554.50024,71.25353,100.79184
"41663",554.51355,71.329216,100.59419
"41664",554.52686,71.41711,100.41112
"41665",554.54016,71.50744,100.23323
"41666",554.55347,71.59777,100.05817
"41667",554.5668,71.727165,99.92499
"41668",554.5801,72.00305,99.94235
"41669",554.5934,72.61585,100.30525
"41670",554.6067,73.777985,101.23663
"41671",554.62,75.6408,102.905014
"41672",554.6333,78.2092,105.33719
"41673",554.6466,81.341576,108.413605
"41674",554.6599,84.73029,111.844246
"41675",554.6732,88.00427,115.266045
"41676",554.6865,90.829025,118.34093
"41677",554.6998,92.98726,120.83757
"41678",554.71313,94.35935,122.61552
"41679",554.72644,94.940414,123.64531
"41680",554.73975,94.77684,123.94862
"41681",554.75305,93.99069,123.62425
"41682",554.76636,92.7187,122.78947
"41683",554.77966,91.107346,121.57558
"41684",554.79297,89.28603,120.10137
"41685",554.8063,87.35241,118.45794
"41686",554.8196,85.38705,116.722336
"41687",554.8329,83.47051,114.974144
"41688",554.8462,81.69802,113.310104
"41689",554.8595,80.164795,111.82994
"41690",554.8728,78.97093,110.64123
"41691",554.8861,78.17258,109.810715
"41692",554.8994,77.77951,109.36054
"41693",554.9127,77.747765,109.25941
"41694",554.926,77.98947,109.43073
"41695",554.93933,78.397194,109.77563
"41696",554.95264,78.873276,110.20162
"41697",554.96594,79.31518,110.608315
"41698",554.97925,79.64477,110.916504
"41699",554.99255,79.81079,111.07143
"41700",555.00586,79.783936,111.03866
"41701",555.01917,79.5642,110.81217
"41702",555.0325,79.166245,110.4006
"41703",555.0458,78.62913,109.837425
"41704",555.0591,77.98703,109.15249
"41705",555.0724,77.27169,108.374245
"41706",555.0857,76.52705,107.54434
"41707",555.099,75.792175,106.70094
"41708",555.1123,75.09636,105.873634
"41709",555.1256,74.46403,105.088066
"41710",555.1389,73.917145,104.36819
"41711",555.1522,73.46548,103.72643
"41712",555.1655,73.111465,103.16822
"41713",555.17883,72.85268,102.69417
"41714",555.19214,72.68177,102.29991
"41715",555.20544,72.59388,101.98332
"41716",555.21875,72.569466,101.72746
"41717",555.23206,72.59144,101.51723
"41718",555.24536,72.637825,101.33209
"41719",555.25867,72.69398,101.15817
"41720",555.272,72.75746,100.99335
"41721",555.2853,72.84291,100.85247
"41722",555.2986,73.02602,100.81192
"41723",555.3119,73.45571,101.02368
"41724",555.3252,74.339516,101.70298
"41725",555.3385,75.862976,103.04955
"41726",555.3518,78.11398,105.17128
"41727",555.3651,81.01686,108.01522
"41728",555.3784,84.33723,111.36736
"41729",555.3917,87.728386,114.89406
"41730",555.405,90.81926,118.22644
"41731",555.41833,93.32418,121.069466
"41732",555.43164,95.07713,123.2388
"41733",555.44495,96.007324,124.64015
"41734",555.45825,96.13428,125.267334
"41735",555.47156,95.54101,125.17826
"41736",555.48486,94.364235,124.487144
"41737",555.49817,92.74555,123.317345
"41738",555.5115,90.83635,121.80644
"41739",555.5248,88.76112,120.069855
"41740",555.5381,86.62241,118.204926
"41741",555.5514,84.50324,116.2927
"41742",555.5647,82.49882,114.429
"41743",555.578,80.71656,112.72483
"41744",555.5913,79.26391,111.29457
"41745",555.6046,78.23361,110.24127
"41746",555.6179,77.662315,109.61478
"41747",555.6312,77.53292,109.41233
"41748",555.64453,77.76242,109.564735
"41749",555.65784,78.22873,109.96112
"41750",555.67114,78.81224,110.48928
"41751",555.68445,79.38842,111.02834
"41752",555.69775,79.86694,111.487755
"41753",555.71106,80.181885,111.79854
"41754",555.72437,80.291756,111.91409
"41755",555.7377,80.19165,111.823105
"41756",555.751,79.89136,111.5288
"41757",555.7643,79.41772,111.051765
"41758",555.7776,78.80003,110.415886
"41759",555.7909,78.08713,109.66548
"41760",555.8042,77.32296,108.84154
"41761",555.8175,76.541695,107.976616
"41762",555.8308,75.78241,107.10926
"41763",555.8441,75.07927,106.27432
"41764",555.8574,74.44938,105.49066
"41765",555.8707,73.90738,104.77521
"41766",555.88403,73.45815,104.13559
"41767",555.89734,73.10414,103.57715
"41768",555.91064,72.83559,103.0931
"41769",555.92395,72.654915,102.688545
"41770",555.93726,72.54261,102.34671
"41771",555.95056,72.48646,102.05751
"41772",555.96387,72.47425,101.8105
"41773",555.9772,72.4889,101.589966
"41774",555.9905,72.52064,101.38698
"41775",556.0038,72.589,101.2216
"41776",556.0171,72.76723,101.16824
"41777",556.0304,73.216446,101.39144
"41778",556.0437,74.161285,102.1243
"41779",556.057,75.792175,103.57273
"41780",556.0703,78.18234,105.831406
"41781",556.0836,81.23659,108.82885
"41782",556.0969,84.69611,112.32702
"41783",556.1102,88.1947,115.97236
"41784",556.12354,91.36126,119.395004
"41785",556.13684,93.910126,122.29891
"41786",556.15015,95.66796,124.49144
"41787",556.16345,96.57862,125.89172
"41788",556.17676,96.66163,126.49281
"41789",556.19006,95.99512,126.34698
"41790",556.20337,94.710915,125.56262
"41791",556.2167,92.97017,124.28159
"41792",556.23,90.91936,122.6361
"41793",556.2433,88.690315,120.74829
"41794",556.2566,86.39536,118.724915
"41795",556.2699,84.1297,116.6591
"41796",556.2832,81.99832,114.65678
"41797",556.2965,80.11597,112.83687
"41798",556.3098,78.59739,111.321915
"41799",556.3231,77.5378,110.2185
"41800",556.3364,76.978714,109.582466
"41801",556.34973,76.89815,109.407486
"41802",556.36304,77.20332,109.61573
"41803",556.37634,77.769745,110.09476
"41804",556.38965,78.45579,110.711105
"41805",556.40295,79.14427,111.35133
"41806",556.41626,79.73266,111.91298
"41807",556.42957,80.14282,112.31479
"41808",556.4429,80.3357,112.51213
"41809",556.4562,80.2942,112.48112
"41810",556.4695,80.025635,112.22175
"41811",556.4828,79.55932,111.75623
"41812",556.4961,78.93919,111.12234
"41813",556.5094,78.20676,110.35675
"41814",556.5227,77.41329,109.50725
"41815",556.536,76.59785,108.61097
"41816",556.5493,75.7995,107.70631
"41817",556.5626,75.04509,106.82063
"41818",556.5759,74.36393,105.984634
"41819",556.58923,73.77066,105.21524
"41820",556.60254,73.27505,104.52496
"41821",556.61584,72.87953,103.9193
"41822",556.62915,72.58167,103.398926
"41823",556.64246,72.36927,102.9547
"41824",556.65576,72.22766,102.57463
"41825",556.66907,72.13733,102.24141
"41826",556.6824,72.08606,101.94443
"41827",556.6957,72.06653,101.67758
"41828",556.709,72.095825,101.458954
"41829",556.7223,72.256966,101.37309
"41830",556.7356,72.72083,101.594986
"41831",556.7489,73.724266,102.37094
"41832",556.7622,75.46258,103.91314
"41833",556.7755,78.00412,106.31289
"41834",556.7888,81.22926,109.47566
"41835",556.8021,84.86214,113.14695
"41836",556.8154,88.514534,116.95129
"41837",556.82874,91.80072,120.503555
"41838",556.84204,94.435036,123.506645
"41839",556.85535,96.253914,125.77662
"41840",556.86865,97.198746,127.229385
"41841",556.88196,97.28176,127.84986
"41842",556.89526,96.5835,127.69166
"41843",556.90857,95.235825,126.86221
"41844",556.9219,93.399864,125.50237
"41845",556.9352,91.2343,123.755554
"41846",556.9485,88.88075,121.75308
"41847",556.9618,86.45396,119.603806
"41848",556.9751,84.04913,117.400665
"41849",556.9884,81.77127,115.24934
"41850",557.0017,79.73998,113.2734
"41851",557.015,78.08957,111.61486
"41852",557.0283,76.927444,110.393036
"41853",557.0416,76.317085,109.68666
"41854",557.05493,76.23651,109.491
"41855",557.06824,76.595406,109.732285
"41856",557.08154,77.24971,110.2802
"41857",557.09485,78.048065,110.99261
"41858",557.10815,78.84398,111.72752
"41859",557.12146,79.52514,112.37256
"41860",557.13477,80.02319,112.855774
"41861",557.1481,80.28443,113.11774
"41862",557.1614,80.30152,113.143715
"41863",557.1747,80.08179,112.9334
"41864",557.188,79.656975,112.51115
"41865",557.2013,79.063705,111.90716
"41866",557.2146,78.348366,111.16256
"41867",557.2279,77.55245,110.31503
"41868",557.2412,76.72236,109.408455
"41869",557.2545,75.89227,108.475945
"41870",557.2678,75.09392,107.549225
"41871",557.2811,74.36637,106.668365
"41872",557.29443,73.72671,105.85265
"41873",557.30774,73.179825,105.10973
"41874",557.32104,72.723274,104.440056
"41875",557.33435,72.35218,103.84157
"41876",557.34766,72.05432,103.30472
"41877",557.36096,71.81262,102.81471
"41878",557.37427,71.624626,102.370865
"41879",557.3876,71.505,101.9895
"41880",557.4009,71.519646,101.73868
"41881",557.4142,71.83215,101.78618
"41882",557.4275,72.689095,102.38788
"41883",557.4408,74.322426,103.79274
"41884",557.4541,76.822464,106.11536
"41885",557.4674,80.1062,109.2998
"41886",557.4807,83.89288,113.0898
"41887",557.494,87.77966,117.09823
"41888",557.5073,91.351494,120.91318
"41889",557.5206,94.28855,124.20497
"41890",557.53394,96.39796,126.760895
"41891",557.54724,97.60647,128.48184
"41892",557.56055,97.90921,129.33478
"41893",557.57385,97.37209,129.35733
"41894",557.58716,96.11719,128.6453
"41895",557.60046,94.30564,127.33741
"41896",557.6138,92.09613,125.57495
"41897",557.6271,89.64004,123.496864
"41898",557.6404,87.06676,121.22484
"41899",557.6537,84.47639,118.8553
"41900",557.667,81.986115,116.50491
"41901",557.6803,79.725334,114.3062
"41902",557.6936,77.84543,112.41771
"41903",557.7069,76.470894,110.975845
"41904",557.7202,75.684746,110.079414
"41905",557.7335,75.49676,109.75658
"41906",557.7468,75.82147,109.94057
"41907",557.76013,76.507515,110.49603
"41908",557.77344,77.38888,111.26826
"41909",557.78674,78.30198,112.09976
"41910",557.80005,79.114975,112.859695
"41911",557.81335,79.7351,113.45216
"41912",557.82666,80.111084,113.81987
"41913",557.83997,80.216064,113.92832
"41914",557.8533,80.059814,113.778824
"41915",557.8666,79.67162,113.3925
"41916",557.8799,79.09056,112.80118
"41917",557.8932,78.37034,112.052536
"41918",557.9065,77.55489,111.186165
"41919",557.9198,76.6955,110.25037
"41920",557.9331,75.8288,109.280396
"41921",557.9464,74.99138,108.31263
"41922",557.9597,74.21011,107.37485
"41923",557.973,73.50698,106.49078
"41924",557.9863,72.89662,105.67752
"41925",557.99963,72.38636,104.94528
"41926",558.01294,71.96643,104.28743
"41927",558.02625,71.62707,103.69702
"41928",558.03955,71.35363,103.16193
"41929",558.05286,71.13878,102.67688
"41930",558.06616,71.00206,102.263245
"41931",558.07947,71.05821,102.03821
"41932",558.0928,71.53918,102.239746
"41933",558.1061,72.72083,103.157
"41934",558.1194,74.813156,105.02185
"41935",558.1327,77.840546,107.88715
"41936",558.146,81.60525,111.58437
"41937",558.1593,85.731285,115.760574
"41938",558.1726,89.74746,119.95585
"41939",558.1859,93.23872,123.751724
"41940",558.1992,95.92432,126.85103
"41941",558.2125,97.67483,129.09918
"41942",558.2258,98.46342,130.44011
"41943",558.23914,98.32914,130.88281
"41944",558.25244,97.37209,130.49855
"41945",558.26575,95.743645,129.41298
"41946",558.27905,93.61227,127.77359
"41947",558.29236,91.14885,125.73556
"41948",558.30566,88.49012,123.42523
"41949",558.319,85.753265,120.95369
"41950",558.3323,83.038376,118.41859
"41951",558.3456,80.47242,115.94758
"41952",558.3589,78.19943,113.689354
"41953",558.3722,76.37568,111.80933
"41954",558.3855,75.1281,110.448494
"41955",558.3988,74.52506,109.693214
"41956",558.4121,74.527504,109.52457
"41957",558.4254,75.00847,109.83452
"41958",558.4387,75.79706,110.467125
"41959",558.452,76.70771,111.24644
"41960",558.46533,77.576866,112.01271
"41961",558.47864,78.28245,112.64257
"41962",558.49194,78.75853,113.06498
"41963",558.50525,78.96605,113.2337
"41964",558.51855,78.90257,113.13792
"41965",558.53186,78.58762,112.78867
"41966",558.54517,78.05539,112.2123
"41967",558.5585,77.34249,111.43864
"41968",558.5718,76.49531,110.50841
"41969",558.5851,75.560234,109.46381
"41970",558.5984,74.58366,108.348495
"41971",558.6117,73.602196,107.19778
"41972",558.625,72.6598,106.05545
"41973",558.6383,71.783325,104.9496
"41974",558.6516,70.994736,103.904236
"41975",558.6649,70.30381,102.9319
"41976",558.6782,69.7203,102.04538
"41977",558.6915,69.23445,101.23829
"41978",558.70483,68.8365,100.503914
"41979",558.71814,68.51911,99.83766
"41980",558.73145,68.30915,99.26892
"41981",558.74475,68.32136,98.91579
"41982",558.75806,68.790115,99.019585
"41983",558.77136,69.993744,99.8729
"41984",558.78467,72.13489,101.70135
"41985",558.798,75.22087,104.54155
"41986",558.8113,79.0222,108.193535
"41987",558.8246,83.13603,112.27681
"41988",558.8379,87.07164,116.31042
"41989",558.8512,90.423744,119.88351
"41990",558.8645,92.94087,122.72638
"41991",558.8778,94.53513,124.725044
"41992",558.8911,95.218735,125.86287
"41993",558.9044,95.05516,126.17488
"41994",558.9177,94.14938,125.73958
"41995",558.931,92.64057,124.672935
"41996",558.94434,90.68253,123.10992
"41997",558.95764,88.42176,121.182976
"41998",558.97095,85.97543,118.99983
"41999",558.98425,83.45098,116.66211
"42000",558.99756,80.9485,114.26747
"42001",559.01086,78.58274,111.93135
"42002",559.0242,76.49775,109.80207
"42003",559.0375,74.847336,108.04221
"42004",559.0508,73.75845,106.79231
"42005",559.0641,73.29702,106.13583
"42006",559.0774,73.4313,106.060646
"42007",559.0907,74.03677,106.46085
"42008",559.104,74.94011,107.17784
"42009",559.1173,75.95819,108.0378
"42010",559.1306,76.927444,108.88075
"42011",559.1439,77.72823,109.585526
"42012",559.1572,78.29954,110.08584
"42013",559.17053,78.61448,110.34764
"42014",559.18384,78.675514,110.36538
"42015",559.19714,78.504616,110.15309
"42016",559.21045,78.14084,109.742584
"42017",559.22375,77.61349,109.157135
"42018",559.23706,76.97627,108.44534
"42019",559.25037,76.26826,107.64284
"42020",559.2637,75.528496,106.78646
"42021",559.277,74.80095,105.91918
"42022",559.2903,74.107574,105.06334
"42023",559.3036,73.47524,104.24687
"42024",559.3169,72.91127,103.479004
"42025",559.3302,72.42054,102.766754
"42026",559.3435,71.99817,102.10753
"42027",559.3568,71.641716,101.50102
"42028",559.3701,71.35119,100.949295
"42029",559.3834,71.148544,100.47638
"42030",559.3967,71.11925,100.17047
"42031",559.41003,71.465935,100.23964
"42032",559.42334,72.44007,100.94708
"42033",559.43665,74.23697,102.50774
"42034",559.44995,76.8835,104.974174
"42035",559.46326,80.21118,108.20447
"42036",559.47656,83.87091,111.8708
"42037",559.48987,87.43542,115.55627
"42038",559.5032,90.528725,118.88193
"42039",559.5165,92.909134,121.59136
"42040",559.5298,94.486305,123.571945
"42041",559.5431,95.25048,124.78882
"42042",559.5564,95.25048,125.265396
"42043",559.5697,94.574196,125.06569
"42044",559.583,93.34127,124.28821
"42045",559.5963,91.67132,123.03517
"42046",559.6096,89.69863,121.427216
"42047",559.6229,87.52575,119.55742
"42048",559.6362,85.24544,117.51228
"42049",559.64954,82.94316,115.373924
"42050",559.66284,80.726326,113.24906
"42051",559.67615,78.72434,111.269775
"42052",559.68945,77.07637,109.58194
"42053",559.70276,75.90204,108.316246
"42054",559.71606,75.267265,107.55341
"42055",559.7294,75.16472,107.30297
"42056",559.7427,75.50408,107.491234
"42057",559.756,76.1413,107.98795
"42058",559.7693,76.927444,108.65352
"42059",559.7826,77.713585,109.34364
"42060",559.7959,78.39475,109.95336
"42061",559.8092,78.89769,110.406136
"42062",559.8225,79.183334,110.65733
"42063",559.8358,79.24193,110.69041
"42064",559.8491,79.093,110.51779
"42065",559.8624,78.75853,110.154976
"42066",559.87573,78.27512,109.632774
"42067",559.88904,77.67696,108.98071
"42068",559.90234,77.00557,108.236725
"42069",559.91565,76.30244,107.44002
"42070",559.92896,75.60174,106.62377
"42071",559.94226,74.93034,105.81493
"42072",559.95557,74.31266,105.038826
"42073",559.9689,73.75845,104.30689
"42074",559.9822,73.27505,103.62844
"42075",559.9955,72.85512,102.99836
"42076",560.0088,72.498665,102.41863
"42077",560.0221,72.200806,101.88635
"42078",560.0354,71.96643,101.40825
"42079",560.0487,71.84192,101.032684
"42080",560.062,71.9762,100.91202
"42081",560.0753,72.61829,101.303375
"42082",560.0886,74.01236,102.46677
"42083",560.1019,76.2707,104.537994
"42084",560.11523,79.31518,107.465935
"42085",560.12854,82.85771,110.98707
"42086",560.14185,86.48081,114.69947
"42087",560.15515,89.76944,118.19062
"42088",560.16846,92.42329,121.149765
"42089",560.18176,94.30076,123.41547
"42090",560.19507,95.379875,124.94148
"42091",560.2084,95.69726,125.73949
"42092",560.2217,95.31884,125.85161
"42093",560.235,94.347145,125.35863
"42094",560.2483,92.90181,124.36164
"42095",560.2616,91.107346,122.97036
"42096",560.2749,89.08583,121.29595
"42097",560.2882,86.9276,119.421646
"42098",560.3015,84.70832,117.41885
"42099",560.3148,82.50858,115.36625
"42100",560.3281,80.42359,113.35965
"42101",560.34143,78.572975,111.52227
"42102",560.35474,77.09834,110.003044
"42103",560.36804,76.09247,108.906494
"42104",560.38135,75.6115,108.30342
"42105",560.39465,75.62127,108.17605
"42106",560.40796,76.02411,108.442055
"42107",560.42126,76.67109,108.96479
"42108",560.4346,77.42306,109.61273
"42109",560.4479,78.14572,110.25487
"42110",560.4612,78.746315,110.797516
"42111",560.4745,79.17113,111.18315
"42112",560.4878,79.39086,111.37698
"42113",560.5011,79.39086,111.35795
"42114",560.5144,79.183334,111.131386
"42115",560.5277,78.79515,110.71768
"42116",560.541,78.26292,110.1478
"42117",560.5543,77.63058,109.461174
"42118",560.5676,76.929886,108.68644
"42119",560.58093,76.20233,107.862946
"42120",560.59424,75.48211,107.02405
"42121",560.60754,74.79851,106.199265
"42122",560.62085,74.17349,105.411705
"42123",560.63416,73.633934,104.69007
"42124",560.64746,73.179825,104.037025
"42125",560.66077,72.816055,103.46013
"42126",560.6741,72.52308,102.94266
"42127",560.6874,72.291145,102.477066
"42128",560.7007,72.112915,102.05794
"42129",560.714,71.990845,101.68939
"42130",560.7273,71.9884,101.43666
"42131",560.7406,72.291145,101.489044
"42132",560.7539,73.162735,102.119736
"42133",560.7672,74.83269,103.57603
"42134",560.7805,77.383995,105.96586
"42135",560.7938,80.689705,109.18982
"42136",560.8071,84.422676,112.94434
"42137",560.82043,88.15076,116.81063
"42138",560.83374,91.4638,120.37839
"42139",560.84705,94.09323,123.366066
"42140",560.86035,95.921875,125.635124
"42141",560.87366,96.93263,127.14344
"42142",560.88696,97.15968,127.899635
"42143",560.90027,96.67872,127.95491
"42144",560.9136,95.59472,127.39212
"42145",560.9269,94.05173,126.336464
"42146",560.9402,92.18646,124.91032
"42147",560.9535,90.12344,123.22813
"42148",560.9668,87.96765,121.388695
"42149",560.9801,85.79477,119.4648
"42150",560.9934,83.67803,117.529144
"42151",561.0067,81.69802,115.66407
"42152",561.02,79.9646,113.98371
"42153",561.0333,78.58762,112.60563
"42154",561.04663,77.65011,111.62398
"42155",561.05994,77.18379,111.08423
"42156",561.07324,77.152054,110.964485
"42157",561.08655,77.46212,111.185555
"42158",561.09985,77.98947,111.6336
"42159",561.11316,78.60227,112.18357
"42160",561.12646,79.185776,112.7234
"42161",561.1398,79.66674,113.17892
"42162",561.1531,79.98169,113.48345
"42163",561.1664,80.10132,113.60251
"42164",561.1797,80.01831,113.52267
"42165",561.193,79.744865,113.249794
"42166",561.2063,79.29809,112.795044
"42167",561.2196,78.709694,112.184715
"42168",561.2329,78.01877,111.45347
"42169",561.2462,77.2546,110.62739
"42170",561.2595,76.456245,109.74324
"42171",561.2728,75.665215,108.84147
