"","Time..s.","PPG.trace","Preprocessed.PPG"
"82567",1100.0278,78.79027,126.83701
"82568",1100.0413,78.79515,126.80409
"82569",1100.0544,78.8098,126.78109
"82570",1100.0679,78.836655,126.77075
"82571",1100.081,78.86595,126.763695
"82572",1100.0945,78.90013,126.762436
"82573",1100.1077,78.93187,126.7598
"82574",1100.1211,78.958725,126.75328
"82575",1100.1343,78.97337,126.73539
"82576",1100.1477,78.97826,126.70819
"82577",1100.1609,78.975815,126.67382
"82578",1100.1743,78.96605,126.63205
"82579",1100.1875,78.95384,126.58753
"82580",1100.2009,78.93675,126.53775
"82581",1100.2141,78.924545,126.49232
"82582",1100.2275,78.905014,126.43918
"82583",1100.2407,78.8806,126.38055
"82584",1100.2542,78.8513,126.31627
"82585",1100.2673,78.819565,126.248634
"82586",1100.2808,78.79759,126.18977
"82587",1100.294,78.82689,126.181496
"82588",1100.3074,78.97093,126.28888
"82589",1100.3206,79.28588,126.57167
"82590",1100.334,79.78882,127.05229
"82591",1100.3472,80.445564,127.70244
"82592",1100.3606,81.16823,128.43903
"82593",1100.3738,81.83963,129.14694
"82594",1100.3872,82.35233,129.71713
"82595",1100.4004,82.63798,130.0763
"82596",1100.4138,82.69657,130.21733
"82597",1100.427,82.562294,130.16733
"82598",1100.4404,82.2913,129.97641
"82599",1100.4536,81.93729,129.694
"82600",1100.467,81.549095,129.36635
"82601",1100.4802,81.160904,129.02657
"82602",1100.4937,80.797134,128.69908
"82603",1100.5068,80.45777,128.38463
"82604",1100.5203,80.15991,128.10107
"82605",1100.5334,79.903564,127.849724
"82606",1100.5469,79.693596,127.63674
"82607",1100.56,79.54223,127.4758
"82608",1100.5735,79.4641,127.38337
"82609",1100.5867,79.4641,127.36662
"82610",1100.6001,79.54223,127.428
"82611",1100.6133,79.68383,127.5553
"82612",1100.6267,79.86206,127.72365
"82613",1100.6399,80.045166,127.90244
"82614",1100.6533,80.198975,128.05766
"82615",1100.6665,80.30152,128.16643
"82616",1100.6799,80.33814,128.21248
"82617",1100.6931,80.31129,128.1962
"82618",1100.7065,80.22827,128.12291
"82619",1100.7197,80.10132,128.00308
"82620",1100.7332,79.94507,127.85
"82621",1100.7463,79.77905,127.68227
"82622",1100.7598,79.60815,127.504456
"82623",1100.773,79.43969,127.32375
"82624",1100.7864,79.28344,127.149994
"82625",1100.7996,79.14427,126.988434
"82626",1100.813,79.0222,126.83962
"82627",1100.8262,78.922104,126.70897
"82628",1100.8396,78.84154,126.59472
"82629",1100.8528,78.77806,126.49504
"82630",1100.8662,78.73899,126.417786
"82631",1100.8794,78.71946,126.35885
"82632",1100.8928,78.7219,126.32127
"82633",1100.906,78.73899,126.29842
"82634",1100.9194,78.77074,126.290764
"82635",1100.9326,78.81224,126.29385
"82636",1100.946,78.85863,126.30312
"82637",1100.9592,78.907455,126.316284
"82638",1100.9727,78.95628,126.33097
"82639",1100.9858,79.00023,126.3423
"82640",1100.9993,79.03929,126.35012
"82641",1101.0125,79.063705,126.34451
"82642",1101.0259,79.07591,126.32746
"82643",1101.0391,79.07103,126.2937
"82644",1101.0525,79.05394,126.24758
"82645",1101.0657,79.0515,126.215576
"82646",1101.0791,79.11253,126.24697
"82647",1101.0923,79.293205,126.39991
"82648",1101.1057,79.63256,126.71718
"82649",1101.1189,80.12573,127.19887
"82650",1101.1323,80.71168,127.78874
"82651",1101.1455,81.304955,128.40427
"82652",1101.1589,81.80301,128.9431
"82653",1101.1721,82.13016,129.3266
"82654",1101.1855,82.25956,129.52257
"82655",1101.1987,82.210724,129.54434
"82656",1101.2122,82.02518,129.42789
"82657",1101.2253,81.74929,129.21529
"82658",1101.2388,81.42214,128.94281
"82659",1101.252,81.07057,128.63568
"82660",1101.2654,80.72144,128.32
"82661",1101.2786,80.38941,128.01053
"82662",1101.292,80.079346,127.71263
"82663",1101.3052,79.798584,127.43435
"82664",1101.3186,79.55688,127.18635
"82665",1101.3318,79.364006,126.97963
"82666",1101.3452,79.22972,126.82547
"82667",1101.3584,79.168686,126.740364
"82668",1101.3718,79.1931,126.7388
"82669",1101.385,79.30297,126.823456
"82670",1101.3984,79.483635,126.98234
"82671",1101.4116,79.69848,127.181046
"82672",1101.425,79.91333,127.386475
"82673",1101.4382,80.09155,127.56199
"82674",1101.4517,80.20874,127.68204
"82675",1101.4648,80.25025,127.73007
"82676",1101.4783,80.22339,127.71103
"82677",1101.4915,80.14282,127.63744
"82678",1101.5049,80.025635,127.52472
"82679",1101.5181,79.87671,127.376595
"82680",1101.5315,79.71557,127.2116
"82681",1101.5447,79.54711,127.034256
"82682",1101.5581,79.381096,126.85409
"82683",1101.5713,79.2224,126.67605
"82684",1101.5847,79.07591,126.505264
"82685",1101.5979,78.94652,126.34699
"82686",1101.6113,78.836655,126.20421
"82687",1101.6245,78.74876,126.079956
"82688",1101.638,78.68284,125.97494
"82689",1101.6511,78.641335,125.89227
"82690",1101.6646,78.62913,125.83761
"82691",1101.6777,78.63401,125.79965
"82692",1101.6912,78.658424,125.78138
"82693",1101.7043,78.69016,125.771194
"82694",1101.7178,78.729225,125.769325
"82695",1101.731,78.77806,125.77845
"82696",1101.7444,78.870834,125.83304
"82697",1101.7576,79.061264,125.98818
"82698",1101.771,79.395744,126.29333
"82699",1101.7842,79.89136,126.77006
"82700",1101.7976,80.51148,127.38679
"82701",1101.8108,81.180435,128.07173
"82702",1101.8242,81.80301,128.7312
"82703",1101.8374,82.28397,129.26851
"82704",1101.8508,82.57206,129.62798
"82705",1101.864,82.65751,129.79381
"82706",1101.8774,82.56962,129.78897
"82707",1101.8906,82.34745,129.64711
"82708",1101.904,82.037384,129.4104
"82709",1101.9172,81.67849,129.11517
"82710",1101.9307,81.31472,128.80386
"82711",1101.9438,80.96071,128.49094
"82712",1101.9573,80.63111,128.19136
"82713",1101.9705,80.33082,127.91079
"82714",1101.9839,80.062256,127.652565
"82715",1101.9971,79.823,127.41525
"82716",1102.0105,79.62768,127.2144
"82717",1102.0237,79.48119,127.05628
"82718",1102.0371,79.412834,126.97171
"82719",1102.0503,79.42504,126.96557
"82720",1102.0637,79.5227,127.04526
"82721",1102.0769,79.68627,127.19392
"82722",1102.0903,79.888916,127.38676
"82723",1102.1035,80.08911,127.58348
"82724",1102.117,80.25269,127.74985
"82725",1102.1301,80.35279,127.85784
"82726",1102.1436,80.37965,127.89572
"82727",1102.1567,80.343025,127.870964
"82728",1102.1702,80.24536,127.78402
"82729",1102.1833,80.111084,127.65741
"82730",1102.1968,79.95239,127.50219
"82731",1102.21,79.781494,127.3298
"82732",1102.2234,79.61059,127.15207
"82733",1102.2366,79.447014,126.976326
"82734",1102.25,79.29565,126.80768
"82735",1102.2632,79.15648,126.6465
"82736",1102.2766,79.029526,126.49319
"82737",1102.2898,78.91722,126.350555
"82738",1102.3032,78.82445,126.223946
"82739",1102.3164,78.746315,126.10908
"82740",1102.3298,78.69016,126.01375
"82741",1102.343,78.65598,125.93864
"82742",1102.3564,78.64622,125.88687
"82743",1102.3696,78.6804,125.878746
"82744",1102.383,78.802475,125.95959
"82745",1102.3962,79.078354,126.198044
"82746",1102.4097,79.54223,126.63312
"82747",1102.4229,80.181885,127.25847
"82748",1102.4363,80.94606,128.02832
"82749",1102.4495,81.722435,128.83426
"82750",1102.4629,82.388954,129.55461
"82751",1102.4761,82.85039,130.0907
"82752",1102.4895,83.07744,130.40683
"82753",1102.5027,83.07744,130.503
"82754",1102.5161,82.90166,130.4234
"82755",1102.5293,82.60136,130.21378
"82756",1102.5427,82.2327,129.9264
"82757",1102.5559,81.83719,129.60068
"82758",1102.5693,81.45144,129.27234
"82759",1102.5825,81.094986,128.96124
"82760",1102.596,80.782486,128.68297
"82761",1102.6091,80.51148,128.43642
"82762",1102.6226,80.274666,128.21559
"82763",1102.6357,80.07446,128.02397
"82764",1102.6492,79.91089,127.862724
"82765",1102.6624,79.7937,127.74275
"82766",1102.6758,79.73998,127.68259
"82767",1102.689,79.75464,127.68912
"82768",1102.7024,79.835205,127.76202
"82769",1102.7156,79.96216,127.88382
"82770",1102.729,80.10864,128.02911
"82771",1102.7422,80.233154,128.15701
"82772",1102.7556,80.31373,128.24487
"82773",1102.7688,80.3357,128.27666
"82774",1102.7822,80.29664,128.2481
"82775",1102.7954,80.20386,128.16458
"82776",1102.8088,80.076904,128.044
"82777",1102.822,79.92554,127.89504
"82778",1102.8354,79.764404,127.73158
"82779",1102.8486,79.603264,127.56308
"82780",1102.862,79.4519,127.399315
"82781",1102.8752,79.31274,127.24303
"82782",1102.8887,79.19066,127.09947
"82783",1102.9019,79.08324,126.96676
"82784",1102.9153,78.992905,126.84778
"82785",1102.9285,78.91234,126.73574
"82786",1102.9419,78.839096,126.62851
"82787",1102.9551,78.78294,126.53608
"82788",1102.9685,78.75365,126.46875
"82789",1102.9817,78.79027,126.46642
"82790",1102.9951,78.95384,126.59219
"82791",1103.0083,79.30297,126.90863
"82792",1103.0217,79.84741,127.43129
"82793",1103.0349,80.5481,128.12721
"82794",1103.0483,81.31228,128.90852
"82795",1103.0615,82.01541,129.65266
"82796",1103.075,82.547646,130.24788
"82797",1103.0881,82.847946,130.62779
"82798",1103.1016,82.92119,130.79004
"82799",1103.1147,82.804,130.76414
"82800",1103.1282,82.55253,130.6003
"82801",1103.1414,82.22293,130.35046
"82802",1103.1548,81.86893,130.06593
"82803",1103.168,81.52224,129.77765
"82804",1103.1814,81.20973,129.51271
"82805",1103.1946,80.94362,129.28441
"82806",1103.208,80.71412,129.0844
"82807",1103.2212,80.5066,128.8992
"82808",1103.2346,80.32105,128.72949
"82809",1103.2478,80.15259,128.57106
"82810",1103.2612,80.01099,128.43423
"82811",1103.2744,79.91821,128.3418
"82812",1103.2878,79.886475,128.3075
"82813",1103.301,79.91333,128.33081
"82814",1103.3145,79.98169,128.39645
"82815",1103.3276,80.07202,128.4862
"82816",1103.3411,80.15503,128.57147
"82817",1103.3542,80.20874,128.63004
"82818",1103.3677,80.218506,128.64633
"82819",1103.3809,80.181885,128.61655
"82820",1103.3943,80.1062,128.54654
"82821",1103.4075,79.99634,128.44
"82822",1103.4209,79.86206,128.3056
"82823",1103.4341,79.71313,128.15236
"82824",1103.4475,79.56664,127.99691
"82825",1103.4607,79.42016,127.83688
"82826",1103.4741,79.281,127.6796
"82827",1103.4873,79.15892,127.53506
"82828",1103.5007,79.05394,127.40379
"82829",1103.5139,78.96117,127.281456
"82830",1103.5273,78.88304,127.17087
"82831",1103.5405,78.81712,127.070045
"82832",1103.554,78.76341,126.97937
"82833",1103.5671,78.75365,126.93096
"82834",1103.5806,78.839096,126.97746
"82835",1103.5938,79.08568,127.18777
"82836",1103.6072,79.53246,127.60598
"82837",1103.6204,80.16235,128.22125
"82838",1103.6338,80.902115,128.9661
"82839",1103.647,81.64187,129.73404
"82840",1103.6604,82.25712,130.4006
"82841",1103.6736,82.667274,130.8813
"82842",1103.687,82.83574,131.13312
"82843",1103.7002,82.794235,131.18024
"82844",1103.7136,82.58427,131.05759
"82845",1103.7268,82.27177,130.82585
"82846",1103.7402,81.91287,130.53795
"82847",1103.7534,81.55398,130.23883
"82848",1103.7668,81.22438,129.9578
"82849",1103.78,80.94362,129.7153
"82850",1103.7935,80.71168,129.51285
"82851",1103.8066,80.51392,129.33734
"82852",1103.8201,80.3357,129.17519
"82853",1103.8333,80.17212,129.0221
"82854",1103.8467,80.02075,128.8761
"82855",1103.8599,79.89624,128.75223
"82856",1103.8733,79.815674,128.66843
"82857",1103.8865,79.79126,128.63824
"82858",1103.8999,79.815674,128.65613
"82859",1103.9131,79.87427,128.70895
"82860",1103.9265,79.94507,128.77582
"82861",1103.9397,80.00122,128.83026
"82862",1103.9531,80.01831,128.84738
"82863",1103.9663,79.991455,128.8211
"82864",1103.9797,79.920654,128.75003
"82865",1103.9929,79.80835,128.63525
"82866",1104.0063,79.66674,128.48766
"82867",1104.0195,79.51049,128.32098
"82868",1104.033,79.3518,128.14699
"82869",1104.0461,79.202866,127.9778
"82870",1104.0596,79.06615,127.81617
"82871",1104.0728,78.94652,127.66736
"82872",1104.0862,78.84154,127.52946
"82873",1104.0994,78.75609,127.40781
"82874",1104.1128,78.68284,127.295685
"82875",1104.126,78.624245,127.19593
"82876",1104.1394,78.57786,127.10655
"82877",1104.1526,78.54368,127.02793
"82878",1104.166,78.52415,126.96289
"82879",1104.1792,78.538795,126.93142
"82880",1104.1926,78.6218,126.968765
"82881",1104.2058,78.83421,127.13811
"82882",1104.2192,79.2224,127.48986
"82883",1104.2324,79.79126,128.03442
"82884",1104.2458,80.49439,128.73103
"82885",1104.259,81.24147,129.49356
"82886",1104.2725,81.90555,130.19644
"82887",1104.2856,82.37675,130.72719
"82888",1104.2991,82.60624,131.03096
"82889",1104.3123,82.60868,131.11485
"82890",1104.3257,82.423134,131.01083
"82891",1104.3389,82.11795,130.78137
"82892",1104.3523,81.761505,130.49112
"82893",1104.3655,81.40749,130.19215
"82894",1104.3789,81.08278,129.91142
"82895",1104.3921,80.8069,129.66939
"82896",1104.4055,80.57984,129.46754
"82897",1104.4187,80.38941,129.29524
"82898",1104.4321,80.22095,129.13895
"82899",1104.4453,80.06714,128.99203
"82900",1104.4587,79.93042,128.85742
"82901",1104.4719,79.823,128.74783
"82902",1104.4854,79.75952,128.67883
"82903",1104.4985,79.744865,128.65666
"82904",1104.512,79.77417,128.678
"82905",1104.5251,79.835205,128.73196
"82906",1104.5386,79.903564,128.79517
"82907",1104.5518,79.954834,128.84341
"82908",1104.5652,79.974365,128.86154
"82909",1104.5784,79.94751,128.8339
"82910",1104.5918,79.87427,128.759
"82911",1104.605,79.75952,128.64032
"82912",1104.6184,79.61791,128.4912
"82913",1104.6316,79.46166,128.323
"82914",1104.645,79.30297,128.14748
"82915",1104.6582,79.149155,127.97188
"82916",1104.6716,79.00511,127.80125
"82917",1104.6848,78.87572,127.64076
"82918",1104.6982,78.76341,127.493324
"82919",1104.7114,78.67307,127.36434
"82920",1104.7249,78.60471,127.25452
"82921",1104.738,78.555885,127.16209
"82922",1104.7515,78.521706,127.08278
"82923",1104.7646,78.504616,127.01949
"82924",1104.7781,78.49729,126.96544
"82925",1104.7913,78.502174,126.92336
"82926",1104.8047,78.51194,126.88632
"82927",1104.8179,78.53147,126.85935
"82928",1104.8313,78.56565,126.84764
"82929",1104.8445,78.64866,126.885826
"82930",1104.8579,78.83421,127.02915
"82931",1104.8711,79.17845,127.33696
"82932",1104.8845,79.69604,127.82887
"82933",1104.8977,80.34791,128.47124
"82934",1104.9111,81.0486,129.1828
"82935",1104.9243,81.69314,129.8601
"82936",1104.9377,82.1741,130.39398
"82937",1104.9509,82.4329,130.72072
"82938",1104.9644,82.46952,130.83337
"82939",1104.9775,82.32304,130.76407
"82940",1104.991,82.04959,130.56322
"82941",1105.0042,81.705345,130.28302
"82942",1105.0176,81.35134,129.98232
"82943",1105.0308,81.02174,129.69495
"82944",1105.0442,80.740974,129.4461
"82945",1105.0574,80.51148,129.23978
"82946",1105.0708,80.31373,129.05801
"82947",1105.084,80.14038,128.89447
"82948",1105.0974,79.97925,128.73773
"82949",1105.1106,79.84253,128.60037
"82950",1105.124,79.742424,128.49535
"82951",1105.1372,79.691154,128.43602
"82952",1105.1506,79.70092,128.43613
"82953",1105.1638,79.76929,128.49515
"82954",1105.1772,79.869385,128.58804
"82955",1105.1904,79.96948,128.68405
"82956",1105.2039,80.04761,128.76123
"82957",1105.217,80.076904,128.79202
"82958",1105.2305,80.05249,128.77002
"82959",1105.2437,79.974365,128.69354
"82960",1105.2571,79.85474,128.57312
"82961",1105.2703,79.7058,128.41965
"82962",1105.2837,79.53979,128.24443
"82963",1105.2969,79.37133,128.06158
"82964",1105.3103,79.20531,127.875916
"82965",1105.3235,79.05394,127.699715
"82966",1105.3369,78.92943,127.54564
"82967",1105.3501,78.82689,127.409645
"82968",1105.3635,78.746315,127.29241
"82969",1105.3767,78.69016,127.19708
"82970",1105.3901,78.65354,127.11953
"82971",1105.4033,78.63401,127.05792
"82972",1105.4167,78.63157,127.012794
"82973",1105.4299,78.641335,126.9798
"82974",1105.4434,78.66575,126.961754
"82975",1105.4565,78.69749,126.9518
"82976",1105.47,78.72678,126.94039
"82977",1105.4832,78.751205,126.925026
"82978",1105.4966,78.77074,126.90553
"82979",1105.5098,78.802475,126.89886
"82980",1105.5232,78.89281,126.95177
"82981",1105.5364,79.093,127.11736
"82982",1105.5498,79.45434,127.450356
"82983",1105.563,79.97681,127.95577
"82984",1105.5764,80.61158,128.58981
"82985",1105.5896,81.270775,129.26813
"82986",1105.603,81.84207,129.87914
"82987",1105.6162,82.230255,130.32489
"82988",1105.6296,82.39872,130.56305
"82989",1105.6428,82.357216,130.59651
"82990",1105.6562,82.15213,130.46509
"82991",1105.6694,81.846954,130.22717
"82992",1105.6829,81.50759,129.94553
"82993",1105.696,81.16823,129.65327
"82994",1105.7095,80.86061,129.38217
"82995",1105.7227,80.59205,129.1405
"82996",1105.7361,80.36256,128.92952
"82997",1105.7493,80.16235,128.74065
"82998",1105.7627,79.99634,128.57971
"82999",1105.7759,79.86206,128.44531
"83000",1105.7893,79.766846,128.3458
"83001",1105.8025,79.72045,128.29211
"83002",1105.8159,79.727776,128.2907
"83003",1105.8291,79.78882,128.34323
"83004",1105.8425,79.886475,128.4343
"83005",1105.8557,79.99634,128.54062
"83006",1105.8691,80.093994,128.63815
"83007",1105.8823,80.147705,128.6948
"83008",1105.8958,80.14282,128.69452
"83009",1105.9089,80.079346,128.6355
"83010",1105.9224,79.96948,128.5281
"83011",1105.9355,79.82544,128.38312
"83012",1105.949,79.66186,128.21408
"83013",1105.9622,79.4934,128.03505
"83014",1105.9756,79.33227,127.858086
"83015",1105.9888,79.17845,127.6834
"83016",1106.0022,79.044174,127.52345
"83017",1106.0154,78.92943,127.37884
"83018",1106.0288,78.836655,127.25261
"83019",1106.042,78.75853,127.13813
"83020",1106.0554,78.69993,127.04073
"83021",1106.0686,78.65598,126.95616
"83022",1106.082,78.62913,126.88731
"83023",1106.0952,78.624245,126.839584
"83024",1106.1086,78.63645,126.8088
"83025",1106.1218,78.66819,126.79793
"83026",1106.1353,78.709694,126.79781
"83027",1106.1484,78.751205,126.799
"83028",1106.1619,78.79027,126.79904
"83029",1106.175,78.82201,126.79298
"83030",1106.1885,78.836655,126.77081
"83031",1106.2017,78.84154,126.73934
"83032",1106.2151,78.86351,126.72511
"83033",1106.2283,78.9514,126.77749
"83034",1106.2417,79.168686,126.962006
"83035",1106.2549,79.551994,127.319336
"83036",1106.2683,80.09888,127.85222
"83037",1106.2815,80.75075,128.50717
"83038",1106.2949,81.40261,129.1825
"83039",1106.3081,81.94461,129.76833
"83040",1106.3215,82.29374,130.17822
"83041",1106.3347,82.423134,130.3793
"83042",1106.3481,82.34989,130.38179
"83043",1106.3613,82.12039,130.22572
"83044",1106.3748,81.79324,129.96484
"83045",1106.388,81.42458,129.65222
"83046",1106.4014,81.05348,129.32564
"83047",1106.4146,80.71168,129.01675
"83048",1106.428,80.40894,128.73627
"83049",1106.4412,80.15015,128.49025
"83050",1106.4546,79.93042,128.2752
"83051",1106.4678,79.7522,128.09482
"83052",1106.4812,79.61303,127.94791
"83053",1106.4944,79.52758,127.850365
"83054",1106.5078,79.50317,127.81119
"83055",1106.521,79.54711,127.83961
"83056",1106.5344,79.65209,127.930435
"83057",1106.5476,79.78882,128.05629
"83058",1106.561,79.92798,128.18884
"83059",1106.5742,80.042725,128.30133
"83060",1106.5876,80.10132,128.36127
"83061",1106.6008,80.096436,128.35956
"83062",1106.6143,80.03052,128.29666
"83063",1106.6274,79.91577,128.18286
"83064",1106.6409,79.76196,128.02643
"83065",1106.654,79.588615,127.84564
"83066",1106.6675,79.41039,127.654564
"83067",1106.6807,79.24193,127.467674
"83068",1106.6941,79.09056,127.29262
"83069",1106.7073,78.95384,127.12748
"83070",1106.7207,78.83421,126.97516
"83071",1106.7339,78.73411,126.83862
"83072",1106.7473,78.64866,126.713615
"83073",1106.7605,78.58518,126.60791
"83074",1106.7739,78.54124,126.51975
"83075",1106.7871,78.519264,126.452194
"83076",1106.8005,78.521706,126.40836
"83077",1106.8137,78.54856,126.38902
"83078",1106.8271,78.590065,126.38517
"83079",1106.8403,78.643776,126.39482
"83080",1106.8538,78.69993,126.40859
"83081",1106.867,78.75609,126.424126
"83082",1106.8804,78.802475,126.43164
"83083",1106.8936,78.839096,126.43084
"83084",1106.907,78.86107,126.416534
"83085",1106.9202,78.86351,126.383385
"83086",1106.9336,78.84642,126.33078
"83087",1106.9468,78.82689,126.2752
"83088",1106.9602,78.839096,126.25075
"83089",1106.9734,78.941635,126.31701
"83090",1106.9868,79.19554,126.53784
"83091",1107,79.63744,126.954605
"83092",1107.0134,80.24048,127.54631
"83093",1107.0266,80.93141,128.24475
"83094",1107.04,81.59304,128.93549
"83095",1107.0532,82.11551,129.50774
"83096",1107.0667,82.423134,129.88147
"83097",1107.0798,82.5037,130.03777
"83098",1107.0933,82.388954,130.00127
"83099",1107.1064,82.1326,129.81956
"83100",1107.1199,81.795685,129.5493
"83101",1107.133,81.427025,129.23676
"83102",1107.1465,81.06081,128.91513
"83103",1107.1597,80.71412,128.6016
"83104",1107.1731,80.40162,128.31142
"83105",1107.1863,80.12573,128.04808
"83106",1107.1997,79.886475,127.81275
"83107",1107.2129,79.691154,127.613884
"83108",1107.2263,79.54711,127.46019
"83109",1107.2395,79.47143,127.37035
"83110",1107.2529,79.47631,127.35872
"83111",1107.2661,79.55932,127.42536
"83112",1107.2795,79.70336,127.55563
"83113",1107.2927,79.88403,127.727036
"83114",1107.3062,80.05737,127.89675
"83115",1107.3193,80.18921,128.03038
"83116",1107.3328,80.255135,128.10222
"83117",1107.346,80.2478,128.10286
"83118",1107.3594,80.17944,128.04224
"83119",1107.3726,80.06714,127.93554
"83120",1107.386,79.923096,127.793594
"83121",1107.3992,79.766846,127.63494
"83122",1107.4126,79.605705,127.466515
"83123",1107.4258,79.447014,127.2955
"83124",1107.4392,79.29565,127.126854
"83125",1107.4524,79.15892,126.96812
"83126",1107.4658,79.04173,126.824646
"83127",1107.479,78.941635,126.6946
"83128",1107.4924,78.86107,126.58096
"83129",1107.5056,78.79515,126.479454
"83130",1107.519,78.75365,126.4003
"83131",1107.5322,78.72678,126.33449
"83132",1107.5457,78.71946,126.28738
"83133",1107.5588,78.73167,126.25957
"83134",1107.5723,78.765854,126.25412
"83135",1107.5854,78.80736,126.25706
"83136",1107.5989,78.86595,126.27838
"83137",1107.612,78.924545,126.30154
"83138",1107.6255,78.9807,126.32408
"83139",1107.6387,79.027084,126.338615
"83140",1107.6521,79.05882,126.33995
"83141",1107.6653,79.07103,126.32275
"83142",1107.6787,79.063705,126.28639
"83143",1107.6919,79.05394,126.24737
"83144",1107.7053,79.07591,126.23978
"83145",1107.7185,79.19066,126.325645
"83146",1107.7319,79.45678,126.566475
"83147",1107.7451,79.89868,126.9914
"83148",1107.7585,80.49683,127.58639
"83149",1107.7717,81.16823,128.27332
"83150",1107.7852,81.80545,128.94705
"83151",1107.7983,82.29862,129.49664
"83152",1107.8118,82.579384,129.84924
"83153",1107.825,82.633095,129.98357
"83154",1107.8384,82.49149,129.92426
"83155",1107.8516,82.210724,129.72134
"83156",1107.865,81.849396,129.42911
"83157",1107.8782,81.45632,129.09383
"83158",1107.8916,81.075455,128.75847
"83159",1107.9048,80.72144,128.43806
"83160",1107.9182,80.4065,128.14568
"83161",1107.9314,80.12573,127.87761
"83162",1107.9448,79.88403,127.63984
"83163",1107.958,79.674065,127.42625
"83164",1107.9714,79.51049,127.25249
"83165",1107.9846,79.40795,127.13465
"83166",1107.998,79.381096,127.089294
"83167",1108.0112,79.43969,127.12855
"83168",1108.0247,79.57397,127.245316
"83169",1108.0378,79.75952,127.41756
"83170",1108.0513,79.954834,127.605354
"83171",1108.0645,80.11597,127.765076
"83172",1108.0779,80.218506,127.87124
"83173",1108.0911,80.24536,127.90492
"83174",1108.1045,80.201416,127.868645
"83175",1108.1177,80.093994,127.76752
"83176",1108.1311,79.94751,127.62397
"83177",1108.1443,79.77905,127.45387
"83178",1108.1577,79.59838,127.2663
"83179",1108.1709,79.41772,127.07308
"83180",1108.1843,79.24925,126.88642
"83181",1108.1975,79.10033,126.714035
"83182",1108.2109,78.96605,126.55164
"83183",1108.2241,78.8513,126.40459
"83184",1108.2375,78.74876,126.26614
"83185",1108.2507,78.66575,126.144035
"83186",1108.2642,78.60471,126.041306
"83187",1108.2773,78.56565,125.95864
"83188",1108.2908,78.551,125.89917
"83189",1108.304,78.555885,125.85877
"83190",1108.3174,78.5803,125.83806
"83191",1108.3306,78.61692,125.830315
"83192",1108.344,78.66575,125.83592
"83193",1108.3572,78.7219,125.85038
"83194",1108.3706,78.7805,125.86904
"83195",1108.3838,78.836655,125.887085
"83196",1108.3972,78.87816,125.892235
"83197",1108.4104,78.89769,125.87671
"83198",1108.4238,78.90257,125.847145
"83199",1108.437,78.91478,125.82506
"83200",1108.4504,78.98802,125.86439
"83201",1108.4636,79.183334,126.028076
"83202",1108.477,79.551994,126.371216
"83203",1108.4902,80.096436,126.90166
"83204",1108.5037,80.762955,127.57119
"83205",1108.5168,81.45632,128.2884
"83206",1108.5303,82.06424,128.94183
"83207",1108.5435,82.48905,129.43115
"83208",1108.5569,82.686806,129.7067
"83209",1108.5701,82.669716,129.77357
"83210",1108.5835,82.4744,129.6617
"83211",1108.5967,82.15701,129.42163
"83212",1108.6101,81.77615,129.10818
"83213",1108.6233,81.3782,128.76573
"83214",1108.6367,80.990005,128.42061
"83215",1108.6499,80.635994,128.09753
"83216",1108.6633,80.325935,127.80735
"83217",1108.6765,80.05493,127.54653
"83218",1108.69,79.823,127.316315
"83219",1108.7031,79.63256,127.120346
"83220",1108.7166,79.48852,126.96482
"83221",1108.7297,79.40551,126.86583
"83222",1108.7432,79.40063,126.84237
"83223",1108.7563,79.48119,126.904205
"83224",1108.7698,79.63256,127.03936
"83225",1108.783,79.82544,127.22076
"83226",1108.7964,80.025635,127.4155
"83227",1108.8096,80.18921,127.57987
"83228",1108.823,80.2942,127.69077
"83229",1108.8362,80.31861,127.72438
"83230",1108.8496,80.26978,127.68551
"83231",1108.8628,80.15991,127.58407
"83232",1108.8762,80.00366,127.432816
"83233",1108.8894,79.823,127.252266
"83234",1108.9028,79.639885,127.06362
"83235",1108.916,79.45922,126.871704
"83236",1108.9294,79.293205,126.68879
"83237",1108.9426,79.13939,126.512886
"83238",1108.956,79.00511,126.351715
"83239",1108.9692,78.88548,126.201
"83240",1108.9827,78.77806,126.05875
"83241",1108.9958,78.69016,125.93266
"83242",1109.0093,78.624245,125.82581
"83243",1109.0225,78.57786,125.736435
"83244",1109.0359,78.555885,125.67002
"83245",1109.0491,78.56077,125.629776
"83246",1109.0625,78.58762,125.61166
"83247",1109.0757,78.63645,125.61635
"83248",1109.0891,78.70237,125.639656
"83249",1109.1023,78.77318,125.669914
"83250",1109.1157,78.84154,125.699936
"83251",1109.1289,78.890366,125.71256
"83252",1109.1423,78.91966,125.707184
"83253",1109.1555,78.941635,125.6954
"83254",1109.169,79.00511,125.7258
"83255",1109.1821,79.17113,125.860725
"83256",1109.1956,79.50317,126.16686
"83257",1109.2087,80.01343,126.6616
"83258",1109.2222,80.66773,127.31632
"83259",1109.2354,81.375755,128.04521
"83260",1109.2488,82.01541,128.72786
"83261",1109.262,82.48661,129.26204
"83262",1109.2754,82.72831,129.58145
"83263",1109.2886,82.7454,129.6838
"83264",1109.302,82.57694,129.60115
"83265",1109.3152,82.28153,129.38628
"83266",1109.3286,81.91531,129.09135
"83267",1109.3418,81.5198,128.75569
"83268",1109.3552,81.13405,128.41743
"83269",1109.3684,80.77272,128.09155
"83270",1109.3818,80.45045,127.79343
"83271",1109.395,80.16235,127.51941
"83272",1109.4084,79.91577,127.2779
"83273",1109.4216,79.710686,127.07018
"83274",1109.435,79.551994,126.90245
"83275",1109.4482,79.449455,126.78591
"83276",1109.4617,79.42016,126.73941
"83277",1109.4749,79.47143,126.77256
"83278",1109.4883,79.59594,126.880554
"83279",1109.5015,79.77417,127.04616
"83280",1109.5149,79.971924,127.236855
"83281",1109.5281,80.15259,127.41664
"83282",1109.5415,80.28687,127.555695
"83283",1109.5547,80.34547,127.62325
"83284",1109.5681,80.32838,127.61696
"83285",1109.5813,80.2478,127.546646
"83286",1109.5947,80.11841,127.424995
"83287",1109.6079,79.95239,127.26268
"83288",1109.6213,79.77905,127.08785
"83289",1109.6345,79.603264,126.90516
"83290",1109.648,79.43969,126.72919
"83291",1109.6611,79.28344,126.55543
"83292",1109.6746,79.14671,126.39631
"83293",1109.6877,79.027084,126.250015
"83294",1109.7012,78.924545,126.11707
"83295",1109.7144,78.839096,125.99802
"83296",1109.7278,78.77806,125.9007
"83297",1109.741,78.74387,125.82833
"83298",1109.7544,78.73655,125.78175
"83299",1109.7676,78.751205,125.75693
"83300",1109.781,78.79271,125.75941
"83301",1109.7942,78.8513,125.78027
"83302",1109.8076,78.922104,125.81518
"83303",1109.8208,78.992905,125.852295
"83304",1109.8342,79.061264,125.88918
"83305",1109.8474,79.11742,125.916
"83306",1109.8608,79.15892,125.929924
"83307",1109.874,79.1931,125.93782
"83308",1109.8875,79.24925,125.96876
"83309",1109.9006,79.39086,126.08691
"83310",1109.9141,79.674065,126.351074
"83311",1109.9272,80.13306,126.79988
"83312",1109.9407,80.740974,127.41196
"83313",1109.9539,81.427025,128.12117
"83314",1109.9673,82.08133,128.82007
"83315",1109.9805,82.59647,129.40025
"83316",1109.9939,82.896774,129.7817
"83317",1110.0071,82.9749,129.95035
"83318",1110.0205,82.85771,129.92613
"83319",1110.0337,82.59647,129.7542
"83320",1110.0471,82.23758,129.47644
"83321",1110.0603,81.84207,129.15086
"83322",1110.0737,81.43923,128.80559
"83323",1110.0869,81.06081,128.47214
"83324",1110.1003,80.71656,128.16104
"83325",1110.1135,80.411385,127.87826
"83326",1110.127,80.1355,127.61523
"83327",1110.1401,79.886475,127.37044
"83328",1110.1536,79.674065,127.15448
"83329",1110.1667,79.520256,126.990486
"83330",1110.1802,79.43725,126.89249
"83331",1110.1934,79.43969,126.87734
"83332",1110.2068,79.52758,126.94772
"83333",1110.22,79.68627,127.09165
"83334",1110.2334,79.87915,127.27473
"83335",1110.2466,80.06958,127.46138
"83336",1110.26,80.22339,127.61736
"83337",1110.2732,80.31861,127.71957
"83338",1110.2866,80.34547,127.75638
"83339",1110.2998,80.29908,127.72079
"83340",1110.3132,80.198975,127.63003
"83341",1110.3264,80.05493,127.4922
"83342",1110.3398,79.8938,127.33279
"83343",1110.353,79.725334,127.161
"83344",1110.3665,79.56176,126.988846
"83345",1110.3796,79.40795,126.82134
"83346",1110.3931,79.26635,126.66124
"83347",1110.4062,79.13695,126.50891
"83348",1110.4197,79.0222,126.367195
"83349",1110.4329,78.91722,126.23166
"83350",1110.4463,78.83177,126.11237
"83351",1110.4595,78.765854,126.00995
"83352",1110.4729,78.729225,125.93475
"83353",1110.4861,78.71702,125.882835
"83354",1110.4995,78.73411,125.85983
"83355",1110.5127,78.77074,125.8569
"83356",1110.5261,78.82445,125.8722
"83357",1110.5393,78.8806,125.89162
"83358",1110.5527,78.92943,125.905464
"83359",1110.5659,78.97826,125.92084
"83360",1110.5793,79.0515,125.96215
"83361",1110.5925,79.202866,126.08388
"83362",1110.606,79.48852,126.34462
"83363",1110.6191,79.94751,126.78763
"83364",1110.6326,80.55543,127.393906
"83365",1110.6458,81.253685,128.10953
"83366",1110.6592,81.9324,128.82742
"83367",1110.6724,82.47929,129.4347
"83368",1110.6858,82.82109,129.85397
"83369",1110.699,82.93584,130.05688
"83370",1110.7124,82.84062,130.05342
"83371",1110.7256,82.58915,129.89072
"83372",1110.739,82.23758,129.62006
"83373",1110.7522,81.84451,129.29692
"83374",1110.7656,81.44167,128.95172
"83375",1110.7788,81.06325,128.61835
"83376",1110.7922,80.71412,128.30244
"83377",1110.8054,80.40162,128.01227
"83378",1110.8188,80.12329,127.74649
"83379",1110.832,79.87915,127.5062
"83380",1110.8455,79.67895,127.30222
"83381",1110.8586,79.53246,127.145706
"83382",1110.8721,79.4519,127.05053
"83383",1110.8853,79.447014,127.02852
"83384",1110.8987,79.517815,127.08204
"83385",1110.9119,79.64965,127.19881
"83386",1110.9253,79.82544,127.36365
"83387",1110.9385,80.008545,127.5413
"83388",1110.9519,80.164795,127.697815
"83389",1110.9651,80.26734,127.80551
"83390",1110.9785,80.30152,127.848045
"83391",1110.9917,80.26734,127.82329
"83392",1111.0051,80.177,127.7413
"83393",1111.0183,80.045166,127.615
"83394",1111.0317,79.888916,127.46016
"83395",1111.0449,79.725334,127.293106
"83396",1111.0583,79.554436,127.113625
"83397",1111.0715,79.39086,126.93613
"83398",1111.085,79.23949,126.76572
"83399",1111.0981,79.10033,126.60279
"83400",1111.1116,78.97826,126.45261
"83401",1111.1248,78.873276,126.3157
"83402",1111.1382,78.78294,126.190155
"83403",1111.1514,78.71458,126.083755
"83404",1111.1648,78.66575,125.99476
"83405",1111.178,78.64622,125.93353
"83406",1111.1914,78.65598,125.90099
"83407",1111.2046,78.69016,125.89317
"83408",1111.218,78.74143,125.90351
"83409",1111.2312,78.80003,125.92278
"83410",1111.2446,78.856186,125.94144
"83411",1111.2578,78.905014,125.95452
"83412",1111.2712,78.94896,125.96425
"83413",1111.2844,79.0222,126.00465
"83414",1111.2979,79.18089,126.13278
"83415",1111.311,79.47875,126.405045
"83416",1111.3245,79.95239,126.8624
"83417",1111.3376,80.5774,127.485916
"83418",1111.3511,81.27566,128.20222
"83419",1111.3643,81.94949,128.91592
"83420",1111.3777,82.48661,129.51396
"83421",1111.3909,82.81377,129.91882
"83422",1111.4043,82.913864,130.10686
"83423",1111.4175,82.81621,130.10027
"83424",1111.4309,82.56962,129.94168
"83425",1111.4441,82.22537,129.67773
"83426",1111.4575,81.832306,129.35422
"83427",1111.4707,81.43191,129.01108
"83428",1111.4841,81.04616,128.67007
"83429",1111.4973,80.68482,128.34143
"83430",1111.5107,80.36256,128.04057
"83431",1111.5239,80.08423,127.773575
"83432",1111.5374,79.84985,127.54183
"83433",1111.5505,79.6643,127.351585
"83434",1111.564,79.53246,127.20926
"83435",1111.5771,79.46899,127.13117
"83436",1111.5906,79.47631,127.1219
"83437",1111.6038,79.54955,127.17878
"83438",1111.6172,79.68139,127.29654
"83439",1111.6304,79.84497,127.450165
"83440",1111.6438,80.008545,127.608894
"83441",1111.657,80.14526,127.74588
"83442",1111.6704,80.23071,127.83587
"83443",1111.6836,80.255135,127.8675
"83444",1111.697,80.22095,127.841286
"83445",1111.7102,80.13306,127.7603
"83446",1111.7236,80.0061,127.637505
"83447",1111.7368,79.85474,127.48633
"83448",1111.7502,79.693596,127.32065
"83449",1111.7634,79.52758,127.14506
"83450",1111.7769,79.361565,126.96428
"83451",1111.79,79.202866,126.78563
"83452",1111.8035,79.063705,126.62156
"83453",1111.8167,78.93675,126.46535
"83454",1111.8301,78.82689,126.32226
"83455",1111.8433,78.74143,126.20014
"83456",1111.8567,78.6804,126.09978
"83457",1111.8699,78.643776,126.02192
"83458",1111.8833,78.62913,125.96489
"83459",1111.8965,78.641335,125.93426
"83460",1111.9099,78.67307,125.92354
"83461",1111.9231,78.71946,125.92846
"83462",1111.9365,78.77318,125.94216
"83463",1111.9497,78.82445,125.95509
"83464",1111.9631,78.873276,125.967186
"83465",1111.9763,78.91478,125.97348
"83466",1111.9897,78.94896,125.97375
"83467",1112.0029,79.00267,125.99461
"83468",1112.0164,79.132065,126.09284
"83469",1112.0295,79.395744,126.3294
"83470",1112.043,79.83765,126.75242
"83471",1112.0562,80.45045,127.360146
"83472",1112.0696,81.17067,128.09445
"83473",1112.0828,81.88846,128.84883
"83474",1112.0962,82.48661,129.506
"83475",1112.1094,82.879684,129.97678
"83476",1112.1228,83.035934,130.22302
"83477",1112.136,82.9749,130.25687
"83478",1112.1494,82.74784,130.12277
"83479",1112.1626,82.41337,129.87418
"83480",1112.176,82.020294,129.55652
"83481",1112.1892,81.61257,129.21193
"83482",1112.2026,81.22194,128.87169
"83483",1112.2158,80.86549,128.55344
"83484",1112.2292,80.5481,128.26309
"83485",1112.2424,80.26978,128.0019
"83486",1112.2559,80.03052,127.77107
"83487",1112.269,79.83032,127.57183
"83488",1112.2825,79.68139,127.417595
"83489",1112.2957,79.5935,127.31975
"83490",1112.3091,79.57885,127.2924
"83491",1112.3223,79.635,127.33539
"83492",1112.3357,79.75952,127.4485
"83493",1112.3489,79.920654,127.60212
"83494",1112.3623,80.09155,127.77054
"83495",1112.3755,80.24048,127.922325
"83496",1112.3889,80.34058,128.02994
"83497",1112.4021,80.37232,128.07233
"83498",1112.4155,80.34058,128.05223
"83499",1112.4287,80.255135,127.977425
"83500",1112.4421,80.130615,127.86088
"83501",1112.4553,79.97925,127.71359
"83502",1112.4688,79.818115,127.55181
"83503",1112.4819,79.65453,127.382545
"83504",1112.4954,79.49096,127.208176
"83505",1112.5085,79.33715,127.03846
"83506",1112.522,79.19554,126.87614
"83507",1112.5352,79.07103,126.72649
"83508",1112.5486,78.96849,126.59492
"83509",1112.5618,78.88548,126.479675
"83510",1112.5752,78.82689,126.38625
"83511",1112.5884,78.78783,126.31053
"83512",1112.6018,78.77074,126.25556
"83513",1112.615,78.77562,126.22203
"83514",1112.6284,78.802475,126.210625
"83515",1112.6416,78.836655,126.20738
"83516",1112.655,78.87816,126.21253
"83517",1112.6682,78.91966,126.21898
"83518",1112.6816,78.96361,126.229164
"83519",1112.6948,79.00267,126.23584
"83520",1112.7083,79.03929,126.241295
"83521",1112.7214,79.06615,126.23813
"83522",1112.7349,79.08812,126.23092
"83523",1112.748,79.12474,126.239044
"83524",1112.7615,79.219955,126.30691
"83525",1112.7747,79.44213,126.50471
"83526",1112.7881,79.84009,126.88523
"83527",1112.8013,80.413826,127.45397
"83528",1112.8147,81.109634,128.16272
"83529",1112.8279,81.82254,128.91031
"83530",1112.8413,82.4329,129.57762
"83531",1112.8545,82.85039,130.07114
"83532",1112.8679,83.035934,130.34576
"83533",1112.8811,83.004196,130.4089
"83534",1112.8945,82.80888,130.30748
"83535",1112.9077,82.50126,130.08763
"83536",1112.9211,82.13504,129.79958
"83537",1112.9343,81.74685,129.4781
"83538",1112.9478,81.36843,129.15428
"83539",1112.9609,81.00954,128.83815
"83540",1112.9744,80.68238,128.54254
"83541",1112.9875,80.394295,128.27579
"83542",1113.001,80.14526,128.03908
"83543",1113.0142,79.940186,127.83854
"83544",1113.0276,79.78882,127.6853
"83545",1113.0408,79.69604,127.58592
"83546",1113.0542,79.674065,127.55445
"83547",1113.0674,79.72045,127.59065
"83548",1113.0808,79.82544,127.686905
"83549",1113.094,79.96704,127.82305
"83550",1113.1074,80.12329,127.97827
"83551",1113.1206,80.257576,128.11641
"83552",1113.134,80.34791,128.2148
"83553",1113.1472,80.37476,128.25253
"83554",1113.1606,80.34058,128.23007
"83555",1113.1738,80.255135,128.15527
"83556",1113.1873,80.128174,128.03629
"83557",1113.2004,79.974365,127.88648
"83558",1113.2139,79.81323,127.72455
"83559",1113.227,79.65209,127.55757
"83560",1113.2405,79.49096,127.38557
"83561",1113.2537,79.34203,127.22073
"83562",1113.2671,79.20531,127.063446
"83563",1113.2803,79.08324,126.91654
"83564",1113.2937,78.9807,126.785355
"83565",1113.3069,78.90013,126.672935
"83566",1113.3203,78.84398,126.58241
"83567",1113.3335,78.80736,126.50967
"83568",1113.3469,78.78294,126.44798
"83569",1113.3601,78.77074,126.39774
"83570",1113.3735,78.768295,126.35689
"83571",1113.3867,78.77074,126.32084
"83572",1113.4001,78.78783,126.299515
"83573",1113.4133,78.819565,126.29337
"83574",1113.4268,78.853745,126.290665
"83575",1113.44,78.88304,126.28414
"83576",1113.4534,78.907455,126.27365
"83577",1113.4666,78.91722,126.249275
"83578",1113.48,78.91966,126.21788
"83579",1113.4932,78.941635,126.20609
"83580",1113.5066,79.03685,126.268234
"83581",1113.5198,79.259026,126.46031
"83582",1113.5332,79.65209,126.83022
"83583",1113.5464,80.2063,127.37356
"83584",1113.5598,80.87282,128.04652
"83585",1113.573,81.54665,128.74763
"83586",1113.5864,82.125275,129.37459
"83587",1113.5996,82.513466,129.8292
"83588",1113.613,82.68925,130.08353
"83589",1113.6262,82.66239,130.14072
"83590",1113.6396,82.4744,130.03593
"83591",1113.6528,82.176544,129.8154
"83592",1113.6663,81.82254,129.52942
"83593",1113.6794,81.444115,129.20795
"83594",1113.6929,81.06569,128.87465
"83595",1113.706,80.709236,128.5515
"83596",1113.7195,80.37965,128.24408
"83597",1113.7327,80.08179,127.958084
"83598",1113.7461,79.82544,127.70429
"83599",1113.7593,79.61547,127.48887
"83600",1113.7727,79.46166,127.323044
"83601",1113.7859,79.37621,127.22077
"83602",1113.7993,79.36645,127.19151
"83603",1113.8125,79.429924,127.23519
"83604",1113.8259,79.554436,127.34189
"83605",1113.8391,79.71557,127.4891
"83606",1113.8525,79.87915,127.64379
"83607",1113.8657,80.01587,127.77673
"83608",1113.8792,80.10864,127.87
"83609",1113.8923,80.13794,127.902695
"83610",1113.9058,80.10864,127.87771
"83611",1113.919,80.025635,127.798096
"83612",1113.9324,79.906006,127.67927
"83613",1113.9456,79.75952,127.52985
"83614",1113.959,79.603264,127.36607
"83615",1113.9722,79.449455,127.19987
"83616",1113.9856,79.29809,127.031296
"83617",1113.9988,79.15404,126.86531
"83618",1114.0122,79.01976,126.7046
"83619",1114.0254,78.90257,126.55678
"83620",1114.0388,78.802475,126.422386
"83621",1114.052,78.729225,126.311714
"83622",1114.0654,78.6804,126.223175
"83623",1114.0786,78.65598,126.157524
"83624",1114.092,78.64866,126.1082
"83625",1114.1052,78.65598,126.073296
"83626",1114.1187,78.67307,126.048386
"83627",1114.1318,78.70237,126.03622
"83628",1114.1453,78.74143,126.03473
"83629",1114.1584,78.79027,126.044235
"83630",1114.1719,78.84154,126.0577
"83631",1114.185,78.89281,126.07277
"83632",1114.1985,78.93919,126.08456
"83633",1114.2117,78.97826,126.09047
"83634",1114.2251,79.00023,126.08051
"83635",1114.2383,79.00511,126.05415
"83636",1114.2517,79.009995,126.02795
"83637",1114.2649,79.06859,126.0556
"83638",1114.2783,79.237045,126.194954
"83639",1114.2915,79.57397,126.50803
"83640",1114.3049,80.08423,127.00498
"83641",1114.3181,80.723885,127.64727
"83642",1114.3315,81.392845,128.33885
"83643",1114.3447,81.98123,128.97076
"83644",1114.3582,82.40116,129.4526
"83645",1114.3713,82.61112,129.73761
"83646",1114.3848,82.61112,129.81921
"83647",1114.398,82.44755,129.73724
"83648",1114.4114,82.16434,129.53052
"83649",1114.4246,81.80789,129.24171
"83650",1114.438,81.4197,128.91002
"83651",1114.4512,81.03883,128.57352
"83652",1114.4646,80.67994,128.24709
"83653",1114.4778,80.36256,127.95095
"83654",1114.4912,80.076904,127.67663
"83655",1114.5044,79.83276,127.43489
"83656",1114.5178,79.63256,127.22946
"83657",1114.531,79.48608,127.071495
"83658",1114.5444,79.40063,126.969986
"83659",1114.5576,79.398186,126.948814
"83660",1114.571,79.47387,127.00569
"83661",1114.5842,79.61303,127.12841
"83662",1114.5977,79.79126,127.29455
"83663",1114.6108,79.97681,127.47357
"83664",1114.6243,80.13794,127.63398
"83665",1114.6375,80.25269,127.753044
"83666",1114.6509,80.30152,127.80977
"83667",1114.6641,80.291756,127.809425
"83668",1114.6775,80.22095,127.747734
"83669",1114.6907,80.10132,127.63501
"83670",1114.7041,79.95239,127.48925
"83671",1114.7173,79.783936,127.319305
"83672",1114.7307,79.61547,127.14409
"83673",1114.7439,79.4519,126.9685
"83674",1114.7573,79.30297,126.802444
"83675",1114.7705,79.168686,126.64638
"83676",1114.7839,79.04906,126.50077
"83677",1114.7971,78.94408,126.36607
"83678",1114.8105,78.86107,126.25007
"83679",1114.8237,78.80492,126.158325
"83680",1114.8372,78.77074,126.0868
"83681",1114.8503,78.76341,126.04106
"83682",1114.8638,78.77562,126.014626
"83683",1114.877,78.79759,125.99834
"83684",1114.8904,78.83421,125.99738
"83685",1114.9036,78.87572,126.00246
"83686",1114.917,78.91966,126.01127
"83687",1114.9302,78.96361,126.021454
"83688",1114.9436,79.00267,126.02813
"83689",1114.9568,79.03441,126.0287
"83690",1114.9702,79.05638,126.0205
"83691",1114.9834,79.06615,126.00078
"83692",1114.9968,79.06615,125.971596
"83693",1115.01,79.080795,125.95706
"83694",1115.0234,79.16136,126.0089
"83695",1115.0366,79.364006,126.18534
"83696",1115.05,79.73022,126.53168
"83697",1115.0632,80.257576,127.050606
"83698",1115.0767,80.89235,127.69343
"83699",1115.0898,81.529564,128.35854
"83700",1115.1033,82.06668,128.94345
"83701",1115.1165,82.42802,129.36937
"83702",1115.1299,82.579384,129.59662
"83703",1115.1431,82.53544,129.63329
"83704",1115.1565,82.340126,129.51721
"83705",1115.1697,82.039825,129.29004
"83706",1115.1831,81.67849,128.99245
"83707",1115.1963,81.29763,128.66405
"83708",1115.2097,80.921646,128.32861
"83709",1115.2229,80.570076,128.00584
"83710",1115.2363,80.24292,127.6965
"83711",1115.2495,79.94507,127.40624
"83712",1115.263,79.67895,127.138405
"83713",1115.2761,79.4641,126.91353
"83714",1115.2896,79.30297,126.73565
"83715",1115.3027,79.219955,126.63085
"83716",1115.3162,79.219955,126.606476
"83717",1115.3293,79.30785,126.67
"83718",1115.3428,79.4641,126.80462
"83719",1115.356,79.66186,126.98563
"83720",1115.3694,79.869385,127.18259
"83721",1115.3826,80.05005,127.35917
"83722",1115.396,80.16968,127.48036
"83723",1115.4092,80.22095,127.536934
"83724",1115.4226,80.201416,127.52431
"83725",1115.4358,80.12573,127.45492
"83726",1115.4492,80.01099,127.3441
"83727",1115.4624,79.87671,127.21017
"83728",1115.4758,79.73022,127.05982
"83729",1115.489,79.57885,126.900024
"83730",1115.5024,79.429924,126.73794
"83731",1115.5156,79.28832,126.57852
"83732",1115.529,79.151596,126.419556
"83733",1115.5422,79.027084,126.26853
"83734",1115.5557,78.91478,126.125824
"83735",1115.5688,78.82445,126.00158
"83736",1115.5823,78.75853,125.898926
"83737",1115.5955,78.71702,125.81862
"83738",1115.6089,78.69993,125.76144
"83739",1115.6221,78.709694,125.730576
"83740",1115.6355,78.73411,125.71467
"83741",1115.6487,78.77806,125.71906
"83742",1115.6621,78.83177,125.73459
"83743",1115.6753,78.89281,125.75912
"83744",1115.6887,78.9514,125.78311
"83745",1115.7019,79.01976,125.8187
"83746",1115.7153,79.114975,125.883286
"83747",1115.7285,79.28832,126.02898
"83748",1115.742,79.57641,126.29482
"83749",1115.7551,80.00366,126.70884
"83750",1115.7686,80.54078,127.24607
"83751",1115.7817,81.12428,127.84647
"83752",1115.7952,81.65896,128.41629
"83753",1115.8083,82.06424,128.87341
"83754",1115.8218,82.28397,129.15765
"83755",1115.835,82.320595,129.26566
"83756",1115.8484,82.196075,129.21365
"83757",1115.8616,81.95682,129.04303
"83758",1115.875,81.64431,128.79167
"83759",1115.8882,81.290306,128.48906
"83760",1115.9016,80.92409,128.16316
"83761",1115.9148,80.56031,127.82826
"83762",1115.9282,80.216064,127.501526
"83763",1115.9414,79.8938,127.18601
"83764",1115.9548,79.603264,126.89216
"83765",1115.968,79.35668,126.63318
"83766",1115.9814,79.166245,126.42264
"83767",1115.9946,79.04906,126.279396
"83768",1116.008,79.01976,126.22038
"83769",1116.0212,79.09056,126.26055
"83770",1116.0347,79.24681,126.38838
"83771",1116.0479,79.47143,126.58946
"83772",1116.0613,79.727776,126.82929
"83773",1116.0745,79.974365,127.067375
"83774",1116.0879,80.177,127.26921
"83775",1116.1011,80.308846,127.406586
"83776",1116.1145,80.36256,127.46995
"83777",1116.1277,80.34547,127.46419
"83778",1116.1411,80.2649,127.39442
"83779",1116.1543,80.147705,127.2855
"83780",1116.1677,80.0061,127.14851
"83781",1116.1809,79.85718,126.99978
"83782",1116.1943,79.7058,126.84394
"83783",1116.2075,79.55688,126.68582
"83784",1116.221,79.412834,126.52793
"83785",1116.2341,79.27856,126.375305
"83786",1116.2476,79.15404,126.22824
"83787",1116.2607,79.04906,126.096825
"83788",1116.2742,78.96605,125.9841
"83789",1116.2874,78.905014,125.890755
"83790",1116.3008,78.86839,125.819916
"83791",1116.314,78.856186,125.77235
"83792",1116.3274,78.86107,125.741486
"83793",1116.3406,78.90257,125.7474
"83794",1116.354,79.01976,125.83029
"83795",1116.3672,79.26635,126.04625
"83796",1116.3806,79.674065,126.43104
"83797",1116.3938,80.24048,126.98727
"83798",1116.4072,80.91676,127.67107
"83799",1116.4204,81.60525,128.3882
"83800",1116.4338,82.2034,129.03651
"83801",1116.447,82.62089,129.52286
"83802",1116.4604,82.82353,129.8074
"83803",1116.4736,82.82109,129.8932
"83804",1116.487,82.650185,129.81046
"83805",1116.5002,82.3621,129.6052
"83806",1116.5137,82.003204,129.32011
"83807",1116.5269,81.61013,128.98964
"83808",1116.5403,81.21217,128.642
"83809",1116.5535,80.831314,128.29903
"83810",1116.5669,80.465096,127.958786
"83811",1116.5801,80.130615,127.63884
"83812",1116.5935,79.835205,127.34751
"83813",1116.6067,79.58373,127.09089
"83814",1116.6201,79.3933,126.88745
"83815",1116.6333,79.28344,126.75863
"83816",1116.6467,79.26391,126.716705
"83817",1116.6599,79.33715,126.766945
"83818",1116.6733,79.49828,126.907364
"83819",1116.6865,79.71313,127.10653
"83820",1116.7,79.95239,127.33683
"83821",1116.7131,80.16968,127.55263
"83822",1116.7266,80.33326,127.72151
"83823",1116.7397,80.42603,127.8247
"83824",1116.7532,80.445564,127.857544
"83825",1116.7664,80.39185,127.81776
"83826",1116.7798,80.28443,127.72258
"83827",1116.793,80.14038,127.58742
"83828",1116.8064,79.97925,127.43067
"83829",1116.8196,79.81079,127.261566
"83830",1116.833,79.64233,127.08719
"83831",1116.8462,79.48608,126.91976
"83832",1116.8596,79.33715,126.754776
"83833",1116.8728,79.20531,126.60222
"83834",1116.8862,79.08812,126.4602
"83835",1116.8994,78.995346,126.33893
"83836",1116.9128,78.91966,126.23185
"83837",1116.926,78.85863,126.137054
"83838",1116.9395,78.82201,126.064766
"83839",1116.9526,78.836655,126.0426
"83840",1116.9661,78.958725,126.12832
"83841",1116.9792,79.24925,126.38631
"83842",1116.9927,79.742424,126.85602
"83843",1117.0059,80.4065,127.51205
"83844",1117.0193,81.16579,128.28404
"83845",1117.0325,81.898224,129.05292
"83846",1117.0459,82.493935,129.70795
"83847",1117.0591,82.86992,130.16187
"83848",1117.0725,83.01152,130.39316
"83849",1117.0857,82.9456,130.42136
"83850",1117.0991,82.720985,130.28879
"83851",1117.1123,82.388954,130.0418
"83852",1117.1257,82.00076,129.72826
"83853",1117.1389,81.600365,129.39038
"83854",1117.1523,81.20973,129.04976
"83855",1117.1655,80.84596,128.7238
"83856",1117.179,80.51148,128.41576
"83857",1117.1921,80.21118,128.13144
"83858",1117.2056,79.95239,127.87925
"83859",1117.2188,79.7351,127.66047
"83860",1117.2322,79.57885,127.49594
"83861",1117.2454,79.49584,127.39977
"83862",1117.2588,79.50317,127.39134
"83863",1117.272,79.5935,127.46615
"83864",1117.2854,79.74975,127.609695
"83865",1117.2986,79.937744,127.78987
"83866",1117.312,80.12329,127.97347
"83867",1117.3252,80.26978,128.12381
"83868",1117.3386,80.34791,128.21037
"83869",1117.3518,80.35767,128.23102
"83870",1117.3652,80.30152,128.18605
"83871",1117.3784,80.19165,128.0856
"83872",1117.3918,80.045166,127.94511
"83873",1117.405,79.87671,127.77806
"83874",1117.4185,79.7058,127.6033
"83875",1117.4316,79.537346,127.42565
"83876",1117.4451,79.37621,127.25006
"83877",1117.4583,79.23216,127.08652
"83878",1117.4717,79.10765,126.93801
"83879",1117.4849,79.00267,126.805145
"83880",1117.4983,78.91234,126.68365
"83881",1117.5115,78.839096,126.576416
"83882",1117.5249,78.785385,126.48643
"83883",1117.5381,78.77318,126.436264
"83884",1117.5515,78.84642,126.47117
"83885",1117.5647,79.07591,126.66461
"83886",1117.5781,79.50805,127.06787
"83887",1117.5913,80.13306,127.677505
"83888",1117.6047,80.88991,128.4385
"83889",1117.6179,81.66628,129.24269
"83890",1117.6313,82.340126,129.96861
"83891",1117.6445,82.80644,130.50806
"83892",1117.658,83.02617,130.81549
"83893",1117.6711,83.0164,130.9003
"83894",1117.6846,82.82597,130.80414
"83895",1117.6978,82.50858,130.57506
"83896",1117.7112,82.13016,130.27502
"83897",1117.7244,81.73708,129.94852
"83898",1117.7378,81.36111,129.62683
"83899",1117.751,81.02174,129.33
"83900",1117.7644,80.73365,129.07384
"83901",1117.7776,80.48707,128.85019
"83902",1117.791,80.274666,128.65302
"83903",1117.8042,80.09155,128.47849
"83904",1117.8176,79.94507,128.33487
"83905",1117.8308,79.84009,128.22818
"83906",1117.8442,79.7937,128.17679
"83907",1117.8574,79.81323,128.18988
"83908",1117.8708,79.8938,128.26462
"83909",1117.884,80.0061,128.3736
"83910",1117.8975,80.128174,128.49585
"83911",1117.9106,80.22583,128.5975
"83912",1117.9241,80.274666,128.6534
"83913",1117.9373,80.2649,128.65222
"83914",1117.9507,80.201416,128.59702
"83915",1117.9639,80.08667,128.48856
"83916",1117.9773,79.940186,128.34479
"83917",1117.9905,79.77905,128.1818
"83918",1118.0039,79.61059,128.00642
"83919",1118.0171,79.44457,127.82824
"83920",1118.0305,79.290764,127.657074
"83921",1118.0437,79.151596,127.49574
"83922",1118.0571,79.03197,127.3496
"83923",1118.0703,78.93187,127.21925
"83924",1118.0837,78.853745,127.10775
"83925",1118.0969,78.785385,127.00357
"83926",1118.1104,78.73411,126.91434
"83927",1118.1235,78.70481,126.84548
"83928",1118.137,78.74143,126.84163
"83929",1118.1501,78.905014,126.96588
"83930",1118.1636,79.256584,127.28323
"83931",1118.1768,79.81079,127.81421
"83932",1118.1902,80.533455,128.53096
"83933",1118.2034,81.324486,129.33867
"83934",1118.2168,82.056915,130.11249
"83935",1118.23,82.616005,130.73586
"83936",1118.2434,82.930954,131.13255
"83937",1118.2566,83.004196,131.2974
"83938",1118.27,82.86748,131.25456
"83939",1118.2832,82.58915,131.06584
"83940",1118.2966,82.230255,130.78786
"83941",1118.3098,81.85184,130.47914
"83942",1118.3232,81.48806,130.17323
"83943",1118.3364,81.15846,129.89014
"83944",1118.3499,80.867935,129.63582
"83945",1118.363,80.621346,129.41635
"83946",1118.3765,80.411385,129.22581
"83947",1118.3896,80.23071,129.058
"83948",1118.4031,80.079346,128.91385
"83949",1118.4163,79.96216,128.79913
"83950",1118.4297,79.89136,128.72714
"83951",1118.4429,79.869385,128.70178
"83952",1118.4563,79.89136,128.71967
"83953",1118.4695,79.957275,128.7822
"83954",1118.4829,80.042725,128.8663
"83955",1118.4961,80.12085,128.94577
"83956",1118.5095,80.164795,128.9935
"83957",1118.5227,80.16235,128.99622
"83958",1118.5361,80.10864,128.94757
"83959",1118.5493,80.008545,128.85086
"83960",1118.5627,79.869385,128.71198
"83961",1118.5759,79.7058,128.54431
"83962",1118.5894,79.537346,128.36665
"83963",1118.6025,79.37133,128.18617
"83964",1118.616,79.21507,128.01027
"83965",1118.6292,79.07591,127.84658
"83966",1118.6426,78.958725,127.700516
"83967",1118.6558,78.85863,127.56788
"83968",1118.6692,78.77806,127.451645
"83969",1118.6824,78.712135,127.347534
"83970",1118.6958,78.66575,127.2609
"83971",1118.709,78.63157,127.18503
"83972",1118.7224,78.6096,127.12029
"83973",1118.7356,78.60471,127.07196
"83974",1118.749,78.641335,127.06498
"83975",1118.7622,78.77318,127.154366
"83976",1118.7756,79.061264,127.40411
"83977",1118.7888,79.537346,127.85086
"83978",1118.8022,80.184326,128.48338
"83979",1118.8154,80.936295,129.24112
"83980",1118.8289,81.671165,130.00525
"83981",1118.842,82.269325,130.65564
"83982",1118.8555,82.650185,131.10742
"83983",1118.8687,82.79668,131.33673
"83984",1118.8821,82.73319,131.36064
"83985",1118.8953,82.50858,131.22145
"83986",1118.9087,82.18387,130.97513
"83987",1118.9219,81.82498,130.6845
"83988",1118.9353,81.46853,130.38507
"83989",1118.9485,81.143814,130.10625
"83990",1118.9619,80.87038,129.86856
"83991",1118.9751,80.64088,129.66626
"83992",1118.9885,80.44312,129.48854
"83993",1119.0017,80.26978,129.32906
"83994",1119.0151,80.113525,129.18123
"83995",1119.0283,79.98169,129.05295
"83996",1119.0417,79.888916,128.9596
"83997",1119.0549,79.84741,128.91461
"83998",1119.0684,79.85962,128.92206
"83999",1119.0815,79.91577,128.97382
"84000",1119.095,79.9939,129.04932
"84001",1119.1082,80.0647,129.11993
"84002",1119.1216,80.1062,129.16345
"84003",1119.1348,80.1062,129.16678
"84004",1119.1482,80.05493,129.11884
"84005",1119.1614,79.957275,129.02289
"84006",1119.1748,79.82788,128.89215
"84007",1119.188,79.674065,128.73296
"84008",1119.2014,79.51049,128.55919
"84009",1119.2146,79.34936,128.38275
"84010",1119.228,79.200424,128.21349
"84011",1119.2412,79.063705,128.05177
"84012",1119.2546,78.94652,127.90533
"84013",1119.2678,78.839096,127.764984
"84014",1119.2812,78.746315,127.635925
"84015",1119.2944,78.66575,127.51618
"84016",1119.3079,78.60471,127.41345
"84017",1119.321,78.56077,127.325905
"84018",1119.3345,78.538795,127.25896
"84019",1119.3477,78.52903,127.20353
"84020",1119.3611,78.536354,127.16489
"84021",1119.3743,78.54856,127.131355
"84022",1119.3877,78.572975,127.11041
"84023",1119.4009,78.641335,127.13418
"84024",1119.4143,78.79759,127.24798
"84025",1119.4275,79.10033,127.51314
"84026",1119.4409,79.58373,127.96843
"84027",1119.4541,80.22339,128.59508
"84028",1119.4675,80.95094,129.32962
"84029",1119.4807,81.65652,130.06491
"84030",1119.4941,82.22537,130.68553
"84031",1119.5073,82.5745,131.1042
"84032",1119.5208,82.69169,131.30185
"84033",1119.5339,82.59403,131.28831
"84034",1119.5474,82.34257,131.11792
"84035",1119.5605,81.99832,130.84688
"84036",1119.574,81.619896,130.5309
"84037",1119.5872,81.25857,130.2202
"84038",1119.6006,80.93385,129.93481
"84039",1119.6138,80.66041,129.69055
"84040",1119.6272,80.430916,129.4817
"84041",1119.6404,80.235596,129.29985
"84042",1119.6538,80.059814,129.13144
"84043",1119.667,79.90845,128.98193
"84044",1119.6804,79.79126,128.86188
"84045",1119.6936,79.72289,128.78699
"84046",1119.707,79.7058,128.76123
"84047",1119.7202,79.744865,128.79109
"84048",1119.7336,79.82056,128.85881
"84049",1119.7468,79.91089,128.94354
"84050",1119.7603,79.991455,129.02133
"84051",1119.7734,80.0354,129.065
"84052",1119.7869,80.025635,129.05634
"84053",1119.8,79.96216,128.99365
"84054",1119.8135,79.84985,128.88016
"84055",1119.8267,79.70336,128.72897
"84056",1119.8401,79.53246,128.5488
"84057",1119.8533,79.34936,128.35107
"84058",1119.8667,79.166245,128.14763
"84059",1119.8799,78.99779,127.95312
"84060",1119.8933,78.84642,127.77043
"84061",1119.9065,78.71946,127.60742
"84062",1119.9199,78.61936,127.46731
"84063",1119.9331,78.54612,127.35092
"84064",1119.9465,78.487526,127.246895
"84065",1119.9597,78.44602,127.15813
"84066",1119.9731,78.416725,127.08027
"84067",1119.9863,78.40208,127.01614
"84068",1119.9998,78.399635,126.96377
"84069",1120.013,78.41184,126.925964
"84070",1120.0264,78.43626,126.90075
"84071",1120.0396,78.470436,126.88606
"84072",1120.053,78.504616,126.872444
"84073",1120.0662,78.52903,126.85013
"84074",1120.0796,78.54612,126.82125
"84075",1120.0928,78.57786,126.807556
"84076",1120.1062,78.68528,126.87054
"84077",1120.1194,78.93431,127.07848
"84078",1120.1328,79.36645,127.47732
"84079",1120.146,79.97681,128.06787
"84080",1120.1594,80.69703,128.78737
"84081",1120.1726,81.41482,129.52695
"84082",1120.186,82.003204,130.15955
"84083",1120.1992,82.37919,130.59813
"84084",1120.2126,82.511024,130.80432
"84085",1120.2258,82.43778,130.80956
"84086",1120.2393,82.21561,130.66356
"84087",1120.2524,81.90555,130.42274
"84088",1120.2659,81.56863,130.14537
"84089",1120.279,81.24147,129.86723
"84090",1120.2925,80.938736,129.6033
"84091",1120.3057,80.672615,129.36652
"84092",1120.3191,80.44312,129.15805
"84093",1120.3323,80.25269,128.98148
"84094",1120.3457,80.09155,128.82823
"84095",1120.3589,79.96216,128.70169
"84096",1120.3723,79.87671,128.61505
"84097",1120.3855,79.84497,128.57947
"84098",1120.3989,79.871826,128.60147
"84099",1120.4121,79.94995,128.6756
"84100",1120.4255,80.05737,128.78146
"84101",1120.4387,80.16968,128.89557
"84102",1120.4521,80.257576,128.98877
"84103",1120.4653,80.29664,129.03589
"84104",1120.4788,80.28443,129.03296
"84105",1120.492,80.216064,128.97348
"84106",1120.5054,80.096436,128.8606
"84107",1120.5186,79.937744,128.70493
"84108",1120.532,79.75708,128.52231
"84109",1120.5452,79.5642,128.32184
"84110",1120.5586,79.37133,128.11534
"84111",1120.5718,79.1931,127.917465
"84112",1120.5852,79.03441,127.73356
"84113",1120.5984,78.89769,127.566666
"84114",1120.6118,78.78294,127.41747
"84115",1120.625,78.69016,127.28666
"84116",1120.6384,78.61448,127.170044
"84117",1120.6516,78.553444,127.06571
"84118",1120.665,78.51438,126.981445
"84119",1120.6782,78.49485,126.91549
"84120",1120.6917,78.49973,126.87334
"84121",1120.7048,78.52659,126.85331
"84122",1120.7183,78.56565,126.84633
"84123",1120.7314,78.61204,126.84789
"84124",1120.7449,78.65354,126.84602
"84125",1120.758,78.69016,126.84057
"84126",1120.7715,78.712135,126.82161
"84127",1120.7847,78.72678,126.79601
"84128",1120.7981,78.72434,126.753784
"84129",1120.8113,78.72434,126.71392
"84130",1120.8247,78.77074,126.72045
"84131",1120.8379,78.91722,126.82852
"84132",1120.8513,79.22728,127.104744
"84133",1120.8645,79.72289,127.57621
"84134",1120.8779,80.37476,128.21942
"84135",1120.8911,81.0901,128.94647
"84136",1120.9045,81.75174,129.64218
"84137",1120.9177,82.24979,130.19498
"84138",1120.9312,82.52567,130.54117
"84139",1120.9443,82.5745,130.66893
"84140",1120.9578,82.43778,130.61267
"84141",1120.971,82.16434,130.4154
"84142",1120.9844,81.81766,130.13637
"84143",1120.9976,81.43923,129.81474
"84144",1121.011,81.07057,129.49106
"84145",1121.0242,80.73121,129.18515
"84146",1121.0376,80.4358,128.9126
"84147",1121.0508,80.184326,128.67474
"84148",1121.0642,79.974365,128.47055
"84149",1121.0774,79.80591,128.3013
"84150",1121.0908,79.68871,128.17804
"84151",1121.104,79.63012,128.10971
"84152",1121.1174,79.635,128.10303
"84153",1121.1306,79.710686,128.1673
"84154",1121.144,79.83765,128.28522
"84155",1121.1572,79.98657,128.42908
"84156",1121.1707,80.12573,128.56781
"84157",1121.1838,80.22827,128.67429
"84158",1121.1973,80.26978,128.72293
"84159",1121.2104,80.24292,128.7045
"84160",1121.2239,80.15259,128.62177
"84161",1121.237,80.01099,128.48492
"84162",1121.2505,79.83765,128.31192
"84163",1121.2637,79.64721,128.11641
"84164",1121.2771,79.4519,127.91007
"84165",1121.2903,79.26147,127.702515
"84166",1121.3037,79.08812,127.50609
"84167",1121.3169,78.93431,127.323784
"84168",1121.3303,78.80492,127.16109
"84169",1121.3435,78.69749,127.01631
"84170",1121.3569,78.61204,126.89016
"84171",1121.3701,78.54856,126.78331
"84172",1121.3835,78.504616,126.69401
"84173",1121.3967,78.48264,126.625305
"84174",1121.4102,78.47776,126.573006
"84175",1121.4233,78.49973,126.54741
"84176",1121.4368,78.53391,126.534706
"84177",1121.45,78.572975,126.527954
"84178",1121.4634,78.624245,126.53463
"84179",1121.4766,78.6804,126.54779
"84180",1121.49,78.73655,126.562706
"84181",1121.5032,78.78294,126.56962
"84182",1121.5166,78.819565,126.56821
"84183",1121.5298,78.836655,126.54841
"84184",1121.5432,78.836655,126.512054
"84185",1121.5564,78.81712,126.45617
"84186",1121.5698,78.78783,126.38991
"84187",1121.583,78.77562,126.33982
"84188",1121.5964,78.83421,126.36015
"84189",1121.6096,79.03197,126.52148
"84190",1121.623,79.41772,126.876976
"84191",1121.6362,79.9939,127.43496
"84192",1121.6497,80.706795,128.14767
"84193",1121.6628,81.446556,128.90953
"84194",1121.6763,82.091095,129.59927
"84195",1121.6895,82.54276,130.11629
"84196",1121.7029,82.757614,130.4106
"84197",1121.7161,82.7454,130.48456
"84198",1121.7295,82.547646,130.3726
"84199",1121.7427,82.21805,130.12262
"84200",1121.7561,81.82498,129.79887
"84201",1121.7693,81.41238,129.4433
"84202",1121.7827,81.02174,129.0968
"84203",1121.7959,80.66773,128.77472
"84204",1121.8093,80.360115,128.48798
"84205",1121.8225,80.09155,128.23067
"84206",1121.8359,79.8645,128.00647
"84207",1121.8491,79.68139,127.81912
"84208",1121.8625,79.554436,127.68221
"84209",1121.8757,79.49828,127.61214
"84210",1121.8892,79.52514,127.623314
"84211",1121.9023,79.62524,127.70857
"84212",1121.9158,79.77905,127.85068
"84213",1121.929,79.957275,128.022
"84214",1121.9424,80.12085,128.18423
"84215",1121.9556,80.24292,128.31009
"84216",1121.969,80.291756,128.36652
"84217",1121.9822,80.272224,128.35611
"84218",1121.9956,80.181885,128.27428
"84219",1122.0088,80.04028,128.13837
"84220",1122.0222,79.85474,127.95408
"84221",1122.0354,79.65453,127.74934
"84222",1122.0488,79.4519,127.535904
"84223",1122.062,79.256584,127.32346
"84224",1122.0754,79.07591,127.11956
"84225",1122.0886,78.91966,126.93443
"84226",1122.102,78.78294,126.763954
"84227",1122.1152,78.66331,126.606285
"84228",1122.1287,78.56565,126.46686
"84229",1122.1418,78.48997,126.34635
"84230",1122.1553,78.4387,126.247894
"84231",1122.1685,78.41428,126.17469
"84232",1122.1819,78.416725,126.12758
"84233",1122.1951,78.44114,126.102516
"84234",1122.2085,78.4802,126.092865
"84235",1122.2217,78.52903,126.0942
"84236",1122.2351,78.58518,126.104385
"84237",1122.2483,78.63645,126.11144
"84238",1122.2617,78.6804,126.11278
"84239",1122.2749,78.71702,126.10816
"84240",1122.2883,78.74387,126.094925
"84241",1122.3015,78.76341,126.07521
"84242",1122.315,78.77806,126.051216
"84243",1122.3281,78.78294,126.017914
"84244",1122.3416,78.77806,125.975
"84245",1122.3547,78.768295,125.92705
"84246",1122.3682,78.7805,125.900764
"84247",1122.3813,78.887924,125.97008
"84248",1122.3948,79.15648,126.20388
"84249",1122.408,79.62524,126.64628
"84250",1122.4214,80.272224,127.281555
"84251",1122.4346,81.02174,128.03958
"84252",1122.448,81.76395,128.81372
"84253",1122.4612,82.371864,129.47676
"84254",1122.4746,82.760056,129.93907
"84255",1122.4878,82.913864,130.17914
"84256",1122.5012,82.85527,130.21161
"84257",1122.5144,82.62333,130.0689
"84258",1122.5278,82.27909,129.80664
"84259",1122.541,81.881134,129.4799
"84260",1122.5544,81.46853,129.12608
"84261",1122.5676,81.06813,128.77158
"84262",1122.581,80.706795,128.44362
"84263",1122.5942,80.38697,128.14589
"84264",1122.6077,80.10864,127.879654
"84265",1122.6208,79.871826,127.64623
"84266",1122.6343,79.68383,127.45423
"84267",1122.6475,79.54955,127.310074
"84268",1122.6609,79.48608,127.23252
"84269",1122.6741,79.50317,127.23355
"84270",1122.6875,79.603264,127.31812
"84271",1122.7007,79.766846,127.46931
"84272",1122.7141,79.95972,127.65489
"84273",1122.7273,80.14282,127.83674
"84274",1122.7407,80.27711,127.97549
"84275",1122.7539,80.343025,128.05006
"84276",1122.7673,80.32838,128.04614
"84277",1122.7805,80.235596,127.96362
"84278",1122.794,80.08911,127.8245
"84279",1122.8071,79.90845,127.64662
"84280",1122.8206,79.71313,127.44844
"84281",1122.8337,79.520256,127.246605
"84282",1122.8472,79.33715,127.04851
"84283",1122.8604,79.17113,126.86177
"84284",1122.8738,79.01976,126.6845
"84285",1122.887,78.887924,126.52203
"84286",1122.9004,78.77074,126.370094
"84287",1122.9136,78.67307,126.23402
"84288",1122.927,78.59251,126.111984
"84289",1122.9402,78.53391,126.00941
"84290",1122.9536,78.49729,125.92697
"84291",1122.9668,78.48264,125.865364
"84292",1122.9802,78.48997,125.82527
"84293",1122.9934,78.51682,125.80494
"84294",1123.0068,78.555885,125.79765
"84295",1123.02,78.60471,125.80135
"84296",1123.0334,78.65354,125.80658
"84297",1123.0466,78.69993,125.81089
"84298",1123.06,78.74143,125.81177
"84299",1123.0732,78.77806,125.80907
"84300",1123.0867,78.802475,125.795296
"84301",1123.0999,78.819565,125.77496
"84302",1123.1133,78.82201,125.74052
"84303",1123.1265,78.81468,125.69638
"84304",1123.1399,78.80492,125.649574
"84305",1123.1531,78.82933,125.63664
"84306",1123.1665,78.9514,125.72213
"84307",1123.1797,79.24193,125.97989
"84308",1123.1931,79.727776,126.44205
"84309",1123.2063,80.394295,127.10006
"84310",1123.2197,81.163345,127.88143
"84311",1123.2329,81.9202,128.67464
"84312",1123.2463,82.53788,129.35233
"84313",1123.2595,82.93584,129.82959
"84314",1123.273,83.089645,130.07515
"84315",1123.2861,83.021286,130.10335
"84316",1123.2996,82.774704,129.95119
"84317",1123.3127,82.41581,129.679
"84318",1123.3262,82.003204,129.34189
"84319",1123.3394,81.58083,128.98212
"84320",1123.3528,81.17799,128.62868
"84321",1123.366,80.80934,128.29684
"84322",1123.3794,80.47242,127.985214
"84323",1123.3926,80.16968,127.697235
"84324",1123.406,79.90112,127.43398
"84325",1123.4192,79.67895,127.20872
"84326",1123.4326,79.517815,127.03755
"84327",1123.4458,79.429924,126.93459
"84328",1123.4592,79.42748,126.91434
"84329",1123.4724,79.51293,126.981895
"84330",1123.4858,79.674065,127.12781
"84331",1123.499,79.871826,127.315384
"84332",1123.5125,80.07202,127.51157
"84333",1123.5256,80.23804,127.67984
"84334",1123.5391,80.33814,127.787384
"84335",1123.5522,80.35767,127.81748
"84336",1123.5657,80.29908,127.770065
"84337",1123.5789,80.181885,127.66222
"84338",1123.5923,80.01831,127.504326
"84339",1123.6055,79.835205,127.32179
"84340",1123.6189,79.64721,127.12865
"84341",1123.6321,79.46899,126.9394
"84342",1123.6455,79.29809,126.75191
"84343",1123.6587,79.14183,126.573715
"84344",1123.6721,78.99779,126.402855
"84345",1123.6853,78.86595,126.2397
"84346",1123.6987,78.74876,126.08707
"84347",1123.7119,78.64866,125.94787
"84348",1123.7253,78.572975,125.829956
"84349",1123.7385,78.52415,125.736534
"84350",1123.752,78.49973,125.666
"84351",1123.7651,78.49729,125.61668
"84352",1123.7786,78.51682,125.58925
"84353",1123.7917,78.553444,125.57952
"84354",1123.8052,78.60227,125.583145
"84355",1123.8184,78.660866,125.59806
"84356",1123.8318,78.71702,125.612366
"84357",1123.845,78.77318,125.62843
"84358",1123.8584,78.81712,125.63404
"84359",1123.8716,78.853745,125.6337
"84360",1123.885,78.88548,125.629616
"84361",1123.8982,78.9099,125.6192
"84362",1123.9116,78.92699,125.60223
"84363",1123.9248,78.94652,125.58823
"84364",1123.9382,79.009995,125.61878
"84365",1123.9514,79.185776,125.763626
"84366",1123.9648,79.537346,126.08975
"84367",1123.978,80.079346,126.617294
"84368",1123.9915,80.780045,127.32047
"84369",1124.0046,81.54421,128.10902
"84370",1124.0181,82.25468,128.86775
"84371",1124.0312,82.791794,129.47533
"84372",1124.0447,83.09209,129.86287
"84373",1124.0579,83.15556,130.02298
"84374",1124.0713,83.02373,129.98976
"84375",1124.0845,82.7454,129.80592
"84376",1124.0979,82.38163,129.52795
"84377",1124.1111,81.986115,129.20686
"84378",1124.1245,81.59304,128.87585
"84379",1124.1377,81.22194,128.55453
"84380",1124.1511,80.8777,128.24849
"84381",1124.1643,80.56275,127.96097
"84382",1124.1777,80.27711,127.69291
"84383",1124.1909,80.02075,127.44521
"84384",1124.2043,79.81079,127.2359
"84385",1124.2175,79.656975,127.07617
"84386",1124.231,79.58373,126.99221
"84387",1124.2441,79.5935,126.98897
"84388",1124.2576,79.68871,127.07148
"84389",1124.2708,79.852295,127.225334
"84390",1124.2842,80.05493,127.423355
"84391",1124.2974,80.255135,127.625275
"84392",1124.3108,80.41871,127.79682
"84393",1124.324,80.51148,127.90268
"84394",1124.3374,80.51881,127.92599
"84395",1124.3506,80.45289,127.87628
"84396",1124.364,80.323494,127.76104
"84397",1124.3772,80.15503,127.602684
"84398",1124.3906,79.971924,127.42442
"84399",1124.4038,79.783936,127.23556
"84400",1124.4172,79.603264,127.048134
"84401",1124.4304,79.429924,126.8624
"84402",1124.4438,79.26635,126.68101
"84403",1124.457,79.11742,126.50915
"84404",1124.4705,78.98558,126.34973
"84405",1124.4836,78.86839,126.20084
"84406",1124.4971,78.768295,126.065384
"84407",1124.5103,78.69016,125.94876
"84408",1124.5237,78.63645,125.85412
"84409",1124.5369,78.60227,125.77733
"84410",1124.5503,78.59495,125.726326
"84411",1124.5635,78.61448,125.70195
"84412",1124.5769,78.65598,125.70016
"84413",1124.5901,78.70481,125.706985
"84414",1124.6035,78.76097,125.72267
"84415",1124.6167,78.81468,125.73766
"84416",1124.6301,78.86595,125.75189
"84417",1124.6433,78.9099,125.7604
"84418",1124.6567,78.9514,125.76784
"84419",1124.6699,78.9807,125.764366
"84420",1124.6833,78.99046,125.74228
"84421",1124.6965,78.98558,125.70585
"84422",1124.71,78.99779,125.686356
"84423",1124.7231,79.08324,125.740486
"84424",1124.7366,79.3225,125.9511
"84425",1124.7498,79.76196,126.36939
"84426",1124.7632,80.38697,126.98696
"84427",1124.7764,81.13161,127.74369
"84428",1124.7898,81.881134,128.52858
"84429",1124.803,82.513466,129.2197
"84430",1124.8164,82.93584,129.72061
"84431",1124.8296,83.1165,129.99303
"84432",1124.843,83.075,130.04892
"84433",1124.8562,82.86015,129.93018
"84434",1124.8696,82.53788,129.69728
"84435",1124.8828,82.15457,129.39328
"84436",1124.8962,81.75906,129.06511
"84437",1124.9094,81.37087,128.73189
"84438",1124.9229,81.007095,128.41095
"84439",1124.936,80.66773,128.10306
"84440",1124.9495,80.35523,127.811424
"84441",1124.9626,80.076904,127.5442
"84442",1124.9761,79.835205,127.3049
"84443",1124.9893,79.64477,127.109314
"84444",1125.0027,79.517815,126.97126
"84445",1125.0159,79.47143,126.909805
"84446",1125.0293,79.51293,126.93479
"84447",1125.0425,79.63256,127.0392
"84448",1125.0559,79.81079,127.20595
"84449",1125.0691,80.01587,127.40511
"84450",1125.0825,80.20386,127.5936
"84451",1125.0957,80.34547,127.74158
"84452",1125.1091,80.413826,127.82073
"84453",1125.1223,80.40894,127.82878
"84454",1125.1357,80.33326,127.76588
"84455",1125.1489,80.20386,127.64689
"84456",1125.1624,80.04028,127.489685
"84457",1125.1755,79.86206,127.31272
"84458",1125.189,79.68627,127.13262
"84459",1125.2021,79.51537,126.95192
"84460",1125.2156,79.35424,126.77564
"84461",1125.2288,79.20775,126.60897
"84462",1125.2422,79.06859,126.44505
"84463",1125.2554,78.93919,126.28655
"84464",1125.2688,78.819565,126.13377
"84465",1125.282,78.71946,125.99678
"84466",1125.2954,78.643776,125.88108
"84467",1125.3086,78.59251,125.78743
"84468",1125.322,78.56809,125.71903
"84469",1125.3352,78.572975,125.67917
"84470",1125.3486,78.60227,125.66387
"84471",1125.3618,78.64622,125.66414
"84472",1125.3752,78.69749,125.6731
"84473",1125.3884,78.75853,125.69344
"84474",1125.4019,78.82201,125.718124
"84475",1125.415,78.88304,125.74235
"84476",1125.4285,78.93187,125.75627
"84477",1125.4417,78.97093,125.761955
"84478",1125.4551,79.00023,125.759094
"84479",1125.4683,79.05638,125.784004
"84480",1125.4817,79.19798,125.89612
"84481",1125.4949,79.49828,126.17136
"84482",1125.5083,79.98657,126.64397
"84483",1125.5215,80.64332,127.30029
"84484",1125.5349,81.373314,128.0504
"84485",1125.5481,82.074005,128.794
"84486",1125.5615,82.62333,129.40814
"84487",1125.5747,82.95537,129.82216
"84488",1125.5881,83.053024,130.01218
"84489",1125.6013,82.95293,130.00749
"84490",1125.6147,82.703896,129.85074
"84491",1125.6279,82.357216,129.58856
"84492",1125.6414,81.95682,129.26183
"84493",1125.6545,81.53689,128.90305
"84494",1125.668,81.129166,128.54335
"84495",1125.6812,80.75319,128.20267
"84496",1125.6946,80.40894,127.88196
"84497",1125.7078,80.10376,127.589554
"84498",1125.7212,79.84009,127.329124
"84499",1125.7344,79.61791,127.10195
"84500",1125.7478,79.44457,126.91667
"84501",1125.761,79.33227,126.78701
"84502",1125.7744,79.30053,126.734406
"84503",1125.7876,79.35668,126.7687
"84504",1125.801,79.48608,126.87799
"84505",1125.8142,79.66918,127.04504
"84506",1125.8276,79.869385,127.2349
"84507",1125.8408,80.05249,127.413925
"84508",1125.8542,80.181885,127.54496
"84509",1125.8674,80.2478,127.61656
"84510",1125.8809,80.24292,127.61942
"84511",1125.894,80.17944,127.56354
"84512",1125.9075,80.06714,127.45684
"84513",1125.9207,79.92798,127.31978
"84514",1125.9341,79.77173,127.16128
"84515",1125.9473,79.60815,126.99056
"84516",1125.9607,79.44213,126.8123
"84517",1125.9739,79.281,126.633736
"84518",1125.9873,79.12962,126.45989
"84519",1126.0005,78.98802,126.29109
"84520",1126.0139,78.86107,126.132515
"84521",1126.0271,78.751205,125.98706
"84522",1126.0405,78.66819,125.86502
"84523",1126.0537,78.61204,125.76725
"84524",1126.0671,78.5803,125.69214
"84525",1126.0803,78.57053,125.63801
"84526",1126.0938,78.58274,125.605545
"84527",1126.1069,78.6096,125.58811
"84528",1126.1204,78.64866,125.583725
"84529",1126.1335,78.70481,125.59765
"84530",1126.147,78.765854,125.61822
"84531",1126.1602,78.83177,125.64557
"84532",1126.1736,78.89525,125.67254
"84533",1126.1868,78.94896,125.69173
"84534",1126.2002,78.99779,125.70771
"84535",1126.2134,79.06859,125.74719
"84536",1126.2268,79.22484,125.87434
"84537",1126.24,79.52758,126.152855
"84538",1126.2534,80.01099,126.6215
"84539",1126.2666,80.66041,127.27126
"84540",1126.28,81.40017,128.03166
"84541",1126.2932,82.11795,128.7932
"84542",1126.3066,82.69901,129.44044
"84543",1126.3198,83.06767,129.89345
"84544",1126.3333,83.20683,130.12848
"84545",1126.3464,83.13847,130.16034
"84546",1126.3599,82.913864,130.03381
"84547",1126.373,82.579384,129.79039
"84548",1126.3865,82.18631,129.47792
"84549",1126.3997,81.77615,129.1361
"84550",1126.4131,81.3782,128.79364
"84551",1126.4263,81.004654,128.46317
"84552",1126.4397,80.66529,128.1552
"84553",1126.4529,80.365,127.875694
"84554",1126.4663,80.096436,127.61854
"84555",1126.4795,79.869385,127.3945
"84556",1126.4929,79.68627,127.207306
"84557",1126.5061,79.55932,127.07055
"84558",1126.5195,79.500725,126.998184
"84559",1126.5327,79.520256,127.00211
"84560",1126.5461,79.62035,127.08722
"84561",1126.5593,79.77173,127.22673
"84562",1126.5728,79.957275,127.40514
"84563",1126.5859,80.14282,127.589355
"84564",1126.5994,80.289314,127.74031
"84565",1126.6125,80.37232,127.83236
"84566",1126.626,80.38941,127.861084
"84567",1126.6392,80.34547,127.82931
"84568",1126.6526,80.25025,127.74489
"84569",1126.6658,80.12329,127.62575
"84570",1126.6792,79.974365,127.480675
"84571",1126.6924,79.815674,127.32118
"84572",1126.7058,79.64965,127.1494
"84573",1126.719,79.48608,126.97488
"84574",1126.7324,79.327385,126.800125
"84575",1126.7456,79.183334,126.635056
"84576",1126.759,79.0515,126.4777
"84577",1126.7722,78.93675,126.33331
"84578",1126.7856,78.84154,126.20487
"84579",1126.7988,78.76341,126.090546
"84580",1126.8123,78.70725,125.99574
"84581",1126.8254,78.675514,125.92361
"84582",1126.8389,78.66819,125.87489
"84583",1126.852,78.6804,125.84548
"84584",1126.8655,78.712135,125.83598
"84585",1126.8787,78.76097,125.844574
"84586",1126.8921,78.82201,125.86689
"84587",1126.9053,78.88304,125.89111
"84588",1126.9187,78.941635,125.9148
"84589",1126.9319,78.98558,125.925674
"84590",1126.9453,79.01732,125.92571
"84591",1126.9585,79.061264,125.93895
"84592",1126.9719,79.166245,126.014595
"84593",1126.9851,79.398186,126.22048
"84594",1126.9985,79.81079,126.61428
"84595",1127.0117,80.40162,127.199196
"84596",1127.0251,81.112076,127.9222
"84597",1127.0383,81.846954,128.69183
"84598",1127.0518,82.48905,129.39165
"84599",1127.065,82.94072,129.9211
"84600",1127.0784,83.16289,130.23517
"84601",1127.0916,83.17021,130.34134
"84602",1127.105,83.004196,130.2744
"84603",1127.1182,82.7161,130.08018
"84604",1127.1316,82.34989,129.79886
"84605",1127.1448,81.94949,129.4719
"84606",1127.1582,81.54421,129.12753
"84607",1127.1714,81.15358,128.78516
"84608",1127.1848,80.797134,128.46477
"84609",1127.198,80.479744,128.17229
"84610",1127.2114,80.201416,127.90895
"84611",1127.2246,79.957275,127.671104
"84612",1127.238,79.75708,127.469574
"84613",1127.2512,79.603264,127.30817
"84614",1127.2646,79.51293,127.20544
"84615",1127.2778,79.49584,127.17313
"84616",1127.2913,79.55688,127.21841
"84617",1127.3044,79.67895,127.32663
"84618",1127.3179,79.83765,127.475296
"84619",1127.331,80.00366,127.63624
"84620",1127.3445,80.14038,127.77307
"84621",1127.3577,80.22583,127.86291
"84622",1127.3711,80.25025,127.89439
"84623",1127.3843,80.218506,127.87046
"84624",1127.3977,80.1355,127.79428
"84625",1127.4109,80.01831,127.68133
"84626",1127.4243,79.87915,127.54274
"84627",1127.4375,79.727776,127.38759
"84628",1127.4509,79.57641,127.227715
"84629",1127.4641,79.42504,127.06311
"84630",1127.4775,79.281,126.9011
"84631",1127.4907,79.14427,126.741905
"84632",1127.5042,79.01732,126.58821
"84633",1127.5173,78.89769,126.437874
"84634",1127.5308,78.79515,126.30089
"84635",1127.544,78.70237,126.170456
"84636",1127.5574,78.63401,126.06155
"84637",1127.5706,78.58518,125.97003
"84638",1127.584,78.55833,125.898964
"84639",1127.5972,78.551,125.84659
"84640",1127.6106,78.56321,125.813515
"84641",1127.6238,78.59739,125.802795
"84642",1127.6372,78.643776,125.80535
"84643",1127.6504,78.69749,125.81668
"84644",1127.6638,78.751205,125.8297
"84645",1127.677,78.79515,125.83462
"84646",1127.6904,78.82201,125.82382
"84647",1127.7036,78.84154,125.80654
"84648",1127.717,78.873276,125.80208
"84649",1127.7302,78.96605,125.85964
"84650",1127.7437,79.18822,126.0495
"84651",1127.7568,79.57885,126.414764
"84652",1127.7703,80.13794,126.96069
"84653",1127.7834,80.82399,127.651054
"84654",1127.7969,81.53445,128.38727
"84655",1127.81,82.15701,129.05779
"84656",1127.8235,82.6038,129.57198
"84657",1127.8367,82.83086,129.8804
"84658",1127.8501,82.847946,129.98596
"84659",1127.8633,82.69413,129.92114
"84660",1127.8767,82.42069,129.7319
"84661",1127.8899,82.08133,129.46819
"84662",1127.9033,81.71023,129.16212
"84663",1127.9165,81.32693,128.83228
"84664",1127.9299,80.94606,128.49287
"84665",1127.9431,80.5774,128.15378
"84666",1127.9565,80.22583,127.82025
"84667",1127.9697,79.903564,127.50504
"84668",1127.9832,79.62524,127.2237
"84669",1127.9963,79.40063,126.98738
"84670",1128.0098,79.24437,126.81239
"84671",1128.023,79.16136,126.70577
"84672",1128.0364,79.15648,126.67468
"84673",1128.0496,79.23216,126.72401
"84674",1128.063,79.36889,126.83674
"84675",1128.0762,79.53979,126.987915
"84676",1128.0896,79.710686,127.14443
"84677",1128.1028,79.852295,127.277
"84678",1128.1162,79.94263,127.36272
"84679",1128.1294,79.96948,127.38778
"84680",1128.1428,79.940186,127.35753
"84681",1128.156,79.8645,127.279976
"84682",1128.1694,79.7522,127.16344
"84683",1128.1826,79.62035,127.02385
"84684",1128.196,79.48119,126.872826
"84685",1128.2092,79.33959,126.71501
"84686",1128.2227,79.19554,126.55032
"84687",1128.2358,79.05882,126.388466
"84688",1128.2493,78.92699,126.22722
"84689",1128.2625,78.802475,126.069176
"84690",1128.2759,78.69749,125.926765
"84691",1128.2891,78.60471,125.79329
"84692",1128.3025,78.53391,125.67889
"84693",1128.3157,78.487526,125.586685
"84694",1128.3291,78.46555,125.51745
"84695",1128.3423,78.46311,125.46706
"84696",1128.3557,78.47776,125.43368
"84697",1128.3689,78.50706,125.415405
"84698",1128.3823,78.54856,125.410255
"84699",1128.3955,78.59495,125.411285
"84700",1128.4089,78.64866,125.42109
"84701",1128.4221,78.712135,125.44234
"84702",1128.4355,78.77562,125.465576
"84703",1128.4487,78.82933,125.481026
"84704",1128.4622,78.87572,125.49083
"84705",1128.4753,78.91234,125.49232
"84706",1128.4888,78.93919,125.48518
"84707",1128.502,78.98314,125.49598
"84708",1128.5154,79.10033,125.58139
"84709",1128.5286,79.34936,125.80231
"84710",1128.542,79.76196,126.19458
"84711",1128.5552,80.32838,126.753555
"84712",1128.5686,80.990005,127.425446
"84713",1128.5818,81.64431,128.11069
"84714",1128.5952,82.18875,128.70651
"84715",1128.6084,82.547646,129.1338
"84716",1128.6218,82.69657,129.36235
"84717",1128.635,82.652626,129.40268
"84718",1128.6484,82.45487,129.28783
"84719",1128.6616,82.14969,129.05936
"84720",1128.675,81.778595,128.75545
"84721",1128.6882,81.38064,128.41307
"84722",1128.7017,80.990005,128.06558
"84723",1128.7148,80.621346,127.72786
"84724",1128.7283,80.289314,127.415245
"84725",1128.7415,79.9939,127.12887
"84726",1128.7549,79.73998,126.87476
"84727",1128.7681,79.534904,126.66156
"84728",1128.7815,79.37621,126.488335
"84729",1128.7947,79.27856,126.371185
"84730",1128.8081,79.25414,126.32423
"84731",1128.8213,79.30785,126.35463
"84732",1128.8347,79.432365,126.45751
"84733",1128.8479,79.60815,126.615555
"84734",1128.8613,79.80591,126.80107
"84735",1128.8745,79.98657,126.97567
"84736",1128.888,80.12329,127.11197
"84737",1128.9011,80.198975,127.191505
"84738",1128.9146,80.2063,127.20505
"84739",1128.9277,80.15259,127.15778
"84740",1128.9412,80.05249,127.062454
"84741",1128.9543,79.92798,126.93958
"84742",1128.9678,79.78638,126.79573
"84743",1128.981,79.63744,126.64012
"84744",1128.9944,79.49096,126.48231
"84745",1129.0076,79.35424,126.32968
"84746",1129.021,79.2224,126.17766
"84747",1129.0342,79.10033,126.03129
"84748",1129.0476,78.99046,125.89331
"84749",1129.0608,78.90013,125.77143
"84750",1129.0742,78.82689,125.66382
"84751",1129.0874,78.77074,125.57101
"84752",1129.1008,78.73655,125.498405
"84753",1129.114,78.71946,125.44183
"84754",1129.1274,78.7219,125.40426
"84755",1129.1406,78.73899,125.38141
"84756",1129.154,78.77074,125.37375
"84757",1129.1672,78.81468,125.37928
"84758",1129.1807,78.86595,125.39351
"84759",1129.1938,78.92699,125.419106
"84760",1129.2073,78.98558,125.44417
"84761",1129.2205,79.04173,125.46862
"84762",1129.2339,79.093,125.489944
"84763",1129.2471,79.12962,125.49822
"84764",1129.2605,79.149155,125.490555
"84765",1129.2737,79.16136,125.47617
"84766",1129.2871,79.19554,125.484146
"84767",1129.3003,79.30053,125.563995
"84768",1129.3137,79.53979,125.781395
"84769",1129.3269,79.94751,126.174736
"84770",1129.3403,80.5066,126.732185
"84771",1129.3535,81.1487,127.390114
"84772",1129.367,81.778595,128.05591
"84773",1129.3801,82.29374,128.62663
"84774",1129.3936,82.61845,129.02303
"84775",1129.4067,82.738075,129.22449
"84776",1129.4202,82.67216,129.24414
"84777",1129.4333,82.46464,129.12013
"84778",1129.4468,82.16434,128.89685
"84779",1129.46,81.812775,128.61293
"84780",1129.4734,81.446556,128.30336
"84781",1129.4866,81.0901,127.99211
"84782",1129.5,80.7483,127.68437
"84783",1129.5132,80.42359,127.38305
"84784",1129.5266,80.128174,127.10087
"84785",1129.5398,79.86694,126.84364
"84786",1129.5532,79.64721,126.61975
"84787",1129.5664,79.48119,126.44271
"84788",1129.5798,79.38598,126.33128
"84789",1129.593,79.36645,126.292564
"84790",1129.6064,79.42504,126.33136
"84791",1129.6196,79.55688,126.44523
"84792",1129.633,79.742424,126.61693
"84793",1129.6462,79.94751,126.813965
"84794",1129.6597,80.14282,127.00764
"84795",1129.6729,80.291756,127.16103
"84796",1129.6863,80.377205,127.2556
"84797",1129.6995,80.39185,127.282036
"84798",1129.7129,80.343025,127.24545
"84799",1129.7261,80.24536,127.15851
"84800",1129.7395,80.12085,127.041664
"84801",1129.7527,79.98169,126.90628
"84802",1129.7661,79.84009,126.76411
"84803",1129.7793,79.69848,126.6175
"84804",1129.7927,79.55932,126.46892
"84805",1129.8059,79.42748,126.32331
"84806",1129.8193,79.30053,126.17847
"84807",1129.8325,79.18822,126.0443
"84808",1129.846,79.09056,125.92127
"84809",1129.8591,79.00267,125.80496
"84810",1129.8726,78.93431,125.70544
"84811",1129.8857,78.887924,125.62575
"84812",1129.8992,78.85863,125.5617
"84813",1129.9124,78.8513,125.51871
"84814",1129.9258,78.86351,125.49502
"84815",1129.939,78.89769,125.49368
"84816",1129.9524,78.941635,125.50318
"84817",1129.9656,78.995346,125.52382
"84818",1129.979,79.04906,125.546135
"84819",1129.9922,79.10765,125.57501
"84820",1130.0056,79.15892,125.5984
"84821",1130.0188,79.200424,125.61362
"84822",1130.0322,79.23216,125.62037
"84823",1130.0454,79.259026,125.62324
"84824",1130.0588,79.293205,125.63426
"84825",1130.072,79.381096,125.700066
"84826",1130.0854,79.57885,125.87848
"84827",1130.0986,79.93042,126.21689
"84828",1130.112,80.430916,126.71521
"84829",1130.1252,81.03151,127.32927
"84830",1130.1387,81.64675,127.976746
"84831",1130.1519,82.176544,128.558
"84832",1130.1653,82.53788,128.98735
"84833",1130.1785,82.701454,129.23024
"84834",1130.1919,82.684364,129.29758
"84835",1130.2051,82.51835,129.21545
"84836",1130.2185,82.252235,129.02805
"84837",1130.2317,81.9202,128.76639
"84838",1130.2451,81.55642,128.46262
"84839",1130.2583,81.180435,128.13527
"84840",1130.2717,80.81178,127.803505
"84841",1130.2849,80.465096,127.482185
"84842",1130.2983,80.15259,127.18421
"84843",1130.3115,79.88159,126.917984
"84844",1130.325,79.656975,126.68967
"84845",1130.3381,79.48119,126.50317
"84846",1130.3516,79.364006,126.36977
"84847",1130.3647,79.31762,126.303505
"84848",1130.3782,79.3518,126.31636
"84849",1130.3914,79.46166,126.40597
"84850",1130.4048,79.635,126.562485
"84851",1130.418,79.84497,126.76105
"84852",1130.4314,80.05493,126.96616
"84853",1130.4446,80.23071,127.14366
"84854",1130.458,80.35279,127.27295
"84855",1130.4712,80.4065,127.337685
"84856",1130.4846,80.38941,127.3333
"84857",1130.4978,80.31861,127.274666
"84858",1130.5112,80.20874,127.17475
"84859",1130.5244,80.07446,127.047
"84860",1130.5378,79.92798,126.90284
"84861",1130.551,79.77905,126.75166
"84862",1130.5645,79.62768,126.59338
"84863",1130.5776,79.48119,126.435265
"84864",1130.5911,79.344475,126.28233
"84865",1130.6042,79.219955,126.13733
"84866",1130.6177,79.114975,126.00797
"84867",1130.6309,79.027084,125.892426
"84868",1130.6443,78.96117,125.796104
"84869",1130.6575,78.91234,125.71481
"84870",1130.6709,78.887924,125.65641
"84871",1130.6841,78.88304,125.616776
"84872",1130.6975,78.89769,125.59652
"84873",1130.7107,78.922104,125.58649
"84874",1130.7241,78.95384,125.58454
"84875",1130.7373,78.995346,125.59335
"84876",1130.7507,79.07347,125.64008
"84877",1130.7639,79.234604,125.77226
"84878",1130.7773,79.517815,126.031555
"84879",1130.7905,79.94507,126.44374
"84880",1130.804,80.4773,126.97426
"84881",1130.8171,81.05348,127.56535
"84882",1130.8306,81.58083,128.12563
"84883",1130.8438,81.98123,128.57542
"84884",1130.8572,82.2034,128.85951
"84885",1130.8704,82.24979,128.97476
"84886",1130.8838,82.14969,128.94498
"84887",1130.897,81.94461,128.80708
"84888",1130.9104,81.66384,128.58708
"84889",1130.9236,81.339134,128.31438
"84890",1130.937,80.99977,128.01686
"84891",1130.9502,80.65797,127.7063
"84892",1130.9636,80.32838,127.39727
"84893",1130.9768,80.01831,127.097466
"84894",1130.9902,79.73998,126.81971
"84895",1131.0034,79.49584,126.567444
"84896",1131.0168,79.293205,126.34905
"84897",1131.03,79.151596,126.185356
"84898",1131.0435,79.08812,126.09537
"84899",1131.0566,79.11253,126.091286
"84900",1131.0701,79.2224,126.173416
"84901",1131.0833,79.412834,126.339554
"84902",1131.0967,79.64965,126.55802
"84903",1131.1099,79.89624,126.79366
"84904",1131.1233,80.12085,127.01503
"84905",1131.1365,80.291756,127.18971
"84906",1131.1499,80.38941,127.296486
"84907",1131.1631,80.41871,127.33795
"84908",1131.1765,80.38697,127.3193
"84909",1131.1897,80.30396,127.24838
"84910",1131.2031,80.184326,127.138245
"84911",1131.2163,80.04761,127.007286
"84912",1131.2297,79.90112,126.86229
"84913",1131.2429,79.7522,126.71027
"84914",1131.2563,79.61059,126.56092
"84915",1131.2695,79.47631,126.414474
"84916",1131.283,79.3518,126.2736
"84917",1131.2961,79.24437,126.14591
"84918",1131.3096,79.151596,126.029526
"84919",1131.3228,79.08324,125.934654
"84920",1131.3362,79.03197,125.85474
"84921",1131.3494,78.995346,125.787865
"84922",1131.3628,78.98314,125.74426
"84923",1131.376,79.02464,125.75399
"84924",1131.3894,79.166245,125.86511
"84925",1131.4026,79.45434,126.12715
"84926",1131.416,79.91089,126.56665
"84927",1131.4292,80.50416,127.157135
"84928",1131.4426,81.160904,127.829636
"84929",1131.4558,81.77615,128.48117
"84930",1131.4692,82.25712,129.01764
"84931",1131.4824,82.547646,129.37871
"84932",1131.4958,82.64286,129.55354
"84933",1131.509,82.562294,129.55557
"84934",1131.5225,82.34989,129.42325
"84935",1131.5356,82.05203,129.19882
"84936",1131.5491,81.71023,128.92114
"84937",1131.5623,81.35134,128.6157
"84938",1131.5757,80.99977,128.30637
"84939",1131.5889,80.66529,128.00313
"84940",1131.6023,80.35523,127.71386
"84941",1131.6155,80.076904,127.44663
"84942",1131.6289,79.83032,127.20245
"84943",1131.6421,79.62524,126.992065
"84944",1131.6555,79.48119,126.83631
"84945",1131.6687,79.40795,126.74686
"84946",1131.6821,79.42504,126.745445
"84947",1131.6953,79.52758,126.83002
"84948",1131.7087,79.70092,126.988594
"84949",1131.7219,79.91333,127.19166
"84950",1131.7354,80.130615,127.406235
"84951",1131.7485,80.31617,127.59587
"84952",1131.762,80.44068,127.73026
"84953",1131.7751,80.49195,127.7953
"84954",1131.7886,80.479744,127.79847
"84955",1131.8018,80.40894,127.74266
"84956",1131.8152,80.29908,127.64558
"84957",1131.8284,80.16235,127.518196
"84958",1131.8418,80.01831,127.37923
"84959",1131.855,79.871826,127.233315
"84960",1131.8684,79.73022,127.0877
"84961",1131.8816,79.5935,126.94255
"84962",1131.895,79.466545,126.802895
"84963",1131.9082,79.35424,126.67392
"84964",1131.9216,79.2517,126.5512
"84965",1131.9348,79.16136,126.43748
"84966",1131.9482,79.08568,126.33559
"84967",1131.9614,79.044174,126.26551
"84968",1131.9749,79.078354,126.26982
"84969",1131.988,79.24437,126.407036
"84970",1132.0015,79.5935,126.73255
"84971",1132.0146,80.12329,127.24964
"84972",1132.0281,80.782486,127.91269
"84973",1132.0413,81.478294,128.63295
"84974",1132.0547,82.09842,129.29927
"84975",1132.0679,82.547646,129.81407
"84976",1132.0813,82.78447,130.13051
"84977",1132.0945,82.81865,130.25171
"84978",1132.1079,82.67948,130.20062
"84979",1132.1211,82.41825,130.02313
"84980",1132.1345,82.08621,129.76666
"84981",1132.1477,81.72732,129.47296
"84982",1132.1611,81.37087,129.1705
"84983",1132.1743,81.041275,128.88374
"84984",1132.1877,80.743416,128.61842
"84985",1132.2009,80.4773,128.37555
"84986",1132.2144,80.24048,128.15364
"84987",1132.2275,80.04028,127.96096
"84988",1132.241,79.87671,127.798645
"84989",1132.2542,79.766846,127.68493
"84990",1132.2676,79.72045,127.63125
"84991",1132.2808,79.7522,127.65426
"84992",1132.2942,79.84253,127.73685
"84993",1132.3074,79.97925,127.868645
"84994",1132.3208,80.13306,128.0218
"84995",1132.334,80.272224,128.16513
"84996",1132.3474,80.365,128.26642
"84997",1132.3606,80.39918,128.31201
"84998",1132.374,80.36988,128.2952
"84999",1132.3872,80.28443,128.22131
"85000",1132.4006,80.164795,128.11057
"85001",1132.4138,80.025635,127.976555
"85002",1132.4272,79.87915,127.83087
"85003",1132.4404,79.73998,127.68793
"85004",1132.4539,79.61059,127.55041
"85005",1132.467,79.49096,127.41861
"85006",1132.4805,79.381096,127.29284
"85007",1132.4937,79.27856,127.17096
"85008",1132.5071,79.185776,127.05563
"85009",1132.5203,79.10033,126.94474
"85010",1132.5337,79.029526,126.845825
"85011",1132.5469,78.992905,126.77888
"85012",1132.5603,79.04173,126.796234
"85013",1132.5735,79.22728,126.951836
"85014",1132.5869,79.5935,127.29391
"85015",1132.6001,80.14038,127.82809
"85016",1132.6135,80.816666,128.50876
"85017",1132.6267,81.512474,129.23009
"85018",1132.6401,82.125275,129.89015
"85019",1132.6533,82.562294,130.39359
"85020",1132.6667,82.777145,130.6885
"85021",1132.6799,82.78203,130.78018
"85022",1132.6934,82.62577,130.71086
"85023",1132.7065,82.357216,130.52437
"85024",1132.72,82.0325,130.27332
"85025",1132.7332,81.69558,129.99991
"85026",1132.7466,81.375755,129.73308
"85027",1132.7598,81.0901,129.49042
"85028",1132.7732,80.83864,129.27303
"85029",1132.7864,80.618904,129.0795
"85030",1132.7998,80.428474,128.90842
"85031",1132.813,80.257576,128.75092
"85032",1132.8264,80.11841,128.6198
"85033",1132.8396,80.01831,128.5234
"85034",1132.853,79.96704,128.47272
"85035",1132.8662,79.974365,128.479
"85036",1132.8796,80.03052,128.53436
"85037",1132.8928,80.11841,128.6232
"85038",1132.9062,80.21118,128.71967
"85039",1132.9194,80.289314,128.8044
"85040",1132.9329,80.325935,128.85007
"85041",1132.946,80.31861,128.85294
"85042",1132.9595,80.26734,128.81163
"85043",1132.9727,80.17456,128.7272
"85044",1132.9861,80.04761,128.60571
"85045",1132.9993,79.89868,128.45828
"85046",1133.0127,79.74731,128.30374
"85047",1133.0259,79.60082,128.14935
"85048",1133.0393,79.466545,128.0026
"85049",1133.0525,79.3518,127.87118
"85050",1133.0659,79.256584,127.75571
"85051",1133.0791,79.18089,127.656784
"85052",1133.0925,79.11009,127.56039
"85053",1133.1057,79.046616,127.4691
"85054",1133.1191,78.992905,127.3856
"85055",1133.1323,78.9514,127.31262
"85056",1133.1458,78.941635,127.27009
"85057",1133.1589,79.01976,127.31514
"85058",1133.1724,79.24193,127.506676
"85059",1133.1855,79.64965,127.89071
"85060",1133.199,80.22583,128.45593
"85061",1133.2122,80.90944,129.1466
"85062",1133.2256,81.600365,129.86595
"85063",1133.2388,82.18143,130.49702
"85064",1133.2522,82.5745,130.95827
"85065",1133.2654,82.75029,131.21451
"85066",1133.2788,82.72831,131.27847
"85067",1133.292,82.55253,131.18796
"85068",1133.3054,82.27909,130.9943
"85069",1133.3186,81.95438,130.7408
"85070",1133.332,81.62722,130.47472
"85071",1133.3452,81.33181,130.23016
"85072",1133.3586,81.07301,130.01299
"85073",1133.3718,80.86061,129.83412
"85074",1133.3853,80.68238,129.68279
"85075",1133.3984,80.52857,129.55031
"85076",1133.4119,80.38697,129.42523
"85077",1133.425,80.26246,129.31282
"85078",1133.4385,80.16235,129.22092
"85079",1133.4517,80.09888,129.1625
"85080",1133.4651,80.076904,129.14362
"85081",1133.4783,80.096436,129.16556
"85082",1133.4917,80.14282,129.21497
"85083",1133.5049,80.2063,129.2829
"85084",1133.5183,80.25025,129.3333
"85085",1133.5315,80.2649,129.35577
"85086",1133.5449,80.235596,129.33475
"85087",1133.5581,80.15991,129.26642
"85088",1133.5715,80.04028,129.1518
"85089",1133.5847,79.8938,129.00656
"85090",1133.5981,79.727776,128.83722
"85091",1133.6113,79.56176,128.66269
"85092",1133.6248,79.40307,128.4903
"85093",1133.638,79.26147,128.33003
"85094",1133.6514,79.13451,128.18
"85095",1133.6646,79.027084,128.04552
"85096",1133.678,78.93431,127.92234
"85097",1133.6912,78.856186,127.81091
"85098",1133.7046,78.79515,127.714134
"85099",1133.7178,78.74876,127.63009
"85100",1133.7312,78.71946,127.56169
"85101",1133.7444,78.709694,127.51191
"85102",1133.7578,78.709694,127.47159
"85103",1133.771,78.71946,127.44103
"85104",1133.7844,78.729225,127.41078
"85105",1133.7976,78.751205,127.39305
"85106",1133.811,78.82201,127.42483
"85107",1133.8242,78.99046,127.55647
"85108",1133.8376,79.30053,127.83499
"85109",1133.8508,79.781494,128.2941
"85110",1133.8643,80.39918,128.90495
"85111",1133.8774,81.07301,129.59126
"85112",1133.8909,81.69802,130.2498
"85113",1133.904,82.18387,130.78871
"85114",1133.9175,82.46708,131.14017
"85115",1133.9307,82.54276,131.29295
"85116",1133.9441,82.442665,131.27232
"85117",1133.9573,82.21561,131.1216
"85118",1133.9707,81.92508,130.90031
"85119",1133.9839,81.617455,130.65285
"85120",1133.9973,81.33425,130.4202
"85121",1134.0105,81.0901,130.21774
"85122",1134.0239,80.89479,130.0565
"85123",1134.0371,80.73121,129.92088
"85124",1134.0505,80.587166,129.7997
"85125",1134.0637,80.45045,129.68134
"85126",1134.0771,80.32105,129.56602
"85127",1134.0903,80.21118,129.46619
"85128",1134.1038,80.13306,129.39465
"85129",1134.117,80.093994,129.35974
"85130",1134.1304,80.09888,129.36755
"85131",1134.1436,80.1355,129.40726
"85132",1134.157,80.18921,129.46521
"85133",1134.1702,80.233154,129.51508
"85134",1134.1836,80.25025,129.53946
"85135",1134.1968,80.22583,129.52286
"85136",1134.2102,80.15503,129.4591
"85137",1134.2234,80.045166,129.3541
"85138",1134.2368,79.90112,129.21146
"85139",1134.25,79.73754,129.04478
"85140",1134.2634,79.56664,128.86568
"85141",1134.2766,79.40795,128.69344
"85142",1134.29,79.26635,128.53333
"85143",1134.3032,79.151596,128.39565
"85144",1134.3167,79.0515,128.26903
"85145",1134.3298,78.96605,128.15393
"85146",1134.3433,78.88548,128.04105
"85147",1134.3564,78.8098,127.930534
"85148",1134.3699,78.73899,127.82253
"85149",1134.383,78.68528,127.729416
"85150",1134.3965,78.64622,127.64927
"85151",1134.4097,78.63157,127.592316
"85152",1134.4231,78.62913,127.54711
"85153",1134.4363,78.641335,127.51648
"85154",1134.4497,78.660866,127.49355
"85155",1134.4629,78.68528,127.47612
"85156",1134.4763,78.709694,127.45945
"85157",1134.4895,78.72678,127.43622
"85158",1134.5029,78.73167,127.40131
"85159",1134.5161,78.71702,127.34703
"85160",1134.5295,78.692604,127.282524
"85161",1134.5427,78.68284,127.2319
"85162",1134.5562,78.746315,127.25422
"85163",1134.5693,78.941635,127.41036
"85164",1134.5828,79.32006,127.755714
"85165",1134.596,79.87427,128.28867
"85166",1134.6094,80.550545,128.96101
"85167",1134.6226,81.23903,129.6667
"85168",1134.636,81.82742,130.29382
"85169",1134.6492,82.230255,130.75377
"85170",1134.6626,82.41337,131.00658
"85171",1134.6758,82.39628,131.06491
"85172",1134.6892,82.22781,130.97133
"85173",1134.7024,81.9617,130.77484
"85174",1134.7158,81.65896,130.5334
"85175",1134.729,81.356224,130.28252
"85176",1134.7424,81.08034,130.04901
"85177",1134.7556,80.850845,129.85329
"85178",1134.769,80.66041,129.68944
"85179",1134.7822,80.50172,129.55139
"85180",1134.7957,80.36256,129.42792
"85181",1134.8088,80.23071,129.3074
"85182",1134.8223,80.11597,129.19986
"85183",1134.8354,80.03052,129.11804
"85184",1134.8489,79.97925,129.06772
"85185",1134.862,79.97681,129.06464
"85186",1134.8755,80.01099,129.09808
"85187",1134.8887,80.06714,129.15457
"85188",1134.9021,80.12329,129.21283
"85189",1134.9153,80.15503,129.24841
"85190",1134.9287,80.15015,129.24838
"85191",1134.9419,80.09888,129.20181
"85192",1134.9553,80.0061,129.11212
"85193",1134.9685,79.869385,128.97559
"85194",1134.9819,79.70092,128.80304
"85195",1134.9951,79.51537,128.60814
"85196",1135.0085,79.33227,128.40988
"85197",1135.0217,79.15648,128.21323
"85198",1135.0352,79.00511,128.03549
"85199",1135.0483,78.88304,127.88233
"85200",1135.0618,78.785385,127.74977
"85201",1135.075,78.70481,127.63124
"85202",1135.0884,78.63645,127.52241
"85203",1135.1016,78.58274,127.42609
"85204",1135.115,78.538795,127.33785
"85205",1135.1282,78.50706,127.26045
"85206",1135.1416,78.487526,127.19427
"85207",1135.1548,78.48264,127.14212
"85208",1135.1682,78.48997,127.10203
"85209",1135.1814,78.5095,127.07437
"85210",1135.1948,78.53391,127.05221
"85211",1135.208,78.56321,127.03569
"85212",1135.2214,78.58518,127.012764
"85213",1135.2346,78.59739,126.98076
"85214",1135.248,78.59739,126.93693
"85215",1135.2612,78.58274,126.87845
"85216",1135.2747,78.551,126.80242
"85217",1135.2878,78.51194,126.71808
"85218",1135.3013,78.485085,126.64472
"85219",1135.3145,78.51194,126.62424
"85220",1135.3279,78.6511,126.716896
"85221",1135.3411,78.958725,126.98237
"85222",1135.3545,79.45678,127.44788
"85223",1135.3677,80.1062,128.08032
"85224",1135.3811,80.81911,128.79654
"85225",1135.3943,81.49294,129.49597
"85226",1135.4077,82.020294,130.06998
"85227",1135.4209,82.340126,130.45294
"85228",1135.4343,82.44511,130.63106
"85229",1135.4475,82.371864,130.63423
"85230",1135.4609,82.16678,130.50327
"85231",1135.4741,81.88846,130.29266
"85232",1135.4875,81.583275,130.0465
"85233",1135.5007,81.290306,129.80301
"85234",1135.5142,81.02663,129.57965
"85235",1135.5273,80.79469,129.3798
"85236",1135.5408,80.59937,129.20932
"85237",1135.554,80.428474,129.05716
"85238",1135.5674,80.27711,128.91919
"85239",1135.5806,80.15503,128.80577
"85240",1135.594,80.06714,128.72272
"85241",1135.6072,80.02319,128.68088
"85242",1135.6206,80.025635,128.68405
"85243",1135.6338,80.07446,128.73367
"85244",1135.6472,80.15259,128.81412
"85245",1135.6604,80.23804,128.90433
"85246",1135.6738,80.30152,128.97525
"85247",1135.687,80.32105,129.00421
"85248",1135.7004,80.28687,128.98007
"85249",1135.7136,80.19165,128.89381
"85250",1135.727,80.05249,128.76065
"85251",1135.7402,79.888916,128.59872
"85252",1135.7537,79.72289,128.42923
"85253",1135.7668,79.5642,128.26187
"85254",1135.7803,79.42748,128.11153
"85255",1135.7935,79.30541,127.971565
"85256",1135.8069,79.19554,127.83999
"85257",1135.8201,79.097885,127.71719
"85258",1135.8335,79.012436,127.60355
"85259",1135.8467,78.93675,127.49701
"85260",1135.8601,78.870834,127.397865
"85261",1135.8733,78.82201,127.31375
"85262",1135.8867,78.78783,127.24276
"85263",1135.8999,78.768295,127.18535
"85264",1135.9133,78.765854,127.14442
"85265",1135.9265,78.77562,127.115616
"85266",1135.94,78.79027,127.092
"85267",1135.9531,78.8098,127.07373
"85268",1135.9666,78.82445,127.051186
"85269",1135.9797,78.83421,127.024216
"85270",1135.9932,78.84154,126.99511
"85271",1136.0063,78.84398,126.96135
"85272",1136.0198,78.84154,126.92278
"85273",1136.033,78.83177,126.876816
"85274",1136.0464,78.81224,126.82078
"85275",1136.0596,78.78294,126.754364
"85276",1136.073,78.746315,126.6797
"85277",1136.0862,78.70725,126.60146
"85278",1136.0996,78.68528,126.53909
"85279",1136.1128,78.72678,126.53951
"85280",1136.1262,78.887924,126.660866
"85281",1136.1394,79.22484,126.96303
"85282",1136.1528,79.742424,127.45639
"85283",1136.166,80.40162,128.10753
"85284",1136.1794,81.109634,128.8281
"85285",1136.1926,81.74197,129.4951
"85286",1136.206,82.20096,130.00853
"85287",1136.2192,82.44022,130.31657
"85288",1136.2327,82.4622,130.41481
"85289",1136.2458,82.31083,130.3404
"85290",1136.2593,82.04715,130.14893
"85291",1136.2725,81.72488,129.89062
"85292",1136.2859,81.38796,129.60762
"85293",1136.2991,81.058365,129.3214
"85294",1136.3125,80.75563,129.05174
"85295",1136.3257,80.479744,128.79947
"85296",1136.3391,80.23804,128.57275
"85297",1136.3523,80.025635,128.3678
"85298",1136.3657,79.852295,128.19525
"85299",1136.3789,79.71801,128.05635
"85300",1136.3923,79.63744,127.96697
"85301",1136.4055,79.61303,127.93123
"85302",1136.419,79.65209,127.9582
"85303",1136.4321,79.73998,128.03522
"85304",1136.4456,79.85718,128.14429
"85305",1136.4587,79.97681,128.25946
"85306",1136.4722,80.06714,128.34906
"85307",1136.4854,80.1062,128.39023
"85308",1136.4988,80.079346,128.3667
"85309",1136.512,79.99634,128.28616
"85310",1136.5254,79.8645,128.1542
"85311",1136.5386,79.70092,127.98639
"85312",1136.552,79.520256,127.79638
"85313",1136.5652,79.33715,127.59828
"85314",1136.5786,79.1638,127.40422
"85315",1136.5918,79.012436,127.22672
"85316",1136.6052,78.88304,127.06647
"85317",1136.6184,78.77562,126.92414
"85318",1136.6318,78.68772,126.79798
"85319",1136.645,78.61448,126.68373
"85320",1136.6584,78.551,126.57696
"85321",1136.6716,78.504616,126.48529
"85322",1136.685,78.470436,126.40438
"85323",1136.6982,78.45335,126.33949
"85324",1136.7117,78.44846,126.28628
"85325",1136.7249,78.46067,126.25
"85326",1136.7383,78.485085,126.22631
"85327",1136.7515,78.521706,126.21559
"85328",1136.7649,78.56809,126.21578
"85329",1136.7781,78.61448,126.21742
"85330",1136.7915,78.64866,126.208305
"85331",1136.8047,78.675514,126.19293
"85332",1136.8181,78.68528,126.16131
"85333",1136.8313,78.68284,126.11778
"85334",1136.8447,78.6804,126.07418
"85335",1136.8579,78.6804,126.03294
"85336",1136.8713,78.675514,125.986824
"85337",1136.8845,78.660866,125.930786
"85338",1136.898,78.63157,125.85964
"85339",1136.9111,78.607155,125.792465
"85340",1136.9246,78.626686,125.76847
"85341",1136.9377,78.765854,125.86472
"85342",1136.9512,79.080795,126.1411
"85343",1136.9644,79.59106,126.622635
"85344",1136.9778,80.25269,127.27149
"85345",1136.991,80.9778,128.0045
"85346",1137.0044,81.64431,128.70157
"85347",1137.0176,82.14969,129.25833
"85348",1137.031,82.4329,129.60872
"85349",1137.0442,82.496376,129.74823
"85350",1137.0576,82.36698,129.69685
"85351",1137.0708,82.10086,129.5047
"85352",1137.0842,81.75174,129.22124
"85353",1137.0974,81.373314,128.89755
"85354",1137.1108,80.99977,128.56693
"85355",1137.124,80.66285,128.26125
"85356",1137.1375,80.36744,127.98655
"85357",1137.1506,80.10864,127.739235
"85358",1137.1641,79.88403,127.51802
"85359",1137.1772,79.68871,127.31908
"85360",1137.1907,79.53002,127.15066
"85361",1137.2039,79.42504,127.03099
"85362",1137.2173,79.39086,126.97884
"85363",1137.2305,79.429924,126.99887
"85364",1137.2439,79.53979,127.09092
"85365",1137.2571,79.693596,127.23035
"85366",1137.2705,79.86206,127.38924
"85367",1137.2837,80.0061,127.52897
"85368",1137.2971,80.10376,127.626816
"85369",1137.3103,80.1355,127.6618
"85370",1137.3237,80.09888,127.62941
"85371",1137.3369,80.00366,127.537285
"85372",1137.3503,79.86694,127.40068
"85373",1137.3635,79.70336,127.23294
"85374",1137.377,79.53002,127.05033
"85375",1137.3901,79.35912,126.864746
"85376",1137.4036,79.202866,126.68846
"85377",1137.4167,79.061264,126.52195
"85378",1137.4302,78.93919,126.370544
"85379",1137.4434,78.83177,126.22997
"85380",1137.4568,78.74143,126.10313
"85381",1137.47,78.66331,125.98567
"85382",1137.4834,78.59495,125.87554
"85383",1137.4966,78.54368,125.780365
"85384",1137.51,78.51194,125.70312
"85385",1137.5232,78.502174,125.64685
"85386",1137.5366,78.51438,125.61225
"85387",1137.5498,78.54856,125.600006
"85388",1137.5632,78.59739,125.60348
"85389",1137.5764,78.65354,125.6158
"85390",1137.5898,78.70725,125.62743
"85391",1137.603,78.75365,125.63343
"85392",1137.6165,78.78783,125.62866
"85393",1137.6296,78.8098,125.612755
"85394",1137.6431,78.82933,125.59509
"85395",1137.6562,78.84642,125.5756
"85396",1137.6697,78.856186,125.54932
"85397",1137.6829,78.856186,125.51357
"85398",1137.6963,78.84642,125.46806
"85399",1137.7095,78.82933,125.414925
"85400",1137.7229,78.819565,125.368576
"85401",1137.7361,78.86839,125.380516
"85402",1137.7495,79.044174,125.520935
"85403",1137.7627,79.395744,125.842636
"85404",1137.7761,79.93042,126.35843
"85405",1137.7893,80.604256,127.03009
"85406",1137.8027,81.3196,127.76432
"85407",1137.8159,81.95682,128.44278
"85408",1137.8293,82.41093,128.95804
"85409",1137.8425,82.63798,129.26044
"85410",1137.856,82.64042,129.34532
"85411",1137.8691,82.46464,129.25206
"85412",1137.8826,82.17166,129.0361
"85413",1137.8958,81.812775,128.74509
"85414",1137.9092,81.43191,128.42087
"85415",1137.9224,81.06813,128.10184
"85416",1137.9358,80.73365,127.800735
"85417",1137.949,80.43336,127.52337
"85418",1137.9624,80.16724,127.27079
"85419",1137.9756,79.93042,127.0392
"85420",1137.989,79.725334,126.83194
"85421",1138.0022,79.5642,126.662224
"85422",1138.0156,79.45922,126.543625
"85423",1138.0288,79.42748,126.49499
"85424",1138.0422,79.47631,126.525925
"85425",1138.0554,79.59838,126.63163
"85426",1138.0688,79.764404,126.7851
"85427",1138.082,79.94751,126.960846
"85428",1138.0955,80.111084,127.12278
"85429",1138.1086,80.22095,127.236115
"85430",1138.1221,80.26002,127.28209
"85431",1138.1353,80.22583,127.25603
"85432",1138.1487,80.130615,127.16787
"85433",1138.1619,79.991455,127.03279
"85434",1138.1753,79.835205,126.876274
"85435",1138.1885,79.67162,126.70754
"85436",1138.2019,79.51537,126.54103
"85437",1138.2151,79.36645,126.37696
"85438",1138.2285,79.2224,126.21311
"85439",1138.2417,79.08568,126.05209
"85440",1138.2551,78.96361,125.90145
"85441",1138.2683,78.85863,125.764084
"85442",1138.2817,78.77074,125.640526
"85443",1138.2949,78.69993,125.5313
"85444",1138.3083,78.65598,125.44673
"85445",1138.3215,78.63401,125.38276
"85446",1138.335,78.63157,125.33763
"85447",1138.3481,78.64866,125.31196
"85448",1138.3616,78.69016,125.31123
"85449",1138.3748,78.73655,125.31669
"85450",1138.3882,78.78783,125.32848
"85451",1138.4014,78.84154,125.344315
"85452",1138.4148,78.89281,125.35938
"85453",1138.428,78.93675,125.36873
"85454",1138.4414,78.9807,125.37945
"85455",1138.4546,79.0222,125.3891
"85456",1138.468,79.05394,125.39028
"85457",1138.4812,79.07591,125.38269
"85458",1138.4946,79.080795,125.358696
"85459",1138.5078,79.06615,125.31532
"85460",1138.5212,79.04906,125.26905
"85461",1138.5344,79.078354,125.26863
"85462",1138.5479,79.217514,125.37899
"85463",1138.561,79.53002,125.667046
"85464",1138.5745,80.028076,126.15041
"85465",1138.5876,80.67017,126.79339
"85466",1138.6011,81.373314,127.51747
"85467",1138.6143,82.01785,128.20493
"85468",1138.6277,82.49882,128.74895
"85469",1138.6409,82.76494,129.09315
"85470",1138.6543,82.80888,129.22351
"85471",1138.6675,82.66239,129.1648
"85472",1138.6809,82.37919,128.9648
"85473",1138.6941,82.020294,128.68025
"85474",1138.7075,81.62722,128.35031
"85475",1138.7207,81.24147,128.01541
"85476",1138.7341,80.88258,127.69532
"85477",1138.7473,80.56031,127.40063
"85478",1138.7607,80.26978,127.12761
"85479",1138.7739,80.01099,126.87724
"85480",1138.7874,79.78638,126.65298
"85481",1138.8005,79.605705,126.46563
"85482",1138.814,79.48119,126.3288
"85483",1138.8271,79.42748,126.25887
"85484",1138.8406,79.45678,126.27028
"85485",1138.8538,79.5642,126.360725
"85486",1138.8672,79.73022,126.51312
"85487",1138.8804,79.92554,126.70001
"85488",1138.8938,80.111084,126.88323
"85489",1138.907,80.25025,127.02587
"85490",1138.9204,80.323494,127.10693
"85491",1138.9336,80.31861,127.11216
"85492",1138.947,80.24536,127.04887
"85493",1138.9602,80.12085,126.93202
"85494",1138.9736,79.96704,126.78199
"85495",1138.9868,79.80591,126.61983
"85496",1139.0002,79.64477,126.45262
"85497",1139.0134,79.49584,126.292595
"85498",1139.0269,79.35424,126.13524
"85499",1139.04,79.2224,125.983215
"85500",1139.0535,79.10033,125.836845
"85501",1139.0667,78.99046,125.69887
"85502",1139.0801,78.89281,125.569664
"85503",1139.0933,78.8098,125.45206
"85504",1139.1067,78.746315,125.35138
"85505",1139.1199,78.70725,125.27314
"85506",1139.1333,78.695045,125.220535
"85507",1139.1465,78.70481,125.18952
"85508",1139.1599,78.73899,125.18323
"85509",1139.1731,78.79027,125.1951
"85510",1139.1865,78.8513,125.21833
"85511",1139.1997,78.9099,125.24103
"85512",1139.2131,78.96361,125.26067
"85513",1139.2263,79.009995,125.27467
"85514",1139.2397,79.046616,125.28036
"85515",1139.2529,79.078354,125.2823
"85516",1139.2664,79.10765,125.2828
"85517",1139.2795,79.132065,125.27933
"85518",1139.293,79.14183,125.26197
"85519",1139.3062,79.14427,125.237595
"85520",1139.3196,79.15404,125.22062
"85521",1139.3328,79.219955,125.2601
"85522",1139.3462,79.415276,125.431046
"85523",1139.3594,79.78882,125.786316
"85524",1139.3728,80.33814,126.32904
"85525",1139.386,81.007095,127.00856
"85526",1139.3994,81.70046,127.7334
"85527",1139.4126,82.303505,128.38959
"85528",1139.426,82.72343,128.8815
"85529",1139.4392,82.92363,129.16681
"85530",1139.4526,82.913864,129.24841
"85531",1139.4658,82.72831,129.15392
"85532",1139.4792,82.41825,128.92912
"85533",1139.4924,82.03494,128.62138
"85534",1139.5059,81.62966,128.2797
"85535",1139.519,81.23659,127.937546
"85536",1139.5325,80.88014,127.61974
"85537",1139.5457,80.56275,127.32986
"85538",1139.5591,80.28199,127.06668
"85539",1139.5723,80.03296,126.82646
"85540",1139.5857,79.815674,126.61021
"85541",1139.5989,79.639885,126.42866
"85542",1139.6123,79.51537,126.29289
"85543",1139.6255,79.45922,126.221596
"85544",1139.6389,79.47387,126.219345
"85545",1139.6521,79.5642,126.293236
"85546",1139.6655,79.725334,126.44075
"85547",1139.6787,79.920654,126.62749
"85548",1139.6921,80.11597,126.82032
"85549",1139.7053,80.27711,126.985085
"85550",1139.7188,80.37476,127.0914
"85551",1139.7319,80.396736,127.125084
"85552",1139.7454,80.343025,127.08377
"85553",1139.7585,80.24536,126.996826
"85554",1139.772,80.11841,126.87754
"85555",1139.7852,79.974365,126.7372
"85556",1139.7986,79.82788,126.58991
"85557",1139.8118,79.67895,126.4356
"85558",1139.8252,79.53246,126.27908
"85559",1139.8384,79.39086,126.12287
"85560",1139.8518,79.256584,125.96956
"85561",1139.865,79.132065,125.82181
"85562",1139.8784,79.0222,125.68482
"85563",1139.8916,78.93187,125.563934
"85564",1139.905,78.86107,125.459755
"85565",1139.9182,78.8098,125.372894
"85566",1139.9316,78.7805,125.306404
"85567",1139.9448,78.77562,125.26341
"85568",1139.9583,78.79027,125.2398
"85569",1139.9714,78.82201,125.233734
"85570",1139.9849,78.86839,125.24331
"85571",1139.998,78.92699,125.26654
"85572",1140.0115,78.98558,125.2916
"85573",1140.0247,79.046616,125.32094
"85574",1140.0381,79.10521,125.34974
"85575",1140.0513,79.15404,125.370605
"85576",1140.0647,79.19798,125.388115
"85577",1140.0779,79.237045,125.402115
"85578",1140.0913,79.27123,125.41246
"85579",1140.1045,79.310295,125.42875
"85580",1140.1179,79.40307,125.49997
"85581",1140.1311,79.60815,125.68639
"85582",1140.1445,79.971924,126.037926
"85583",1140.1577,80.50172,126.56684
"85584",1140.1711,81.15114,127.23194
"85585",1140.1843,81.81766,127.93443
"85586",1140.1978,82.39384,128.56741
"85587",1140.2109,82.78935,129.03773
"85588",1140.2244,82.96269,129.29825
"85589",1140.2375,82.92851,129.35666
"85590",1140.251,82.735634,129.2553
"85591",1140.2642,82.43046,129.03561
"85592",1140.2776,82.05936,128.74046
"85593",1140.2908,81.66384,128.4093
"85594",1140.3042,81.2781,128.07556
"85595",1140.3174,80.919205,127.75661
"85596",1140.3308,80.59205,127.458176
"85597",1140.344,80.30152,127.18615
"85598",1140.3574,80.045166,126.93922
"85599",1140.3706,79.82056,126.71602
"85600",1140.384,79.63012,126.51997
"85601",1140.3972,79.49096,126.369255
"85602",1140.4106,79.415276,126.277664
"85603",1140.4238,79.41772,126.26183
"85604",1140.4373,79.49584,126.32176
"85605",1140.4504,79.64233,126.45249
"85606",1140.4639,79.82544,126.62443
"85607",1140.477,80.01587,126.8094
"85608",1140.4905,80.17212,126.96615
"85609",1140.5037,80.274666,127.07407
"85610",1140.5171,80.31129,127.11928
"85611",1140.5303,80.27955,127.09727
"85612",1140.5437,80.18921,127.01566
"85613",1140.5569,80.059814,126.89218
"85614",1140.5703,79.90845,126.74268
"85615",1140.5835,79.7522,126.58357
"85616",1140.5969,79.59838,126.42201
"85617",1140.6101,79.45434,126.26542
"85618",1140.6235,79.31762,126.11165
"85619",1140.6367,79.19066,125.96336
"85620",1140.6501,79.07103,125.81844
"85621",1140.6633,78.96117,125.67955
"85622",1140.6768,78.870834,125.556755
"85623",1140.69,78.80003,125.45067
"85624",1140.7034,78.75365,125.36678
"85625",1140.7166,78.73411,125.3083
"85626",1140.73,78.73655,125.27118
"85627",1140.7432,78.75365,125.248795
"85628",1140.7566,78.78294,125.23914
"85629",1140.7698,78.82201,125.24017
"85630",1140.7832,78.86839,125.24975
"85631",1140.7964,78.91966,125.265656
"85632",1140.8098,78.97826,125.29049
"85633",1140.823,79.044174,125.32448
"85634",1140.8364,79.10765,125.358086
"85635",1140.8496,79.16136,125.38391
"85636",1140.863,79.202866,125.39921
"85637",1140.8762,79.23216,125.403595
"85638",1140.8896,79.28832,125.43576
"85639",1140.9028,79.43725,125.56245
"85640",1140.9163,79.73998,125.847595
"85641",1140.9294,80.22583,126.32532
"85642",1140.9429,80.86061,126.967155
"85643",1140.956,81.5613,127.69474
"85644",1140.9695,82.21561,128.39784
"85645",1140.9827,82.718544,128.97002
"85646",1140.9961,83.001755,129.33818
"85647",1141.0093,83.06279,129.49303
"85648",1141.0227,82.94316,129.46912
"85649",1141.0359,82.68192,129.29985
"85650",1141.0493,82.33524,129.03699
"85651",1141.0625,81.94949,128.72421
"85652",1141.0759,81.55886,128.3945
"85653",1141.0891,81.18288,128.06723
"85654",1141.1025,80.83864,127.75996
"85655",1141.1157,80.52857,127.4761
"85656",1141.1292,80.257576,127.22162
"85657",1141.1423,80.02075,126.99284
"85658",1141.1558,79.823,126.79574
"85659",1141.169,79.66674,126.63395
"85660",1141.1824,79.56664,126.52344
"85661",1141.1956,79.52514,126.46839
"85662",1141.209,79.551994,126.48041
"85663",1141.2222,79.64233,126.55674
"85664",1141.2356,79.783936,126.68717
"85665",1141.2488,79.94751,126.843994
"85666",1141.2622,80.10864,127.00349
"85667",1141.2754,80.233154,127.13139
"85668",1141.2888,80.30396,127.20949
"85669",1141.302,80.308846,127.22387
"85670",1141.3154,80.257576,127.18225
"85671",1141.3286,80.15991,127.092636
"85672",1141.342,80.0354,126.97312
"85673",1141.3552,79.89624,126.83507
"85674",1141.3687,79.74975,126.68533
"85675",1141.3818,79.60082,126.52859
"85676",1141.3953,79.45922,126.37451
"85677",1141.4084,79.3225,126.220894
"85678",1141.4219,79.202866,126.080086
"85679",1141.435,79.097885,125.950195
"85680",1141.4485,79.012436,125.836555
"85681",1141.4617,78.94408,125.737335
"85682",1141.4751,78.890366,125.65063
"85683",1141.4883,78.8513,125.57689
"85684",1141.5017,78.83177,125.52146
"85685",1141.5149,78.82933,125.48251
"85686",1141.5283,78.84642,125.46302
"85687",1141.5415,78.8806,125.46115
"85688",1141.5549,78.924545,125.470116
"85689",1141.5681,78.975815,125.48778
"85690",1141.5815,79.03197,125.511925
"85691",1141.5947,79.08812,125.53783
"85692",1141.6082,79.149155,125.570366
"85693",1141.6213,79.20775,125.60237
"85694",1141.6348,79.259026,125.62889
"85695",1141.648,79.29809,125.6448
"85696",1141.6614,79.32494,125.64972
"85697",1141.6746,79.34203,125.64571
"85698",1141.688,79.378654,125.66177
"85699",1141.7012,79.4934,125.7571
"85700",1141.7146,79.7522,126.00007
"85701",1141.7278,80.19165,126.43178
"85702",1141.7412,80.80446,127.050575
"85703",1141.7544,81.514915,127.78617
"85704",1141.7678,82.21805,128.53665
"85705",1141.781,82.791794,129.17972
"85706",1141.7944,83.160446,129.63562
"85707",1141.8076,83.29229,129.86623
"85708",1141.821,83.22148,129.8983
"85709",1141.8342,82.99687,129.77437
"85710",1141.8477,82.6746,129.54575
"85711",1141.8608,82.29618,129.25092
"85712",1141.8743,81.90311,128.9296
"85713",1141.8875,81.514915,128.60088
"85714",1141.9009,81.1487,128.282
"85715",1141.9141,80.814224,127.98342
"85716",1141.9275,80.51392,127.708565
"85717",1141.9407,80.24536,127.45606
