"","Time..s.","PPG.trace","Preprocessed.PPG"
"50400",713.469,74.73502,101.750984
"50401",713.4823,74.25895,101.11038
"50402",713.4956,74.62028,101.292305
"50403",713.5089,75.7116,102.215515
"50404",713.5222,77.29122,103.661125
"50405",713.5355,79.0515,105.336754
"50406",713.5488,80.69459,106.9502
"50407",713.56213,81.98123,108.25855
"50408",713.57544,82.774704,109.11394
"50409",713.58875,83.04326,109.4692
"50410",713.60205,82.81621,109.33725
"50411",713.61536,82.1741,108.78315
"50412",713.62866,81.20729,107.88428
"50413",713.64197,80.00122,106.715935
"50414",713.6553,78.641335,105.35609
"50415",713.6686,77.20088,103.87318
"50416",713.6819,75.74334,102.32816
"50417",713.6952,74.322426,100.77423
"50418",713.7085,72.99428,99.26866
"50419",713.7218,71.79553,97.85099
"50420",713.7351,70.75548,96.55455
"50421",713.7484,69.88388,95.39406
"50422",713.7617,69.1783,94.372345
"50423",713.775,68.64118,93.49705
"50424",713.7883,68.26032,92.76122
"50425",713.80164,68.02838,92.162415
"50426",713.81494,67.93317,91.693085
"50427",713.82825,67.9527,91.335526
"50428",713.84155,68.050354,91.0567
"50429",713.85486,68.18707,90.81999
"50430",713.86816,68.3238,90.58756
"50431",713.8815,68.436104,90.334984
"50432",713.8948,68.53132,90.068825
"50433",713.9081,68.770584,89.94969
"50434",713.9214,69.5787,90.40688
"50435",713.9347,71.58556,92.08808
"50436",713.948,75.2575,95.49707
"50437",713.9613,80.584724,100.676094
"50438",713.9746,87.05943,107.169075
"50439",713.9879,93.80759,114.13783
"50440",714.0012,99.8526,120.614334
"50441",714.0145,104.41566,125.79778
"50442",714.02783,107.20134,129.34645
"50443",714.04114,108.32929,131.32445
"50444",714.05444,108.050964,131.93141
"50445",714.06775,106.59342,131.35046
"50446",714.08105,104.16907,129.75716
"50447",714.09436,101.00008,127.343445
"50448",714.10767,97.32815,124.32777
"50449",714.121,93.37301,120.91413
"50450",714.1343,89.339745,117.298775
"50451",714.1476,85.38949,113.64039
"50452",714.1609,81.65896,110.07828
"50453",714.1742,78.27512,106.746284
"50454",714.1875,75.37957,103.79683
"50455",714.2008,73.145645,101.41852
"50456",714.2141,71.76135,99.82003
"50457",714.2274,71.36584,99.16705
"50458",714.2407,71.993286,99.52469
"50459",714.254,73.49966,100.78085
"50460",714.26733,75.58709,102.66515
"50461",714.28064,77.8674,104.80756
"50462",714.29395,79.95972,106.83324
"50463",714.30725,81.57595,108.44821
"50464",714.32056,82.564735,109.486244
"50465",714.33386,82.90654,109.908195
"50466",714.34717,82.67216,109.76464
"50467",714.3605,81.9617,109.13769
"50468",714.3738,80.885025,108.122314
"50469",714.3871,79.54223,106.807175
"50470",714.4004,78.02121,105.27185
"50471",714.4137,76.404976,103.59378
"50472",714.427,74.77165,101.848114
"50473",714.4403,73.18715,100.10023
"50474",714.4536,71.70519,98.40537
"50475",714.4669,70.36729,96.80826
"50476",714.4802,69.20271,95.34266
"50477",714.4935,68.21637,94.0189
"50478",714.50684,67.41314,92.84743
"50479",714.52014,66.78569,91.82664
"50480",714.53345,66.32426,90.952255
"50481",714.54675,66.01663,90.21726
"50482",714.56006,65.85306,89.61671
"50483",714.57336,65.81888,89.140434
"50484",714.5867,65.882355,88.76075
"50485",714.6,65.9971,88.43432
"50486",714.6133,66.11917,88.1188
"50487",714.6266,66.2095,87.77535
"50488",714.6399,66.319374,87.45427
"50489",714.6532,66.73197,87.43935
"50490",714.6665,68.05524,88.347984
"50491",714.6798,70.98985,90.909325
"50492",714.6931,75.86542,95.50333
"50493",714.7064,82.41093,101.91963
"50494",714.7197,89.830475,109.41452
"50495",714.73303,97.040054,116.931305
"50496",714.74634,102.98253,123.40628
"50497",714.75964,107.02556,128.16751
"50498",714.77295,109.11055,131.09705
"50499",714.78625,109.51827,132.41447
"50500",714.79956,108.561226,132.37987
"50501",714.81287,106.48112,131.19229
"50502",714.8262,103.49767,129.03638
"50503",714.8395,99.83795,126.11096
"50504",714.8528,95.71923,122.612175
"50505",714.8661,91.34661,118.73078
"50506",714.8794,86.908066,114.64682
"50507",714.8927,82.55253,110.50716
"50508",714.906,78.42161,106.456
"50509",714.9193,74.67155,102.65662
"50510",714.9326,71.51232,99.33088
"50511",714.9459,69.18562,96.73894
"50512",714.9592,67.92584,95.141205
"50513",714.97253,67.911194,94.74924
"50514",714.98584,69.14168,95.601944
"50515",714.99915,71.40978,97.53072
"50516",715.01245,74.30045,100.152954
"50517",715.02576,77.31075,102.985146
"50518",715.03906,79.97681,105.56716
"50519",715.05237,81.969025,107.558655
"50520",715.0657,83.14824,108.7994
"50521",715.079,83.53643,109.28597
"50522",715.0923,83.25567,109.11572
"50523",715.1056,82.459755,108.42155
"50524",715.1189,81.27322,107.311874
"50525",715.1322,79.81079,105.88924
"50526",715.1455,78.16281,104.235344
"50527",715.1588,76.419624,102.434746
"50528",715.1721,74.6569,100.560135
"50529",715.1854,72.952774,98.68904
"50530",715.1987,71.36828,96.88432
"50531",715.21204,69.95468,95.20099
"50532",715.22534,68.74616,93.67855
"50533",715.23865,67.76227,92.34297
"50534",715.25195,66.99565,91.193924
"50535",715.26526,66.42924,90.22112
"50536",715.27856,66.05325,89.42105
"50537",715.2919,65.83597,88.76793
"50538",715.3052,65.738304,88.22764
"50539",715.3185,65.721214,87.76487
"50540",715.3318,65.75052,87.34796
"50541",715.3451,65.79202,86.94417
"50542",715.3584,65.84573,86.55388
"50543",715.3717,66.075226,86.34105
"50544",715.385,66.94194,86.77261
"50545",715.3983,69.173416,88.59602
"50546",715.4116,73.35317,92.43745
"50547",715.4249,79.51049,98.387054
"50548",715.43823,87.03258,105.893845
"50549",715.45154,94.872055,113.953094
"50550",715.46484,101.839935,121.38573
"50551",715.47815,107.003586,127.23187
"50552",715.49146,110.013885,131.08603
"50553",715.50476,111.06615,133.07623
"50554",715.51807,110.54612,133.52702
"50555",715.5314,108.76875,132.70422
"50556",715.5447,105.98062,130.81511
"50557",715.558,102.41367,128.06006
"50558",715.5713,98.28031,124.62712
"50559",715.5846,93.78073,120.6988
"50560",715.5979,89.09804,116.446754
"50561",715.6112,84.386055,112.01909
"50562",715.6245,79.798584,107.56868
"50563",715.6378,75.51385,103.27765
"50564",715.6511,71.75159,99.3752
"50565",715.6644,68.77791,96.14375
"50566",715.67773,66.87358,93.88873
"50567",715.69104,66.29496,92.89991
"50568",715.70435,67.16655,93.343216
"50569",715.71765,69.36874,95.144356
"50570",715.73096,72.53773,97.98112
"50571",715.74426,76.121765,101.331955
"50572",715.75757,79.537346,104.62634
"50573",715.7709,82.29374,107.36828
"50574",715.7842,84.11505,109.26127
"50575",715.7975,84.95735,110.23216
"50576",715.8108,84.9427,110.37243
"50577",715.8241,84.24689,109.83107
"50578",715.8374,83.053024,108.76992
"50579",715.8507,81.514915,107.32722
"50580",715.864,79.764404,105.62405
"50581",715.8773,77.925995,103.778275
"50582",715.8906,76.10956,101.897026
"50583",715.90393,74.41032,100.07621
"50584",715.91724,72.8893,98.380516
"50585",715.93054,71.57824,96.84725
"50586",715.94385,70.486916,95.49275
"50587",715.95715,69.610435,94.318985
"50588",715.97046,68.926834,93.31071
"50589",715.98376,68.41413,92.451965
"50590",715.9971,68.04791,91.72369
"50591",716.0104,67.79889,91.10116
"50592",716.0237,67.632866,90.55385
"50593",716.037,67.51324,90.047745
"50594",716.0503,67.44244,89.58673
"50595",716.0636,67.55962,89.31149
"50596",716.0769,68.31159,89.6747
"50597",716.0902,70.40147,91.39931
"50598",716.1035,74.40055,95.098434
"50599",716.1168,80.35035,100.87325
"50600",716.1301,87.691765,108.22562
"50601",716.14343,95.414055,116.18828
"50602",716.15674,102.364845,123.62076
"50603",716.17004,107.6115,129.56631
"50604",716.18335,110.77562,133.59329
"50605",716.19666,112.00122,135.78064
"50606",716.20996,111.63012,136.40958
"50607",716.22327,109.95529,135.72319
"50608",716.2366,107.23552,133.93951
"50609",716.2499,103.707634,131.26274
"50610",716.2632,99.5938,127.88977
"50611",716.2765,95.099106,124.00738
"50612",716.2898,90.392006,119.772125
"50613",716.3031,85.63363,115.3385
"50614",716.3164,80.96803,110.84895
"50615",716.3297,76.57343,106.484604
"50616",716.343,72.674446,102.47854
"50617",716.3563,69.54696,99.12213
"50618",716.3696,67.48882,96.737335
"50619",716.38293,66.75151,95.60905
"50620",716.39624,67.45464,95.89816
"50621",716.40955,69.47372,97.52519
"50622",716.42285,72.44007,100.1626
"50623",716.43616,75.826355,103.31264
"50624",716.44946,79.061264,106.41712
"50625",716.46277,81.685814,109.01234
"50626",716.4761,83.4461,110.8253
"50627",716.4894,84.29328,111.780174
"50628",716.5027,84.32746,111.94852
"50629",716.516,83.717094,111.47338
"50630",716.5293,82.62577,110.498215
"50631",716.5426,81.180435,109.13493
"50632",716.5559,79.49828,107.48967
"50633",716.5692,77.67696,105.65267
"50634",716.5825,75.7995,103.702614
"50635",716.5958,73.951324,101.723175
"50636",716.60913,72.19104,99.77387
"50637",716.62244,70.56748,97.90628
"50638",716.63574,69.12459,96.16862
"50639",716.64905,67.89899,94.60316
"50640",716.66235,66.92729,93.2533
"50641",716.67566,66.22415,92.14164
"50642",716.68896,65.777374,91.264366
"50643",716.7023,65.533226,90.57576
"50644",716.7156,65.41604,90.006485
"50645",716.7289,65.357445,89.49214
"50646",716.7422,65.355,89.03212
"50647",716.7555,65.63088,88.85034
"50648",716.7688,66.74662,89.517044
"50649",716.7821,69.454185,91.81044
"50650",716.7954,74.23697,96.263664
"50651",716.8087,80.955826,102.80243
"50652",716.822,88.87343,110.7499
"50653",716.8353,96.869156,119.02292
"50654",716.84863,103.763794,126.44472
"50655",716.86194,108.72236,132.1459
"50656",716.87524,111.51537,135.83649
"50657",716.88855,112.377205,137.68317
"50658",716.90186,111.65453,137.97229
"50659",716.91516,109.645226,136.95218
"50660",716.92847,106.62272,134.85608
"50661",716.9418,102.84581,131.91113
"50662",716.9551,98.56107,128.34033
"50663",716.9684,93.978485,124.337776
"50664",716.9817,89.27383,120.06995
"50665",716.995,84.58137,115.6673
"50666",717.0083,80.04028,111.26938
"50667",717.0216,75.8288,107.05915
"50668",717.0349,72.19104,103.291046
"50669",717.0482,69.4078,100.26378
"50670",717.0615,67.78668,98.31165
"50671",717.0748,67.562065,97.70537
"50672",717.08813,68.770584,98.5252
"50673",717.10144,71.19249,100.59618
"50674",717.11475,74.36393,103.492386
"50675",717.12805,77.7087,106.66103
"50676",717.14136,80.6775,109.55823
"50677",717.15466,82.879684,111.781586
"50678",717.16797,84.156555,113.148445
"50679",717.1813,84.55207,113.67385
"50680",717.1946,84.22003,113.48406
"50681",717.2079,83.33868,112.73458
"50682",717.2212,82.04471,111.544945
"50683",717.2345,80.462654,110.02679
"50684",717.2478,78.695045,108.273636
"50685",717.2611,76.83223,106.37004
"50686",717.2744,74.949875,104.388695
"50687",717.2877,73.131,102.412
"50688",717.301,71.43664,100.50299
"50689",717.31433,69.91562,98.71437
"50690",717.32764,68.60456,97.08817
"50691",717.34094,67.52056,95.64806
"50692",717.35425,66.67338,94.4109
"50693",717.36755,66.05081,93.37187
"50694",717.38086,65.62356,92.508705
"50695",717.39417,65.36233,91.79821
"50696",717.4075,65.21828,91.19673
"50697",717.4208,65.145035,90.66156
"50698",717.4341,65.12306,90.17537
"50699",717.4474,65.289085,89.87649
"50700",717.4607,66.08011,90.207794
"50701",717.474,68.17975,91.87244
"50702",717.4873,72.164185,95.48749
"50703",717.5006,78.09689,101.17532
"50704",717.5139,85.44808,108.46704
"50705",717.5272,93.241165,116.430374
"50706",717.5405,100.336006,123.939
"50707",717.55383,105.79263,130.03113
"50708",717.56714,109.19844,134.24295
"50709",717.58044,110.64622,136.60318
"50710",717.59375,110.4387,137.35336
"50711",717.60706,108.86641,136.73228
"50712",717.62036,106.19302,134.96097
"50713",717.63367,102.67979,132.26627
"50714",717.647,98.580605,128.87582
"50715",717.6603,94.12253,124.99839
"50716",717.6736,89.50088,120.81807
"50717",717.6869,84.87923,116.493324
"50718",717.7002,80.413826,112.1804
"50719",717.7135,76.27314,108.05264
"50720",717.7268,72.689095,104.352135
"50721",717.7401,69.93027,101.36484
"50722",717.7534,68.27497,99.39486
"50723",717.7667,67.93805,98.69153
"50724",717.78,68.96101,99.337555
"50725",717.79333,71.14366,101.17523
"50726",717.80664,74.056305,103.81111
"50727",717.81995,77.152054,106.72112
"50728",717.83325,79.91821,109.398285
"50729",717.84656,81.99588,111.4734
"50730",717.85986,83.228806,112.76869
"50731",717.87317,83.63653,113.27731
"50732",717.8865,83.35577,113.11019
"50733",717.8998,82.53544,112.39473
"50734",717.9131,81.304955,111.24348
"50735",717.9264,79.77905,109.758354
"50736",717.9397,78.05783,108.03023
"50737",717.953,76.23163,106.14333
"50738",717.9663,74.39323,104.18717
"50739",717.9796,72.61585,102.23459
"50740",717.9929,70.977646,100.36563
"50741",718.0062,69.52743,98.63347
"50742",718.01953,68.30671,97.08548
"50743",718.03284,67.32525,95.7386
"50744",718.04614,66.58549,94.60275
"50745",718.05945,66.07767,93.67573
"50746",718.07275,65.76517,92.928154
"50747",718.08606,65.601585,92.31973
"50748",718.09937,65.54055,91.80875
"50749",718.1127,65.5259,91.34224
"50750",718.126,65.533226,90.89725
"50751",718.1393,65.635765,90.5477
"50752",718.1526,66.15579,90.61884
"50753",718.1659,67.701225,91.73164
"50754",718.1792,70.89464,94.54072
"50755",718.1925,75.95819,99.31973
"50756",718.2058,82.564735,105.79997
"50757",718.2191,89.90616,113.22154
"50758",718.2324,96.920425,120.54538
"50759",718.2457,102.623634,126.77735
"50760",718.25903,106.442055,131.30276
"50761",718.27234,108.334175,134.0212
"50762",718.28564,108.53925,135.11171
"50763",718.29895,107.34051,134.80481
"50764",718.31226,104.98695,133.30565
"50765",718.32556,101.73495,130.83449
"50766",718.33887,97.848175,127.62693
"50767",718.3522,93.56344,123.89995
"50768",718.3655,89.093155,119.85352
"50769",718.3788,84.59113,115.635666
"50770",718.3921,80.21362,111.40163
"50771",718.4054,76.12421,107.318886
"50772",718.4187,72.552376,103.62594
"50773",718.432,69.7789,100.61972
"50774",718.4453,68.10651,98.627914
"50775",718.4586,67.76715,97.916885
"50776",718.4719,68.80476,98.57222
"50777",718.4852,71.01915,100.43675
"50778",718.49854,73.970856,103.1078
"50779",718.51184,77.11299,106.06153
"50780",718.52515,79.93042,108.78874
"50781",718.53845,82.056915,110.91306
"50782",718.55176,83.33135,112.25178
"50783",718.56506,83.7879,112.81243
"50784",718.57837,83.546196,112.689095
"50785",718.5917,82.760056,112.01377
"50786",718.605,81.56374,110.90371
"50787",718.6183,80.07446,109.463295
"50788",718.6316,78.39231,107.78347
"50789",718.6449,76.610054,105.95097
"50790",718.6582,74.81804,104.053024
"50791",718.6715,73.1017,102.17475
"50792",718.6848,71.52209,100.37957
"50793",718.6981,70.13779,98.73033
"50794",718.7114,68.9781,97.26245
"50795",718.72473,68.06012,96.00003
"50796",718.73804,67.37896,94.94575
"50797",718.75134,66.91753,94.089905
"50798",718.76465,66.64652,93.41007
"50799",718.77795,66.51713,92.86338
"50800",718.79126,66.4683,92.39321
"50801",718.80457,66.45609,91.95814
"50802",718.8179,66.460976,91.53977
"50803",718.8312,66.5684,91.2241
"50804",718.8445,67.11772,91.35368
"50805",718.8578,68.70954,92.54293
"50806",718.8711,71.91028,95.39084
"50807",718.8844,76.90547,100.133224
"50808",718.8977,83.34112,106.47217
"50809",718.911,90.426186,113.661644
"50810",718.9243,97.145035,120.706314
"50811",718.9376,102.572365,126.669426
"50812",718.9509,106.18814,130.99059
"50813",718.96423,107.95087,133.57169
"50814",718.97754,108.070496,134.56477
"50815",718.99084,106.80095,134.17242
"50816",719.00415,104.393684,132.60269
"50817",719.01746,101.10506,130.07637
"50818",719.03076,97.196304,126.82715
"50819",719.04407,92.909134,123.07736
"50820",719.0574,88.43885,119.01049
"50821",719.0707,83.946594,114.78195
"50822",719.084,79.588615,110.5473
"50823",719.0973,75.562675,106.50851
"50824",719.1106,72.10803,102.9152
"50825",719.1239,69.53719,100.09773
"50826",719.1372,68.15289,98.38647
"50827",719.1505,68.157776,98.021126
"50828",719.1638,69.542076,99.035355
"50829",719.1771,72.02991,101.19637
"50830",719.1904,75.140305,104.05771
"50831",719.20374,78.3093,107.074844
"50832",719.21704,81.03395,109.74666
"50833",719.23035,82.99443,111.73945
"50834",719.24365,84.07843,112.91702
"50835",719.25696,84.34455,113.31059
"50836",719.27026,83.931946,113.03375
"50837",719.28357,82.98222,112.2069
"50838",719.2969,81.62234,110.94021
"50839",719.3102,79.97925,109.34782
"50840",719.3235,78.15793,107.52585
"50841",719.3368,76.26826,105.57861
"50842",719.3501,74.41276,103.6065
"50843",719.3634,72.67933,101.69847
"50844",719.3767,71.131454,99.92183
"50845",719.39,69.81552,98.32875
"50846",719.4033,68.74372,96.93868
"50847",719.4166,67.92096,95.76416
"50848",719.42993,67.335014,94.80074
"50849",719.44324,66.95659,94.026535
"50850",719.45654,66.74418,93.40652
"50851",719.46985,66.648964,92.89706
"50852",719.48315,66.617226,92.4481
"50853",719.49646,66.60258,92.015236
"50854",719.50977,66.61234,91.60633
"50855",719.5231,66.82475,91.400375
"50856",719.5364,67.698784,91.86268
"50857",719.5497,69.88632,93.6658
"50858",719.563,73.865875,97.3293
"50859",719.5763,79.635,102.90674
"50860",719.5896,86.65415,109.91448
"50861",719.6029,94.00534,117.47361
"50862",719.6162,100.62653,124.53247
"50863",719.6295,105.67544,130.22595
"50864",719.6428,108.79317,134.14604
"50865",719.6561,110.04318,136.29584
"50866",719.66943,109.65499,136.8465
"50867",719.68274,107.89227,136.0105
"50868",719.69604,105.01625,134.0061
"50869",719.70935,101.3077,131.07932
"50870",719.72266,97.093765,127.53124
"50871",719.73596,92.6894,123.66106
"50872",719.74927,88.37049,119.73869
"50873",719.7626,84.32502,115.9548
"50874",719.7759,80.68726,112.4522
"50875",719.7892,77.574425,109.36084
"50876",719.8025,75.11833,106.82895
"50877",719.8158,73.48745,105.04552
"50878",719.8291,72.86244,104.216995
"50879",719.8424,73.34829,104.4798
"50880",719.8557,74.85954,105.78319
"50881",719.869,77.100784,107.86379
"50882",719.8823,79.66674,110.33915
"50883",719.8956,82.125275,112.78727
"50884",719.90894,84.13214,114.86055
"50885",719.92224,85.50179,116.35933
"50886",719.93555,86.17807,117.207535
"50887",719.94885,86.20737,117.42989
"50888",719.96216,85.68246,117.09896
"50889",719.97546,84.71076,116.30484
"50890",719.9888,83.41192,115.153206
"50891",720.0021,81.898224,113.74613
"50892",720.0154,80.27955,112.186775
"50893",720.0287,78.63889,110.554855
"50894",720.042,77.03731,108.910736
"50895",720.0553,75.526054,107.3069
"50896",720.0686,74.14664,105.787674
"50897",720.0819,72.92348,104.3816
"50898",720.0952,71.885864,103.12285
"50899",720.1085,71.05821,102.041626
"50900",720.1218,70.43809,101.142075
"50901",720.13513,70.00595,100.411125
"50902",720.14844,69.730064,99.82292
"50903",720.16174,69.576256,99.348175
"50904",720.17505,69.50301,98.94919
"50905",720.18835,69.454185,98.57233
"50906",720.20166,69.400475,98.18906
"50907",720.21497,69.32723,97.78458
"50908",720.2283,69.28817,97.41199
"50909",720.2416,69.53719,97.32626
"50910",720.2549,70.572365,98.03447
"50911",720.2682,72.952774,100.12026
"50912",720.2815,76.998245,103.94551
"50913",720.2948,82.58915,109.44261
"50914",720.3081,89.17372,116.10809
"50915",720.3214,95.904785,123.12584
"50916",720.3347,101.85214,129.57022
"50917",720.348,106.32975,134.73071
"50918",720.3613,109.04463,138.2684
"50919",720.37463,110.009,140.14041
"50920",720.38794,109.37667,140.44586
"50921",720.40125,107.372246,139.35945
"50922",720.41455,104.2765,137.11908
"50923",720.42786,100.40681,134.00803
"50924",720.44116,96.07568,130.31462
"50925",720.45447,91.55657,126.297874
"50926",720.4678,87.08385,122.186295
"50927",720.4811,82.83086,118.15467
"50928",720.4944,78.95384,114.36612
"50929",720.5077,75.6115,110.99109
"50930",720.521,73.00404,108.24649
"50931",720.5343,71.32433,106.34816
"50932",720.5476,70.72373,105.47644
"50933",720.5609,71.24132,105.70414
"50934",720.5742,72.723274,106.912384
"50935",720.5875,74.847336,108.80905
"50936",720.6008,77.205765,111.00646
"50937",720.61414,79.40795,113.12133
"50938",720.62744,81.1487,114.843575
"50939",720.64075,82.26444,115.99522
"50940",720.65405,82.71122,116.51276
"50941",720.66736,82.54032,116.42658
"50942",720.68066,81.83963,115.805275
"50943",720.694,80.71656,114.73969
"50944",720.7073,79.273674,113.3192
"50945",720.7206,77.60616,111.62899
"50946",720.7339,75.81903,109.76705
"50947",720.7472,74.00992,107.827286
"50948",720.7605,72.28138,105.91156
"50949",720.7738,70.71885,104.10782
"50950",720.7871,69.385826,102.48476
"50951",720.8004,68.316475,101.08371
"50952",720.8137,67.51568,99.9178
"50953",720.827,66.96147,98.97346
"50954",720.84033,66.631874,98.236404
"50955",720.85364,66.5098,97.69658
"50956",720.86694,66.57328,97.338486
"50957",720.88025,66.78325,97.12887
"50958",720.89355,67.09575,97.02834
"50959",720.90686,67.457085,96.98642
"50960",720.92017,67.8111,96.94846
"50961",720.9335,68.11139,96.86785
"50962",720.9468,68.36042,96.74536
"50963",720.9601,68.64362,96.664825
"50964",720.9734,69.23445,96.900764
"50965",720.9867,70.623634,97.95352
"50966",721,73.35561,100.39249
"50967",721.0133,77.730675,104.55991
"50968",721.0266,83.6292,110.38753
"50969",721.0399,90.51896,117.39069
"50970",721.0532,97.55764,124.758095
"50971",721.0665,103.84192,131.59105
"50972",721.07983,108.67597,137.17017
"50973",721.09314,111.744865,141.13518
"50974",721.10645,113.01686,143.3992
"50975",721.11975,112.60914,144.02325
"50976",721.13306,110.74143,143.17459
"50977",721.14636,107.69451,141.08835
"50978",721.15967,103.800415,138.05971
"50979",721.173,99.3814,134.38446
"50980",721.1863,94.73533,130.34406
"50981",721.1996,90.09659,126.165794
"50982",721.2129,85.64095,122.02568
"50983",721.2262,81.54421,118.10522
"50984",721.2395,77.996796,114.60606
"50985",721.2528,75.23796,111.78462
"50986",721.2661,73.5021,109.89995
"50987",721.2794,72.94057,109.13536
"50988",721.2927,73.53872,109.51291
"50989",721.306,75.07683,110.849106
"50990",721.31934,77.19356,112.81199
"50991",721.33264,79.45922,114.98995
"50992",721.34595,81.48562,116.99945
"50993",721.35925,83.001755,118.56201
"50994",721.37256,83.878235,119.532295
"50995",721.38586,84.07599,119.85124
"50996",721.3992,83.64385,119.54648
"50997",721.4125,82.669716,118.68621
"50998",721.4258,81.26589,117.365814
"50999",721.4391,79.54223,115.68171
"51000",721.4524,77.61837,113.743546
"51001",721.4657,75.60418,111.65493
"51002",721.479,73.60708,109.52046
"51003",721.4923,71.72228,107.43589
"51004",721.5056,70.01816,105.47308
"51005",721.5189,68.54597,103.68896
"51006",721.5322,67.32525,102.1103
"51007",721.54553,66.35844,100.7474
"51008",721.55884,65.63332,99.595985
"51009",721.57214,65.145035,98.65874
"51010",721.58545,64.87648,97.925964
"51011",721.59875,64.80324,97.38011
"51012",721.61206,64.883804,96.98578
"51013",721.62537,65.084,96.71359
"51014",721.6387,65.35012,96.51359
"51015",721.652,65.62844,96.3341
"51016",721.6653,65.86771,96.12425
"51017",721.6786,66.03372,95.84863
"51018",721.6919,66.12894,95.5074
"51019",721.7052,66.2388,95.18379
"51020",721.7185,66.64164,95.15659
"51021",721.7318,67.862366,95.95987
"51022",721.7451,70.44785,98.16605
"51023",721.7584,74.67643,102.09612
"51024",721.7717,80.38941,107.642746
"51025",721.78503,87.00084,114.26634
"51026",721.79834,93.6318,121.11607
"51027",721.81165,99.35943,127.2697
"51028",721.82495,103.536736,132.05199
"51029",721.83826,105.917145,135.16792
"51030",721.85156,106.54948,136.61017
"51031",721.86487,105.62661,136.51697
"51032",721.8782,103.40002,135.0912
"51033",721.8915,100.16266,132.5851
"51034",721.9048,96.22949,129.28201
"51035",721.9181,91.89349,125.453186
"51036",721.9314,87.40368,121.335045
"51037",721.9447,82.96025,117.122986
"51038",721.958,78.73167,112.98691
"51039",721.9713,74.87663,109.09224
"51040",721.9846,71.59533,105.65083
"51041",721.9979,69.16609,102.958954
"51042",722.0112,67.85748,101.31178
"51043",722.02454,67.85016,100.925
"51044",722.03784,69.11726,101.81242
"51045",722.05115,71.4049,103.75997
"51046",722.06445,74.25895,106.34543
"51047",722.07776,77.16182,109.06889
"51048",722.09106,79.6643,111.48268
"51049",722.1044,81.48562,113.29351
"51050",722.1177,82.50614,114.36046
"51051",722.131,82.7454,114.67803
"51052",722.1443,82.29374,114.312164
"51053",722.1576,81.27322,113.36332
"51054",722.1709,79.818115,111.948006
"51055",722.1842,78.05539,110.179596
"51056",722.1975,76.11688,108.18032
"51057",722.2108,74.127106,106.0692
"51058",722.2241,72.19348,103.95205
"51059",722.2374,70.40635,101.92096
"51060",722.25073,68.83406,100.04887
"51061",722.26404,67.51812,98.38399
"51062",722.27734,66.478065,96.95387
"51063",722.29065,65.71877,95.77202
"51064",722.30396,65.2256,94.83256
"51065",722.31726,64.97414,94.11939
"51066",722.33057,64.93019,93.60589
"51067",722.3439,65.03761,93.24238
"51068",722.3572,65.23781,92.975
"51069",722.3705,65.46975,92.74562
"51070",722.3838,65.68215,92.50395
"51071",722.3971,65.83841,92.212776
"51072",722.4104,65.950714,91.88253
"51073",722.4237,66.11429,91.60706
"51074",722.437,66.62943,91.68828
"51075",722.4503,67.97467,92.615685
"51076",722.4636,70.6627,94.92792
"51077",722.4769,74.94011,98.913536
"51078",722.49023,80.62623,104.441536
"51079",722.50354,87.12779,110.96267
"51080",722.51685,93.58297,117.64059
"51081",722.53015,99.11284,123.594925
"51082",722.54346,103.11925,128.19861
"51083",722.55676,105.37759,131.17943
"51084",722.57007,105.96597,132.56087
"51085",722.5834,105.08461,132.49094
"51086",722.5967,102.98253,131.17274
"51087",722.61,99.92584,128.83426
"51088",722.6233,96.183105,125.7142
"51089",722.6366,91.99603,122.03285
"51090",722.6499,87.58434,117.99604
"51091",722.6632,83.11894,113.767654
"51092",722.6765,78.77074,109.516914
"51093",722.6898,74.703285,105.41105
"51094",722.7031,71.15587,101.69811
"51095",722.71643,68.41413,98.67999
"51096",722.72974,66.79057,96.694374
"51097",722.74304,66.51957,96.010574
"51098",722.75635,67.649956,96.719696
"51099",722.76965,69.97177,98.65557
"51100",722.78296,73.03822,101.40864
"51101",722.79626,76.28535,104.43821
"51102",722.8096,79.18822,107.225
"51103",722.8229,81.38552,109.396935
"51104",722.8362,82.7161,110.77081
"51105",722.8495,83.20195,111.34154
"51106",722.8628,82.95781,111.19746
"51107",722.8761,82.127716,110.45979
"51108",722.8894,80.85329,109.251854
"51109",722.9027,79.25414,107.679375
"51110",722.916,77.452354,105.85428
"51111",722.9293,75.55779,103.880104
"51112",722.9426,73.673,101.85649
"51113",722.95593,71.885864,99.87164
"51114",722.96924,70.28184,98.01405
"51115",722.98254,68.912186,96.340706
"51116",722.99585,67.808655,94.89068
"51117",723.00916,66.97612,93.67716
"51118",723.02246,66.407265,92.70131
"51119",723.03577,66.06546,91.93473
"51120",723.0491,65.901886,91.3357
"51121",723.0624,65.85794,90.85119
"51122",723.0757,65.87015,90.421455
"51123",723.089,65.88724,89.99699
"51124",723.1023,65.89212,89.560844
"51125",723.1156,65.95804,89.18589
"51126",723.1289,66.3267,89.11574
"51127",723.1422,67.47173,89.83348
"51128",723.1555,69.944916,91.91515
"51129",723.1688,74.075836,95.73185
"51130",723.1821,79.7351,101.205986
"51131",723.19543,86.35386,107.81647
"51132",723.20874,93.07027,114.73143
"51133",723.22205,98.966354,121.035965
"51134",723.23535,103.37316,126.03547
"51135",723.24866,106.02701,129.41972
"51136",723.26196,107.003586,131.20964
"51137",723.27527,106.49821,131.54813
"51138",723.2886,104.723274,130.60126
"51139",723.3019,101.92294,128.57353
"51140",723.3152,98.34135,125.67703
"51141",723.3285,94.22507,122.13392
"51142",723.3418,89.78165,118.13503
"51143",723.3551,85.189285,113.84835
"51144",723.3684,80.6067,109.427925
"51145",723.3817,76.19745,105.037636
"51146",723.395,72.17883,100.90019
"51147",723.4083,68.83406,97.311005
"51148",723.42163,66.495155,94.62316
"51149",723.43494,65.479515,93.18549
"51150",723.44824,65.967804,93.22002
"51151",723.46155,67.88678,94.700485
"51152",723.47485,70.88487,97.32004
"51153",723.48816,74.41032,100.56064
"51154",723.50146,77.855194,103.83084
"51155",723.5148,80.72144,106.630066
"51156",723.5281,82.71366,108.64483
"51157",723.5414,83.773254,109.78922
"51158",723.5547,83.99786,110.131744
"51159",723.568,83.53643,109.79524
"51160",723.5813,82.547646,108.91697
"51161",723.5946,81.160904,107.60984
"51162",723.6079,79.48119,105.96641
"51163",723.6212,77.61837,104.08737
"51164",723.6345,75.67986,102.07444
"51165",723.6478,73.75601,100.01559
"51166",723.66113,71.939575,98.00403
"51167",723.67444,70.30137,96.11394
"51168",723.68774,68.88533,94.39481
"51169",723.70105,67.718315,92.88046
"51170",723.71436,66.7979,91.57624
"51171",723.72766,66.11429,90.480064
"51172",723.74097,65.66018,89.592026
"51173",723.7543,65.445335,88.92906
"51174",723.7676,65.52834,88.557236
"51175",723.7809,66.07767,88.65432
"51176",723.7942,67.43267,89.57425
"51177",723.8075,70.047455,91.7963
"51178",723.8208,74.215,95.652824
"51179",723.8341,79.8645,101.12155
"51180",723.8474,86.519875,107.77269
"51181",723.8607,93.42184,114.878395
"51182",723.874,99.718315,121.59431
"51183",723.8873,104.71595,127.20814
"51184",723.90063,108.085144,131.3497
"51185",723.91394,109.81857,133.96078
"51186",723.92725,110.07004,135.14407
"51187",723.94055,109.02754,135.04126
"51188",723.95386,106.90837,133.8292
"51189",723.96716,103.95178,131.71349
"51190",723.98047,100.38239,128.8926
"51191",723.9938,96.4004,125.54755
"51192",724.0071,92.171814,121.831474
"51193",724.0204,87.852905,117.89294
"51194",724.0337,83.60967,113.89511
"51195",724.047,79.66918,110.06742
"51196",724.0603,76.31953,106.70743
"51197",724.0736,73.86832,104.141205
"51198",724.0869,72.57923,102.66051
"51199",724.1002,72.57923,102.428604
"51200",724.1135,73.797516,103.41499
"51201",724.12683,75.928894,105.35255
"51202",724.14014,78.519264,107.8157
"51203",724.15344,81.075455,110.325615
"51204",724.16675,83.192184,112.47595
"51205",724.18005,84.627754,114.01128
"51206",724.19336,85.30892,114.83706
"51207",724.20667,85.28939,114.98343
"51208",724.22,84.68879,114.54812
"51209",724.2333,83.61944,113.62529
"51210",724.2466,82.18875,112.30771
"51211",724.2599,80.50904,110.696396
"51212",724.2732,78.6804,108.88366
"51213",724.2865,76.79805,106.960075
"51214",724.2998,74.949875,105.01184
"51215",724.3131,73.214005,103.11816
"51216",724.3264,71.65392,101.346016
"51217",724.3397,70.31602,99.7473
"51218",724.353,69.224686,98.35334
"51219",724.36633,68.384834,97.17676
"51220",724.37964,67.76227,96.191216
"51221",724.39294,67.320366,95.36688
"51222",724.41956,66.97856,94.22344
"51223",724.43286,67.5523,94.39026
"51224",724.44617,69.420006,95.86897
"51225",724.4595,73.18959,99.30793
"51226",724.4728,78.995346,104.90086
"51227",724.4861,86.400246,112.27437
"51228",724.4994,94.50828,120.582405
"51229",724.5127,102.17441,128.70192
"51230",724.526,108.368355,135.58882
"51231",724.5393,112.54078,140.64775
"51232",724.5526,114.64774,143.7716
"51233",724.5659,114.88457,145.09117
"51234",724.5792,113.51003,144.80678
"51235",724.5925,110.80736,143.15129
"51236",724.60583,107.106125,140.41278
"51237",724.61914,102.75304,136.90675
"51238",724.63245,98.0679,132.93265
"51239",724.64575,93.33639,128.76575
"51240",724.65906,88.77577,124.621895
"51241",724.67236,84.54719,120.66756
"51242",724.68567,80.780045,117.04251
"51243",724.699,77.61837,113.90521
"51244",724.7123,75.21599,111.428406
"51245",724.7256,73.7145,109.77742
"51246",724.7389,73.17494,109.04144
"51247",724.7522,73.55581,109.20903
"51248",724.7655,74.67887,110.130714
"51249",724.7788,76.25117,111.53673
"51250",724.7921,77.945526,113.11394
"51251",724.8054,79.46166,114.56587
"51252",724.8187,80.57984,115.66723
"51253",724.83203,81.16823,116.273735
"51254",724.84534,81.180435,116.32245
"51255",724.85864,80.63355,115.812454
"51256",724.87195,79.59594,114.79464
"51257",724.88525,78.15793,113.344
"51258",724.89856,76.422066,111.550575
"51259",724.91187,74.49821,109.51491
"51260",724.9252,72.49622,107.340996
"51261",724.9385,70.53086,105.14114
"51262",724.9518,68.699776,103.014145
"51263",724.9651,67.088425,101.04966
"51264",724.9784,65.75296,99.31071
"51265",724.9917,64.70313,97.81566
"51266",725.005,63.936523,96.57102
"51267",725.0183,63.428703,95.56122
"51268",725.0316,63.15038,94.765045
"51269",725.0449,63.07225,94.16037
"51270",725.0582,63.165028,93.72415
"51271",725.07153,63.384758,93.417786
"51272",725.08484,63.682613,93.19641
"51273",725.09814,64.00488,93.00876
"51274",725.11145,64.31251,92.816536
"51275",725.12476,64.637215,92.65101
"51276",725.13806,65.247574,92.78128
"51277",725.15137,66.71244,93.78513
"51278",725.1647,69.68368,96.34113
"51279",725.178,74.50797,100.84304
"51280",725.1913,80.99733,107.160774
"51281",725.2046,88.480354,114.674965
"51282",725.2179,95.94629,122.405914
"51283",725.2312,102.34287,129.30081
"51284",725.2445,106.95476,134.61092
"51285",725.2578,109.5671,138.0656
"51286",725.2711,110.294655,139.71712
"51287",725.2844,109.37911,139.74829
"51288",725.2977,107.0988,138.38608
"51289",725.31104,103.78577,135.91988
"51290",725.32434,99.808655,132.68607
"51291",725.33765,95.536125,129.03256
"51292",725.35095,91.283134,125.265076
"51293",725.36426,87.28649,121.62103
"51294",725.37756,83.68047,118.24272
"51295",725.39087,80.51881,115.19607
"51296",725.4042,77.82834,112.52181
"51297",725.4175,75.650566,110.27618
"51298",725.4308,74.04166,108.53135
"51299",725.4441,73.0724,107.3759
"51300",725.4574,72.78432,106.87133
"51301",725.4707,73.12367,106.9852
"51302",725.484,73.944,107.590645
"51303",725.4973,75.03044,108.48784
"51304",725.5106,76.15106,109.45316
"51305",725.5239,77.100784,110.28261
"51306",725.53723,77.72335,110.814575
"51307",725.55054,77.93332,110.9534
"51308",725.56384,77.7087,110.6642
"51309",725.57715,77.066605,109.9505
"51310",725.59045,76.053406,108.845634
"51311",725.60376,74.75212,107.42102
"51312",725.61707,73.24574,105.75065
"51313",725.6304,71.6173,103.91114
"51314",725.6437,69.959564,101.99144
"51315",725.657,68.353096,100.071205
"51316",725.6703,66.87114,98.22528
"51317",725.6836,65.56252,96.506386
"51318",725.6969,64.463875,94.956566
"51319",725.7102,63.592278,93.599464
"51320",725.7235,62.94774,92.442184
"51321",725.7368,62.522926,91.48449
"51322",725.7501,62.30808,90.72348
"51323",725.7634,62.281223,90.14375
"51324",725.77673,62.417946,89.72676
"51325",725.79004,62.684063,89.443436
"51326",725.80334,63.047836,89.26608
"51327",725.81665,63.47753,89.16602
"51328",725.82996,63.953613,89.12578
"51329",725.84326,64.45655,89.127266
"51330",725.85657,64.96193,89.14691
"51331",725.8699,65.44045,89.155495
"51332",725.8832,65.86771,89.12776
"51333",725.8965,66.20706,89.02548
"51334",725.9098,66.42924,88.81663
"51335",725.9231,66.53178,88.49508
"51336",725.9364,66.6099,88.15232
"51337",725.9497,67.000534,88.12451
"51338",725.963,68.28718,89.00492
"51339",725.9763,71.028915,91.38063
"51340",725.9896,75.40887,95.48024
"51341",726.0029,81.11452,101.04242
"51342",726.01624,87.413445,107.376175
"51343",726.02954,93.368126,113.56253
"51344",726.04285,98.11673,118.72889
"51345",726.05615,101.20271,122.38102
"51346",726.06946,102.640724,124.48161
"51347",726.08276,102.66758,125.21599
"51348",726.09607,101.542076,124.79884
"51349",726.1094,99.51568,123.44563
"51350",726.1227,96.8423,121.38212
"51351",726.136,93.77585,118.84199
"51352",726.1493,90.545815,116.04245
"51353",726.1626,87.362175,113.18837
"51354",726.1759,84.38117,110.43744
"51355",726.1892,81.69314,107.886314
"51356",726.2025,79.34936,105.59544
"51357",726.2158,77.39864,103.6244
"51358",726.2291,75.90448,102.04894
"51359",726.24243,74.94499,100.96147
"51360",726.25574,74.58366,100.44217
"51361",726.26904,74.8156,100.50485
"51362",726.28235,75.55291,101.080154
"51363",726.29565,76.61738,102.00565
"51364",726.30896,77.79904,103.08161
"51365",726.32227,78.890366,104.10416
"51366",726.3356,79.727776,104.90689
"51367",726.3489,80.21362,105.38423
"51368",726.3622,80.29664,105.47392
"51369",726.3755,79.96948,105.15604
"51370",726.3888,79.281,104.4666
"51371",726.4021,78.29221,103.455345
"51372",726.4154,77.09346,102.203224
"51373",726.4287,75.76288,100.781815
"51374",726.442,74.38346,99.26999
"51375",726.4553,73.02113,97.73215
"51376",726.4686,71.72961,96.222534
"51377",726.48193,70.54551,94.77998
"51378",726.49524,69.50301,93.44203
"51379",726.50854,68.62165,92.232635
"51380",726.52185,67.90143,91.15684
"51381",726.53516,67.34722,90.22455
"51382",726.54846,66.95659,89.438515
"51383",726.56177,66.71732,88.79164
"51384",726.5751,66.617226,88.27646
"51385",726.5884,66.64408,87.8851
"51386",726.6017,66.778366,87.60201
"51387",726.615,66.99809,87.40856
"51388",726.6283,67.283745,87.2879
"51389",726.6416,67.615776,87.22255
"51390",726.6549,67.96979,87.18955
"51391",726.6682,68.336006,87.179825
"51392",726.6815,68.699776,87.17909
"51393",726.6948,69.06355,87.189735
"51394",726.7081,69.417564,87.20198
"51395",726.72144,69.76181,87.21552
"51396",726.73474,70.101166,87.23493
"51397",726.74805,70.41856,87.24298
"51398",726.76135,70.70176,87.22676
"51399",726.77466,70.93126,87.16569
"51400",726.78796,71.08751,87.03854
"51401",726.8013,71.15587,86.828384
"51402",726.8146,71.14122,86.53735
"51403",726.8279,71.131454,86.25075
"51404",726.8412,71.41711,86.25926
"51405",726.8545,72.53773,87.111664
"51406",726.8678,74.99382,89.334564
"51407",726.8811,78.907455,93.09176
"51408",726.8944,83.92462,98.07478
"51409",726.9077,89.32998,103.60278
"51410",726.921,94.24948,108.81385
"51411",726.9343,97.92386,112.933525
"51412",726.94763,100.02106,115.59084
"51413",726.96094,100.665596,116.86104
"51414",726.97424,100.1651,117.00634
"51415",726.98755,98.7979,116.269295
"51416",727.00085,96.78371,114.84254
"51417",727.01416,94.30808,112.8914
"51418",727.02747,91.55657,110.58702
"51419",727.0408,88.6952,108.08679
"51420",727.0541,85.88022,105.54353
"51421",727.0674,83.23613,103.0832
"51422",727.0807,80.85329,100.80148
"51423",727.094,78.79759,98.77245
"51424",727.1073,77.152054,97.08934
"51425",727.1206,76.02167,95.86996
"51426",727.1339,75.508965,95.23293
"51427",727.1472,75.684746,95.26837
"51428",727.1605,76.53437,95.98315
"51429",727.1738,77.92111,97.26159
"51430",727.18713,79.605705,98.88122
"51431",727.20044,81.322044,100.585236
"51432",727.21375,82.81621,102.12071
"51433",727.22705,83.9173,103.30981
"51434",727.24036,84.54719,104.06211
"51435",727.25366,84.701,104.35802
"51436",727.26697,84.43,104.233925
"51437",727.2803,83.81232,103.75468
"51438",727.2936,82.933395,102.99489
"51439",727.3069,81.87381,102.02697
"51440",727.3202,80.69947,100.91119
"51441",727.3335,79.47143,99.705
"51442",727.3468,78.24582,98.462875
"51443",727.3601,77.07149,97.23373
"51444",727.3734,76.00458,96.0753
"51445",727.3867,75.07683,95.0227
"51446",727.4,74.31266,94.10468
"51447",727.4133,73.721825,93.33612
"51448",727.42664,73.3019,92.72001
"51449",727.43994,73.03578,92.244576
"51450",727.45325,72.89662,91.88779
"51451",727.46655,72.85756,91.62675
"51452",727.47986,72.89418,91.44017
"51453",727.49316,72.989395,91.31333
"51454",727.5065,73.128555,91.23341
"51455",727.5198,73.304344,91.19447
"51456",727.5331,73.50942,91.190315
"51457",727.5464,73.741356,91.21942
"51458",727.5597,73.98062,91.26311
"51459",727.573,74.2272,91.32159
"51460",727.5863,74.478676,91.39266
"51461",727.5996,74.72526,91.466705
"51462",727.6129,74.95476,91.53137
"51463",727.6262,75.14763,91.56658
"51464",727.6395,75.27947,91.54679
"51465",727.65283,75.33318,91.45299
"51466",727.66614,75.301445,91.27541
"51467",727.67944,75.22575,91.052895
"51468",727.69275,75.267265,90.94521
"51469",727.70605,75.789734,91.319786
"51470",727.71936,77.25216,92.65064
"51471",727.73267,79.923096,95.23571
"51472",727.746,83.69512,99.00533
"51473",727.7593,88.09216,103.517845
"51474",727.7726,92.42329,108.10185
"51475",727.7859,95.96338,112.030174
"51476",727.7992,98.231476,114.79713
"51477",727.8125,99.14946,116.28484
"51478",727.8258,98.92241,116.65621
"51479",727.8391,97.81644,116.14156
"51480",727.8524,96.05371,114.9356
"51481",727.8657,93.81979,113.20336
"51482",727.879,91.27093,111.086365
"51483",727.89233,88.551155,108.71881
"51484",727.90564,85.785,106.21988
"51485",727.91895,83.09941,103.715065
"51486",727.93225,80.59205,101.30456
"51487",727.94556,78.3386,99.06961
"51488",727.95886,76.43427,97.113365
"51489",727.97217,74.99382,95.561485
"51490",727.9855,74.14664,94.55786
"51491",727.9988,74.0148,94.24311
"51492",728.0121,74.66422,94.7055
"51493",728.0254,76.02167,95.8962
"51494",728.0387,77.88937,97.63959
"51495",728.052,79.957275,99.64153
"51496",728.0653,81.90799,101.59091
"51497",728.0786,83.49004,103.23259
"51498",728.0919,84.55695,104.40856
"51499",728.1052,85.07942,105.07343
"51500",728.1185,85.11116,105.2639
"51501",728.13184,84.74006,105.05252
"51502",728.14514,84.054016,104.5146
"51503",728.15845,83.13847,103.725746
"51504",728.17175,82.05936,102.744705
"51505",728.18506,80.87282,101.62252
"51506",728.19836,79.64477,100.421745
"51507",728.2117,78.433815,99.19969
"51508",728.225,77.29122,98.008156
"51509",728.2383,76.27314,96.905426
"51510",728.2516,75.41131,95.92713
"51511",728.2649,74.72282,95.095245
"51512",728.2782,74.20035,94.40787
"51513",728.2915,73.82681,93.853096
"51514",728.3048,73.582664,93.41604
"51515",728.3181,73.443504,93.07634
"51516",728.3314,73.39468,92.822624
"51517",728.3447,73.41909,92.640625
"51518",728.35803,73.50698,92.522865
"51519",728.37134,73.636375,92.449356
"51520",728.38464,73.80484,92.41896
"51521",728.39795,74.005035,92.42556
"51522",728.41125,74.2272,92.46039
"51523",728.42456,74.461586,92.51437
"51524",728.43787,74.6984,92.57812
"51525",728.4512,74.92058,92.63462
"51526",728.4645,75.10857,92.66388
"51527",728.4778,75.245285,92.64774
"51528",728.4911,75.318535,92.57241
"51529",728.5044,75.338066,92.44565
"51530",728.5177,75.403984,92.36588
"51531",728.531,75.79706,92.61533
"51532",728.5443,76.929886,93.61682
"51533",728.5576,79.12962,95.72062
"51534",728.5709,82.41093,98.974724
"51535",728.5842,86.42954,103.06868
"51536",728.59753,90.57755,107.41761
"51537",728.61084,94.16159,111.3322
"51538",728.62415,96.6421,114.25526
"51539",728.63745,97.82132,115.954544
"51540",728.65076,97.8262,116.51634
"51541",728.66406,96.90578,116.152985
"51542",728.67737,95.29687,115.07238
"51543",728.6907,93.19722,113.45076
"51544",728.704,90.760666,111.42662
"51545",728.7173,88.12146,109.12369
"51546",728.7306,85.40658,106.6626
"51547",728.7439,82.72343,104.1484
"51548",728.7572,80.164795,101.67487
"51549",728.7705,77.81125,99.32648
"51550",728.7838,75.74822,97.19505
"51551",728.7971,74.08316,95.397125
"51552",728.8104,72.96254,94.091606
"51553",728.8237,72.54017,93.44932
"51554",728.83704,72.93324,93.60927
"51555",728.85034,74.13931,94.594505
"51556",728.86365,76.0119,96.28395
"51557",728.87695,78.25559,98.403015
"51558",728.89026,80.51392,100.606834
"51559",728.90356,82.47196,102.58093
"51560",728.9169,83.912415,104.09863
"51561",728.9302,84.7596,105.06808
"51562",728.9435,85.0428,105.500015
"51563",728.9568,84.86458,105.47938
"51564",728.9701,84.32746,105.09428
"51565",728.9834,83.53399,104.436035
"51566",728.9967,82.562294,103.574776
"51567",729.01,81.47585,102.568405
"51568",729.0233,80.32838,101.46705
"51569",729.0366,79.17357,100.3225
"51570",729.0499,78.06271,99.18582
"51571",729.06323,77.03975,98.10232
"51572",729.07654,76.14374,97.1138
"51573",729.08984,75.39666,96.246216
"51574",729.10315,74.810715,95.51642
"51575",729.11646,74.37858,94.92212
"51576",729.12976,74.08316,94.451035
"51577",729.14307,73.90494,94.08791
"51578",729.1564,73.829254,93.82176
"51579",729.1697,73.83658,93.63625
"51580",729.183,73.90982,93.51689
"51581",729.1963,74.03433,93.45109
"51582",729.2096,74.20279,93.43312
"51583",729.2229,74.40299,93.45216
"51584",729.2362,74.6276,93.50187
"51585",729.2495,74.86687,93.57325
"51586",729.2628,75.106125,93.6521
"51587",729.2761,75.32342,93.71646
"51588",729.2894,75.49676,93.74366
"51589",729.30273,75.62615,93.73233
"51590",729.31604,75.76776,93.73726
"51591",729.32935,76.12665,93.96389
"51592",729.34265,77.06416,94.780365
"51593",729.35596,78.91478,96.53924
"51594",729.36926,81.77371,99.36426
"51595",729.38257,85.399254,103.04523
"51596",729.3959,89.28115,107.09585
"51597",729.4092,92.789505,110.89424
"51598",729.4225,95.360344,113.86475
"51599",729.4358,96.73243,115.71685
"51600",729.4491,96.96193,116.46924
"51601",729.4624,96.26856,116.30593
"51602",729.4757,94.88426,115.43002
"51603",729.489,93.00191,114.0128
"51604",729.5023,90.777756,112.19496
"51605",729.52893,85.787445,107.80197
"51606",729.54224,83.23613,105.43151
"51607",729.55554,80.77516,103.07167
"51608",729.56885,78.48264,100.803375
"51609",729.58215,76.44404,98.717354
"51610",729.59546,74.76433,96.92652
"51611",729.60876,73.57534,95.57392
"51612",729.6221,73.023575,94.82139
"51613",729.6354,73.23598,94.81578
"51614",729.6487,74.24185,95.61028
"51615",729.662,75.91913,97.10762
"51616",729.6753,78.00412,99.06509
"51617",729.6886,80.164795,101.16339
"51618",729.7019,82.08621,103.08996
"51619",729.7152,83.54864,104.61758
"51620",729.7285,84.4593,105.63913
"51621",729.7418,84.83284,106.15202
"51622",729.7551,84.75227,106.22248
"51623",729.76843,84.317696,105.93641
"51624",729.78174,83.617,105.370636
"51625",729.79504,82.73075,104.59742
"51626",729.80835,81.722435,103.67444
"51627",729.82166,80.65308,102.65891
"51628",729.83496,79.57397,101.600204
"51629",729.84827,78.54368,100.5566
"51630",729.8616,77.60128,99.568695
"51631",729.8749,76.78096,98.673416
"51632",729.8882,76.09735,97.88921
"51633",729.9015,75.55779,97.2277
"51634",729.9148,75.15251,96.6836
"51635",729.9281,74.861984,96.24159
"51636",729.9414,74.67643,95.89548
"51637",729.9547,74.58366,95.636345
"51638",729.968,74.57145,95.45488
"51639",729.9813,74.62516,95.33895
"51640",729.9946,74.7277,95.27353
"51641",730.00793,74.861984,95.24306
"51642",730.02124,75.00847,95.22898
"51643",730.03455,75.14519,95.20972
"51644",730.04785,75.25994,95.17276
"51645",730.06116,75.35027,95.11497
"51646",730.07446,75.45037,95.06976
"51647",730.08777,75.7116,95.18882
"51648",730.1011,76.42939,95.7726
"51649",730.1144,77.92844,97.160065
"51650",730.1277,80.35523,99.522125
"51651",730.141,83.57549,102.75349
"51652",730.1543,87.19371,106.48344
"51653",730.1676,90.65568,110.170204
"51654",730.1809,93.40963,113.25715
"51655",730.1942,95.113754,115.380325
"51656",730.2075,95.73388,116.472755
"51657",730.2208,95.41894,116.6495
"51658",730.23413,94.374,116.0864
"51659",730.24744,92.78706,114.948654
"51660",730.26074,90.829025,113.39021
"51661",730.27405,88.64393,111.543526
"51662",730.28735,86.346535,109.51625
"51663",730.30066,84.04425,107.41229
"51664",730.31396,81.82498,105.319405
"51665",730.3273,79.76196,103.313416
"51666",730.3406,77.91623,101.46024
"51667",730.3539,76.36103,99.83993
"51668",730.3672,75.21355,98.57873
"51669",730.3805,74.59342,97.80903
"51670",730.3938,74.60319,97.64984
"51671",730.4071,75.27459,98.152596
"51672",730.4204,76.53681,99.26715
"51673",730.4337,78.19211,100.814224
"51674",730.447,79.97925,102.54487
"51675",730.4603,81.634544,104.19952
"51676",730.47363,82.95537,105.57142
"51677",730.48694,83.826965,106.53537
"51678",730.50024,84.23468,107.062675
"51679",730.51355,84.22247,107.1828
"51680",730.52686,83.87335,106.96563
"51681",730.54016,83.267876,106.48119
"51682",730.55347,82.48661,105.80205
"51683",730.5668,81.5906,104.98374
"51684",730.5801,80.638435,104.08128
"51685",730.5934,79.676506,103.139305
"51686",730.6067,78.751205,102.203896
"51687",730.62,77.90402,101.31769
"51688",730.6333,77.16426,100.51243
"51689",730.6466,76.54658,99.80613
"51690",730.6599,76.05585,99.20748
"51691",730.6732,75.68719,98.71557
"51692",730.6865,75.42596,98.319565
"51693",730.6998,75.25994,98.01061
"51694",730.71313,75.16472,97.767265
"51695",730.72644,75.13542,97.58687
"51696",730.73975,75.15495,97.454384
"51697",730.75305,75.20622,97.35425
"51698",730.76636,75.27459,97.27281
"51699",730.77966,75.34051,97.19106
"51700",730.79297,75.39178,97.096725
"51701",730.8063,75.4284,96.98934
"51702",730.8196,75.51629,96.93437
"51703",730.8329,75.841,97.11897
"51704",730.8462,76.6955,97.843506
"51705",730.8595,78.35325,99.39799
"51706",730.8728,80.88991,101.88319
"51707",730.8861,84.11017,105.131256
"51708",730.8994,87.59899,108.74852
"51709",730.9127,90.83879,112.225784
"51710",730.926,93.35836,115.08407
"51711",730.93933,94.90379,117.04695
"51712",730.95264,95.47021,118.07911
"51713",730.96594,95.187,118.27934
"51714",730.97925,94.220184,117.787125
"51715",730.99255,92.73579,116.74711
"51716",731.00586,90.89006,115.29938
"51717",731.01917,88.82948,113.57912
"51718",731.0325,86.68345,111.709
"51719",731.0458,84.55695,109.79136
"51720",731.0591,82.53788,107.91469
"51721",731.0724,80.68482,106.14094
"51722",731.0857,79.06615,104.54366
"51723",731.099,77.7551,103.20343
"51724",731.1123,76.8542,102.23238
"51725",731.1256,76.470894,101.75077
"51726",731.1389,76.66621,101.8358
"51727",731.1522,77.42794,102.493355
"51728",731.1655,78.64622,103.631256
"51729",731.17883,80.12085,105.06358
"51730",731.19214,81.61501,106.56152
"51731",731.20544,82.92363,107.92061
"51732",731.21875,83.895325,108.983665
"51733",731.23206,84.454414,109.66448
"51734",731.24536,84.610664,109.95993
"51735",731.25867,84.41535,109.9087
"51736",731.272,83.94171,109.57304
"51737",731.2853,83.26055,109.01505
"51738",731.2986,82.44511,108.3015
"51739",731.3119,81.55642,107.48922
"51740",731.3252,80.64332,106.624756
"51741",731.3385,79.74975,105.75129
"51742",731.3518,78.91478,104.9085
"51743",731.3651,78.16525,104.12506
"51744",731.3784,77.51339,103.41586
"51745",731.3917,76.964066,102.78883
"51746",731.405,76.51484,102.244736
"51747",731.41833,76.16083,101.781815
"51748",731.43164,75.894714,101.39573
"51749",731.44495,75.70428,101.077
"51750",731.45825,75.579765,100.81825
"51751",731.47156,75.50408,100.60444
"51752",731.48486,75.4699,100.42976
"51753",731.49817,75.46502,100.28332
"51754",731.5115,75.474785,100.15137
"51755",731.5248,75.48211,100.01728
"51756",731.5381,75.48699,99.88098
"51757",731.5514,75.4992,99.75216
"51758",731.5647,75.61883,99.73114
"51759",731.578,76.07294,100.04834
"51760",731.5913,77.1667,101.01939
"51761",731.6046,79.11009,102.87424
"51762",731.6179,81.90311,105.63944
"51763",731.6312,85.29916,109.09496
"51764",731.64453,88.87343,112.83483
"51765",731.65784,92.11322,116.35191
"51766",731.67114,94.605934,119.22317
"51767",731.68445,96.148926,121.222595
"51768",731.69775,96.73243,122.31075
"51769",731.71106,96.45167,122.55288
"51770",731.72437,95.448235,122.06356
"51771",731.7377,93.893036,120.99112
"51772",731.751,91.96185,119.494095
"51773",731.7643,89.82559,117.73164
"51774",731.7776,87.63073,115.843834
"51775",731.7909,85.49447,113.94603
"51776",731.8042,83.49737,112.12063
"51777",731.8175,81.69558,110.42813
"51778",731.8308,80.15259,108.938126
"51779",731.8441,78.95628,107.74659
"51780",731.8574,78.19699,106.95468
"51781",731.8707,77.962616,106.66396
"51782",731.88403,78.277565,106.915245
"51783",731.89734,79.078354,107.66221
"51784",731.91064,80.22095,108.776
"51785",731.92395,81.50027,110.062225
"51786",731.93726,82.70634,111.31518
"51787",731.95056,83.67071,112.36412
"51788",731.96387,84.30305,113.11117
"51789",731.9772,84.559395,113.50198
"51790",731.9905,84.454414,113.53948
"51791",732.0038,84.03693,113.26119
"51792",732.0171,83.3753,112.725716
"51793",732.0304,82.53544,111.99133
"51794",732.0437,81.58572,111.12084
"51795",732.057,80.59205,110.17673
"51796",732.0703,79.605705,109.208885
"51797",732.0836,78.660866,108.251724
"51798",732.0969,77.79416,107.34317
"51799",732.1102,77.02754,106.50762
"51800",732.12354,76.36591,105.753105
"51801",732.13684,75.81171,105.085335
"51802",732.15015,75.3576,104.50034
"51803",732.16345,75.00603,104.0037
"51804",732.17676,74.737465,103.57908
"51805",732.19006,74.54459,103.221756
"51806",732.20337,74.41032,102.917
"51807",732.2167,74.322426,102.654434
"51808",732.23,74.268715,102.4233
"51809",732.2433,74.232086,102.20757
"51810",732.2566,74.20035,101.99559
"51811",732.2699,74.16617,101.780174
"51812",732.2832,74.14908,101.58078
"51813",732.2965,74.2272,101.47607
"51814",732.3098,74.60319,101.67165
"51815",732.3231,75.56512,102.464935
"51816",732.3364,77.35958,104.12081
"51817",732.34973,80.0354,106.71412
"51818",732.36304,83.424126,110.10395
"51819",732.37634,87.14732,113.93415
"51820",732.38965,90.71183,117.72201
"51821",732.40295,93.65133,120.996254
"51822",732.41626,95.6704,123.44193
"51823",732.42957,96.673836,124.93507
"51824",732.4429,96.70313,125.48542
"51825",732.4562,95.87793,125.18219
"51826",732.4695,94.37888,124.17933
"51827",732.4828,92.41108,122.660866
"51828",732.4961,90.17471,120.81235
"51829",732.5094,87.84558,118.80118
"51830",732.5227,85.55306,116.75383
"51831",732.536,83.387505,114.7618
"51832",732.5493,81.42214,112.9023
"51833",732.5626,79.73266,111.257256
"51834",732.5759,78.40208,109.91832
"51835",732.58923,77.53048,108.99679
"51836",732.60254,77.19844,108.58758
"51837",732.61584,77.41573,108.71732
"51838",732.62915,78.118866,109.3397
"51839",732.64246,79.15892,110.32097
"51840",732.65576,80.343025,111.47879
"51841",732.66907,81.46853,112.61501
"51842",732.6824,82.37919,113.57156
"51843",732.6957,82.96269,114.229416
"51844",732.709,83.18242,114.541725
"51845",732.7223,83.0457,114.504456
"51846",732.7356,82.58915,114.14308
"51847",732.7489,81.87381,113.50865
"51848",732.7622,80.9778,112.671196
"51849",732.7755,79.96948,111.693436
"51850",732.7888,78.905014,110.62801
"51851",732.8021,77.84543,109.53421
"51852",732.8154,76.841995,108.46345
"51853",732.82874,75.92157,107.444336
"51854",732.84204,75.11345,106.508766
"51855",732.85535,74.42985,105.67246
"51856",732.86865,73.865875,104.934425
"51857",732.88196,73.42153,104.29839
"51858",732.89526,73.08705,103.75834
"51859",732.90857,72.84779,103.303055
"51860",732.9219,72.691536,102.923294
"51861",732.9352,72.601204,102.60457
"51862",732.9485,72.54749,102.31964
"51863",732.9618,72.518196,102.05745
"51864",732.9751,72.498665,101.80411
"51865",732.9884,72.4889,101.55992
"51866",733.0017,72.47913,101.31543
"51867",733.015,72.46693,101.06819
"51868",733.0283,72.49134,100.85719
"51869",733.0416,72.674446,100.80565
"51870",733.05493,73.25796,101.16023
"51871",733.06824,74.53727,102.22886
"51872",733.08154,76.72236,104.24324
"51873",733.09485,79.80591,107.224365
"51874",733.10815,83.55352,110.96591
"51875",733.12146,87.518425,115.04186
"51876",733.13477,91.17326,118.931656
"51877",733.1481,94.06149,122.16905
"51878",733.1614,95.91699,124.463974
"51879",733.1747,96.66407,125.70846
"51880",733.188,96.3711,125.93624
"51881",733.2013,95.201645,125.27838
"51882",733.2146,93.38033,123.93212
"51883",733.2279,91.14641,122.11633
"51884",733.2412,88.71473,120.03298
"51885",733.2545,86.26353,117.85411
"51886",733.2678,83.914856,115.70117
"51887",733.2811,81.74441,113.65306
"51888",733.29443,79.81323,111.7764
"51889",733.30774,78.19455,110.15188
"51890",733.32104,76.98604,108.88695
"51891",733.33435,76.27314,108.079865
"51892",733.34766,76.10712,107.79738
"51893",733.36096,76.48066,108.04927
"51894",733.37427,77.29366,108.7523
"51895",733.3876,78.380104,109.754166
"51896",733.4009,79.54955,110.87299
"51897",733.4142,80.621346,111.93071
"51898",733.4275,81.461205,112.789986
"51899",733.4408,81.97635,113.35079
"51900",733.4541,82.142365,113.57857
"51901",733.4674,81.96414,113.46729
"51902",733.4807,81.480736,113.045265
"51903",733.494,80.75075,112.36155
"51904",733.5073,79.84497,111.47923
"51905",733.5206,78.82445,110.453865
"51906",733.53394,77.747765,109.34045
"51907",733.54724,76.67841,108.200714
"51908",733.56055,75.6701,107.0886
"51909",733.57385,74.75456,106.03776
"51910",733.58716,73.95865,105.07793
"51911",733.60046,73.306786,104.237274
"51912",733.6138,72.796524,103.51785
"51913",733.6271,72.42298,102.919205
"51914",733.6404,72.17395,102.433395
"51915",733.6537,72.03723,102.05211
"51916",733.667,71.98108,101.747116
"51917",733.6803,71.97864,101.49408
"51918",733.6936,72.00549,101.27026
"51919",733.7069,72.025024,101.03996
"51920",733.7202,72.0177,100.78342
"51921",733.7335,71.96155,100.47781
"51922",733.7468,71.854126,100.11919
"51923",733.76013,71.707634,99.71814
"51924",733.77344,71.55627,99.30763
"51925",733.78674,71.51232,98.99982
"51926",733.80005,71.81262,99.03488
"51927",733.81335,72.764786,99.731186
"51928",733.82666,74.62272,101.36302
"51929",733.83997,77.47433,104.04659
"51930",733.8533,81.163345,107.656685
"51931",733.8666,85.3016,111.83129
"51932",733.8799,89.34951,116.044876
"51933",733.8932,92.77974,119.76728
"51934",733.9065,95.221176,122.608086
"51935",733.9198,96.517586,124.38016
"51936",733.9331,96.67628,125.05502
"51937",733.9464,95.8291,124.72898
"51938",733.9597,94.20065,123.59519
"51939",733.973,92.035095,121.873405
"51940",733.9863,89.56924,119.783646
"51941",733.99963,87.010605,117.524055
"51942",734.01294,84.51301,115.24554
"51943",734.02625,82.1741,113.04766
"51944",734.03955,80.062256,111.00375
"51945",734.05286,78.25803,109.20148
"51946",734.06616,76.859085,107.74809
"51947",734.07947,75.95575,106.746605
"51948",734.0928,75.6115,106.27598
"51949",734.1061,75.826355,106.35369
"51950",734.1194,76.51972,106.91663
"51951",734.1327,77.53536,107.82352
"51952",734.146,78.68284,108.893974
"51953",734.1593,79.78882,109.95879
"51954",734.1726,80.70435,110.86773
"51955",734.1859,81.324486,111.50987
"51956",734.1992,81.583275,111.81005
"51957",734.2125,81.47097,111.74722
"51958",734.2258,81.024185,111.346405
"51959",734.23914,80.308846,110.66307
"51960",734.25244,79.398186,109.76206
"51961",734.26575,78.37522,108.72029
"51962",734.27905,77.313194,107.60749
"51963",734.29236,76.26093,106.47127
"51964",734.30566,75.264824,105.358315
"51965",734.319,74.37858,104.3241
"51966",734.3323,73.63149,103.401344
"51967",734.3456,73.03334,102.60418
"51968",734.3589,72.57923,101.932365
"51969",734.3722,72.24475,101.36598
"51970",734.3855,72.010376,100.88925
"51971",734.3988,71.854126,100.48332
"51972",734.4121,71.76135,100.13599
"51973",734.4254,71.72961,99.84679
"51974",734.4387,71.75159,99.61032
"51975",734.452,71.80774,99.40871
"51976",734.46533,71.88098,99.22594
"51977",734.47864,71.95178,99.043015
"51978",734.49194,72.00061,98.84033
"51979",734.50525,72.0177,98.60744
"51980",734.51855,72.00549,98.34578
"51981",734.53186,71.98596,98.076416
"51982",734.54517,72.05432,97.89433
"51983",734.5585,72.4181,98.00981
"51984",734.5718,73.38003,98.7348
"51985",734.5851,75.23552,100.38342
"51986",734.5984,78.11154,103.11056
"51987",734.6117,81.8909,106.8309
"51988",734.625,86.1976,111.19669
"51989",734.6383,90.48234,115.6751
"51990",734.6516,94.17624,119.69658
"51991",734.6649,96.869156,122.832504
"51992",734.6782,98.3682,124.85871
"51993",734.6915,98.67338,125.73789
"51994",734.70483,97.916534,125.56459
"51995",734.71814,96.31007,124.51801
"51996",734.73145,94.103,122.82063
"51997",734.74475,91.54681,120.70516
"51998",734.75806,88.866104,118.3853
"51999",734.77136,86.22446,116.02072
"52000",734.78467,83.74151,113.732285
"52001",734.798,81.49294,111.60064
"52002",734.8113,79.54711,109.70146
"52003",734.8246,77.99191,108.13211
"52004",734.8379,76.91768,106.995125
"52005",734.8512,76.39033,106.37145
"52006",734.8645,76.436714,106.30504
"52007",734.8778,77.00069,106.75766
"52008",734.8911,77.943085,107.60633
"52009",734.9044,79.08812,108.68709
"52010",734.9177,80.23804,109.80851
"52011",734.931,81.22682,110.80473
"52012",734.94434,81.9202,111.536446
"52013",734.95764,82.23758,111.91383
"52014",734.97095,82.15701,111.90319
"52015",734.98425,81.70779,111.52137
"52016",734.99756,80.95094,110.817894
"52017",735.01086,79.971924,109.86859
"52018",735.0242,78.853745,108.749535
"52019",735.0375,77.67696,107.536934
"52020",735.0508,76.50996,106.29733
"52021",735.0641,75.403984,105.0823
"52022",735.0774,74.41276,103.94745
"52023",735.0907,73.56069,102.920784
"52024",735.104,72.85512,102.013985
"52025",735.1173,72.29359,101.22918
"52026",735.1306,71.868774,100.56354
"52027",735.1439,71.55627,99.99693
"52028",735.1572,71.343864,99.52066
"52029",735.17053,71.22667,99.132965
"52030",735.18384,71.19493,98.82706
"52031",735.19714,71.24132,98.59828
"52032",735.21045,71.35363,98.43689
"52033",735.22375,71.519646,98.3327
"52034",735.23706,71.7174,98.26544
"52035",735.25037,71.93225,98.221466
"52036",735.2637,72.14221,98.179306
"52037",735.277,72.32777,98.11931
"52038",735.2903,72.47913,98.030914
"52039",735.3036,72.58167,97.89842
"52040",735.3169,72.620735,97.70566
"52041",735.3302,72.620735,97.47505
"52042",735.3435,72.68421,97.30792
"52043",735.3568,73.03822,97.43332
"52044",735.3701,74.03677,98.21432
"52045",735.3834,76.00702,99.998215
"52046",735.3967,79.09544,102.96186
"52047",735.41003,83.18974,107.02789
"52048",735.42334,87.904175,111.842
"52049",735.43665,92.65034,116.835175
"52050",735.44995,96.81056,121.390724
"52051",735.46326,99.92096,125.02645
"52052",735.47656,101.74471,127.47273
"52053",735.48987,102.24765,128.6552
"52054",735.5032,101.5494,128.65219
"52055",735.5165,99.86969,127.6459
"52056",735.5298,97.47219,125.86932
"52057",735.5431,94.63035,123.57349
"52058",735.5564,91.612724,121.01306
"52059",735.5697,88.63416,118.3974
"52060",735.583,85.86557,115.89862
"52061",735.5963,83.421684,113.63803
"52062",735.6096,81.38308,111.70635
"52063",735.6229,79.80347,110.16996
"52064",735.6362,78.729225,109.08958
"52065",735.64954,78.19455,108.51519
"52066",735.66284,78.20676,108.47098
"52067",735.67615,78.709694,108.91788
"52068",735.68945,79.58129,109.74915
"52069",735.70276,80.6482,110.80298
"52070",735.71606,81.72732,111.90235
"52071",735.7294,82.64774,112.876755
"52072",735.7427,83.27032,113.58207
"52073",735.756,83.50225,113.9162
"52074",735.7693,83.299614,113.823006
"52075",735.7826,82.684364,113.31087
"52076",735.7959,81.7322,112.44259
"52077",735.8092,80.5481,111.31262
"52078",735.8225,79.23216,110.01381
"52079",735.8358,77.87961,108.63726
"52080",735.8491,76.561226,107.25262
"52081",735.8624,75.31121,105.89514
"52082",735.87573,74.15396,104.59137
"52083",735.88904,73.11635,103.37107
"52084",735.90234,72.22278,102.26239
"52085",735.91565,71.483025,101.2796
"52086",735.92896,70.889755,100.42018
"52087",735.94226,70.433205,99.67894
"52088",735.95557,70.101166,99.047935
"52089",735.9689,69.86923,98.50666
"52090",735.9822,69.72518,98.04602
"52091",735.9955,69.65926,97.65901
"52092",736.0088,69.66659,97.343185
"52093",736.0221,69.754486,97.10816
"52094",736.0354,69.92294,96.95644
"52095",736.0487,70.169525,96.888115
"52096",736.062,70.47715,96.888535
"52097",736.0753,70.82384,96.93763
"52098",736.0886,71.182724,97.009766
"52099",736.1019,71.536736,97.08824
"52100",736.11523,71.86389,97.150925
"52101",736.12854,72.149536,97.18231
"52102",736.14185,72.38148,97.16893
"52103",736.15515,72.55726,97.10663
"52104",736.16846,72.69642,97.0132
"52105",736.18176,72.918594,97.00714
"52106",736.19507,73.4728,97.34006
"52107",736.2084,74.71793,98.38122
"52108",736.2217,76.95186,100.45008
"52109",736.235,80.27955,103.68252
"52110",736.2483,84.51789,107.929596
"52111",736.2616,89.21034,112.76323
"52112",736.2749,93.748985,117.58969
"52113",736.2882,97.54543,121.815796
"52114",736.3015,100.191956,125.01061
"52115",736.3148,101.5201,126.96976
"52116",736.3281,101.542076,127.66423
"52117",736.34143,100.40681,127.20215
"52118",736.35474,98.355995,125.78905
"52119",736.36804,95.675285,123.68196
"52120",736.38135,92.647896,121.144424
"52121",736.39465,89.530174,118.42195
"52122",736.40796,86.502785,115.69238
"52123",736.42126,83.68047,113.07328
"52124",736.4346,81.13649,110.64431
"52125",736.4479,78.9514,108.494736
"52126",736.4612,77.22041,106.73098
"52127",736.4745,76.03876,105.46246
"52128",736.4878,75.48699,104.78691
"52129",736.5011,75.56512,104.72401
"52130",736.5144,76.192566,105.21287
"52131",736.5277,77.21797,106.11929
"52132",736.541,78.45335,107.26773
"52133",736.5543,79.69848,108.46453
"52134",736.5676,80.799576,109.556206
"52135",736.58093,81.62722,110.40884
"52136",736.59424,82.1033,110.93577
"52137",736.60754,82.193634,111.09183
"52138",736.62085,81.90311,110.86985
"52139",736.63416,81.28298,110.3092
"52140",736.64746,80.4065,109.47281
"52141",736.66077,79.35912,108.43813
"52142",736.6741,78.23361,107.292595
"52143",736.6874,77.0959,106.099686
"52144",736.7007,76.00702,104.92005
"52145",736.714,75.01091,103.799164
"52146",736.7273,74.12222,102.75457
"52147",736.7406,73.358055,101.806725
"52148",736.7539,72.71107,100.95218
"52149",736.7672,72.181274,100.19461
"52150",736.7805,71.763794,99.53279
"52151",736.7938,71.448845,98.960464
"52152",736.8071,71.23399,98.47839
"52153",736.82043,71.114365,98.08482
"52154",736.83374,71.08263,97.775406
"52155",736.84705,71.116806,97.530914
"52156",736.86035,71.19493,97.331436
"52157",736.87366,71.292595,97.153946
"52158",736.88696,71.40978,96.99902
"52159",736.90027,71.54894,96.869736
"52160",736.9136,71.71252,96.76921
"52161",736.9269,71.90051,96.69823
"52162",736.9402,72.10559,96.65019
"52163",736.9535,72.30091,96.598816
"52164",736.9668,72.45472,96.512024
"52165",736.9801,72.5597,96.38121
"52166",736.9934,72.61585,96.20485
"52167",737.0067,72.66468,96.02292
"52168",737.02,72.85512,95.98413
"52169",737.0333,73.49966,96.405396
"52170",737.04663,74.99138,97.693985
"52171",737.05994,77.61593,100.16202
"52172",737.07324,81.409935,103.88152
"52173",737.08655,86.09506,108.61071
"52174",737.09985,91.121994,113.82811
"52175",737.11316,95.80957,118.86325
"52176",737.12646,99.56695,123.11468
"52177",737.1398,102.0499,126.20909
"52178",737.1531,103.16319,128.01144
"52179",737.1664,103.00206,128.57416
"52180",737.1797,101.749596,128.04051
"52181",737.193,99.664604,126.63519
"52182",737.2063,97.005875,124.59098
"52183",737.2196,94.032196,122.148735
"52184",737.2329,90.948654,119.5037
"52185",737.2462,87.91882,116.81602
"52186",737.2595,85.05257,114.19722
"52187",737.2728,82.43534,111.737885
"52188",737.28613,80.15503,109.533676
"52189",737.29944,78.314186,107.69768
"52190",737.31274,77.02266,106.35347
"52191",737.32605,76.36591,105.60368
"52192",737.33936,76.35859,105.482796
"52193",737.35266,76.92256,105.932976
"52194",737.36597,77.89426,106.8085
"52195",737.3793,79.06859,107.91703
"52196",737.3926,80.23804,109.05737
"52197",737.4059,81.22926,110.05604
"52198",737.4192,81.917755,110.78294
"52199",737.4325,82.23514,111.160255
"52200",737.4458,82.17166,111.166626
"52201",737.4591,81.75174,110.81457
"52202",737.4724,81.04616,110.16373
"52203",737.4857,80.128174,109.278435
"52204",737.499,79.078354,108.23262
"52205",737.5123,77.95041,107.075874
"52206",737.52563,76.81026,105.87167
"52207",737.53894,75.69695,104.65869
"52208",737.55225,74.669106,103.496376
"52209",737.56555,73.75113,102.41181
"52210",737.57886,72.97719,101.4426
"52211",737.59216,72.359505,100.60545
"52212",737.60547,71.88342,99.89061
"52213",737.6188,71.53185,99.2854
"52214",737.6321,71.28771,98.77663
"52215",737.6454,71.133896,98.350555
"52216",737.6587,71.05333,97.99292
"52217",737.672,71.03136,97.69136
"52218",737.6853,71.063095,97.442825
"52219",737.6986,71.13878,97.23923
"52220",737.7119,71.24864,97.072174
"52221",737.7252,71.38293,96.93298
"52222",737.7385,71.53918,96.81995
"52223",737.75183,71.70031,96.716675
"52224",737.76514,71.851685,96.60869
"52225",737.77844,71.97131,96.47368
"52226",737.79175,72.05188,96.303345
"52227",737.80505,72.07385,96.076935
"52228",737.81836,72.03479,95.79018
"52229",737.83167,71.95422,95.46069
"52230",737.845,71.92981,95.184845
"52231",737.8583,72.20569,95.20853
"52232",737.8716,73.1725,95.93176
"52233",737.8849,75.208664,97.75457
"52234",737.8982,78.48997,100.88615
"52235",737.9115,82.882126,105.23112
"52236",737.9248,87.953,110.39206
"52237",737.9381,93.04341,115.731
"52238",737.9514,97.479515,120.574715
"52239",737.9647,100.77547,124.4169
"52240",737.978,102.70908,126.99975
"52241",737.99133,103.27795,128.27827
"52242",738.00464,102.62119,128.34895
"52243",738.01794,100.96101,127.39569
"52244",738.03125,98.57328,125.66299
"52245",738.04456,95.72167,123.39179
"52246",738.05786,92.65278,120.8142
"52247",738.07117,89.566795,118.12362
"52248",738.0845,86.61021,115.465996
"52249",738.0978,83.86359,112.92594
"52250",738.1111,81.39529,110.57838
"52251",738.1244,79.28588,108.51257
"52252",738.1377,77.65499,106.85937
"52253",738.151,76.62226,105.75336
"52254",738.1643,76.26826,105.2938
"52255",738.1776,76.60029,105.50922
"52256",738.1909,77.503624,106.30631
"52257",738.2042,78.77562,107.5003
"52258",738.2175,80.164795,108.85121
"52259",738.23083,81.45144,110.143005
"52260",738.24414,82.459755,111.19668
"52261",738.25745,83.09209,111.905876
"52262",738.27075,83.29473,112.20515
"52263",738.28406,83.07988,112.093254
"52264",738.29736,82.48905,111.59867
"52265",738.31067,81.5906,110.778
"52266",738.324,80.45777,109.69488
"52267",738.3373,79.17601,108.42742
"52268",738.3506,77.821014,107.04668
"52269",738.3639,76.46113,105.6187
"52270",738.3772,75.15007,104.19705
"52271",738.3905,73.93912,102.83454
"52272",738.4038,72.86977,101.57579
"52273",738.4171,71.97131,100.45452
"52274",738.4304,71.275505,99.50781
"52275",738.4437,70.801865,98.761536
"52276",738.45703,70.54063,98.21286
"52277",738.47034,70.47227,97.84889
"52278",738.48364,70.55283,97.631714
"52279",738.49695,70.73594,97.51959
"52280",738.51025,70.98253,97.47668
"52281",738.52356,71.27062,97.48297
"52282",738.53687,71.58068,97.52023
"52283",738.5502,71.885864,97.56232
"52284",738.5635,72.16174,97.584625
"52285",738.5768,72.396126,97.574066
"52286",738.5901,72.57923,97.51955
"52287",738.6034,72.708626,97.41704
"52288",738.6167,72.779434,97.259995
"52289",738.63,72.77699,97.03191
"52290",738.6433,72.689095,96.7183
"52291",738.6566,72.52796,96.328705
"52292",738.6699,72.36683,95.93407
"52293",738.6832,72.40833,95.73703
"52294",738.69653,73.01381,96.10527
"52295",738.70984,74.57145,97.444595
"52296",738.72314,77.332726,100.03623
"52297",738.73645,81.25613,103.87628
"52298",738.74976,85.98764,108.64705
"52299",738.76306,90.931564,113.77808
"52300",738.77637,95.41161,118.59975
"52301",738.7897,98.87602,122.54577
"52302",738.803,101.02937,125.288994
"52303",738.8163,101.82773,126.744514
"52304",738.8296,101.38827,126.98717
"52305",738.8429,99.911194,126.178474
"52306",738.8562,97.64797,124.537476
"52307",738.8695,94.85252,122.293526
"52308",738.8828,91.74456,119.649704
"52309",738.8961,88.499886,116.77205
"52310",738.9094,85.24544,113.78322
"52311",738.9227,82.07156,110.77326
"52312",738.93604,79.06615,107.83258
"52313",738.94934,76.36591,105.103165
"52314",738.96265,74.1564,102.78009
"52315",738.97595,72.65736,101.098434
"52316",738.98926,72.05432,100.265945
"52317",739.00256,72.38636,100.349686
"52318",739.01587,73.51675,101.24214
"52319",739.0292,75.176926,102.69972
"52320",739.0425,77.03975,104.41183
"52321",739.0558,78.78783,106.0674
"52322",739.0691,80.19653,107.438225
"52323",739.0824,81.1487,108.39653
"52324",739.0957,81.60769,108.89142
"52325",739.109,81.57595,108.90992
"52326",739.1223,81.09987,108.483086
"52327",739.1356,80.26246,107.680046
"52328",739.1489,79.16136,106.58715
"52329",739.16223,77.90402,105.303604
"52330",739.17554,76.5832,103.91728
"52331",739.18884,75.29412,102.52143
"52332",739.20215,74.11246,101.19271
"52333",739.21545,73.09926,99.99553
"52334",739.22876,72.29603,98.976654
"52335",739.24207,71.71496,98.15483
"52336",739.2554,71.33654,97.5175
"52337",739.2687,71.133896,97.04413
"52338",739.282,71.07042,96.70358
"52339",739.2953,71.116806,96.47092
"52340",739.3086,71.25353,96.33005
"52341",739.3219,71.4757,96.278885
"52342",739.3352,71.77844,96.31525
"52343",739.3485,72.149536,96.42941
"52344",739.3618,72.569466,96.60402
"52345",739.3751,73.0016,96.803955
"52346",739.3884,73.40688,96.99054
"52347",739.40173,73.7438,97.12142
"52348",739.41504,73.99527,97.17739
"52349",739.42834,74.16373,97.1582
"52350",739.44165,74.30045,97.11255
"52351",739.45496,74.54459,97.17858
"52352",739.46826,75.1696,97.63311
"52353",739.48157,76.51484,98.8274
"52354",739.4949,78.84154,101.04519
"52355",739.5082,82.19119,104.35864
"52356",739.5215,86.329445,108.56537
"52357",739.5348,90.78508,113.218796
"52358",739.5481,94.96483,117.73558
"52359",739.5614,98.32426,121.56266
"52360",739.5747,100.52888,124.33991
"52361",739.588,101.471275,125.923836
"52362",739.6013,101.21004,126.33357
"52363",739.6146,99.91852,125.704865
"52364",739.6279,97.83353,124.242325
"52365",739.64124,95.23094,122.19704
"52366",739.65454,92.38911,119.83117
"52367",739.66785,89.532616,117.36184
"52368",739.68115,86.81773,114.944855
"52369",739.69446,84.315254,112.655426
"52370",739.70776,82.039825,110.51485
"52371",739.72107,80.008545,108.54731
"52372",739.7344,78.28733,106.82636
"52373",739.7477,77.015335,105.50085
"52374",739.761,76.368355,104.7606
"52375",739.7743,76.453804,104.73256
"52376",739.7876,77.242386,105.410324
"52377",739.8009,78.56077,106.64253
"52378",739.8142,80.128174,108.16496
"52379",739.8275,81.62234,109.66313
"52380",739.8408,82.791794,110.883286
"52381",739.8541,83.47784,111.65657
"52382",739.86743,83.61944,111.90685
"52383",739.88074,83.23369,111.63421
"52384",739.89404,82.38651,110.888084
"52385",739.90735,81.180435,109.756584
"52386",739.92065,79.727776,108.34081
"52387",739.93396,78.14816,106.75269
"52388",739.94727,76.57099,105.11765
"52389",739.9606,75.09148,103.53098
"52390",739.9739,73.777985,102.0641
"52391",739.9872,72.66224,100.75392
"52392",740.0005,71.75159,99.61397
"52393",740.0138,71.03136,98.63597
"52394",740.0271,70.48203,97.80638
"52395",740.0404,70.09384,97.12075
"52396",740.0537,69.86679,96.58413
"52397",740.067,69.79599,96.19666
"52398",740.0803,69.86191,95.9437
"52399",740.0936,70.03281,95.79778
"52400",740.10693,70.26719,95.72069
"52401",740.12024,70.50889,95.65823
"52402",740.13354,70.72129,95.574036
"52403",740.14685,70.88487,95.447655
"52404",740.16016,71.00206,95.28
"52405",740.17346,71.097275,95.094025
"52406",740.18677,71.20714,94.925674
"52407",740.2001,71.43908,94.88284
"52408",740.2134,72.027466,95.203705
"52409",740.2267,73.304344,96.231445
"52410",740.24,75.58221,98.30007
"52411",740.2533,78.99779,101.5776
"52412",740.2666,83.389946,105.93844
"52413",740.2799,88.31434,110.968765
"52414",740.2932,93.14595,116.060196
"52415",740.3065,97.254906,120.57996
"52416",740.3198,100.1944,124.05867
"52417",740.3331,101.786224,126.28157
"52418",740.34644,102.064545,127.24071
"52419",740.35974,101.205154,127.07083
"52420",740.37305,99.457085,125.98542
"52421",740.38635,97.10597,124.24234
"52422",740.39966,94.43015,122.10108
"52423",740.41296,91.663994,119.785866
"52424",740.4263,88.98573,117.47211
"52425",740.4396,86.50034,115.26752
"52426",740.4529,84.27131,113.241615
"52427",740.4662,82.34989,111.453674
"52428",740.4795,80.782486,109.9597
"52429",740.4928,79.62524,108.826904
"52430",740.5061,78.93675,108.12671
"52431",740.5194,78.74387,107.900604
"52432",740.5327,79.00511,108.12259
"52433",740.546,79.622795,108.70918
"52434",740.5593,80.45533,109.52993
"52435",740.57263,81.33669,110.42552
"52436",740.58594,82.11551,111.24611
"52437",740.59924,82.65995,111.85666
"52438",740.61255,82.87724,112.157074
"52439",740.62585,82.718544,112.08829
"52440",740.63916,82.196075,111.65077
"52441",740.65247,81.36599,110.88931
"52442",740.6658,80.31129,109.8773
"52443",740.6791,79.12474,108.70048
"52444",740.6924,77.88693,107.43532
"52445",740.7057,76.663765,106.14612
"52446",740.719,75.51629,104.89439
"52447",740.7323,74.49821,103.73619
"52448",740.7456,73.63149,102.69755
"52449",740.7589,72.92592,101.79296
"52450",740.7722,72.361946,101.00793
"52451",740.7855,71.91272,100.32001
"52452",740.7988,71.551384,99.70595
"52453",740.81213,71.25109,99.14163
"52454",740.82544,71.011826,98.62897
"52455",740.83875,70.84337,98.17963
"52456",740.85205,70.76036,97.81047
"52457",740.86536,70.76036,97.52173
"52458",740.87866,70.84337,97.315994
"52459",740.89197,70.992294,97.17877
"52460",740.9053,71.168076,97.07306
"52461",740.9186,71.3341,96.96309
"52462",740.9319,71.4757,96.83388
"52463",740.9452,71.62951,96.7213
"52464",740.9585,71.939575,96.76979
"52465",740.9718,72.69398,97.27231
"52466",740.9851,74.24429,98.594315
"52467",740.9984,76.824905,100.99506
"52468",741.0117,80.428474,104.49941
"52469",741.025,84.788895,108.87322
"52470",741.0383,89.393456,113.62743
"52471",741.05164,93.63912,118.16665
"52472",741.06494,97.005875,121.959625
"52473",741.07825,99.19829,124.68347
"52474",741.09155,100.14557,126.2307
"52475",741.10486,99.93561,126.65028
"52476",741.11816,98.75639,126.094055
"52477",741.1315,96.85695,124.78075
"52478",741.1448,94.50828,122.958855
"52479",741.1581,91.97406,120.87802
"52480",741.1714,89.45449,118.73264
"52481",741.1847,87.096054,116.66966
"52482",741.198,84.97688,114.77224
"52483",741.2113,83.13115,113.08203
"52484",741.2246,81.57107,111.6198
"52485",741.2379,80.33326,110.43108
"52486",741.2512,79.47387,109.58211
"52487",741.2645,79.03929,109.13109
"52488",741.27783,79.03929,109.10107
"52489",741.29114,79.432365,109.46412
"52490",741.30444,80.111084,110.1251
"52491",741.31775,80.93141,110.9489
"52492",741.33105,81.74197,111.78856
"52493",741.34436,82.406044,112.50707
"52494",741.35767,82.81865,112.994865
"52495",741.371,82.91875,113.183044
"52496",741.3843,82.67704,113.03255
"52497",741.3976,82.11307,112.55223
"52498",741.4109,81.27566,111.78085
"52499",741.4242,80.24048,110.78554
"52500",741.4375,79.08324,109.63581
"52501",741.4508,77.87717,108.40109
"52502",741.4641,76.68574,107.143326
"52503",741.4774,75.562675,105.916695
"52504",741.4907,74.53239,104.74774
"52505",741.504,73.62417,103.66866
"52506",741.51733,72.85512,102.70037
"52507",741.53064,72.232544,101.85452
"52508",741.54395,71.75891,101.13815
"52509",741.55725,71.41955,100.54126
"52510",741.57056,71.202255,100.05583
"52511",741.58386,71.09239,99.671036
"52512",741.59717,71.07286,99.37314
"52513",741.6105,71.133896,99.1552
"52514",741.6238,71.26086,99.0051
"52515",741.6371,71.4464,98.91754
"52516",741.6504,71.66613,98.869965
"52517",741.6637,71.885864,98.82927
"52518",741.677,72.08362,98.77345
"52519",741.6903,72.234985,98.67743
"52520",741.7036,72.318,98.51779
"52521",741.7169,72.33997,98.2997
"52522",741.7302,72.36439,98.08473
"52523",741.7435,72.56214,98.04387
"52524",741.75684,73.2433,98.4926
"52525",741.77014,74.76433,99.80248
"52526",741.78345,77.347374,102.22192
"52527",741.79675,80.96803,105.75968
"52528",741.81006,85.313805,110.135704
"52529",741.82336,89.847565,114.83552
"52530",741.8367,93.944305,119.24
"52531",741.85,97.09621,122.82766
"52532",741.8633,99.020065,125.285774
"52533",741.8766,99.664604,126.52469
"52534",741.8899,99.12993,126.60453
"52535",741.9032,97.61135,125.68376
"52536",741.9165,95.360344,123.98311
"52537",741.9298,92.65766,121.76044
"52538",741.9431,89.78165,119.279976
"52539",741.9564,86.97154,116.77555
"52540",741.9697,84.386055,114.40792
"52541",741.98303,82.1326,112.29153
"52542",741.99634,80.2649,110.49047
"52543",742.00964,78.81468,109.04853
"52544",742.02295,77.81125,108.00806
"52545",742.03625,77.2839,107.41231
"52546",742.04956,77.24483,107.28836
"52547",742.06287,77.65499,107.61243
"52548",742.0762,78.42649,108.310646
"52549",742.0895,79.41039,109.24538
"52550",742.1028,80.448006,110.264565
"52551",742.1161,81.38064,111.2112
"52552",742.1294,82.07645,111.95015
"52553",742.1427,82.44511,112.3837
"52554",742.156,82.44022,112.45522
"52555",742.1693,82.06424,112.155495
"52556",742.1826,81.35134,111.5071
"52557",742.1959,80.365,110.56299
"52558",742.2092,79.19066,109.400055
"52559",742.22253,77.91135,108.09545
"52560",742.23584,76.61738,106.73621
"52561",742.24915,75.37957,105.3927
"52562",742.26245,74.25651,104.12525
"52563",742.27576,73.28481,102.974075
"52564",742.28906,72.47181,101.951225
"52565",742.30237,71.81995,101.0641
"52566",742.3157,71.33166,100.32019
"52567",742.329,70.992294,99.709946
"52568",742.3423,70.784775,99.22093
"52569",742.3556,70.69688,98.84506
"52570",742.3689,70.71641,98.57387
"52571",742.3822,70.83116,98.398506
"52572",742.3955,71.01427,98.29509
"52573",742.4088,71.24864,98.24866
"52574",742.4221,71.51476,98.2413
"52575",742.4354,71.79553,98.25691
"52576",742.4487,72.06897,98.27396
"52577",742.46204,72.32288,98.28003
"52578",742.47534,72.54749,98.264725
"52579",742.48865,72.72083,98.20517
"52580",742.50195,72.82094,98.077805
"52581",742.51526,72.82826,97.86079
"52582",742.52856,72.74525,97.55366
"52583",742.5419,72.603645,97.18535
"52584",742.5552,72.518196,96.86876
"52585",742.5685,72.742805,96.85956
"52586",742.5818,73.63149,97.521454
"52587",742.5951,75.508965,99.19991
"52588",742.6084,78.5095,102.060104
"52589",742.6217,82.48905,105.99308
"52590",742.635,87.03258,110.61439
"52591",742.6483,91.5346,115.336174
"52592",742.6616,95.38232,119.54435
"52593",742.6749,98.13138,122.77411
"52594",742.68823,99.59136,124.8007
"52595",742.70154,99.76959,125.591156
"52596",742.71484,98.81499,125.25435
"52597",742.72815,96.97414,124.001465
"52598",742.74146,94.53269,122.09046
"52599",742.75476,91.78119,119.793106
"52600",742.76807,88.96376,117.34384
"52601",742.7814,86.26353,114.92372
"52602",742.7947,83.7879,112.64383
"52603",742.808,81.600365,110.57466
"52604",742.8213,79.73998,108.76429
"52605",742.8346,78.28001,107.29619
"52606",742.8479,77.31808,106.28051
"52607",742.8612,76.93477,105.81339
"52608",742.8745,77.14473,105.92757
"52609",742.8878,77.88205,106.57566
"52610",742.9011,78.992905,107.62033
"52611",742.9144,80.25269,108.84865
"52612",742.92773,81.45632,110.06017
"52613",742.94104,82.43778,111.08714
"52614",742.95435,83.07988,111.80542
"52615",742.96765,83.33868,112.16046
"52616",742.98096,83.20683,112.13295
"52617",742.99426,82.720985,111.747314
"52618",743.00757,81.9324,111.04376
"52619",743.0209,80.91432,110.08607
"52620",743.0342,79.73754,108.93786
"52621",743.0475,78.485085,107.6772
"52622",743.0608,77.23018,106.374954
"52623",743.0741,76.02655,105.08477
"52624",743.0874,74.93034,103.864395
"52625",743.1007,73.99039,102.766014
"52626",743.114,73.231094,101.818924
"52627",743.1273,72.65247,101.02878
"52628",743.1406,72.24475,100.39145
"52629",743.15393,71.98352,99.88786
"52630",743.16724,71.82727,99.481094
"52631",743.18054,71.7467,99.14513
"52632",743.19385,71.71496,98.85547
"52633",743.20715,71.72228,98.60388
"52634",743.22046,71.75891,98.381836
"52635",743.23376,71.81506,98.18045
"52636",743.2471,71.89075,98.00035
"52637",743.2604,71.98352,97.83971
"52638",743.2737,72.08606,97.69173
"52639",743.287,72.19348,97.551834
"52640",743.3003,72.271614,97.38602
"52641",743.3136,72.308235,97.18112
"52642",743.3269,72.29359,96.9261
"52643",743.3402,72.22766,96.619354
"52644",743.3535,72.16907,96.31787
"52645",743.3668,72.27894,96.18303
"52646",743.3801,72.87953,96.54234
"52647",743.39343,74.356606,97.796906
"52648",743.40674,76.995804,100.25975
"52649",743.42004,80.82155,103.991615
"52650",743.43335,85.54574,108.74148
"52651",743.44666,90.60685,113.97589
"52652",743.45996,95.326164,119.02667
"52653",743.47327,99.107956,123.28741
"52654",743.4866,101.6202,126.396774
"52655",743.4999,102.7628,128.21501
"52656",743.5132,102.623634,128.78719
"52657",743.5265,101.39315,128.26369
"52658",743.5398,99.335014,126.874084
"52659",743.5531,96.73975,124.88304
"52660",743.5664,93.88571,122.55212
"52661",743.5797,91.019455,120.11979
"52662",743.593,88.31434,117.75903
"52663",743.6063,85.858246,115.56276
"52664",743.6196,83.685356,113.57294
"52665",743.63293,81.82498,111.82773
"52666",743.64624,80.325935,110.38571
"52667",743.65955,79.256584,109.326546
"52668",743.67285,78.68284,108.72957
"52669",743.68616,78.63401,108.63958
"52670",743.69946,79.05638,109.019264
"52671",743.71277,79.82056,109.75395
"52672",743.7261,80.73121,110.659
"52673",743.7394,81.600365,111.551
"52674",743.7527,82.28886,112.289505
"52675",743.766,82.69413,112.766304
"52676",743.7793,82.76738,112.923744
"52677",743.7926,82.5037,112.746544
"52678",743.8059,81.9202,112.24128
"52679",743.8192,81.06813,111.44922
"52680",743.8325,80.01343,110.427895
"52681",743.8458,78.82689,109.241776
"52682",743.85913,77.57931,107.957535
"52683",743.87244,76.34394,106.64652
"52684",743.88574,75.174484,105.362816
"52685",743.89905,74.107574,104.14511
"52686",743.91235,73.162735,103.016136
"52687",743.92566,72.35706,101.9968
"52688",743.93896,71.692986,101.09389
"52689",743.9523,71.15831,100.29962
"52690",743.9656,70.74082,99.605835
"52691",743.9789,70.421,98.99666
"52692",743.9922,70.186615,98.46293
"52693",744.0055,70.04013,98.00977
"52694",744.0188,69.97421,97.63261
"52695",744.0321,69.98886,97.33395
"52696",744.0454,70.07919,97.11143
"52697",744.0587,70.24765,96.96986
"52698",744.072,70.47715,96.89459
"52699",744.0853,70.748146,96.868
"52700",744.09863,71.03868,96.86941
"52701",744.11194,71.329216,96.8799
"52702",744.12524,71.59045,96.87016
"52703",744.13855,71.79065,96.80757
"52704",744.15186,71.91028,96.670654
"52705",744.16516,71.94202,96.449585
"52706",744.17847,71.885864,96.14162
"52707",744.1918,71.78088,95.783066
"52708",744.2051,71.76868,95.51401
"52709",744.2184,72.166626,95.654724
"52710",744.2317,73.41421,96.65752
"52711",744.245,75.87274,98.91025
"52712",744.2583,79.64965,102.55818
"52713",744.2716,84.51301,107.41059
"52714",744.2849,89.91348,112.952095
"52715",744.2982,95.11131,118.459724
"52716",744.3115,99.43023,123.25087
"52717",744.3248,102.450294,126.87813
"52718",744.33813,104.025024,129.15443
"52719",744.35144,104.22766,130.10785
"52720",744.36475,103.236435,129.87373
"52721",744.37805,101.31014,128.67358
"52722",744.39136,98.72953,126.75891
"52723",744.40466,95.77783,124.39251
"52724",744.41797,92.69428,121.80202
"52725",744.4313,89.69131,119.19574
"52726",744.4446,86.91539,116.72268
"52727",744.4579,84.456856,114.48025
"52728",744.4712,82.357216,112.51988
"52729",744.4845,80.66773,110.90406
"52730",744.4978,79.447014,109.70421
"52731",744.5111,78.729225,108.96914
"52732",744.5244,78.52415,108.72435
"52733",744.5377,78.802475,108.95656
"52734",744.551,79.466545,109.583206
"52735",744.56433,80.35279,110.45278
"52736",744.57764,81.27566,111.38667
"52737",744.59094,82.06424,112.21512
"52738",744.60425,82.59647,112.81186
"52739",744.61755,82.78447,113.08099
"52740",744.63086,82.59403,112.97757
"52741",744.64417,82.04227,112.50687
"52742",744.6575,81.17311,111.70153
"52743",744.6708,80.05493,110.62001
"52744",744.6841,78.76097,109.32777
"52745",744.6974,77.38155,107.90963
"52746",744.7107,75.99237,106.43862
"52747",744.724,74.67399,104.995
"52748",744.7373,73.480125,103.634705
"52749",744.7506,72.45716,102.408
"52750",744.7639,71.62707,101.34219
"52751",744.7772,70.98741,100.44089
"52752",744.7905,70.521095,99.69293
"52753",744.80383,70.203705,99.07932
"52754",744.81714,69.996185,98.56567
"52755",744.83044,69.86679,98.12365
"52756",744.84375,69.78378,97.723976
"52757",744.85706,69.730064,97.351
"52758",744.87036,69.70077,97.00076
"52759",744.88367,69.71786,96.696
"52760",744.897,69.79355,96.45037
"52761",744.9103,69.942474,96.28034
"52762",744.9236,70.16464,96.18821
"52763",744.9369,70.44297,96.15918
"52764",744.9502,70.73838,96.15593
"52765",744.9635,71.01915,96.14727
"52766",744.9768,71.25109,96.09856
"52767",744.9901,71.412224,95.98628
"52768",745.0034,71.483025,95.78871
"52769",745.0167,71.45617,95.4957
"52770",745.03,71.34142,95.11395
"52771",745.04333,71.182724,94.68468
"52772",745.05664,71.13878,94.36519
"52773",745.06995,71.54406,94.49356
"52774",745.08325,72.84535,95.53061
"52775",745.09656,75.403984,97.86566
"52776",745.10986,79.29809,101.61614
"52777",745.12317,84.2591,106.55522
"52778",745.1365,89.69863,112.127846
"52779",745.1498,94.86961,117.60191
"52780",745.1631,99.0811,122.278076
"52781",745.1764,101.92294,125.7162
"52782",745.1897,103.28527,127.763626
"52783",745.203,103.258415,128.46443
"52784",745.2163,102.04501,127.97786
"52785",745.2296,99.9234,126.54515
"52786",745.2429,97.181656,124.42601
"52787",745.2562,94.10544,121.88672
"52788",745.26953,90.934006,119.15608
"52789",745.28284,87.86267,116.42644
"52790",745.29614,85.01839,113.827866
"52791",745.30945,82.4744,111.440704
"52792",745.32275,80.289314,109.33294
"52793",745.33606,78.54124,107.5939
"52794",745.34937,77.32296,106.33004
"52795",745.3627,76.71259,105.63602
"52796",745.376,76.75166,105.57236
"52797",745.3893,77.38644,106.10562
"52798",745.4026,78.46555,107.103065
"52799",745.4159,79.783936,108.3735
"52800",745.4292,81.112076,109.694885
"52801",745.4425,82.23758,110.85514
"52802",745.4558,83.0164,111.70389
"52803",745.4691,83.36065,112.142395
"52804",745.4824,83.23857,112.125336
"52805",745.4957,82.67216,111.660126
"52806",745.50903,81.722435,110.79391
"52807",745.52234,80.48951,109.61481
"52808",745.53564,79.06615,108.20674
"52809",745.54895,77.55489,106.666306
"52810",745.56226,76.04364,105.07864
"52811",745.57556,74.61295,103.52432
"52812",745.58887,73.31411,102.05714
"52813",745.6022,72.19348,100.72758
"52814",745.6155,71.26086,99.550995
"52815",745.6288,70.53086,98.5479
"52816",745.6421,69.996185,97.71731
"52817",745.6554,69.65194,97.06044
"52818",745.6687,69.468834,96.553955
"52819",745.682,69.437096,96.193115
"52820",745.6953,69.53231,95.95824
"52821",745.7086,69.730064,95.82887
"52822",745.7219,70.00351,95.78138
"52823",745.7352,70.328224,95.7937
"52824",745.74854,70.68711,95.85034
"52825",745.76184,71.063095,95.935295
"52826",745.77515,71.44396,96.03688
"52827",745.78845,71.80774,96.133286
"52828",745.80176,72.147095,96.21663
"52829",745.81506,72.430305,96.25444
"52830",745.82837,72.620735,96.20831
"52831",745.8417,72.69398,96.05095
"52832",745.855,72.64271,95.77136
"52833",745.8683,72.4889,95.387634
"52834",745.8816,72.325325,94.989334
"52835",745.8949,72.42542,94.849594
"52836",745.9082,73.22377,95.41124
"52837",745.9215,75.157394,97.13311
"52838",745.9348,78.450905,100.27529
"52839",745.9481,82.98711,104.763084
"52840",745.9614,88.29481,110.16413
"52841",745.97473,93.663536,115.79207
"52842",745.98804,98.34379,120.89931
"52843",746.00134,101.79599,124.92475
"52844",746.01465,103.79309,127.60298
"52845",746.02795,104.3473,128.90073
"52846",746.04126,103.61242,128.9267
"52847",746.05457,101.822845,127.875015
"52848",746.0679,99.247116,125.98125
"52849",746.0812,96.15869,123.49429
"52850",746.0945,92.8188,120.65936
"52851",746.1078,89.444725,117.685875
"52852",746.1211,86.202484,114.738785
"52853",746.1344,83.19951,111.929634
"52854",746.1477,80.516365,109.34647
"52855",746.161,78.24826,107.094505
"52856",746.1743,76.51484,105.30634
"52857",746.1876,75.45525,104.13785
"52858",746.2009,75.16472,103.70529
"52859",746.21423,75.64568,104.03516
"52860",746.22754,76.76875,105.022156
"52861",746.24084,78.30686,106.45929
"52862",746.25415,79.96948,108.069
"52863",746.26746,81.495384,109.59395
"52864",746.28076,82.68192,110.82722
"52865",746.29407,83.421684,111.65079
"52866",746.3074,83.67071,112.00674
"52867",746.3207,83.42657,111.877304
"52868",746.334,82.735634,111.29345
"52869",746.3473,81.67361,110.31691
"52870",746.3606,80.323494,109.0191
"52871",746.3739,78.79515,107.50086
"52872",746.3872,77.19112,105.85918
"52873",746.4005,75.59441,104.1747
"52874",746.4138,74.08804,102.530655
"52875",746.4271,72.7306,100.988464
"52876",746.4404,71.56603,99.596725
"52877",746.45374,70.61875,98.38588
"52878",746.46704,69.89853,97.37249
"52879",746.48035,69.400475,96.55876
"52880",746.49365,69.100174,95.92722
"52881",746.50696,68.963455,95.44988
"52882",746.52026,68.96101,95.10255
"52883",746.53357,69.068436,94.865
"52884",746.5469,69.25887,94.71382
"52885",746.5602,69.522545,94.64183
"52886",746.5735,69.84238,94.63424
"52887",746.5868,70.20859,94.68302
"52888",746.6001,70.61143,94.77988
"52889",746.6134,71.03868,94.913734
"52890",746.6267,71.47326,95.06827
"52891",746.64,71.89563,95.22418
"52892",746.6533,72.26673,95.342026
"52893",746.6666,72.55726,95.390884
"52894",746.67993,72.72816,95.32919
"52895",746.69324,72.76723,95.14102
"52896",746.70654,72.69886,94.846634
"52897",746.71985,72.64759,94.5672
"52898",746.73315,72.91615,94.606
"52899",746.74646,74.002594,95.47108
"52900",746.75977,76.36347,97.64454
"52901",746.7731,80.18921,101.356636
"52902",746.7864,85.27474,106.44808
"52903",746.7997,91.06584,112.404015
"52904",746.813,96.75929,118.443275
"52905",746.8263,101.58114,123.78885
"52906",746.8396,105.01381,127.89593
"52907",746.8529,106.89372,130.55753
"52908",746.8662,107.284355,131.78859
"52909",746.8795,106.36881,131.72568
"52910",746.8928,104.39857,130.57945
"52911",746.9061,101.65682,128.60016
"52912",746.91943,98.42924,126.04935
"52913",746.93274,94.97215,123.168175
"52914",746.94604,91.50042,120.16432
"52915",746.95935,88.17029,117.19358
"52916",746.97266,85.08675,114.36536
"52917",746.98596,82.32548,111.76305
"52918",746.99927,79.9646,109.47484
"52919",747.0126,78.10666,107.61579
"52920",747.0259,76.87373,106.3237
"52921",747.0392,76.3415,105.69377
"52922",747.0525,76.507515,105.74546
"52923",747.0658,77.27657,106.40538
"52924",747.0791,78.450905,107.494606
"52925",747.0924,79.79126,108.78655
"52926",747.1057,81.075455,110.064224
"52927",747.119,82.12283,111.14521
"52928",747.1323,82.81621,111.90492
"52929",747.1456,83.087204,112.26392
"52930",747.15894,82.91142,112.184616
"52931",747.17224,82.31571,111.679886
"52932",747.18555,81.37087,110.80741
"52933",747.19885,80.15259,109.631966
"52934",747.21216,78.751205,108.23535
"52935",747.22546,77.242386,106.68751
"52936",747.2388,75.69451,105.05346
"52937",747.2521,74.17105,103.395454
"52938",747.2654,72.725716,101.76797
"52939",747.2787,71.414665,100.2296
"52940",747.292,70.28428,98.83092
"52941",747.3053,69.35897,97.60199
"52942",747.3186,68.65339,96.56387
"52943",747.3319,68.15289,95.70879
"52944",747.3452,67.85748,95.04316
"52945",747.3585,67.754944,94.561165
"52946",747.3718,67.83063,94.25419
"52947",747.38513,68.06256,94.10583
"52948",747.39844,68.419014,94.08923
"52949",747.41174,68.87312,94.181435
"52950",747.42505,69.37606,94.336655
"52951",747.43835,69.90097,94.529564
"52952",747.45166,70.421,94.73399
"52953",747.46497,70.923935,94.937584
"52954",747.4783,71.3756,95.10562
"52955",747.4916,71.744255,95.20476
"52956",747.5049,71.993286,95.1958
"52957",747.5182,72.10071,95.05301
"52958",747.5315,72.07385,94.7793
"52959",747.5448,72.010376,94.468124
"52960",747.5581,72.1886,94.39667
"52961",747.5714,73.077286,95.041245
"52962",747.5847,75.16472,96.912346
"52963",747.598,78.70481,100.30134
"52964",747.6113,83.577934,105.13399
"52965",747.62463,89.29092,110.95878
"52966",747.63794,95.06981,117.028015
"52967",747.65125,100.10651,122.535645
"52968",747.66455,103.81506,126.87253
"52969",747.67786,105.96353,129.76521
"52970",747.69116,106.57633,131.18938
"52971",747.70447,105.84146,131.28502
"52972",747.7178,103.99573,130.24683
"52973",747.7311,101.31991,128.32088
"52974",747.7444,98.08743,125.75465
"52975",747.7577,94.56199,122.79443
"52976",747.771,90.965744,119.65325
"52977",747.7843,87.481804,116.51199
"52978",747.7976,84.23224,113.49623
"52979",747.8109,81.304955,110.7012
"52980",747.8242,78.77562,108.21265
"52981",747.8375,76.749214,106.14798
"52982",747.8508,75.36004,104.65722
"52983",747.86414,74.72526,103.87744
"52984",747.87744,74.89128,103.87863
"52985",747.89075,75.77753,104.60523
"52986",747.90405,77.20088,105.89664
"52987",747.91736,78.890366,107.49865
"52988",747.93066,80.56275,109.13636
"52989",747.944,81.99832,110.589516
"52990",747.9573,83.05058,111.70422
"52991",747.9706,83.63653,112.3855
"52992",747.9839,83.7293,112.59191
"52993",747.9972,83.34356,112.32271
"52994",748.0105,82.53544,111.61907
"52995",748.0238,81.38552,110.548386
"52996",748.0371,79.98169,109.18785
"52997",748.0504,78.416725,107.622314
"52998",748.0637,76.78584,105.941956
"52999",748.077,75.176926,104.2326
"53000",748.09033,73.651024,102.55598
"53001",748.10364,72.271614,100.978165
"53002",748.11694,71.07042,99.53546
"53003",748.13025,70.06943,98.25542
"53004",748.14355,69.27108,97.146736
"53005",748.15686,68.67536,96.21574
"53006",748.17017,68.27497,95.46145
"53007",748.1835,68.052795,94.87286
"53008",748.1968,67.9942,94.44092
"53009",748.2101,68.07721,94.14874
"53010",748.2234,68.28474,93.98368
"53011",748.2367,68.59724,93.93008
"53012",748.25,68.99519,93.971695
"53013",748.2633,69.454185,94.086784
"53014",748.2766,69.94736,94.2504
"53015",748.2899,70.44297,94.43186
"53016",748.3032,70.9044,94.594635
"53017",748.3165,71.29748,94.703476
"53018",748.32983,71.59045,94.72449
"53019",748.34314,71.783325,94.65457
"53020",748.35645,71.922485,94.53696
"53021",748.36975,72.20813,94.570175
"53022",748.38306,73.05043,95.168976
"53023",748.39636,74.94011,96.841484
"53024",748.40967,78.20187,99.94513
"53025",748.423,82.80644,104.49351
"53026",748.4363,88.35096,110.125725
"53027",748.4496,94.13229,116.16803
"53028",748.4629,99.33257,121.809944
"53029",748.4762,103.309685,126.3912
"53030",748.4895,105.763336,129.57327
"53031",748.5028,106.68131,131.29636
"53032",748.5161,106.21744,131.66628
"53033",748.5294,104.59876,130.8669
"53034",748.5427,102.08652,129.12337
"53035",748.556,98.95903,126.68608
"53036",748.56934,95.467766,123.787285
"53037",748.58264,91.844666,120.64755
"53038",748.59595,88.275276,117.44831
"53039",748.60925,84.89632,114.32796
"53040",748.62256,81.795685,111.38033
"53041",748.63586,79.0515,108.69226
"53042",748.6492,76.77608,106.3872
"53043",748.6625,75.11589,104.62627
"53044",748.6758,74.22232,103.58007
"53045",748.6891,74.17349,103.35069
"53046",748.7024,74.93523,103.93035
"53047",748.7157,76.33662,105.17347
"53048",748.729,78.09445,106.816826
"53049",748.7423,79.89624,108.55907
"53050",748.7556,81.480736,110.14032
"53051",748.7689,82.65995,111.36581
"53052",748.7822,83.33868,112.127655
"53053",748.79553,83.492485,112.385796
"53054",748.80884,83.15068,112.15313
"53055",748.82214,82.38163,111.48254
"53056",748.83545,81.26101,110.43634
"53057",748.84875,79.88403,109.09877
"53058",748.86206,78.345924,107.55704
"53059",748.87537,76.73701,105.89643
"53060",748.8887,75.140305,104.19776
"53061",748.902,73.62905,102.534645
"53062",748.9153,72.26429,100.970795
"53063",748.9286,71.08995,99.55472
"53064",748.9419,70.1207,98.30702
"53065",748.9552,69.35897,97.236565
"53066",748.9685,68.795,96.34006
"53067",748.9818,68.419014,95.613914
"53068",748.9951,68.209045,95.04204
"53069",749.0084,68.14313,94.60765
"53070",749.0217,68.20416,94.29816
"53071",749.03503,68.37507,94.10044
"53072",749.04834,68.63874,94.00083
"53073",749.06165,68.97566,93.98271
"53074",749.07495,69.37118,94.033714
"53075",749.08826,69.803314,94.1337
"53076",749.10156,70.240326,94.25206
"53077",749.11487,70.64561,94.35235
"53078",749.1282,70.98009,94.3945
"53079",749.1415,71.20958,94.34212
"53080",749.1548,71.329216,94.18706
"53081",749.1681,71.4049,93.991776
"53082",749.1814,71.66125,93.97952
"53083",749.1947,72.54017,94.597855
"53084",749.208,74.54215,96.366714
"53085",749.2213,77.979706,99.63371
"53086",749.2346,82.78203,104.3729
"53087",749.2479,88.49256,110.17037
"53088",749.2612,94.36179,116.30499
"53089",749.27454,99.55962,121.95163
"53090",749.28784,103.465935,126.46918
"53091",749.30115,105.81949,129.55605
"53092",749.31445,106.634926,131.17834
"53093",749.32776,106.07828,131.45404
"53094",749.34106,104.38148,130.57219
"53095",749.3544,101.8082,128.76083
"53096",749.3677,98.62699,126.26114
"53097",749.381,95.099106,123.315346
"53098",749.3943,91.44915,120.13724
"53099",749.4076,87.84802,116.8939
"53100",749.4209,84.42756,113.71869
"53101",749.4342,81.2781,110.70759
"53102",749.4475,78.51194,107.98137
"53103",749.4608,76.280464,105.70339
"53104",749.4741,74.78142,104.08811
"53105",749.4874,74.17349,103.31711
"53106",749.50073,74.527504,103.489044
"53107",749.51404,75.7409,104.531425
"53108",749.52734,77.5671,106.22453
"53109",749.54065,79.65942,108.24082
"53110",749.55396,81.65896,110.22972
"53111",749.56726,83.29717,111.91978
"53112",749.58057,84.41779,113.14343
"53113",749.5939,84.95979,113.82349
"53114",749.6072,84.93782,113.956505
"53115",749.6205,84.39826,113.57125
"53116",749.6338,83.42901,112.73944
"53117",749.6471,82.12283,111.54042
"53118",749.6604,80.58228,110.06621
"53119",749.6737,78.907455,108.40958
"53120",749.687,77.19844,106.66642
"53121",749.7003,75.53582,104.91625
"53122",749.7136,73.987946,103.228874
"53123",749.7269,72.60853,101.66158
"53124",749.74023,71.42443,100.246506
"53125",749.75354,70.452736,99.00682
"53126",749.76685,69.69344,97.94917
"53127",749.78015,69.14168,97.075325
"53128",749.79346,68.787674,96.381996
"53129",749.80676,68.62653,95.87047
"53130",749.82007,68.65583,95.54434
"53131",749.8334,68.86336,95.39736
"53132",749.8467,69.22713,95.41311
"53133",749.86,69.71053,95.55986
"53134",749.8733,70.26475,95.79253
"53135",749.8866,70.836044,96.05959
"53136",749.8999,71.360954,96.29813
"53137",749.9132,71.79309,96.4603
"53138",749.9265,72.09827,96.509
"53139",749.9398,72.2765,96.44031
"53140",749.9531,72.376595,96.29904
"53141",749.96643,72.567024,96.251236
"53142",749.97974,73.21156,96.6635
"53143",749.99304,74.759445,97.999245
"53144",750.00635,77.56222,100.63825
"53145",750.01965,81.66384,104.6637
"53146",750.03296,86.7396,109.79145
"53147",750.04626,92.171814,115.43427
"53148",750.0596,97.19142,120.83425
"53149",750.0729,101.14168,125.32174
"53150",750.0862,103.66613,128.50687
"53151",750.0995,104.708626,130.28893
"53152",750.1128,104.3888,130.74124
"53153",750.1261,102.92638,130.04097
"53154",750.1394,100.57282,128.40387
"53155",750.1527,97.58938,126.063324
"53156",750.166,94.220184,123.2438
"53157",750.1793,90.67765,120.145645
"53158",750.1926,87.13023,116.93191
"53159",750.20593,83.69024,113.71473
"53160",750.21924,80.45777,110.59758
"53161",750.23254,77.54757,107.70168
"53162",750.24585,75.140305,105.21778
"53163",750.25916,73.443504,103.36912
"53164",750.27246,72.66468,102.38541
"53165",750.28577,72.903946,102.39545
"53166",750.2991,74.08804,103.357796
"53167",750.3124,75.965515,105.05052
"53168",750.3257,78.17258,107.13151
"53169",750.339,80.33326,109.235085
"53170",750.3523,82.14725,111.05949
"53171",750.3656,83.43145,112.41079
"53172",750.3789,84.122375,113.20895
"53173",750.3922,84.23224,113.44763
"53174",750.4055,83.81232,113.159966
"53175",750.4188,82.948044,112.414825
"53176",750.4321,81.73464,111.29355
"53177",750.44543,80.27955,109.89266
"53178",750.45874,78.68284,108.30469
"53179",750.47205,77.04219,106.62288
"53180",750.48535,75.43816,104.92642
"53181",750.49866,73.93912,103.28482
"53182",750.51196,72.60609,101.76239
"53183",750.52527,71.47814,100.40338
"53184",750.5386,70.57725,99.236176
"53185",750.5519,69.90585,98.27032
"53186",750.5652,69.46395,97.51297
"53187",750.5785,69.222244,96.94201
"53188",750.5918,69.14656,96.52952
"53189",750.6051,69.20271,96.2465
"53190",750.6184,69.366295,96.07266
"53191",750.6317,69.610435,95.9845
"53192",750.645,69.910736,95.96012
"53193",750.6583,70.24765,95.98174
"53194",750.67163,70.59434,96.02367
"53195",750.68494,70.93126,96.06666
"53196",750.69824,71.22179,96.07379
"53197",750.71155,71.43908,96.01677
"53198",750.72485,71.57824,95.8884
"53199",750.73816,71.67834,95.72531
"53200",750.75146,71.922485,95.70941
"53201",750.7648,72.71107,96.245575
"53202",750.7781,74.55192,97.85864
"53203",750.7914,77.786835,100.92331
"53204",750.8047,82.41581,105.48312
"53205",750.818,88.04578,111.18858
"53206",750.8313,93.978485,117.37273
"53207",750.8446,99.39361,123.22468
"53208",750.8579,103.624626,128.06175
"53209",750.8712,106.32975,131.50514
"53210",750.8845,107.48455,133.48274
"53211",750.8978,107.21599,134.07307
"53212",750.91113,105.73647,133.44406
"53213",750.92444,103.31457,131.82642
"53214",750.93774,100.2359,129.47633
"53215",750.95105,96.781265,126.65407
"53216",750.96436,93.2021,123.59932
"53217",750.97766,89.688866,120.49865
"53218",750.99097,86.37095,117.48351
"53219",751.0043,83.32403,114.63568
"53220",751.0176,80.63355,112.04908
"53221",751.0309,78.41184,109.84717
"53222",751.0442,76.805374,108.19107
"53223",751.0575,75.948425,107.23429
"53224",751.0708,75.90448,107.063736
"53225",751.0841,76.61738,107.64865
"53226",751.0974,77.89426,108.819824
"53227",751.1107,79.466545,110.32631
"53228",751.124,81.05104,111.894135
"53229",751.1373,82.406044,113.28198
"53230",751.15063,83.36797,114.3191
"53231",751.16394,83.85138,114.90775
"53232",751.17725,83.826965,115.00369
"53233",751.19055,83.3167,114.61302
"53234",751.20386,82.388954,113.78892
"53235",751.21716,81.13649,112.61111
"53236",751.23047,79.656975,111.16711
"53237",751.2438,78.04562,109.54504
"53238",751.2571,76.402534,107.84087
"53239",751.2704,74.810715,106.136635
"53240",751.2837,73.340965,104.50472
"53241",751.297,72.03723,102.9929
"53242",751.3103,70.93614,101.642975
"53243",751.3236,70.05234,100.47592
"53244",751.3369,69.385826,99.49854
"53245",751.3502,68.926834,98.707855
"53246",751.3635,68.66071,98.095695
"53247",751.37683,68.558174,97.6388
"53248",751.39014,68.58991,97.31298
"53249",751.40344,68.731514,97.098015
"53250",751.41675,68.96834,96.9827
"53251",751.43005,69.28329,96.9529
"53252",751.44336,69.65682,96.99154
"53253",751.45667,70.0621,97.07359
"53254",751.47,70.469826,97.17075
"53255",751.4833,70.84093,97.24403
"53256",751.4966,71.13634,97.25322
"53257",751.5099,71.326775,97.16667
"53258",751.5232,71.414665,96.98352
"53259",751.5365,71.44396,96.74452
"53260",751.5498,71.588005,96.621185
"53261",751.5631,72.20325,96.97356
"53262",751.5764,73.77554,98.3022
"53263",751.5897,76.67109,101.003235
"53264",751.603,80.936295,105.16441
"53265",751.61633,86.24643,110.50381
"53266",751.62964,91.949646,116.40222
"53267",751.64294,97.254906,122.08091
"53268",751.65625,101.4786,126.84382
"53269",751.66956,104.24231,130.27873
"53270",751.68286,105.477684,132.27168
"53271",751.69617,105.31411,132.90428
"53272",751.7095,103.96155,132.34279
"53273",751.7228,101.68368,130.81372
"53274",751.7361,98.758835,128.5665
"53275",751.7494,95.45556,125.849434
"53276",751.7627,92.02045,122.89731
"53277",751.776,88.64881,119.90131
"53278",751.7893,85.46761,116.99039
"53279",751.8026,82.56718,114.26081
"53280",751.8159,80.025635,111.79949
"53281",751.8292,77.93576,109.71042
"53282",751.8425,76.42695,108.1371
"53283",751.85583,75.6115,107.21
"53284",751.86914,75.55291,107.01427
"53285",751.88245,76.18768,107.51007
"53286",751.89575,77.3547,108.55795
"53287",751.90906,78.80492,109.92551
"53288",751.92236,80.274666,111.35791
"53289",751.93567,81.53689,112.628716
"53290",751.949,82.42802,113.56787
"53291",751.9623,82.85771,114.07344
"53292",751.9756,82.79668,114.10171
"53293",751.9889,82.266884,113.65931
"53294",752.0022,81.33181,112.795074
"53295",752.0155,80.08179,111.58667
"53296",752.0288,78.61936,110.1268
"53297",752.0421,77.04219,108.506485
"53298",752.0554,75.440605,106.81247
"53299",752.0687,73.89273,105.122116
"53300",752.08203,72.4596,103.49814
"53301",752.09534,71.19249,101.99539
"53302",752.10864,70.118256,100.64592
"53303",752.12195,69.25155,99.470406
"53304",752.13525,68.59724,98.4802
"53305",752.14856,68.14801,97.67464
"53306",752.16187,67.88678,97.04303
"53307",752.1752,67.791565,96.569275
"53308",752.1885,67.83063,96.22682
"53309",752.2018,67.981995,95.997894
"53310",752.2151,68.223694,95.86403
"53311",752.2284,68.53376,95.80608
"53312",752.2417,68.89998,95.81398
"53313",752.255,69.30038,95.8675
"53314",752.2683,69.71786,95.950615
"53315",752.2816,70.12802,96.03946
"53316",752.2949,70.50889,96.111824
"53317",752.3082,70.838486,96.14482
"53318",752.32153,71.08507,96.1051
"53319",752.33484,71.22911,95.97055
"53320",752.34814,71.2633,95.73065
"53321",752.36145,71.22911,95.42345
"53322",752.37476,71.29504,95.21529
"53323",752.38806,71.85657,95.50479
"53324",752.40137,73.41421,96.80795
"53325",752.4147,76.34882,99.536766
"53326",752.428,80.69947,103.773315
"53327",752.4413,86.117035,109.21274
"53328",752.4546,91.91791,115.204765
"53329",752.4679,97.27688,120.93617
"53330",752.4812,101.5079,125.70709
"53331",752.4945,104.24475,129.11607
"53332",752.5078,105.43374,131.06271
"53333",752.5211,105.216446,131.64023
"53334",752.5344,103.817505,131.0293
"53335",752.5477,101.49569,129.45178
"53336",752.56104,98.53666,127.16449
"53337",752.57434,95.21629,124.42339
"53338",752.58765,91.776306,121.458916
"53339",752.60095,88.39735,118.44797
"53340",752.61426,85.206375,115.51941
"53341",752.62756,82.28397,112.759705
"53342",752.64087,79.71801,110.265114
"53343",752.6542,77.62081,108.1591
"53344",752.6675,76.13641,106.60036
"53345",752.6808,75.3991,105.74231
"53346",752.6941,75.46258,105.66201
"53347",752.7074,76.25849,106.31613
"53348",752.7207,77.5964,107.53712
"53349",752.734,79.202866,109.068474
"53350",752.7473,80.78981,110.63051
"53351",752.7606,82.12283,111.98821
"53352",752.7739,83.0457,112.97742
"53353",752.78723,83.48028,113.50717
"53354",752.80054,83.39239,113.52804
"53355",752.81384,82.811325,113.052986
"53356",752.82715,81.80789,112.137405
"53357",752.84045,80.48707,110.87308
"53358",752.85376,78.9514,109.35263
"53359",752.86707,77.30587,107.67433
"53360",752.8804,75.65545,105.93972
"53361",752.8937,74.073395,104.2219
"53362",752.907,72.61585,102.579155
"53363",752.9203,71.32189,101.05444
"53364",752.9336,70.223236,99.6846
"53365",752.9469,69.33944,98.49528
"53366",752.9602,68.6778,97.500496
"53367",752.9735,68.2359,96.70477
"53368",752.9868,68.00641,96.10765
"53369",753.0001,67.97223,95.69867
"53370",753.0134,68.10895,95.45952
"53371",753.02673,68.37751,95.35648
"53372",753.04004,68.75105,95.36682
"53373",753.05334,69.20027,95.46451
"53374",753.06665,69.698326,95.62507
"53375",753.07996,70.223236,95.82805
"53376",753.09326,70.75792,96.057205
"53377",753.10657,71.27795,96.28842
"53378",753.1199,71.74181,96.47972
"53379",753.1332,72.10559,96.585434
"53380",753.1465,72.32777,96.56091
"53381",753.1598,72.39124,96.38463
"53382",753.1731,72.32044,96.07605
"53383",753.1864,72.24475,95.760376
"53384",753.1997,72.49134,95.76462
"53385",753.213,73.53384,96.572464
"53386",753.2263,75.79706,98.63362
"53387",753.2396,79.447014,102.15224
"53388",753.2529,84.27131,106.95925
"53389",753.26624,89.71084,112.53226
"53390",753.27954,94.99657,118.12145
"53391",753.29285,99.388725,122.982254
"53392",753.30615,102.40879,126.608215
"53393",753.31946,103.905396,128.8051
"53394",753.33276,103.956665,129.60341
"53395",753.34607,102.75792,129.1533
"53396",753.3594,100.560616,127.66719
"53397",753.3727,97.64309,125.39218
"53398",753.386,94.28123,122.581665
"53399",753.3993,90.719154,119.46588
"53400",753.4126,87.14488,116.226585
"53401",753.4259,83.702446,113.00742
"53402",753.4392,80.49683,109.91751
"53403",753.4525,77.64767,107.08387
"53404",753.4658,75.31121,104.673904
"53405",753.4791,73.69009,102.90626
"53406",753.49243,72.94789,101.96688
"53407",753.50574,73.15053,101.94914
"53408",753.51904,74.22232,102.80689
"53409",753.53235,75.93378,104.3378
"53410",753.54565,77.94797,106.22492
"53411",753.55896,79.92554,108.13837
"53412",753.57227,81.583275,109.79378
"53413",753.5856,82.738075,110.998055
"53414",753.5989,83.299614,111.64516
"53415",753.6122,83.267876,111.71653
"53416",753.6255,82.70878,111.25955
"53417",753.6388,81.71511,110.35053
"53418",753.6521,80.39918,109.088196
"53419",753.6654,78.870834,107.57233
"53420",753.6787,77.23018,105.896385
"53421",753.692,75.57,104.14965
"53422",753.7053,73.96353,102.40475
"53423",753.7186,72.48646,100.73904
"53424",753.73193,71.19249,99.210266
"53425",753.74524,70.13046,97.873
"53426",753.75854,69.32967,96.76379
"53427",753.77185,68.80965,95.91031
"53428",753.78516,68.56794,95.3189
"53429",753.79846,68.575264,94.96897
"53430",753.81177,68.77547,94.81215
"53431",753.8251,69.09529,94.781204
"53432",753.8384,69.47372,94.818855
"53433",753.8517,69.86435,94.88054
"53434",753.865,70.25742,94.95687
"53435",753.8783,70.64805,95.04304
"53436",753.8916,71.03868,95.14142
"53437",753.9049,71.414665,95.237366
"53438",753.9182,71.73693,95.291336
"53439",753.9315,71.96887,95.26506
"53440",753.9448,72.08362,95.12883
"53441",753.9581,72.07385,94.87167
"53442",753.97144,71.9762,94.52632
"53443",753.98474,71.920044,94.21942
"53444",753.99805,72.21301,94.25989
"53445",754.01135,73.35317,95.15671
"53446",754.02466,75.81415,97.40997
"53447",754.03796,79.80591,101.27093
"53448",754.0513,85.118484,106.57744
"53449",754.0646,91.16594,112.78484
"53450",754.0779,97.11574,119.08358
"53451",754.0912,102.149994,124.6527
"53452",754.1045,105.71694,128.91183
"53453",754.1178,107.63836,131.6369
"53454",754.1311,107.999695,132.86194
"53455",754.1444,107.01091,132.74814
"53456",754.1577,104.94057,131.52188
"53457",754.171,102.098724,129.45943
"53458",754.1843,98.795456,126.84674
"53459",754.19763,95.30663,123.945274
"53460",754.21094,91.859314,120.97629
"53461",754.22424,88.59754,118.08512
"53462",754.23755,85.61166,115.367905
"53463",754.25085,82.96269,112.8943
"53464",754.26416,80.73365,110.75784
"53465",754.27747,79.04173,109.08885
"53466",754.2908,77.99924,108.01641
"53467",754.3041,77.67452,107.62917
"53468",754.3174,78.04074,107.92272
"53469",754.3307,78.958725,108.77948
"53470",754.344,80.198975,109.98719
"53471",754.3573,81.50027,111.2947
"53472",754.3706,82.63798,112.479294
"53473",754.3839,83.45098,113.37473
"53474",754.3972,83.85138,113.88297
"53475",754.4105,83.807434,113.95938
"53476",754.4238,83.33135,113.60228
"53477",754.43713,82.476845,112.851875
"53478",754.45044,81.324486,111.77692
"53479",754.46375,79.94995,110.44377
"53480",754.47705,78.44114,108.933395
"53481",754.49036,76.88838,107.331924
"53482",754.50366,75.372246,105.71855
"53483",754.51697,73.96109,104.16278
"53484",754.5303,72.723274,102.73625
"53485",754.5436,71.69543,101.481
"53486",754.5569,70.89952,100.42558
"53487",754.5702,70.33555,99.577225
"53488",754.5835,69.993744,98.9334
"53489",754.5968,69.84482,98.47178
"53490",754.6101,69.85947,98.169075
"53491",754.6234,70.00107,97.99378
"53492",754.6367,70.23056,97.910805
"53493",754.65,70.521095,97.89604
"53494",754.6633,70.84825,97.92698
"53495",754.67664,71.199814,97.99255
"53496",754.68994,71.56115,98.07889
"53497",754.70325,71.91516,98.16919
"53498",754.71655,72.24719,98.248566
"53499",754.72986,72.5304,98.289505
"53500",754.74316,72.742805,98.26848
"53501",754.7565,72.87709,98.17598
"53502",754.7698,72.935684,98.011986
"53503",754.7831,72.94301,97.79855
"53504",754.7964,73.00404,97.63906
"53505",754.8097,73.402,97.8184
"53506",754.823,74.56168,98.7719
"53507",754.8363,76.88838,100.92865
"53508",754.8496,80.5481,104.491135
"53509",754.8629,85.367516,109.327675
"53510",754.8762,90.83391,114.9618
"53511",754.8895,96.217285,120.68374
"53512",754.90283,100.79744,125.77068
"53513",754.91614,104.078735,129.7019
"53514",754.92944,105.87808,132.25371
"53515",754.94275,106.229645,133.41396
"53516",754.95605,105.29702,133.30101
"53517",754.96936,103.326775,132.12129
"53518",754.98267,100.59968,130.12315
"53519",754.996,97.40627,127.57349
"53520",755.0093,94.032196,124.743355
"53521",755.0226,90.71427,121.86394
"53522",755.0359,87.59899,119.08348
"53523",755.0492,84.76448,116.486435
"53524",755.0625,82.262,114.13284
"53525",755.0758,80.14282,112.08435
"53526",755.0891,78.49729,110.44328
"53527",755.1024,77.41573,109.314766
"53528",755.1157,76.97139,108.789665
"53529",755.129,77.152054,108.87569
"53530",755.14233,77.840546,109.47518
"53531",755.15564,78.839096,110.40625
"53532",755.16895,79.923096,111.45397
"53533",755.18225,80.89235,112.42082
"53534",755.19556,81.602806,113.159164
"53535",755.20886,81.9617,113.568146
"53536",755.22217,81.91531,113.58306
"53537",755.2355,81.45388,113.18148
"53538",755.2488,80.60914,112.38217
"53539",755.2621,79.43725,111.22932
"53540",755.2754,78.01633,109.79081
"53541",755.2887,76.4416,108.15409
"53542",755.302,74.8156,106.41689
"53543",755.3153,73.22865,104.66794
"53544",755.3286,71.76135,102.98904
"53545",755.3419,70.46494,101.435165
"53546",755.3552,69.37606,100.04831
"53547",755.3685,68.51667,98.85692
"53548",755.38184,67.88922,97.87061
"53549",755.39514,67.4815,97.08443
"53550",755.40845,67.2691,96.48082
"53551",755.42175,67.23003,96.04391
"53552",755.43506,67.33257,95.74739
"53553",755.44836,67.542534,95.56149
"53554",755.4617,67.83795,95.46761
"53555",755.475,68.209045,95.45864
"53556",755.4883,68.63142,95.51254
"53557",755.5016,69.08797,95.61382
"53558",755.5149,69.556725,95.74158
"53559",755.5282,70.02304,95.88154
"53560",755.5415,70.452736,95.99945
"53561",755.5548,70.81651,96.06487
"53562",755.5681,71.080185,96.041565
"53563",755.5814,71.22179,95.90442
"53564",755.5947,71.22179,95.6301
"53565",755.60803,71.10704,95.24103
"53566",755.62134,70.98741,94.84349
"53567",755.63464,71.1461,94.720535
"53568",755.64795,72.06653,95.36427
"53569",755.66125,74.23453,97.28435
"53570",755.67456,77.89914,100.76879
"53571",755.68787,82.90654,105.71054
"53572",755.7012,88.724495,111.61932
"53573",755.7145,94.554665,117.72214
"53574",755.7278,99.59136,123.21367
"53575",755.7411,103.26818,127.502716
"53576",755.7544,105.38491,130.34657
"53577",755.7677,105.99771,131.75266
"53578",755.781,105.287254,131.85463
"53579",755.7943,103.49523,130.85283
"53580",755.8076,100.892654,128.98448
"53581",755.8209,97.76517,126.50989
"53582",755.8342,94.37888,123.678764
"53583",755.84753,90.97795,120.72717
"53584",755.86084,87.73327,117.825554
"53585",755.87415,84.74494,115.07889
"53586",755.88745,82.08377,112.565994
"53587",755.90076,79.83765,110.38499
"53588",755.91406,78.118866,108.66113
"53589",755.92737,77.03975,107.52323
"53590",755.9407,76.67109,107.062065
"53591",755.954,77.00313,107.29008
"53592",755.9673,77.91135,108.104645
"53593",755.9806,79.17113,109.29916
"53594",755.9939,80.52369,110.62582
"53595",756.0072,81.739525,111.85802
"53596",756.0205,82.6453,112.81815
"53597",756.0338,83.123825,113.37934
"53598",756.0471,83.12871,113.48184
"53599",756.0604,82.66483,113.11574
"53600",756.0737,81.778595,112.312775
"53601",756.08704,80.5481,111.13786
"53602",756.10034,79.06859,109.675476
"53603",756.11365,77.44015,108.01793
"53604",756.12695,75.76044,106.258224
"53605",756.14026,74.12222,104.487526
"53606",756.15356,72.60609,102.78771
"53607",756.1669,71.275505,101.226074
"53608",756.1802,70.17197,99.8499
"53609",756.1935,69.31747,98.68827
