"","Time..s.","PPG.trace","Preprocessed.PPG"
"789",20.950577,73.20912,73.048164
"790",20.963913,73.06508,72.69191
"791",20.97725,72.969864,72.37998
"792",20.990585,72.91371,72.10414
"793",21.003922,72.884415,71.8534
"794",21.017242,72.86,71.60663
"795",21.030579,72.82094,71.344444
"796",21.043915,72.75746,71.056625
"797",21.057251,72.654915,70.72775
"798",21.070587,72.515755,70.359055
"799",21.083908,72.35706,69.96648
"800",21.097244,72.24963,69.62021
"801",21.11058,72.38148,69.50986
"802",21.123917,73.06508,69.95538
"803",21.137253,74.5861,71.25969
"804",21.150574,77.03975,73.54416
"805",21.16391,80.257576,76.66948
"806",21.177246,83.824524,80.24448
"807",21.190582,87.17174,83.711205
"808",21.203918,89.776764,86.540344
"809",21.217255,91.34417,88.41328
"810",21.230576,91.859314,89.28293
"811",21.243912,91.50286,89.29708
"812",21.257248,90.548256,88.70194
"813",21.270584,89.28603,87.769356
"814",21.28392,87.97742,86.75093
"815",21.297241,86.81285,85.83566
"816",21.310577,85.88022,85.11593
"817",21.323914,85.16487,84.584335
"818",21.33725,84.58381,84.16467
"819",21.350586,84.03693,83.76103
"820",21.363922,83.45342,83.30368
"821",21.377243,82.83818,82.79636
"822",21.39058,82.2449,82.29177
"823",21.403915,81.761505,81.878525
"824",21.417252,81.43679,81.60886
"825",21.430588,81.28298,81.49995
"826",21.443909,81.24147,81.49853
"827",21.457245,81.234146,81.53
"828",21.470581,81.17555,81.50997
"829",21.483917,80.99977,81.370926
"830",21.497253,80.67017,81.07257
"831",21.510574,80.184326,80.607666
"832",21.52391,79.56664,79.99574
"833",21.537247,78.856186,79.27174
"834",21.550583,78.101776,78.48159
"835",21.56392,77.349815,77.67031
"836",21.57724,76.63935,76.87703
"837",21.590576,75.999695,76.132355
"838",21.603912,75.440605,75.44826
"839",21.617249,74.96208,74.827255
"840",21.630585,74.54948,74.25722
"841",21.64392,74.20035,73.73776
"842",21.657242,73.9025,73.258675
"843",21.670578,73.65835,72.82398
"844",21.683914,73.46792,72.43538
"845",21.69725,73.3312,72.094536
"846",21.710587,73.23598,71.79092
"847",21.723907,73.179825,71.52339
"848",21.737244,73.14076,71.2712
"849",21.75058,73.109024,71.025116
"850",21.763916,73.057755,70.75851
"851",21.777252,72.97475,70.45856
"852",21.790588,72.86,70.124275
"853",21.80391,72.78432,69.82547
"854",21.817245,72.94789,69.76356
"855",21.830582,73.653465,70.24876
"856",21.843918,75.17937,71.57633
"857",21.857254,77.611046,73.85737
"858",21.870575,80.77272,76.94439
"859",21.883911,84.23956,80.43538
"860",21.897247,87.46227,83.79057
"861",21.910583,89.952545,86.51404
"862",21.92392,91.42962,88.30213
"863",21.93724,91.88129,89.11098
"864",21.950577,91.48333,89.08431
"865",21.963913,90.49943,88.45927
"866",21.97725,89.20302,87.49097
"867",21.990585,87.8407,86.416245
"868",22.003906,86.60044,85.421005
"869",22.017242,85.57015,84.59698
"870",22.030579,84.74738,83.94827
"871",22.043915,84.054016,83.40326
"872",22.057251,83.404594,82.88052
"873",22.070587,82.757614,82.339935
"874",22.083908,82.11307,81.78156
"875",22.097244,81.53445,81.268974
"876",22.11058,81.09743,80.879906
"877",22.123917,80.84352,80.66029
"878",22.137253,80.76784,80.61097
"879",22.150574,80.80202,80.66914
"880",22.16391,80.86061,80.7528
"881",22.177246,80.850845,80.76993
"882",22.190582,80.709236,80.65491
"883",22.203918,80.394295,80.36213
"884",22.217255,79.906006,79.88616
"885",22.230576,79.273674,79.25089
"886",22.243912,78.54612,78.50064
"887",22.257248,77.769745,77.67883
"888",22.270584,76.99092,76.830315
"889",22.28392,76.25117,75.99653
"890",22.297241,75.57,75.19821
"891",22.310577,74.95964,74.44942
"892",22.323914,74.43229,73.76456
"893",22.33725,73.98062,73.1389
"894",22.350586,73.59487,72.56505
"895",22.363907,73.26528,72.0353
"896",22.377243,72.989395,71.54896
"897",22.39058,72.77699,71.11748
"898",22.403915,72.62806,70.74283
"899",22.417252,72.53773,70.42212
"900",22.430573,72.498665,70.14986
"901",22.443909,72.49622,69.912994
"902",22.457245,72.498665,69.68094
"903",22.470581,72.481575,69.42943
"904",22.483917,72.4181,69.131
"905",22.497253,72.30335,68.77931
"906",22.510574,72.166626,68.40207
"907",22.52391,72.17395,68.1646
"908",22.537247,72.64271,68.388794
"909",22.550583,73.95865,69.47482
"910",22.56392,76.33906,71.66644
"911",22.57724,79.71313,74.92611
"912",22.590576,83.70733,78.91135
"913",22.603912,87.73083,83.0507
"914",22.617249,91.158615,86.72008
"915",22.630585,93.54635,89.45652
"916",22.64392,94.75975,91.09325
"917",22.657242,94.93065,91.72539
"918",22.670578,94.312965,91.57429
"919",22.683914,93.19966,90.908264
"920",22.69725,91.88617,90.00726
"921",22.710587,90.614174,89.10671
"922",22.723907,89.53506,88.35929
"923",22.737244,88.69276,87.814964
"924",22.75058,88.03601,87.42987
"925",22.763916,87.45251,87.09749
"926",22.777252,86.82506,86.70293
"927",22.790573,86.09018,86.18133
"928",22.80391,85.25033,85.53179
"929",22.817245,84.37873,84.824265
"930",22.830582,83.57061,84.15298
"931",22.843918,82.90654,83.60049
"932",22.857239,82.42069,83.20547
"933",22.870575,82.08865,82.94907
"934",22.883911,81.849396,82.775085
"935",22.897247,81.634544,82.61803
"936",22.910583,81.3782,82.41276
"937",22.92392,81.03639,82.11402
"938",22.93724,80.59205,81.702065
"939",22.950577,80.0354,81.16392
"940",22.963913,79.38598,80.5156
"941",22.97725,78.660866,79.7713
"942",22.990585,77.891815,78.9604
"943",23.003906,77.11055,78.11326
"944",23.017242,76.34638,77.2588
"945",23.030579,75.62371,76.42195
"946",23.043915,74.966965,75.62845
"947",23.057251,74.3859,74.89011
"948",23.070587,73.87564,74.20441
"949",23.083908,73.43862,73.576004
"950",23.097244,73.06508,72.99742
"951",23.11058,72.75014,72.46577
"952",23.123917,72.4889,71.977974
"953",23.137253,72.2765,71.53085
"954",23.150574,72.11047,71.123474
"955",23.16391,71.98596,70.75241
"956",23.177246,71.89075,70.40675
"957",23.190582,71.8053,70.06789
"958",23.203918,71.70519,69.7117
"959",23.21724,71.568474,69.315765
"960",23.230576,71.39025,68.874054
"961",23.243912,71.21446,68.429214
"962",23.257248,71.20714,68.14734
"963",23.270584,71.692986,68.35841
"964",23.283905,73.05531,69.46115
"965",23.297241,75.50408,71.6929
"966",23.310577,78.958725,75.00705
"967",23.323914,83.03105,79.04684
"968",23.33725,87.12779,83.2383
"969",23.350586,90.60685,86.940094
"970",23.363907,93.03609,89.7008
"971",23.377243,94.28855,91.36064
"972",23.39058,94.50095,92.01956
"973",23.403915,93.924774,91.89654
"974",23.417252,92.8481,91.25501
"975",23.430573,91.544365,90.35278
"976",23.443909,90.250404,89.419586
"977",23.457245,89.11757,88.60708
"978",23.470581,88.20447,87.9789
"979",23.483917,87.481804,87.51262
"980",23.497253,86.854355,87.11897
"981",23.510574,86.21225,86.69106
"982",23.52391,85.4847,86.157646
"983",23.537247,84.664375,85.50871
"984",23.550583,83.807434,84.79753
"985",23.56392,83.004196,84.11327
"986",23.57724,82.337685,83.54064
"987",23.590576,81.83963,83.11564
"988",23.603912,81.49294,82.82644
"989",23.617249,81.24635,82.6265
"990",23.630585,81.0193,82.4384
"991",23.643906,80.73853,82.18948
"992",23.657242,80.35279,81.82682
"993",23.670578,79.83765,81.3227
"994",23.683914,79.19798,80.67796
"995",23.69725,78.46555,79.92047
"996",23.710571,77.68673,79.0937
"997",23.723907,76.90547,78.24015
"998",23.737244,76.15106,77.38904
"999",23.75058,75.45525,76.57295
"1000",23.763916,74.82536,75.80104
"1001",23.777252,74.26383,75.077805
"1002",23.790573,73.760895,74.395615
"1003",23.80391,73.304344,73.744095
"1004",23.817245,72.87953,73.11005
"1005",23.830582,72.47913,72.48714
"1006",23.843918,72.10803,71.88101
"1007",23.857239,71.78088,71.307236
"1008",23.870575,71.517204,70.78671
"1009",23.883911,71.32433,70.32875
"1010",23.897247,71.20714,69.940445
"1011",23.910583,71.14122,69.59975
"1012",23.92392,71.09239,69.27408
"1013",23.93724,71.03136,68.93468
"1014",23.950577,70.93614,68.55919
"1015",23.963913,70.79942,68.13922
"1016",23.97725,70.64805,67.70033
"1017",23.990585,70.56748,67.327515
"1018",24.003906,70.79454,67.2598
"1019",24.017242,71.69787,67.87546
"1020",24.030579,73.616844,69.53499
"1021",24.043915,76.66132,72.38
"1022",24.057251,80.61158,76.22592
"1023",24.070572,84.96956,80.60301
"1024",24.083908,89.08095,84.8697
"1025",24.097244,92.335396,88.40793
"1026",24.11058,94.39353,90.85155
"1027",24.123917,95.25048,92.158295
"1028",24.137238,95.10155,92.48594
"1029",24.150574,94.220184,92.0765
"1030",24.16391,92.909134,91.20983
"1031",24.177246,91.44671,90.15082
"1032",24.190582,90.04776,89.10958
"1033",24.203918,88.849014,88.22483
"1034",24.21724,87.8822,87.534546
"1035",24.230576,87.09361,86.99228
"1036",24.243912,86.380714,86.50105
"1037",24.257248,85.6556,85.975334
"1038",24.270584,84.88411,85.38058
"1039",24.283905,84.09796,84.747055
"1040",24.297241,83.3753,84.15245
"1041",24.310577,82.794235,83.676865
"1042",24.323914,82.4036,83.37355
"1043",24.33725,82.18875,83.23381
"1044",24.350586,82.07889,83.192345
"1045",24.363907,81.991,83.16942
"1046",24.377243,81.83475,83.075386
"1047",24.39058,81.55154,82.84951
"1048",24.403915,81.10231,82.44877
"1049",24.417252,80.50416,81.88506
"1050",24.430573,79.781494,81.178154
"1051",24.443909,78.98558,80.37541
"1052",24.457245,78.153046,79.51118
"1053",24.470581,77.32784,78.62826
"1054",24.483917,76.53193,77.74884
"1055",24.497238,75.78729,76.89583
"1056",24.510574,75.106125,76.083015
"1057",24.52391,74.495766,75.319725
"1058",24.537247,73.953766,74.60572
"1059",24.550583,73.48745,73.95046
"1060",24.563904,73.094376,73.353874
"1061",24.57724,72.77699,72.820694
"1062",24.590576,72.53773,72.35571
"1063",24.603912,72.36439,71.94917
"1064",24.617249,72.23987,71.586044
"1065",24.630585,72.13733,71.241
"1066",24.643906,72.03479,70.892746
"1067",24.657242,71.90784,70.51688
"1068",24.670578,71.73937,70.095535
"1069",24.683914,71.52941,69.627426
"1070",24.69725,71.32433,69.15764
"1071",24.710571,71.25109,68.81328
"1072",24.723907,71.59045,68.87923
"1073",24.737244,72.69642,69.7224
"1074",24.75058,74.82048,71.618225
"1075",24.763916,77.93088,74.566765
"1076",24.777252,81.71755,78.28878
"1077",24.790573,85.63607,82.26097
"1078",24.80391,89.07118,85.87221
"1079",24.817245,91.53704,88.62154
"1080",24.830582,92.85542,90.30045
"1081",24.843918,93.09468,90.941444
"1082",24.857239,92.474556,90.73053
"1083",24.870575,91.2636,89.90941
"1084",24.883911,89.74746,88.745255
"1085",24.897247,88.17029,87.472694
"1086",24.910583,86.710304,86.268036
"1087",24.923904,85.45541,85.22283
"1088",24.93724,84.39338,84.33128
"1089",24.950577,83.46807,83.54327
"1090",24.963913,82.62577,82.80934
"1091",24.97725,81.846954,82.11258
"1092",24.99057,81.17799,81.501335
"1093",25.003906,80.68482,81.044975
"1094",25.017242,80.42359,80.805145
"1095",25.030579,80.39918,80.79397
"1096",25.043915,80.54078,80.948044
"1097",25.057251,80.7483,81.17246
"1098",25.070572,80.902115,81.34966
"1099",25.083908,80.91188,81.38762
"1100",25.097244,80.73121,81.23544
"1101",25.11058,80.343025,80.87011
"1102",25.123917,79.766846,80.30465
"1103",25.137238,79.03929,79.56981
"1104",25.150574,78.21164,78.712135
"1105",25.16391,77.330284,77.774895
"1106",25.177246,76.4416,76.80278
"1107",25.190582,75.59197,75.84196
"1108",25.203918,74.80583,74.91807
"1109",25.21724,74.110016,74.05994
"1110",25.230576,73.51675,73.28261
"1111",25.243912,73.03334,72.5966
"1112",25.257248,72.65247,71.99803
"1113",25.270584,72.37171,71.487656
"1114",25.283905,72.17639,71.053955
"1115",25.297241,72.03723,70.6703
"1116",25.310577,71.92737,70.3116
"1117",25.323914,71.82239,69.954346
"1118",25.33725,71.69787,69.57428
"1119",25.35057,71.54162,69.158585
"1120",25.363907,71.36584,68.718475
"1121",25.377243,71.21446,68.29729
"1122",25.39058,71.19493,68.003204
"1123",25.403915,71.568474,68.10159
"1124",25.417236,72.689095,68.958725
"1125",25.430573,74.84001,70.88118
"1126",25.443909,78.04562,73.925545
"1127",25.457245,82.02762,77.846466
"1128",25.470581,86.258644,82.140854
"1129",25.483917,90.091705,86.169495
"1130",25.497238,92.982376,89.375534
"1131",25.510574,94.67429,91.47315
"1132",25.52391,95.21141,92.46884
"1133",25.537247,94.81346,92.54625
"1134",25.550583,93.7612,91.95691
"1135",25.563904,92.3476,90.97335
"1136",25.57724,90.83879,89.8504
"1137",25.590576,89.43496,88.785286
"1138",25.603912,88.24353,87.8887
"1139",25.617249,87.2694,87.17218
"1140",25.630585,86.43687,86.56682
"1141",25.643906,85.65316,85.98426
"1142",25.657242,84.86214,85.369896
"1143",25.670578,84.06378,84.72348
"1144",25.683914,83.31426,84.10095
"1145",25.69725,82.701454,83.59171
"1146",25.710571,82.286415,83.26109
"1147",25.723907,82.06912,83.11525
"1148",25.737244,81.99832,83.10911
"1149",25.75058,81.991,83.16423
"1150",25.763916,81.94217,83.17762
"1151",25.777237,81.77615,83.072296
"1152",25.790573,81.43679,82.78844
"1153",25.80391,80.90944,82.305984
"1154",25.817245,80.20874,81.633705
"1155",25.830582,79.38354,80.815025
"1156",25.843903,78.487526,79.89975
"1157",25.857239,77.58175,78.94671
"1158",25.870575,76.717476,78.00687
"1159",25.883911,75.93378,77.12059
"1160",25.897247,75.250175,76.30992
"1161",25.910583,74.669106,75.58042
"1162",25.923904,74.175934,74.92066
"1163",25.93724,73.75601,74.31874
"1164",25.950577,73.40444,73.77205
"1165",25.963913,73.11635,73.27785
"1166",25.97725,72.89174,72.83813
"1167",25.99057,72.723274,72.44753
"1168",26.003906,72.60853,72.10539
"1169",26.017242,72.52064,71.786514
"1170",26.030579,72.43275,71.46489
"1171",26.043915,72.32288,71.118546
"1172",26.057251,72.21057,70.76633
"1173",26.070572,72.15198,70.46431
"1174",26.083908,72.36439,70.43147
"1175",26.097244,73.18959,71.01807
"1176",26.11058,74.95232,72.56797
"1177",26.123917,77.7673,75.22522
"1178",26.137238,81.45876,78.84691
"1179",26.150574,85.57259,83.006325
"1180",26.16391,89.495995,87.10387
"1181",26.177246,92.645454,90.55008
"1182",26.190582,94.68406,92.98386
"1183",26.203903,95.57275,94.33142
"1184",26.21724,95.484856,94.73018
"1185",26.230576,94.693825,94.42305
"1186",26.243912,93.504845,93.69325
"1187",26.257248,92.191345,92.80178
"1188",26.270569,90.968185,91.9596
"1189",26.283905,89.9501,91.28428
"1190",26.297241,89.144424,90.78954
"1191",26.310577,88.47059,90.401474
"1192",26.323914,87.80896,90.00455
"1193",26.33725,87.05455,89.49417
"1194",26.35057,86.17319,88.83326
"1195",26.363907,85.20149,88.054474
"1196",26.377243,84.23712,87.25265
"1197",26.39058,83.38262,86.530556
"1198",26.403915,82.70878,85.96242
"1199",26.417236,82.22781,85.5661
"1200",26.430573,81.8909,85.298805
"1201",26.443909,81.617455,85.08445
"1202",26.457245,81.322044,84.839584
"1203",26.470581,80.938736,84.49759
"1204",26.483917,80.428474,84.01666
"1205",26.497253,79.781494,83.38307
"1206",26.510574,79.02464,82.61939
"1207",26.52391,78.19699,81.76126
"1208",26.537247,77.34493,80.85286
"1209",26.550583,76.50996,79.93491
"1210",26.56392,75.72625,79.042145
"1211",26.577255,75.01335,78.195694
"1212",26.590591,74.37858,77.40509
"1213",26.603912,73.831696,76.68254
"1214",26.617249,73.37026,76.02835
"1215",26.630585,72.989395,75.44031
"1216",26.64392,72.68177,74.913605
"1217",26.657257,72.43763,74.440765
"1218",26.670593,72.24475,74.011566
"1219",26.68393,72.08606,73.61052
"1220",26.697266,71.939575,73.21672
"1221",26.710602,71.79065,72.8159
"1222",26.723923,71.622185,72.3909
"1223",26.737259,71.42443,71.931335
"1224",26.750595,71.20958,71.4485
"1225",26.763931,71.04112,71.00534
"1226",26.777267,71.10704,70.79129
"1227",26.790604,71.73449,71.14084
"1228",26.80394,73.24574,72.3938
"1229",26.81726,75.77753,74.714516
"1230",26.830597,79.202866,78.007904
"1231",26.843933,83.1165,81.89663
"1232",26.85727,86.93492,85.81244
"1233",26.870605,90.08682,89.18105
"1234",26.883942,92.21332,91.622765
"1235",26.897278,93.24605,93.03716
"1236",26.910614,93.34371,93.54877
"1237",26.92395,92.76021,93.382256
"1238",26.937271,91.78851,92.80932
"1239",26.950607,90.69962,92.08882
"1240",26.963943,89.69375,91.41731
"1241",26.97728,88.87099,90.897484
"1242",26.990616,88.22156,90.52527
"1243",27.003952,87.66491,90.22554
"1244",27.017288,87.07652,89.87668
"1245",27.03061,86.36118,89.38248
"1246",27.043945,85.50179,88.72187
"1247",27.057281,84.559395,87.9514
"1248",27.070618,83.64385,87.17834
"1249",27.083954,82.8748,86.523155
"1250",27.09729,82.31571,86.0539
"1251",27.110626,81.96414,85.7747
"1252",27.123962,81.75418,85.626114
"1253",27.137299,81.5906,85.51735
"1254",27.15062,81.37087,85.34733
"1255",27.163956,81.03151,85.050804
"1256",27.177292,80.53834,84.58987
"1257",27.190628,79.91089,83.97924
"1258",27.203964,79.17357,83.239136
"1259",27.2173,78.37522,82.41496
"1260",27.230637,77.56222,81.551186
"1261",27.243958,76.76631,80.6791
"1262",27.257294,76.0119,79.82364
"1263",27.27063,75.31609,79.003204
"1264",27.283966,74.69352,78.23426
"1265",27.297302,74.14664,77.52155
"1266",27.310638,73.67544,76.86744
"1267",27.323975,73.27749,76.27185
"1268",27.33731,72.95766,75.74194
"1269",27.350647,72.70374,75.26796
"1270",27.363968,72.50599,74.84219
"1271",27.377304,72.35218,74.45419
"1272",27.39064,72.22766,74.09068
"1273",27.403976,72.11536,73.73549
"1274",27.417313,71.99817,73.3719
"1275",27.430649,71.86633,72.990005
"1276",27.443985,71.70275,72.57225
"1277",27.457306,71.51232,72.12253
"1278",27.470642,71.32433,71.6693
"1279",27.483978,71.26574,71.339584
"1280",27.497314,71.59777,71.39867
"1281",27.51065,72.65247,72.190796
"1282",27.523987,74.64469,73.9534
"1283",27.537323,77.5671,76.70846
"1284",27.55066,81.13893,80.20426
"1285",27.563995,84.859695,83.96062
"1286",27.577316,88.162964,87.41575
"1287",27.590652,90.5922,90.10008
"1288",27.603989,91.964294,91.803185
"1289",27.617325,92.33784,92.55061
"1290",27.630661,91.935,92.53333
"1291",27.643997,91.03899,92.01029
"1292",27.657333,89.94034,91.256615
"1293",27.670654,88.87099,90.4979
"1294",27.68399,87.96521,89.86934
"1295",27.697327,87.24986,89.40291
"1296",27.710663,86.65659,89.036194
"1297",27.723999,86.07065,88.658264
"1298",27.737335,85.401695,88.179016
"1299",27.750671,84.630196,87.57632
"1300",27.764008,83.809875,86.90069
"1301",27.777344,83.035934,86.245804
"1302",27.790665,82.41337,85.71811
"1303",27.804,81.988556,85.36871
"1304",27.817337,81.74685,85.18915
"1305",27.830673,81.61013,85.10702
"1306",27.84401,81.48562,85.03282
"1307",27.857346,81.290306,84.883934
"1308",27.870682,80.96803,84.60198
"1309",27.884003,80.49683,84.16103
"1310",27.897339,79.88403,83.56376
"1311",27.910675,79.15404,82.83014
"1312",27.924011,78.35813,82.0078
"1313",27.937347,77.540245,81.1386
"1314",27.950684,76.74189,80.26338
"1315",27.96402,75.999695,79.41937
"1316",27.977356,75.33318,78.62785
"1317",27.990692,74.75212,77.900955
"1318",28.004013,74.251625,77.236465
"1319",28.01735,73.829254,76.63446
"1320",28.030685,73.4728,76.085175
"1321",28.044022,73.17494,75.58334
"1322",28.057358,72.9308,75.12592
"1323",28.070694,72.725716,74.69993
"1324",28.08403,72.549934,74.29683
"1325",28.097351,72.39124,73.90532
"1326",28.110687,72.232544,73.50885
"1327",28.124023,72.061646,73.095215
"1328",28.13736,71.868774,72.65427
"1329",28.150696,71.64416,72.17555
"1330",28.164032,71.41711,71.68738
"1331",28.177368,71.28039,71.28244
"1332",28.190704,71.44396,71.17352
"1333",28.20404,72.19592,71.65811
"1334",28.217361,73.79263,73.01094
"1335",28.230698,76.29023,75.31456
"1336",28.244034,79.50317,78.41157
"1337",28.25737,83.01396,81.90684
"1338",28.270706,86.29038,85.27744
"1339",28.284042,88.84169,88.02532
"1340",28.297379,90.40177,89.86171
"1341",28.3107,90.95598,90.740974
"1342",28.324036,90.67033,90.7977
"1343",28.337372,89.80606,90.266884
"1344",28.350708,88.66346,89.430725
"1345",28.364044,87.49645,88.534454
"1346",28.37738,86.47105,87.74332
"1347",28.390717,85.63363,87.108116
"1348",28.404053,84.93538,86.585915
"1349",28.417389,84.27863,86.0834
"1350",28.43071,83.58282,85.521286
"1351",28.444046,82.828415,84.878845
"1352",28.457382,82.07156,84.21038
"1353",28.470718,81.41238,83.61593
"1354",28.484055,80.938736,83.186424
"1355",28.49739,80.68238,82.959404
"1356",28.510727,80.59937,82.89772
"1357",28.524048,80.604256,82.92133
"1358",28.537384,80.58961,82.92557
"1359",28.55072,80.46754,82.82192
"1360",28.564056,80.177,82.546
"1361",28.577393,79.70336,82.07789
"1362",28.590729,79.063705,81.42896
"1363",28.604065,78.2971,80.633095
"1364",28.617401,77.45968,79.74246
"1365",28.630737,76.60761,78.81101
"1366",28.644058,75.789734,77.88712
"1367",28.657394,75.035324,77.001144
"1368",28.67073,74.35905,76.16972
"1369",28.684067,73.7731,75.4075
"1370",28.697403,73.270164,74.70998
"1371",28.71074,72.84047,74.06998
"1372",28.724075,72.47913,73.48491
"1373",28.737396,72.183716,72.95447
"1374",28.750732,71.95178,72.47827
"1375",28.764069,71.77844,72.05342
"1376",28.777405,71.65392,71.67198
"1377",28.790741,71.56359,71.32083
"1378",28.804077,71.49035,70.98395
"1379",28.817413,71.412224,70.63989
"1380",28.83075,71.31457,70.273865
"1381",28.844086,71.19737,69.885254
"1382",28.857407,71.097275,69.51007
"1383",28.870743,71.10704,69.24162
"1384",28.884079,71.45129,69.30797
"1385",28.897415,72.44251,70.03204
"1386",28.910751,74.34684,71.700195
"1387",28.924088,77.21065,74.387344
"1388",28.937424,80.82399,77.91352
"1389",28.950745,84.735176,81.85046
"1390",28.96408,88.377815,85.64107
"1391",28.977417,91.24162,88.76668
"1392",28.990753,93.067825,90.94418
"1393",29.00409,93.85397,92.1387
"1394",29.017426,93.7905,92.50816
"1395",29.030762,93.14595,92.29457
"1396",29.044098,92.21332,91.77275
"1397",29.057434,91.24162,91.182724
"1398",29.070755,90.39689,90.68929
"1399",29.084091,89.74258,90.359886
"1400",29.097427,89.22987,90.15164
"1401",29.110764,88.7367,89.9469
"1402",29.1241,88.13611,89.61932
"1403",29.137436,87.35485,89.092316
"1404",29.150772,86.400246,88.36755
"1405",29.164093,85.35775,87.52506
"1406",29.17743,84.36408,86.69882
"1407",29.190765,83.529106,86.00022
"1408",29.204102,82.9041,85.4855
"1409",29.217438,82.46708,85.13923
"1410",29.230774,82.15457,84.90382
"1411",29.24411,81.866486,84.68306
"1412",29.257446,81.52468,84.39958
"1413",29.270782,81.07057,83.99312
"1414",29.284103,80.47486,83.43086
"1415",29.29744,79.742424,82.713264
"1416",29.310776,78.90013,81.86292
"1417",29.324112,77.99191,80.920334
"1418",29.337448,77.06416,79.92983
"1419",29.350784,76.16083,78.93475
"1420",29.36412,75.32098,77.97493
"1421",29.377441,74.564125,77.07186
"1422",29.390778,73.9025,76.240364
"1423",29.404114,73.32632,75.47364
"1424",29.41745,72.82582,74.764595
"1425",29.430786,72.393684,74.10827
"1426",29.444122,72.027466,73.50435
"1427",29.457458,71.727165,72.95491
"1428",29.470795,71.500114,72.46933
"1429",29.48413,71.346306,72.0499
"1430",29.497452,71.2633,71.69646
"1431",29.510788,71.22423,71.38437
"1432",29.524124,71.2047,71.09059
"1433",29.53746,71.185165,70.7962
"1434",29.550797,71.133896,70.46947
"1435",29.564133,71.0338,70.0923
"1436",29.577469,70.87999,69.658295
"1437",29.59079,70.68467,69.17798
"1438",29.604126,70.49668,68.69888
"1439",29.617462,70.47959,68.38481
"1440",29.630798,70.9337,68.541405
"1441",29.644135,72.2301,69.55449
"1442",29.65747,74.598305,71.679886
"1443",29.670807,77.996796,74.90958
"1444",29.684143,82.09354,78.94372
"1445",29.69748,86.327,83.24261
"1446",29.7108,90.06485,87.17817
"1447",29.724136,92.83345,90.2613
"1448",29.737473,94.452126,92.28102
"1449",29.750809,95.01366,93.29418
"1450",29.764145,94.767075,93.51678
"1451",29.777481,94.02243,93.233604
"1452",29.790817,93.07271,92.722084
"1453",29.804138,92.15961,92.21751
"1454",29.817474,91.41497,91.85286
"1455",29.83081,90.85832,91.65293
"1456",29.844147,90.406654,91.54059
"1457",29.857483,89.92325,91.38239
"1458",29.87082,89.271385,91.040634
"1459",29.884155,88.38026,90.43924
"1460",29.897491,87.276726,89.597595
"1461",29.910828,86.065765,88.61403
"1462",29.924149,84.893875,87.63169
"1463",29.937485,83.89288,86.78363
"1464",29.95082,83.12627,86.138664
"1465",29.964157,82.579384,85.689476
"1466",29.977493,82.1741,85.3648
"1467",29.99083,81.81033,85.06897
"1468",30.004166,81.40505,84.72026
"1469",30.017487,80.89235,84.251465
"1470",30.030823,80.25025,83.63725
"1471",30.044159,79.4934,82.88822
"1472",30.057495,78.65354,82.03253
"1473",30.070831,77.76486,81.101776
"1474",30.084167,76.86153,80.12859
"1475",30.097504,75.982605,79.151596
"1476",30.11084,75.15251,78.19596
"1477",30.124176,74.390785,77.28275
"1478",30.137497,73.71206,76.42874
"1479",30.150833,73.12367,75.64386
"1480",30.16417,72.62318,74.92848
"1481",30.177505,72.19348,74.268265
"1482",30.190842,71.82239,73.65321
"1483",30.204178,71.500114,73.07539
"1484",30.217514,71.22423,72.53389
"1485",30.230835,70.992294,72.02771
"1486",30.244171,70.81407,71.56799
"1487",30.257507,70.68711,71.15398
"1488",30.270844,70.61631,70.792145
"1489",30.28418,70.589455,70.472046
"1490",30.297516,70.589455,70.17796
"1491",30.310852,70.60166,69.89609
"1492",30.324188,70.59678,69.5975
"1493",30.337524,70.55039,69.25726
"1494",30.350845,70.44541,68.85698
"1495",30.364182,70.27207,68.385056
"1496",30.377518,70.03281,67.84179
"1497",30.390854,69.754486,67.25199
"1498",30.40419,69.53231,66.70964
"1499",30.417526,69.610435,66.46065
"1500",30.430862,70.36729,66.89282
"1501",30.444183,72.164185,68.388695
"1502",30.45752,75.13542,71.11507
"1503",30.470856,79.10033,74.927956
"1504",30.484192,83.57061,79.370125
"1505",30.497528,87.88464,83.79574
"1506",30.510864,91.41497,87.572464
"1507",30.5242,93.788055,90.30227
"1508",30.537537,94.96239,91.90748
"1509",30.550873,95.12352,92.53619
"1510",30.564194,94.57664,92.461914
"1511",30.57753,93.63668,91.97748
"1512",30.590866,92.59907,91.36601
"1513",30.604202,91.66155,90.82222
"1514",30.617538,90.9218,90.44689
"1515",30.630875,90.355385,90.22179
"1516",30.64421,89.864655,90.054665
"1517",30.657532,89.30312,89.80141
"1518",30.670868,88.568245,89.357254
"1519",30.684204,87.62585,88.68262
"1520",30.69754,86.5272,87.82228
"1521",30.710876,85.39437,86.893425
"1522",30.724213,84.36164,86.02927
"1523",30.737549,83.53155,85.33547
"1524",30.750885,82.92363,84.83791
"1525",30.764221,82.50614,84.51179
"1526",30.777542,82.19119,84.275154
"1527",30.790878,81.88602,84.03845
"1528",30.804214,81.512474,83.72385
"1529",30.81755,81.02174,83.28038
"1530",30.830887,80.40162,82.692184
"1531",30.844223,79.66186,81.96497
"1532",30.85756,78.836655,81.1292
"1533",30.87088,77.97238,80.22858
"1534",30.884216,77.10567,79.2985
"1535",30.897552,76.265816,78.3682
"1536",30.910889,75.48455,77.470245
"1537",30.924225,74.77165,76.61624
"1538",30.937561,74.13687,75.81808
"1539",30.950897,73.58022,75.07821
"1540",30.964233,73.10658,74.40395
"1541",30.97757,72.708626,73.79058
"1542",30.99089,72.38392,73.23802
"1543",31.004227,72.11536,72.73146
"1544",31.017563,71.90051,72.27022
"1545",31.0309,71.727165,71.843765
"1546",31.044235,71.58312,71.44119
"1547",31.057571,71.46349,71.05853
"1548",31.070908,71.37316,70.70143
"1549",31.084229,71.29992,70.3586
"1550",31.097565,71.23888,70.02568
"1551",31.1109,71.18761,69.70062
"1552",31.124237,71.131454,69.36908
"1553",31.137573,71.05821,69.01869
"1554",31.15091,70.95079,68.631836
"1555",31.164246,70.804306,68.20256
"1556",31.177582,70.606544,67.71744
"1557",31.190918,70.35752,67.174866
"1558",31.204239,70.07919,66.59521
"1559",31.217575,69.86191,66.067894
"1560",31.230911,69.942474,65.83164
"1561",31.244247,70.70664,66.28151
"1562",31.257584,72.52552,67.80997
"1563",31.27092,75.53582,70.586685
"1564",31.284256,79.554436,74.4658
"1565",31.297577,84.07599,78.97343
"1566",31.310913,88.41688,83.44169
"1567",31.32425,91.91791,87.20575
"1568",31.337585,94.19089,89.851166
"1569",31.350922,95.187,91.29074
"1570",31.364258,95.11131,91.68965
"1571",31.377594,94.26658,91.31715
"1572",31.39093,92.99214,90.48854
"1573",31.404266,91.58831,89.490715
"1574",31.417587,90.29191,88.55645
"1575",31.430923,89.215225,87.80139
"1576",31.44426,88.36561,87.239746
"1577",31.457596,87.6527,86.78827
"1578",31.470932,86.959335,86.334045
"1579",31.484268,86.202484,85.79467
"1580",31.497604,85.36996,85.15597
"1581",31.510925,84.52277,84.47659
"1582",31.524261,83.77081,83.86597
"1583",31.537598,83.20195,83.41494
"1584",31.550934,82.845505,83.158554
"1585",31.56427,82.66483,83.0668
"1586",31.577606,82.56962,83.05486
"1587",31.590942,82.46464,83.03018
"1588",31.604279,82.25712,82.89968
"1589",31.617615,81.900665,82.61376
"1590",31.630936,81.375755,82.14825
"1591",31.644272,80.68726,81.50275
"1592",31.657608,79.871826,80.708786
"1593",31.670944,78.97826,79.81121
"1594",31.68428,78.04562,78.84665
"1595",31.697617,77.120316,77.86027
"1596",31.710953,76.241394,76.89136
"1597",31.724274,75.44305,75.975555
"1598",31.73761,74.73502,75.12513
"1599",31.750946,74.12222,74.3478
"1600",31.764282,73.58755,73.62945
"1601",31.777618,73.12123,72.962746
"1602",31.790955,72.71107,72.33762
"1603",31.80429,72.35462,71.7534
"1604",31.817627,72.05188,71.21175
"1605",31.830963,71.81262,70.724106
"1606",31.844284,71.6466,70.30223
"1607",31.85762,71.54894,69.94353
"1608",31.870956,71.51232,69.64281
"1609",31.884293,71.52697,69.39221
"1610",31.897629,71.56115,69.161606
"1611",31.910965,71.5758,68.91254
"1612",31.924301,71.52209,68.595566
"1613",31.937622,71.36828,68.17682
"1614",31.950958,71.116806,67.65561
"1615",31.964294,70.8336,67.0948
"1616",31.97763,70.72373,66.69849
"1617",31.990967,71.16319,66.84806
"1618",32.004303,72.54505,67.953766
"1619",32.01764,75.08415,70.2599
"1620",32.030975,78.677956,73.70009
"1621",32.04431,82.9041,77.88492
"1622",32.057632,87.12291,82.19448
"1623",32.07097,90.67277,85.96693
"1624",32.084305,93.102005,88.72969
"1625",32.09764,94.28855,90.325676
"1626",32.110977,94.374,90.85764
"1627",32.124313,93.62936,90.56219
"1628",32.13765,92.37202,89.73077
"1629",32.15097,90.899826,88.6452
"1630",32.164307,89.45937,87.54537
"1631",32.177643,88.20447,86.586075
"1632",32.19098,87.17662,85.81462
"1633",32.204315,86.32456,85.18683
"1634",32.21765,85.54818,84.608086
"1635",32.230988,84.75716,83.99044
"1636",32.244324,83.929504,83.31145
"1637",32.25766,83.11406,82.6188
"1638",32.27098,82.39628,81.99833
"1639",32.284317,81.85916,81.536095
"1640",32.297653,81.54421,81.27924
"1641",32.31099,81.41482,81.198105
"1642",32.324326,81.3904,81.2179
"1643",32.33766,81.36599,81.23694
"1644",32.350998,81.25613,81.16976
"1645",32.36432,81.004654,80.95754
"1646",32.377655,80.5774,80.56168
"1647",32.39099,79.96948,79.97181
"1648",32.404327,79.21263,79.214005
"1649",32.417664,78.34348,78.32025
"1650",32.431,77.40841,77.33341
"1651",32.444336,76.46601,76.31003
"1652",32.457672,75.56512,75.2987
"1653",32.47101,74.74479,74.33978
"1654",32.48433,74.019684,73.450455
"1655",32.497665,73.38735,72.63124
"1656",32.511,72.82826,71.86551
"1657",32.524338,72.32777,71.1409
"1658",32.537674,71.87366,70.44704
"1659",32.55101,71.468376,69.78781
"1660",32.564346,71.131454,69.18428
"1661",32.577667,70.87755,68.65323
"1662",32.591003,70.728615,68.21922
"1663",32.60434,70.67246,67.87334
"1664",32.617676,70.694435,67.60382
"1665",32.631012,70.76524,67.38383
"1666",32.64435,70.84581,67.17581
"1667",32.657684,70.89708,66.94101
"1668",32.67102,70.90196,66.66142
"1669",32.684357,70.836044,66.31119
"1670",32.697678,70.694435,65.88321
"1671",32.711014,70.48203,65.380005
"1672",32.72435,70.26475,64.86528
"1673",32.737686,70.237885,64.53419
"1674",32.751022,70.78722,64.77845
"1675",32.76436,72.376595,66.079926
"1676",32.777695,75.29412,68.75922
"1677",32.791016,79.45922,72.77726
"1678",32.80435,84.40559,77.706726
"1679",32.817688,89.40566,82.844475
"1680",32.831024,93.68795,87.42069
"1681",32.84436,96.70069,90.86118
"1682",32.857697,98.285194,92.96758
"1683",32.871033,98.617226,93.871025
"1684",32.88437,98.01907,93.85466
"1685",32.897705,96.832535,93.23122
"1686",32.911026,95.37743,92.30213
"1687",32.924362,93.91501,91.32025
"1688",32.9377,92.630806,90.470894
"1689",32.951035,91.60052,89.83532
"1690",32.96437,90.794846,89.392166
"1691",32.977707,90.09659,89.03125
"1692",32.991043,89.37881,88.62899
"1693",33.004364,88.5536,88.09687
"1694",33.0177,87.59899,87.40956
"1695",33.031036,86.5687,86.616745
"1696",33.044373,85.575035,85.82835
"1697",33.05771,84.72297,85.1505
"1698",33.071045,84.05646,84.63158
"1699",33.08438,83.56817,84.27005
"1700",33.097717,83.20683,84.02022
"1701",33.111053,82.89433,83.80793
"1702",33.124374,82.55253,83.55657
"1703",33.13771,82.11307,83.19688
"1704",33.151047,81.54421,82.69405
"1705",33.164383,80.831314,82.02941
"1706",33.17772,79.991455,81.21553
"1707",33.191055,79.0515,80.27531
"1708",33.20439,78.05783,79.252
"1709",33.217712,77.049515,78.18299
"1710",33.23105,76.06317,77.10445
"1711",33.244385,75.13786,76.056114
"1712",33.25772,74.29313,75.05944
"1713",33.271057,73.54116,74.129135
"1714",33.284393,72.89174,73.27788
"1715",33.29773,72.342415,72.506424
"1716",33.311066,71.885864,71.81058
"1717",33.3244,71.50988,71.18103
"1718",33.337723,71.20714,70.612976
"1719",33.35106,70.96788,70.09894
"1720",33.364395,70.784775,69.633575
"1721",33.37773,70.65293,69.21376
"1722",33.391068,70.58213,68.85086
"1723",33.404404,70.56016,68.53458
"1724",33.41774,70.58457,68.26399
"1725",33.43106,70.64561,68.03079
"1726",33.444397,70.71397,67.80682
"1727",33.457733,70.748146,67.55081
"1728",33.47107,70.711525,67.22507
"1729",33.484406,70.57725,66.80052
"1730",33.49774,70.35752,66.28633
"1731",33.511078,70.152435,65.779915
"1732",33.524414,70.2501,65.56984
"1733",33.53775,71.116806,66.13186
"1734",33.55107,73.199356,67.93681
"1735",33.564407,76.65644,71.18138
"1736",33.577744,81.22682,75.64728
"1737",33.59108,86.30991,80.76871
"1738",33.604416,91.10979,85.76576
"1739",33.617752,94.906235,89.90939
"1740",33.63109,97.3135,92.78248
"1741",33.64441,98.336464,94.34649
"1742",33.657745,98.24368,94.82672
"1743",33.67108,97.36233,94.51548
"1744",33.684418,96.024414,93.72014
"1745",33.697754,94.51316,92.70965
"1746",33.71109,93.05562,91.70564
"1747",33.724426,91.80316,90.861176
"1748",33.737762,90.79973,90.22659
"1749",33.7511,89.99649,89.76085
"1750",33.76442,89.27383,89.35058
"1751",33.777756,88.514534,88.881096
"1752",33.791092,87.64538,88.278015
"1753",33.80443,86.6688,87.54036
"1754",33.817764,85.65316,86.733116
"1755",33.8311,84.70588,85.962494
"1756",33.844437,83.92462,85.32829
"1757",33.857758,83.346,84.872314
"1758",33.871094,82.9456,84.57648
"1759",33.88443,82.65995,84.38287
"1760",33.897766,82.406044,84.21209
"1761",33.911102,82.10086,83.98209
"1762",33.92444,81.685814,83.6327
"1763",33.937775,81.12428,83.12385
"1764",33.95111,80.41627,82.450966
"1765",33.964447,79.57885,81.62656
"1766",33.977768,78.65354,80.68809
"1767",33.991104,77.67696,79.66943
"1768",34.00444,76.70283,78.6227
"1769",34.017776,75.772644,77.589485
"1770",34.031113,74.91814,76.602875
"1771",34.04445,74.1564,75.682335
"1772",34.057785,73.48745,74.83077
"1773",34.071106,72.89662,74.03643
"1774",34.084442,72.379036,73.29687
"1775",34.09778,71.93713,72.616806
"1776",34.111115,71.57336,72.00107
"1777",34.12445,71.29992,71.464294
"1778",34.137787,71.114365,71.00687
"1779",34.151123,71.00694,70.621765
"1780",34.16446,70.95567,70.28946
"1781",34.177795,70.941025,69.99217
"1782",34.191116,70.94835,69.7164
"1783",34.204453,70.95567,69.44086
"1784",34.21779,70.94591,69.14845
"1785",34.231125,70.90196,68.82156
"1786",34.24446,70.804306,68.43959
"1787",34.257797,70.63828,67.986206
"1788",34.271133,70.44297,67.49834
"1789",34.284454,70.328224,67.08493
"1790",34.29779,70.57969,67.03415
"1791",34.311127,71.624626,67.7847
"1792",34.324463,73.829254,69.7276
"1793",34.3378,77.279015,72.98453
"1794",34.351135,81.688255,77.30874
"1795",34.36447,86.45884,82.13208
"1796",34.377808,90.85344,86.728516
"1797",34.391144,94.222626,90.436874
"1798",34.404465,96.24902,92.90773
"1799",34.4178,96.97414,94.140625
"1800",34.431137,96.65919,94.35612
"1801",34.444473,95.62646,93.84399
"1802",34.45781,94.19577,92.90163
"1803",34.471146,92.647896,91.79737
"1804",34.48448,91.20012,90.74484
"1805",34.497803,89.97208,89.866806
"1806",34.51114,88.98573,89.19209
"1807",34.524475,88.17273,88.6599
"1808",34.53781,87.42321,88.16577
"1809",34.551147,86.64927,87.62381
"1810",34.564484,85.83139,87.01372
"1811",34.57782,85.01106,86.37562
"1812",34.591156,84.27375,85.7949
"1813",34.604492,83.702446,85.35715
"1814",34.617813,83.33135,85.10175
"1815",34.63115,83.12871,85.00321
"1816",34.644485,83.021286,84.99356
"1817",34.65782,82.91875,84.985435
"1818",34.671158,82.74052,84.898415
"1819",34.684494,82.42069,84.66423
"1820",34.69783,81.92508,84.24426
"1821",34.71115,81.248795,83.628136
"1822",34.724487,80.42115,82.839516
"1823",34.737823,79.49096,81.922485
"1824",34.75116,78.519264,80.93488
"1825",34.764496,77.56222,79.931564
"1826",34.777832,76.66621,78.95937
"1827",34.79117,75.84833,78.037315
"1828",34.804504,75.123215,77.182465
"1829",34.81784,74.48112,76.38797
"1830",34.83116,73.90982,75.64421
"1831",34.844498,73.40688,74.95096
"1832",34.857834,72.97475,74.31279
"1833",34.87117,72.61341,73.73192
"1834",34.884506,72.33021,73.21788
"1835",34.897842,72.12268,72.770676
"1836",34.91118,71.97864,72.38046
"1837",34.9245,71.868774,72.01993
"1838",34.937836,71.763794,71.66084
"1839",34.95117,71.639275,71.278946
"1840",34.964508,71.49035,70.868744
"1841",34.977844,71.34875,70.46121
"1842",34.99118,71.3341,70.17621
"1843",35.004517,71.69787,70.269165
"1844",35.017853,72.77211,71.08397
"1845",35.03119,74.80827,72.894264
"1846",35.04451,77.81613,75.73988
"1847",35.057846,81.529564,79.38507
"1848",35.071182,85.44808,83.35139
"1849",35.08452,88.96864,87.0422
"1850",35.097855,91.6054,89.95923
"1851",35.11119,93.11665,91.83315
"1852",35.124527,93.54635,92.672745
"1853",35.137848,93.0898,92.63952
"1854",35.151184,92.02777,91.98655
"1855",35.16452,90.63615,90.970795
"1856",35.177856,89.181046,89.848076
"1857",35.191193,87.852905,88.80684
"1858",35.20453,86.746925,87.94626
"1859",35.217865,85.838715,87.248886
"1860",35.2312,85.050125,86.64275
"1861",35.244537,84.298164,86.04861
"1862",35.25786,83.53399,85.41875
"1863",35.271194,82.78203,84.77722
"1864",35.28453,82.11795,84.20008
"1865",35.297867,81.62966,83.77798
"1866",35.311203,81.36111,83.56035
"1867",35.32454,81.290306,83.53208
"1868",35.337875,81.32937,83.611465
"1869",35.351196,81.373314,83.69695
"1870",35.364532,81.324486,83.69104
"1871",35.37787,81.10475,83.512695
"1872",35.391205,80.67994,83.122406
"1873",35.40454,80.05005,82.51376
"1874",35.417877,79.25414,81.71942
"1875",35.431213,78.35081,80.79278
"1876",35.44455,77.401085,79.79152
"1877",35.457886,76.46113,78.77035
"1878",35.471207,75.579765,77.7784
"1879",35.484543,74.79118,76.851685
"1880",35.49788,74.107574,76.0053
"1881",35.511215,73.53384,75.24743
"1882",35.52455,73.057755,74.56928
"1883",35.537888,72.674446,73.96903
"1884",35.551224,72.36927,73.43494
"1885",35.564545,72.13977,72.96698
"1886",35.57788,71.98108,72.56265
"1887",35.591217,71.88098,72.21196
"1888",35.604553,71.83215,71.90941
"1889",35.61789,71.81262,71.63463
"1890",35.631226,71.79309,71.35924
"1891",35.64456,71.74914,71.05882
"1892",35.657898,71.656364,70.708206
"1893",35.671234,71.536736,70.327835
"1894",35.684555,71.49767,70.02429
"1895",35.69789,71.79553,70.05646
"1896",35.711227,72.798965,70.8035
"1897",35.724564,74.82048,72.59998
"1898",35.7379,77.93088,75.54852
"1899",35.751236,81.87869,79.43168
"1900",35.764572,86.15854,83.77023
"1901",35.777893,90.125885,87.93003
"1902",35.79123,93.22896,91.34954
"1903",35.804565,95.17235,93.70634
"1904",35.8179,95.98047,94.988594
"1905",35.831238,95.86572,95.37324
"1906",35.844574,95.133286,95.136604
"1907",35.85791,94.08835,94.56458
"1908",35.871246,92.9897,93.9062
"1909",35.884583,92.02289,93.345314
"1910",35.897903,91.266045,92.96419
"1911",35.91124,90.687416,92.737625
"1912",35.924576,90.16739,92.55158
"1913",35.937912,89.57168,92.273605
"1914",35.95125,88.80263,91.80367
"1915",35.964584,87.84558,91.121704
"1916",35.97792,86.76158,90.28288
"1917",35.99124,85.68246,89.415054
"1918",36.004578,84.72785,88.63802
"1919",36.017914,83.97833,88.03625
"1920",36.03125,83.43145,87.613686
"1921",36.044586,83.035934,87.3254
"1922",36.057922,82.703896,87.088234
"1923",36.07126,82.34989,86.818726
"1924",36.084595,81.90555,86.447815
"1925",36.09793,81.33669,85.93851
"1926",36.11125,80.63355,85.27714
"1927",36.124588,79.818115,84.4815
"1928",36.137924,78.924545,83.582245
"1929",36.15126,77.996796,82.62089
"1930",36.164597,77.07149,81.63298
"1931",36.177933,76.190125,80.6601
"1932",36.19127,75.37469,79.72561
"1933",36.20459,74.64225,78.84863
"1934",36.217926,74.005035,78.04399
"1935",36.231262,73.463036,77.31465
"1936",36.2446,73.01381,76.66115
"1937",36.257935,72.64515,76.07417
"1938",36.27127,72.35218,75.55136
"1939",36.284607,72.11536,75.07555
"1940",36.297943,71.92493,74.63872
"1941",36.31128,71.763794,74.225235
"1942",36.3246,71.624626,73.82869
"1943",36.337936,71.483025,73.425354
"1944",36.351273,71.329216,73.00539
"1945",36.36461,71.15343,72.55864
"1946",36.377945,70.97032,72.099075
"1947",36.39128,70.86778,71.714355
"1948",36.404617,71.06798,71.629166
"1949",36.41794,71.89807,72.18013
"1950",36.431274,73.651024,73.6799
"1951",36.44461,76.40986,76.24033
"1952",36.457947,79.98901,79.7073
"1953",36.471283,83.949036,83.66698
"1954",36.48462,87.711296,87.55264
"1955",36.497955,90.74357,90.8259
"1956",36.51129,92.75044,93.16851
"1957",36.524628,93.714806,94.53133
"1958",36.53795,93.81003,95.05514
"1959",36.551285,93.30709,94.983765
"1960",36.56462,92.49653,94.58905
"1961",36.577957,91.62249,94.10553
"1962",36.591293,90.85588,93.702126
"1963",36.60463,90.25773,93.44322
"1964",36.617966,89.78409,93.29014
"1965",36.631287,89.31045,93.12225
"1966",36.644623,88.707405,92.810165
"1967",36.65796,87.8822,92.257065
"1968",36.671295,86.82262,91.4438
"1969",36.68463,85.6141,90.44849
"1970",36.697968,84.39582,89.40565
"1971",36.711304,83.31426,88.46146
"1972",36.72464,82.45731,87.70808
"1973",36.737976,81.83475,87.1623
"1974",36.751297,81.3782,86.763084
"1975",36.764633,80.99489,86.422844
"1976",36.77797,80.587166,86.04621
"1977",36.791306,80.08179,85.55918
"1978",36.80464,79.449455,84.929405
"1979",36.817978,78.69993,84.162674
"1980",36.831314,77.86252,83.28464
"1981",36.844635,76.97383,82.329155
"1982",36.85797,76.0827,81.34346
"1983",36.871307,75.22575,80.3641
"1984",36.884644,74.42985,79.419
"1985",36.89798,73.71694,78.53203
"1986",36.911316,73.09926,77.718
"1987",36.924652,72.567024,76.97012
"1988",36.93799,72.112915,76.28374
"1989",36.951324,71.73449,75.658844
"1990",36.964645,71.42687,75.092926
"1991",36.97798,71.19249,74.59064
"1992",36.991318,71.028915,74.151825
"1993",37.004654,70.93614,73.7787
"1994",37.01799,70.89708,73.45639
"1995",37.031326,70.89952,73.17436
"1996",37.044662,70.92149,72.91194
"1997",37.057983,70.94591,72.65265
"1998",37.07132,70.94835,72.37215
"1999",37.084656,70.91173,72.05266
"2000",37.097992,70.821396,71.678314
"2001",37.11133,70.674904,71.244995
"2002",37.124664,70.51377,70.79245
"2003",37.138,70.49424,70.47647
"2004",37.151337,70.89464,70.57981
"2005",37.164673,72.06653,71.46716
"2006",37.177994,74.23941,73.39212
"2007",37.19133,77.40597,76.37866
"2008",37.204666,81.27566,80.16729
"2009",37.218002,85.32845,84.25995
"2010",37.23134,88.95888,88.056885
"2011",37.244675,91.69329,91.07126
"2012",37.25801,93.33395,93.07733
"2013",37.27133,93.93454,94.09461
"2014",37.284668,93.72213,94.31766
"2015",37.298004,92.99458,94.01893
"2016",37.31134,92.052185,93.48261
"2017",37.324677,91.12932,92.93638
"2018",37.338013,90.37003,92.52489
"2019",37.35135,89.78653,92.26545
"2020",37.364685,89.29336,92.07811
"2021",37.37802,88.74891,91.82408
"2022",37.391342,88.03601,91.38458
"2023",37.40468,87.10582,90.70552
"2024",37.418015,86.012054,89.83381
"2025",37.43135,84.876785,88.88641
"2026",37.444687,83.85382,88.01585
"2027",37.458023,83.0457,87.328156
"2028",37.47136,82.48661,86.86424
"2029",37.48468,82.125275,86.58061
"2030",37.498016,81.85916,86.38091
"2031",37.511353,81.5906,86.17045
"2032",37.52469,81.22682,85.85638
"2033",37.538025,80.73121,85.3991
"2034",37.55136,80.08423,84.77497
"2035",37.564697,79.31518,84.00855
"2036",37.578033,78.46067,83.132645
"2037",37.59137,77.56466,82.18853
"2038",37.60469,76.67109,81.21886
"2039",37.618027,75.826355,80.270096
"2040",37.631363,75.06706,79.38038
"2041",37.6447,74.40299,78.56216
"2042",37.658035,73.83902,77.82328
"2043",37.67137,73.36782,77.15955
"2044",37.684708,72.97963,76.56411
"2045",37.69803,72.66224,76.027336
"2046",37.711365,72.40833,75.54413
"2047",37.7247,72.22034,75.1189
"2048",37.738037,72.0885,74.74394
"2049",37.751373,71.99817,74.40637
"2050",37.76471,71.93469,74.092834
"2051",37.778046,71.88098,73.78708
"2052",37.79138,71.8053,73.45767
"2053",37.804718,71.69543,73.09172
"2054",37.81804,71.536736,72.67351
"2055",37.831375,71.329216,72.20151
"2056",37.84471,71.08507,71.6864
"2057",37.858047,70.84093,71.163666
"2058",37.871384,70.69199,70.728516
"2059",37.88472,70.85802,70.60366
"2060",37.898056,71.63195,71.0919
"2061",37.911377,73.289696,72.488144
"2062",37.924713,75.914246,74.903
"2063",37.93805,79.32983,78.1909
"2064",37.951385,83.1165,81.956635
"2065",37.96472,86.70786,85.645386
"2066",37.978058,89.57412,88.72126
"2067",37.991394,91.40276,90.8491
"2068",38.00473,92.154724,91.9574
"2069",38.018066,91.99603,92.17854
"2070",38.031387,91.205,91.76239
"2071",38.044724,90.10391,91.01146
"2072",38.05806,88.9662,90.1895
"2073",38.071396,87.9823,89.485794
"2074",38.084732,87.201035,88.95398
"2075",38.09807,86.56138,88.53935
"2076",38.111404,85.93149,88.1145
"2077",38.124725,85.20882,87.57719
"2078",38.13806,84.35432,86.88546
"2079",38.151398,83.4168,86.084015
"2080",38.164734,82.51591,85.289894
"2081",38.17807,81.78348,84.636086
"2082",38.191406,81.290306,84.19865
"2083",38.204742,81.03395,83.98261
"2084",38.21808,80.92653,83.9075
"2085",38.231415,80.86305,83.87298
"2086",38.244736,80.726326,83.76322
"2087",38.25807,80.42603,83.48563
"2088",38.271408,79.92798,83.000885
"2089",38.284744,79.24681,82.31747
"2090",38.29808,78.43137,81.47849
"2091",38.311417,77.54269,80.54079
"2092",38.324753,76.646675,79.567986
"2093",38.338074,75.792175,78.608696
"2094",38.35141,75.01579,77.70082
"2095",38.364746,74.33463,76.86391
"2096",38.378082,73.75113,76.10336
"2097",38.39142,73.253075,75.410034
"2098",38.404755,72.82338,74.7695
"2099",38.41809,72.45228,74.17413
"2100",38.431427,72.13245,73.61844
"2101",38.444763,71.87366,73.113785
"2102",38.458084,71.68078,72.66696
"2103",38.47142,71.56359,72.289795
"2104",38.484756,71.51232,71.974884
"2105",38.498093,71.517204,71.71452
"2106",38.51143,71.54162,71.47385
"2107",38.524765,71.56115,71.22905
"2108",38.5381,71.54162,70.9458
"2109",38.551422,71.468376,70.60823
"2110",38.56476,71.3341,70.20734
"2111",38.578094,71.17296,69.77539
"2112",38.59143,71.07042,69.397
"2113",38.604767,71.24132,69.28885
"2114",38.618103,72.01526,69.78908
"2115",38.63144,73.69741,71.22171
"2116",38.644775,76.40742,73.734764
"2117",38.65811,79.99634,77.21142
"2118",38.671432,84.0589,81.273865
"2119",38.68477,88.009155,85.35096
"2120",38.698105,91.283134,88.87523
"2121",38.71144,93.524376,91.46907
"2122",38.738113,94.87694,93.70277
"2123",38.75145,94.417946,93.70868
"2124",38.76477,93.6025,93.343796
"2125",38.778107,92.70405,92.87042
"2126",38.791443,91.90326,92.46664
"2127",38.80478,91.26116,92.19652
"2128",38.818115,90.7338,92.02107
"2129",38.83145,90.196686,91.81939
"2130",38.844788,89.51797,91.45932
"2131",38.858124,88.62684,90.86563
"2132",38.87146,87.535515,90.0439
"2133",38.88478,86.33921,89.083084
"2134",38.898117,85.18196,88.12393
"2135",38.911453,84.19562,87.29952
"2136",38.92479,83.44854,86.683556
"2137",38.93811,82.92851,86.27129
"2138",38.951447,82.562294,85.99659
"2139",38.964783,82.247345,85.76171
"2140",38.97812,81.8909,85.475494
"2141",38.991455,81.42214,85.06583
"2142",39.00479,80.80446,84.492584
"2143",39.018127,80.0354,83.748665
"2144",39.031464,79.15404,82.86841
"2145",39.0448,78.204315,81.89225
"2146",39.058136,77.239944,80.871765
"2147",39.071472,76.30732,79.85289
"2148",39.08481,75.44305,78.87322
"2149",39.098145,74.66422,77.951996
"2150",39.11148,73.96353,77.084564
"2151",39.124817,73.338524,76.27092
"2152",39.138123,72.78432,75.508545
"2153",39.15146,72.30091,74.79965
"2154",39.164795,71.88098,74.13913
"2155",39.17813,71.536736,73.54117
"2156",39.191467,71.27795,73.0179
"2157",39.204803,71.10216,72.56955
"2158",39.21814,71.0045,72.19383
"2159",39.231476,70.97032,71.87854
"2160",39.244812,70.977646,71.60368
"2161",39.25815,70.98497,71.329056
"2162",39.271484,70.96544,71.0278
"2163",39.28482,70.87999,70.66002
"2164",39.298157,70.72129,70.216324
"2165",39.311493,70.49424,69.69931
"2166",39.32483,70.22568,69.13369
"2167",39.338165,70.01083,68.613396
"2168",39.3515,70.05966,68.35006
"2169",39.364807,70.728615,68.708374
"2170",39.378143,72.359505,70.04953
"2171",39.39148,75.13054,72.5818
"2172",39.404816,78.9099,76.20899
"2173",39.41815,83.282524,80.547554
"2174",39.431488,87.620964,84.98857
"2175",39.444824,91.29534,88.90111
"2176",39.45816,93.87839,91.837135
"2177",39.471497,95.27001,93.66246
"2178",39.484833,95.61425,94.48389
"2179",39.49817,95.19676,94.554344
"2180",39.511505,94.34226,94.17474
"2181",39.52484,93.348595,93.62927
"2182",39.538177,92.43549,93.133316
"2183",39.551514,91.70794,92.79437
"2184",39.56482,91.15129,92.6036
"2185",39.578156,90.65568,92.45647
"2186",39.59149,90.057526,92.19131
"2187",39.604828,89.23476,91.68284
"2188",39.618164,88.14099,90.877655
"2189",39.6315,86.82994,89.821014
"2190",39.644836,85.44808,88.65259
"2191",39.658173,84.16388,87.538635
"2192",39.67151,83.11406,86.618935
"2193",39.684845,82.340126,85.942314
"2194",39.69818,81.80545,85.48077
"2195",39.711517,81.40749,85.13923
"2196",39.724854,81.03151,84.80723
"2197",39.73819,80.5774,84.38535
"2198",39.751526,79.99634,83.822334
"2199",39.764862,79.273674,83.099556
"2200",39.7782,78.433815,82.237
"2201",39.791504,77.523155,81.2774
"2202",39.80484,76.592964,80.269806
"2203",39.818176,75.68719,79.25756
"2204",39.831512,74.83757,78.27317
"2205",39.84485,74.06607,77.34035
"2206",39.858185,73.38247,76.47131
"2207",39.87152,72.78432,75.66637
"2208",39.884857,72.26429,74.92085
"2209",39.898193,71.817505,74.23233
"2210",39.91153,71.43908,73.598206
"2211",39.924866,71.116806,73.00841
"2212",39.9382,70.86046,72.47446
"2213",39.951538,70.674904,72.003296
"2214",39.964874,70.5626,71.59958
"2215",39.97821,70.52354,71.265594
"2216",39.991516,70.54307,70.98898
"2217",40.004852,70.591896,70.74228
"2218",40.01819,70.6334,70.48978
"2219",40.031525,70.6334,70.19707
"2220",40.04486,70.56748,69.83844
"2221",40.058197,70.42588,69.40207
"2222",40.071533,70.21347,68.890465
"2223",40.08487,69.94736,68.31852
"2224",40.098206,69.68124,67.73825
"2225",40.11154,69.5494,67.28395
"2226",40.124878,69.837494,67.24546
"2227",40.138214,70.93126,68.021645
"2228",40.15155,73.12123,69.92822
"2229",40.164886,76.44404,73.03607
"2230",40.178223,80.62379,77.1047
"2231",40.19156,85.11116,81.611565
"2232",40.204895,89.22011,85.88023
"2233",40.2182,92.37934,89.32759
"2234",40.231537,94.30808,91.64319
"2235",40.244873,95.03563,92.81786
"2236",40.25821,94.81102,93.06312
"2237",40.271545,93.96628,92.68122
"2238",40.28488,92.840775,91.992165
"2239",40.298218,91.71282,91.26549
"2240",40.311554,90.760666,90.67936
"2241",40.32489,90.037994,90.29296
"2242",40.338226,89.46914,90.037796
"2243",40.351562,88.92226,89.78683
"2244",40.3649,88.24597,89.38936
"2245",40.378235,87.34997,88.75104
"2246",40.39157,86.24399,87.87474
"2247",40.404907,85.033035,86.85891
"2248",40.418213,83.86847,85.85162
"2249",40.43155,82.88457,84.98861
"2250",40.444885,82.161896,84.35608
"2251",40.45822,81.685814,83.947556
"2252",40.471558,81.37087,83.685295
"2253",40.484894,81.112076,83.46934
"2254",40.49823,80.814224,83.20624
"2255",40.511566,80.39918,82.816635
"2256",40.524902,79.83276,82.262695
"2257",40.53824,79.1223,81.547005
"2258",40.551575,78.2971,80.694374
"2259",40.56491,77.40353,79.74759
"2260",40.578247,76.48554,78.74847
"2261",40.591583,75.58953,77.74263
"2262",40.60492,74.74967,76.764946
"2263",40.618256,73.99283,75.84403
"2264",40.63159,73.33364,74.99712
"2265",40.644897,72.77455,74.22971
"2266",40.658234,72.31068,73.54005
"2267",40.67157,71.93469,72.92377
"2268",40.684906,71.62951,72.36655
"2269",40.698242,71.39025,71.86571
"2270",40.71158,71.20714,71.41354
"2271",40.724915,71.0753,71.00693
"2272",40.73825,70.98741,70.64014
"2273",40.751587,70.93614,70.30722
"2274",40.764923,70.90929,69.997116
"2275",40.77826,70.90196,69.7057
"2276",40.791595,70.89708,69.416504
"2277",40.80493,70.872665,69.10762
"2278",40.818268,70.804306,68.75403
"2279",40.831604,70.67246,68.33482
"2280",40.84491,70.47227,67.84314
"2281",40.858246,70.203705,67.27683
"2282",40.871582,69.90341,66.6704
"2283",40.88492,69.698326,66.149796
"2284",40.898254,69.85947,65.989006
"2285",40.91159,70.78722,66.59986
"2286",40.924927,72.82338,68.34813
"2287",40.938263,76.05829,71.35877
"2288",40.9516,80.23804,75.415344
"2289",40.964935,84.823074,80.00782
"2290",40.97827,89.10292,84.438385
"2291",40.991608,92.457466,88.07739
"2292",41.004944,94.54734,90.556564
"2293",41.01828,95.379875,91.843704
"2294",41.031616,95.16991,92.11436
"2295",41.044952,94.2446,91.66311
"2296",41.05829,92.94087,90.80453
"2297",41.071594,91.55901,89.82707
"2298",41.08493,90.31388,88.94316
"2299",41.098267,89.30312,88.254715
"2300",41.111603,88.499886,87.7422
"2301",41.12494,87.78943,87.29736
"2302",41.138275,87.04234,86.7937
"2303",41.15161,86.17319,86.144615
"2304",41.164948,85.19417,85.358505
"2305",41.178284,84.190735,84.51739
"2306",41.19162,83.299614,83.757225
"2307",41.204956,82.63554,83.19626
"2308",41.218292,82.24002,82.8831
"2309",41.23163,82.06912,82.7822
"2310",41.244965,82.020294,82.798035
"2311",41.2583,81.969025,82.8099
"2312",41.271606,81.80789,82.7103
"2313",41.284943,81.461205,82.420105
"2314",41.29828,80.90944,81.914
"2315",41.311615,80.17212,81.2051
"2316",41.32495,79.290764,80.329124
"2317",41.338287,78.33372,79.349915
"2318",41.351624,77.366905,78.33103
"2319",41.36496,76.436714,77.31856
"2320",41.378296,75.58465,76.35514
"2321",41.391632,74.827805,75.46032
"2322",41.40497,74.17349,74.64438
"2323",41.418304,73.619286,73.9081
"2324",41.43164,73.162735,73.25215
"2325",41.444977,72.79408,72.66984
"2326",41.458313,72.50843,72.159004
"2327",41.47165,72.29847,71.714935
"2328",41.484985,72.13977,71.31557
"2329",41.49829,72.01526,70.94542
"2330",41.511627,71.89807,70.578705
"2331",41.524963,71.76868,70.19612
"2332",41.5383,71.60754,69.777756
"2333",41.551636,71.414665,69.32262
"2334",41.564972,71.19249,68.83215
"2335",41.57831,70.975204,68.33963
"2336",41.591644,70.853134,67.93553
"2337",41.60498,71.026474,67.82303
"2338",41.618317,71.81995,68.336075
"2339",41.631653,73.51919,69.77969
"2340",41.64499,76.22919,72.28717
"2341",41.658325,79.76196,75.70211
"2342",41.67166,83.67803,79.61074
"2343",41.684998,87.38659,83.434235
"2344",41.698303,90.32853,86.60701
"2345",41.71164,92.16937,88.77062
"2346",41.724976,92.85542,89.83697
"2347",41.73831,92.5478,89.931076
"2348",41.751648,91.51263,89.288025
"2349",41.764984,90.057526,88.192696
"2350",41.77832,88.47303,86.9225
"2351",41.791656,86.98131,85.69556
"2352",41.804993,85.694664,84.627075
"2353",41.81833,84.60822,83.71859
"2354",41.831665,83.64385,82.898224
"2355",41.845,82.720985,82.089226
"2356",41.858337,81.81766,81.27093
"2357",41.871674,80.970474,80.480545
"2358",41.88501,80.289314,79.82971
"2359",41.898346,79.869385,79.41882
"2360",41.911682,79.7522,79.297554
"2361",41.924988,79.88159,79.419205
"2362",41.938324,80.14282,79.676735
"2363",41.95166,80.38697,79.92535
"2364",41.964996,80.48951,80.03998
"2365",41.978333,80.36256,79.92832
"2366",41.99167,79.974365,79.55146
"2367",42.005005,79.34936,78.92565
"2368",42.01834,78.54124,78.0972
"2369",42.031677,77.608604,77.11898
"2370",42.045013,76.6247,76.06035
"2371",42.05835,75.64324,74.97341
"2372",42.071686,74.71305,73.907074
"2373",42.085022,73.86099,72.8898
"2374",42.09836,73.11635,71.953316
"2375",42.111694,72.4889,71.110756
"2376",42.125,71.98352,70.37065
"2377",42.138336,71.59045,69.727066
"2378",42.151672,71.29015,69.16397
"2379",42.16501,71.063095,68.664734
"2380",42.178345,70.889755,68.21211
"2381",42.19168,70.75304,67.790695
"2382",42.205017,70.6334,67.382095
"2383",42.218353,70.51621,66.9722
"2384",42.23169,70.38926,66.548874
"2385",42.245026,70.25254,66.11182
"2386",42.25836,70.14267,65.697334
"2387",42.271698,70.19394,65.44056
"2388",42.285034,70.69932,65.639496
"2389",42.29837,72.06409,66.713615
"2390",42.311707,74.59586,68.99739
"2391",42.325043,78.2971,72.52975
"2392",42.33838,82.83818,77.01762
"2393",42.351685,87.6112,81.879326
"2394",42.36502,91.90814,86.41412
"2395",42.378357,95.13817,90.01628
"2396",42.391693,97.04494,92.39612
"2397",42.40503,97.69436,93.57819
"2398",42.418365,97.33547,93.772255
"2399",42.4317,96.28809,93.26661
"2400",42.445038,94.87694,92.364456
"2401",42.458374,93.37789,91.330315
"2402",42.47171,92.00336,90.37384
"2403",42.485046,90.85344,89.59903
"2404",42.498352,89.918365,89.00313
"2405",42.51169,89.10536,88.50008
"2406",42.525024,88.28504,87.964294
"2407",42.53836,87.37194,87.310104
"2408",42.551697,86.34409,86.512634
"2409",42.565033,85.26009,85.626884
"2410",42.57837,84.23224,84.763405
"2411",42.591705,83.370415,84.03384
"2412",42.60504,82.735634,83.50438
"2413",42.618347,82.32304,83.17727
"2414",42.631683,82.05936,82.98618
"2415",42.64502,81.846954,82.838135
"2416",42.658356,81.58083,82.62973
"2417",42.67169,81.18776,82.28606
"2418",42.685028,80.621346,81.75676
"2419",42.698364,79.87671,81.03154
"2420",42.71167,78.97826,80.129234
"2421",42.725006,77.97482,79.09387
"2422",42.738342,76.912796,77.96856
"2423",42.75168,75.841,76.80029
"2424",42.765015,74.79607,75.62539
"2425",42.77835,73.81705,74.48375
"2426",42.791687,72.921036,73.39452
"2427",42.805023,72.12268,72.374954
"2428",42.81836,71.431755,71.43787
"2429",42.831665,70.855576,70.59393
"2430",42.845,70.399025,69.85162
"2431",42.858337,70.064545,69.21711
"2432",42.871674,69.84726,68.68934
"2433",42.88501,69.732506,68.25731
"2434",42.898346,69.69344,67.897385
"2435",42.911682,69.68856,67.57042
"2436",42.924988,69.67391,67.233536
"2437",42.938324,69.607994,66.844925
"2438",42.95166,69.47372,66.385895
"2439",42.964996,69.297935,65.881165
"2440",42.978333,69.207596,65.45638
"2441",42.99167,69.51522,65.42674
"2442",43.005005,70.67979,66.26366
"2443",43.01834,73.09682,68.38943
"2444",43.031677,76.83467,71.91156
"2445",43.044983,81.58572,76.56369
"2446",43.05832,86.70786,81.73539
"2447",43.071655,91.42962,86.66676
"2448",43.08499,95.07469,90.669014
"2449",43.098328,97.31106,93.376465
"2450",43.111664,98.18997,94.79635
"2451",43.125,97.98245,95.157265
"2452",43.138306,97.03517,94.771935
"2453",43.15164,95.68261,93.95172
"2454",43.164978,94.22751,92.9867
"2455",43.178314,92.894485,92.09829
"2456",43.19165,91.80072,91.40748
"2457",43.204987,90.94377,90.919304
"2458",43.218323,90.230865,90.54839
"2459",43.23166,89.5082,90.14545
"2460",43.244995,88.64637,89.58075
"2461",43.2583,87.58434,88.788925
"2462",43.271637,86.3563,87.7979
"2463",43.284973,85.06477,86.705
"2464",43.29831,83.8587,85.6572
"2465",43.311646,82.86015,84.779236
"2466",43.32498,82.11307,84.12153
"2467",43.338318,81.59304,83.667534
"2468",43.351624,81.22194,83.346214
"2469",43.36496,80.89479,83.05725
"2470",43.378296,80.516365,82.70679
"2471",43.391632,80.02319,82.22975
"2472",43.40497,79.378654,81.58594
"2473",43.418304,78.590065,80.77793
"2474",43.43164,77.68429,79.828094
"2475",43.444977,76.69306,78.7645
"2476",43.458313,75.66277,77.630875
"2477",43.47162,74.634926,76.46749
"2478",43.484955,73.653465,75.318375
"2479",43.49829,72.742805,74.20939
"2480",43.511627,71.92737,73.16716
"2481",43.524963,71.2169,72.20442
"2482",43.5383,70.61631,71.32936
"2483",43.551636,70.12314,70.542946
"2484",43.56494,69.73495,69.8461
"2485",43.578278,69.44686,69.23723
"2486",43.591614,69.25155,68.71213
"2487",43.60495,69.136795,68.26148
"2488",43.618286,69.09285,67.87806
"2489",43.631622,69.100174,67.54453
"2490",43.64496,69.13191,67.23565
"2491",43.658295,69.149,66.91311
"2492",43.67163,69.10994,66.53495
"2493",43.684937,68.99275,66.077446
"2494",43.698273,68.80965,65.55036
"2495",43.71161,68.66804,65.05905
"2496",43.724945,68.86824,64.90513
"2497",43.73828,69.88876,65.57778
"2498",43.751617,72.16907,67.54211
"2499",43.764954,75.84589,70.97421
"2500",43.77826,80.64576,75.64427
"2501",43.791595,85.94614,80.96483
"2502",43.80493,90.92912,86.13363
"2503",43.818268,94.85741,90.40345
"2504",43.831604,97.33059,93.34093
"2505",43.84494,98.36332,94.91524
"2506",43.858276,98.231476,95.35725
"2507",43.871613,97.29641,94.99191
"2508",43.88495,95.90967,94.14568
"2509",43.898254,94.38621,93.1194
"2510",43.91159,92.95552,92.13828
"2511",43.924927,91.756775,91.3444
"2512",43.938263,90.792404,90.74743
"2513",43.9516,89.98428,90.27657
"2514",43.964935,89.20058,89.80488
"2515",43.97827,88.324104,89.21593
"2516",43.991577,87.2987,88.45065
"2517",44.004913,86.151215,87.53125
"2518",44.01825,84.98909,86.56135
"2519",44.031586,83.93683,85.66499
"2520",44.04492,83.089645,84.940834
"2521",44.058258,82.48173,84.42947
"2522",44.071594,82.07156,84.096855
"2523",44.08493,81.77615,83.86618
"2524",44.098267,81.48562,83.63115
"2525",44.111572,81.11452,83.30647
"2526",44.12491,80.604256,82.83104
"2527",44.138245,79.93286,82.17853
"2528",44.15158,79.11253,81.3561
"2529",44.164917,78.18234,80.39818
"2530",44.178253,77.19112,79.35015
"2531",44.19159,76.17792,78.249176
"2532",44.204895,75.17937,77.13119
"2533",44.21823,74.23453,76.035706
"2534",44.231567,73.37026,74.99127
"2535",44.244904,72.601204,74.01504
"2536",44.25824,71.93469,73.11731
"2537",44.271576,71.378044,72.308624
"2538",44.284912,70.92638,71.587524
"2539",44.29825,70.56016,70.93776
"2540",44.311584,70.26475,70.34735
"2541",44.32489,70.0206,69.79897
"2542",44.338226,69.81796,69.28448
"2543",44.351562,69.6495,68.79782
"2544",44.3649,69.51766,68.34253
"2545",44.378235,69.42245,67.91974
"2546",44.39157,69.37606,67.5428
"2547",44.404907,69.37362,67.20836
"2548",44.418213,69.385826,66.88849
"2549",44.43155,69.3785,66.54947
"2550",44.444885,69.31747,66.15651
"2551",44.45822,69.18562,65.690834
"2552",44.471558,69.02205,65.18931
"2553",44.484894,69.02693,64.85113
"2554",44.49823,69.61288,65.09416
"2555",44.511566,71.29504,66.45172
"2556",44.524902,74.38346,69.26811
"2557",44.538208,78.785385,73.49452
"2558",44.551544,84.00519,78.67637
"2559",44.56488,89.2665,84.06284
"2560",44.578217,93.73434,88.82026
"2561",44.591553,96.83498,92.3501
"2562",44.60489,98.424355,94.46557
"2563",44.618225,98.69779,95.314766
"2564",44.63153,98.00687,95.208145
"2565",44.644867,96.7129,94.47689
"2566",44.658203,95.15282,93.43909
"2567",44.67154,93.59762,92.357414
"2568",44.684875,92.23529,91.42001
"2569",44.69821,91.124435,90.69151
"2570",44.711548,90.21622,90.130936
"2571",44.724884,89.40566,89.63964
"2572",44.73822,88.568245,89.09615
"2573",44.751526,87.640495,88.43616
"2574",44.764862,86.641945,87.67638
"2575",44.7782,85.66537,86.90736
"2576",44.791534,84.82063,86.23966
"2577",44.80487,84.190735,85.76041
"2578",44.818207,83.79523,85.49586
"2579",44.831543,83.57305,85.39228
"2580",44.84485,83.421684,85.35257
"2581",44.858185,83.226364,85.264175
"2582",44.87152,82.9041,85.04273
"2583",44.884857,82.41093,84.64031
"2584",44.898193,81.73464,84.03937
"2585",44.91153,80.89235,83.25128
"2586",44.924866,79.920654,82.30747
"2587",44.9382,78.86351,81.24785
"2588",44.951538,77.77463,80.12345
"2589",44.964844,76.71015,78.98943
"2590",44.97818,75.716484,77.89296
"2591",44.991516,74.827805,76.87042
"2592",45.004852,74.056305,75.937294
"2593",45.01819,73.402,75.09725
"2594",45.031525,72.850235,74.3393
"2595",45.04486,72.396126,73.661766
"2596",45.058167,72.02258,73.0506
"2597",45.071503,71.727165,72.50589
"2598",45.08484,71.500114,72.02031
"2599",45.098175,71.33654,71.59111
"2600",45.11151,71.22911,71.21295
"2601",45.124847,71.165634,70.87538
"2602",45.138184,71.13634,70.57001
"2603",45.15152,71.12169,70.278366
"2604",45.164856,71.08995,69.96918
"2605",45.17816,71.01427,69.61505
"2606",45.191498,70.87999,69.19997
"2607",45.204834,70.68223,68.71721
"2608",45.21817,70.44541,68.18921
"2609",45.231506,70.296486,67.7417
"2610",45.244843,70.52598,67.66795
"2611",45.25818,71.55871,68.40462
"2612",45.271484,73.741356,70.32347
"2613",45.28482,77.137405,73.52394
"2614",45.298157,81.444115,77.741196
"2615",45.311493,86.056,82.39821
"2616",45.32483,90.24063,86.77209
"2617",45.338165,93.37301,90.22449
"2618",45.3515,95.1577,92.427086
"2619",45.364838,95.65087,93.393936
"2620",45.378174,95.113754,93.34591
"2621",45.39148,93.88327,92.58773
"2622",45.404816,92.28657,91.42488
"2623",45.41815,90.61173,90.134
"2624",45.431488,89.05653,88.91042
"2625",45.444824,87.71374,87.85065
"2626",45.45816,86.5687,86.94667
"2627",45.471497,85.540855,86.12409
"2628",45.484802,84.56184,85.31822
"2629",45.49814,83.617,84.51594
"2630",45.511475,82.757614,83.769585
"2631",45.52481,82.06912,83.16727
"2632",45.538147,81.64675,82.809555
"2633",45.551483,81.50515,82.71941
"2634",45.56482,81.583275,82.844574
"2635",45.578156,81.75662,83.0674
"2636",45.59149,81.89334,83.25901
"2637",45.604797,81.86893,83.29376
"2638",45.618134,81.61501,83.09825
"2639",45.63147,81.11696,82.650665
"2640",45.644806,80.39918,81.96779
"2641",45.658142,79.51049,81.091576
"2642",45.67148,78.51682,80.08261
"2643",45.684814,77.48165,79.00109
"2644",45.69812,76.453804,77.89455
"2645",45.711456,75.47967,76.80959
"2646",45.724792,74.59342,75.78209
"2647",45.73813,73.812164,74.83188
"2648",45.751465,73.14076,73.96711
"2649",45.7648,72.584114,73.19611
"2650",45.778137,72.13245,72.512695
"2651",45.791473,71.78577,71.92015
"2652",45.80481,71.52697,71.40466
"2653",45.818115,71.33654,70.94945
"2654",45.83145,71.182724,70.5249
"2655",45.844788,71.04112,70.10776
"2656",45.858124,70.89708,69.68375
"2657",45.87146,70.74082,69.24303
"2658",45.884796,70.5626,68.77545
"2659",45.898132,70.37949,68.297424
"2660",45.911438,70.21591,67.8332
"2661",45.924774,70.17441,67.48594
"2662",45.93811,70.49668,67.50116
"2663",45.951447,71.55627,68.26376
"2664",45.964783,73.68032,70.12395
"2665",45.97812,76.946976,73.193115
"2666",45.991455,81.09987,77.2506
"2667",46.00479,85.59945,81.78455
"2668",46.018127,89.75723,86.11732
"2669",46.031433,92.962845,89.627846
"2670",46.04477,94.89159,91.96168
"2671",46.058105,95.553215,93.08867
"2672",46.07144,95.1577,93.17919
"2673",46.084778,94.00534,92.50051
"2674",46.098114,92.4184,91.35124
"2675",46.11145,90.704506,90.02542
"2676",46.124756,89.09071,88.74615
"2677",46.138092,87.70641,87.645935
"2678",46.15143,86.554054,86.734406
"2679",46.164764,85.555504,85.94067
"2680",46.1781,84.61555,85.17432
"2681",46.191437,83.685356,84.38836
"2682",46.204773,82.78691,83.60508
"2683",46.21811,82.00809,82.913345
"2684",46.231445,81.45632,82.42433
"2685",46.24475,81.18532,82.19884
"2686",46.258087,81.16579,82.21635
"2687",46.271423,81.30251,82.3895
"2688",46.28476,81.46609,82.59378
"2689",46.298096,81.53445,82.707954
"2690",46.31143,81.40505,82.62651
"2691",46.324768,81.03151,82.296875
"2692",46.338074,80.41871,81.71631
"2693",46.35141,79.603264,80.91395
"2694",46.364746,78.641335,79.93962
"2695",46.378082,77.60372,78.85955
"2696",46.39142,76.5539,77.73485
"2697",46.404755,75.545586,76.61884
"2698",46.41809,74.60563,75.53969
"2699",46.431427,73.75357,74.51906
"2700",46.444763,72.99184,73.562126
"2701",46.45807,72.325325,72.67661
"2702",46.471405,71.74914,71.860596
"2703",46.48474,71.27795,71.13156
"2704",46.498077,70.92149,70.50255
"2705",46.511414,70.67979,69.97714
"2706",46.52475,70.54307,69.549164
"2707",46.538086,70.4918,69.20236
"2708",46.55139,70.49668,68.91011
"2709",46.564728,70.51133,68.62778
"2710",46.578064,70.4918,68.31172
"2711",46.5914,70.41856,67.941345
"2712",46.604736,70.294044,67.51741
"2713",46.618073,70.1915,67.11155
"2714",46.63141,70.3209,66.93443
"2715",46.644745,71.07774,67.3888
"2716",46.65808,72.89418,68.92642
"2717",46.671387,76.00214,71.812325
"2718",46.684723,80.26734,75.9526
"2719",46.69806,85.19661,80.89022
"2720",46.711395,90.06729,85.923294
"2721",46.72473,94.1445,90.31511
"2722",46.738068,96.93019,93.542816
"2723",46.751404,98.30717,95.44886
"2724",46.76471,98.458534,96.172325
"2725",46.778046,97.71877,96.00939
"2726",46.79138,96.43946,95.28379
"2727",46.804718,94.95262,94.310684
"2728",46.83139,92.29389,92.54156
"2729",46.844727,91.32708,91.95893
"2730",46.858063,90.53849,91.524315
"2731",46.8714,89.79141,91.10657
"2732",46.884705,88.95888,90.58002
"2733",46.89804,87.97742,89.878525
"2734",46.911377,86.87633,89.02673
"2735",46.924713,85.74349,88.10878
"2736",46.93805,84.70588,87.25065
"2737",46.951385,83.861145,86.55297
"2738",46.96472,83.25323,86.06571
"2739",46.978027,82.8333,85.747444
"2740",46.991364,82.52567,85.52836
"2741",47.0047,82.230255,85.31187
"2742",47.018036,81.85428,85.005585
"2743",47.031372,81.33181,84.54106
"2744",47.04471,80.638435,83.889305
"2745",47.058044,79.78638,83.0572
"2746",47.07138,78.81468,82.07883
"2747",47.084717,77.77463,81.00173
"2748",47.098022,76.7248,79.88236
"2749",47.11136,75.701836,78.75705
"2750",47.124695,74.74723,77.66813
"2751",47.13803,73.88052,76.637276
"2752",47.151367,73.109024,75.674545
"2753",47.164703,72.43275,74.78293
"2754",47.17804,71.86145,73.97516
"2755",47.191345,71.39269,73.252075
"2756",47.20468,71.028915,72.61932
"2757",47.218018,70.76036,72.07042
"2758",47.231354,70.57969,71.60101
"2759",47.24469,70.469826,71.19676
"2760",47.258026,70.40391,70.83302
"2761",47.271362,70.35752,70.486755
"2762",47.2847,70.30625,70.134155
"2763",47.298035,70.223236,69.74821
"2764",47.31134,70.08896,69.3084
"2765",47.324677,69.927826,68.83755
"2766",47.338013,69.839935,68.4349
"2767",47.35135,70.08896,68.36642
"2768",47.364685,71.08751,69.055244
"2769",47.37802,73.2018,70.89102
"2770",47.391357,76.53193,74.00871
"2771",47.404663,80.82643,78.19484
"2772",47.418,85.52865,82.92288
"2773",47.431335,89.92325,87.49025
"2774",47.44467,93.37301,91.250114
"2775",47.458008,95.54101,93.83602
"2776",47.471344,96.4419,95.22257
"2777",47.48468,96.31739,95.61187
"2778",47.498016,95.49706,95.30146
"2779",47.511353,94.312965,94.60165
"2780",47.52466,93.050735,93.7867
"2781",47.537994,91.913025,93.05682
"2782",47.55133,90.99504,92.51112
"2783",47.564667,90.267494,92.127174
"2784",47.578003,89.62051,91.80105
"2785",47.59134,88.91005,91.391235
"2786",47.604675,88.03601,90.79564
"2787",47.61798,86.97154,89.9823
"2788",47.631317,85.78012,89.008736
"2789",47.644653,84.58869,87.99793
"2790",47.65799,83.529106,87.08174
"2791",47.671326,82.686806,86.349724
"2792",47.68466,82.07156,85.81844
"2793",47.697998,81.62966,85.44128
"2794",47.711334,81.2781,85.14064
"2795",47.72467,80.92409,84.82657
"2796",47.737976,80.49195,84.42331
"2797",47.751312,79.9353,83.882034
"2798",47.76465,79.23949,83.1842
"2799",47.777985,78.416725,82.33767
"2800",47.79132,77.49874,81.37021
"2801",47.804657,76.52705,80.32035
"2802",47.817993,75.54803,79.2328
"2803",47.8313,74.61051,78.156166
"2804",47.844635,73.75357,77.130806
"2805",47.85797,73.0016,76.18364
"2806",47.871307,72.359505,75.322845
"2807",47.884644,71.817505,74.54208
"2808",47.89798,71.363396,73.832275
"2809",47.911316,70.98253,73.18152
"2810",47.924652,70.660255,72.57745
"2811",47.93799,70.40391,72.029236
"2812",47.951294,70.21591,71.54136
"2813",47.96463,70.09628,71.115974
"2814",47.977966,70.047455,70.75765
"2815",47.991302,70.05478,70.45396
"2816",48.00464,70.09384,70.18223
"2817",48.017975,70.12802,69.90684
"2818",48.03131,70.11337,69.58369
"2819",48.044617,70.0206,69.18195
"2820",48.057953,69.82773,68.67722
"2821",48.07129,69.5494,68.08101
"2822",48.084625,69.261314,67.46634
"2823",48.09796,69.14412,67.01356
"2824",48.111298,69.5494,67.07959
"2825",48.124634,70.91173,68.11533
"2826",48.13797,73.51919,70.43878
"2827",48.151306,77.332726,74.0498
"2828",48.16461,81.96414,78.59786
"2829",48.177948,86.766464,83.46156
"2830",48.191284,91.00725,87.913795
"2831",48.20462,94.12741,91.37794
"2832",48.217957,95.91943,93.61144
"2833",48.231293,96.50538,94.69487
"2834",48.24463,96.17822,94.88351
"2835",48.257935,95.27245,94.48331
"2836",48.27127,94.10788,93.796
"2837",48.284607,92.95796,93.08695
"2838",48.297943,91.97894,92.51287
"2839",48.31128,91.20744,92.115715
"2840",48.324615,90.57267,91.83118
"2841",48.33795,89.935455,91.52436
"2842",48.351288,89.1664,91.06579
"2843",48.364624,88.19714,90.38298
"2844",48.37793,87.05455,89.49655
"2845",48.391266,85.8436,88.50605
"2846",48.404602,84.70832,87.55338
"2847",48.41794,83.773254,86.76545
"2848",48.431274,83.08476,86.19487
"2849",48.44461,82.61356,85.82007
"2850",48.457947,82.28886,85.577034
"2851",48.471252,81.99832,85.358025
"2852",48.48459,81.64919,85.07134
"2853",48.497925,81.17067,84.644356
"2854",48.51126,80.53834,84.04861
"2855",48.524597,79.764404,83.2915
"2856",48.537933,78.88548,82.40521
"2857",48.55127,77.945526,81.43043
"2858",48.564606,76.995804,80.416504
"2859",48.57794,76.07782,79.40464
"2860",48.591248,75.22087,78.425125
"2861",48.604584,74.44694,77.50185
"2862",48.61792,73.76578,76.647156
"2863",48.631256,73.17738,75.863945
"2864",48.644592,72.68421,75.15757
"2865",48.65793,72.28626,74.531006
"2866",48.671265,71.9762,73.97989
"2867",48.68457,71.744255,73.49721
"2868",48.697906,71.588005,73.08296
"2869",48.711243,71.49279,72.72487
"2870",48.72458,71.448845,72.41507
"2871",48.737915,71.43664,72.135635
"2872",48.75125,71.43664,71.86803
"2873",48.764587,71.42199,71.58577
"2874",48.777924,71.37316,71.268875
"2875",48.79126,71.27062,70.89674
"2876",48.804565,71.1046,70.45793
"2877",48.8179,70.88243,69.95778
"2878",48.831238,70.61875,69.40918
"2879",48.844574,70.38682,68.88408
"2880",48.85791,70.364845,68.56169
"2881",48.871246,70.887314,68.78306
"2882",48.884583,72.33753,69.9485
"2883",48.89789,74.932785,72.304306
"2884",48.911224,78.57786,75.79103
"2885",48.92456,82.86015,80.028885
"2886",48.937897,87.14244,84.40055
"2887",48.951233,90.75578,88.23709
"2888",48.96457,93.22896,91.04639
"2889",48.977905,94.43748,92.66831
"2890",48.99124,94.53513,93.21714
"2891",49.004578,93.822235,92.958466
"2892",49.017883,92.64057,92.20875
"2893",49.03122,91.30755,91.270744
"2894",49.044556,90.06729,90.38385
"2895",49.05789,89.04433,89.67549
"2896",49.071228,88.236206,89.15001
"2897",49.084564,87.54528,88.71646
"2898",49.0979,86.837265,88.24423
"2899",49.111206,86.0267,87.64733
"2900",49.124542,85.09895,86.90791
"2901",49.13788,84.14435,86.11265
"2902",49.151215,83.284966,85.382774
"2903",49.16455,82.63065,84.831116
"2904",49.177887,82.22293,84.5056
"2905",49.191223,82.020294,84.37243
"2906",49.20456,81.92264,84.337906
"2907",49.217896,81.81766,84.29301
"2908",49.2312,81.61013,84.14228
"2909",49.244537,81.231705,83.81417
"2910",49.257874,80.65797,83.27892
"2911",49.27121,79.90845,82.549965
"2912",49.284546,79.029526,81.66818
"2913",49.297882,78.07248,80.68081
"2914",49.31122,77.09346,79.641556
"2915",49.324524,76.14618,78.60345
"2916",49.33786,75.27215,77.608986
"2917",49.351196,74.49821,76.6873
"2918",49.364532,73.829254,75.84642
"2919",49.37787,73.26528,75.089615
"2920",49.391205,72.78676,74.400635
"2921",49.40454,72.379036,73.7675
"2922",49.417877,72.027466,73.17778
"2923",49.431213,71.73693,72.63811
"2924",49.44452,71.50744,72.15039
"2925",49.457855,71.34875,71.7263
"2926",49.47119,71.26086,71.36806
"2927",49.484528,71.23155,71.06566
"2928",49.497864,71.22667,70.78676
"2929",49.5112,71.21202,70.49794
"2930",49.524536,71.1461,70.157394
"2931",49.53784,71.009384,69.74399
"2932",49.551178,70.801865,69.25551
"2933",49.564514,70.589455,68.75566
"2934",49.57785,70.55772,68.42984
"2935",49.591187,71.03136,68.608406
"2936",49.604523,72.38392,69.680695
"2937",49.61786,74.844894,71.90367
"2938",49.631195,78.3386,75.23628
"2939",49.64453,82.48417,79.32993
"2940",49.657837,86.67124,83.594635
"2941",49.671173,90.245514,87.37738
"2942",49.68451,92.733345,90.18539
"2943",49.697845,93.98337,91.83333
"2944",49.71118,94.12253,92.40947
"2945",49.724518,93.4316,92.159874
"2946",49.737854,92.23773,91.38574
"2947",49.75116,90.85832,90.38876
"2948",49.764496,89.530174,89.39994
"2949",49.777832,88.39002,88.55761
"2950",49.79117,87.447624,87.877396
"2951",49.804504,86.62241,87.28493
"2952",49.81784,85.79233,86.66179
"2953",49.831177,84.88167,85.93214
"2954",49.844513,83.888,85.09102
"2955",49.85785,82.89189,84.21641
"2956",49.871155,82.01297,83.42786
"2957",49.88449,81.356224,82.834015
"2958",49.897827,80.96315,82.48332
"2959",49.911163,80.78737,82.33764
"2960",49.9245,80.740974,82.31585
"2961",49.937836,80.706795,82.304825
"2962",49.95117,80.57496,82.195076
"2963",49.964478,80.26978,81.90787
"2964",49.977814,79.76929,81.4158
"2965",49.99115,79.07591,80.71522
"2966",50.004486,78.23117,79.8416
"2967",50.017822,77.281456,78.83661
"2968",50.03116,76.29023,77.76043
"2969",50.044495,75.30389,76.65816
"2970",50.05783,74.36881,75.57633
"2971",50.071167,73.51919,74.550735
"2972",50.084473,72.78432,73.61334
"2973",50.09781,72.16907,72.772606
"2974",50.111145,71.66857,72.02739
"2975",50.12448,71.26818,71.36664
"2976",50.137817,70.94835,70.77394
"2977",50.151154,70.70176,70.24449
"2978",50.16449,70.52354,69.775696
"2979",50.177795,70.41367,69.36969
"2980",50.19113,70.37217,69.02861
"2981",50.204468,70.38438,68.739944
"2982",50.217804,70.42832,68.4834
"2983",50.23114,70.469826,68.225784
"2984",50.244476,70.47471,67.932846
"2985",50.257812,70.41367,67.57414
"2986",50.27115,70.28184,67.14273
"2987",50.284485,70.11337,66.67057
"2988",50.29779,70.06943,66.317665
"2989",50.311127,70.47471,66.41261
"2990",50.324463,71.76135,67.40159
"2991",50.3378,74.246735,69.62952
"2992",50.351135,77.95041,73.153404
"2993",50.36447,82.513466,77.65241
"2994",50.377808,87.30602,82.52351
"2995",50.391113,91.59319,87.039
"2996",50.40445,94.786606,90.5947
"2997",50.417786,96.6421,92.91228
"2998",50.43112,97.254906,94.04515
"2999",50.444458,96.91066,94.24012
"3000",50.457794,95.95361,93.81153
"3001",50.47113,94.70603,93.0625
"3002",50.484467,93.44625,92.26228
"3003",50.497803,92.34028,91.57651
"3004",50.51111,91.45159,91.073456
"3005",50.524445,90.73136,90.71109
"3006",50.53778,90.055084,90.37017
"3007",50.551117,89.28359,89.9129
"3008",50.564453,88.34608,89.2655
"3009",50.57779,87.24986,88.4301
"3010",50.591125,86.082855,87.48965
"3011",50.60443,84.981766,86.57864
"3012",50.617767,84.06622,85.81878
"3013",50.631104,83.39727,85.27689
"3014",50.64444,82.9456,84.93139
"3015",50.657776,82.62333,84.701164
"3016",50.671112,82.3328,84.492615
"3017",50.68445,81.97879,84.2115
"3018",50.697784,81.48318,83.777725
"3019",50.71112,80.82399,83.16489
"3020",50.724426,80.01831,82.38496
"3021",50.737762,79.093,81.46022
"3022",50.7511,78.099335,80.43821
"3023",50.764435,77.086136,79.365616
"3024",50.77777,76.09979,78.288216
"3025",50.791107,75.16716,77.2337
"3026",50.804443,74.319984,76.235504
"3027",50.81775,73.57046,75.30848
"3028",50.831085,72.92592,74.46302
"3029",50.84442,72.37415,73.69019
"3030",50.857758,71.91516,72.99289
"3031",50.871094,71.53918,72.36426
"3032",50.88443,71.24376,71.80444
"3033",50.897766,71.03868,71.32573
"3034",50.911102,70.91905,70.926056
"3035",50.92444,70.87511,70.59833
"3036",50.937744,70.87755,70.31561
"3037",50.95108,70.887314,70.0403
"3038",50.964417,70.86534,69.73355
"3039",50.977753,70.77745,69.3602
"3040",50.99109,70.608986,68.903534
"3041",51.004425,70.37461,68.37569
"3042",51.01776,70.14023,67.84051
"3043",51.031067,70.08652,67.478676
"3044",51.044403,70.55283,67.63519
"3045",51.05774,71.95178,68.738914
"3046",51.071075,74.54215,71.077774
"3047",51.08441,78.27024,74.63531
"3048",51.097748,82.74052,79.05153
"3049",51.111084,87.31579,83.71244
"3050",51.12442,91.2929,87.91817
"3051",51.137756,94.15915,91.13732
"3052",51.151062,95.73388,93.154526
"3053",51.1644,96.15137,94.0637
"3054",51.177734,95.709465,94.126526
"3055",51.19107,94.74021,93.64819
"3056",51.204407,93.55367,92.92229
"3057",51.217743,92.39887,92.19104
"3058",51.23108,91.424736,91.60437
"3059",51.244385,90.65324,91.189896
"3060",51.25772,90.00137,90.87095
"3061",51.271057,89.3373,90.519424
"3062",51.284393,88.53651,90.01042
"3063",51.29773,87.54772,89.28841
"3064",51.311066,86.41001,88.386566
"3065",51.3244,85.240555,87.41742
"3066",51.337738,84.17853,86.51916
"3067",51.351074,83.33135,85.80256
"3068",51.36438,82.72343,85.29874
"3069",51.377716,82.31571,84.97613
"3070",51.391052,82.02762,84.7604
"3071",51.40439,81.75174,84.54788
"3072",51.417725,81.40505,84.255936
"3073",51.43106,80.936295,83.831085
"3074",51.444397,80.32838,83.252426
"3075",51.457703,79.588615,82.52293
"3076",51.47104,78.75365,81.6751
"3077",51.484375,77.86496,80.74747
"3078",51.49771,76.97383,79.78962
"3079",51.511047,76.11444,78.83566
"3080",51.524384,75.33074,77.93054
"3081",51.53772,74.64469,77.09858
"3082",51.551056,74.06363,76.35017
"3083",51.564392,73.58755,75.688576
"3084",51.577698,73.20424,75.10488
"3085",51.591034,72.90639,74.594666
"3086",51.60437,72.68421,74.15082
"3087",51.617706,72.535286,73.77327
"3088",51.631042,72.444954,73.44966
"3089",51.64438,72.39857,73.167175
"3090",51.657715,72.36683,72.89789
"3091",51.67102,72.325325,72.61784
"3092",51.684357,72.24475,72.29744
"3093",51.697693,72.11536,71.92569
"3094",51.71103,71.92493,71.48886
"3095",51.724365,71.6881,70.999695
"3096",51.7377,71.42687,70.478714
"3097",51.751038,71.24376,70.027695
"3098",51.764374,71.35607,69.86638
"3099",51.77771,72.112915,70.3531
"3100",51.791016,73.831696,71.82541
"3101",51.80435,76.63447,74.435425
"3102",51.817688,80.34058,78.03637
"3103",51.831024,84.49348,82.199905
"3104",51.84436,88.46815,86.314995
"3105",51.857697,91.666435,89.77791
"3106",51.871033,93.73678,92.21283
"3107",51.88434,94.63035,93.535675
"3108",51.897675,94.52781,93.890335
"3109",51.91101,93.72701,93.54353
"3110",51.924347,92.560005,92.8055
"3111",51.937683,91.317314,91.95531
"3112",51.95102,90.20401,91.19567
"3113",51.964355,89.29824,90.60878
"3114",51.97769,88.568245,90.16936
"3115",51.991028,87.89441,89.763275
"3116",52.004333,87.15709,89.27266
"3117",52.01767,86.29038,88.62961
"3118",52.031006,85.32113,87.856926
"3119",52.044342,84.35432,87.0564
"3120",52.05768,83.51446,86.35261
"3121",52.071014,82.899216,85.84719
"3122",52.08435,82.528114,85.56669
"3123",52.097656,82.34501,85.462585
"3124",52.110992,82.24002,85.43088
"3125",52.12433,82.10574,85.3666
"3126",52.137665,81.85672,85.18338
"3127",52.151,81.44167,84.826355
"3128",52.164337,80.850845,84.28058
"3129",52.177673,80.10864,83.564964
"3130",52.19101,79.26391,82.723625
"3131",52.204346,78.3679,81.80461
"3132",52.21765,77.48165,80.86736
"3133",52.230988,76.64179,79.94881
"3134",52.244324,75.88495,79.08702
"3135",52.25766,75.228195,78.301674
"3136",52.270996,74.67643,77.60079
"3137",52.284332,74.212555,76.97056
"3138",52.29767,73.82437,76.40152
"3139",52.310974,73.49966,75.88382
"3140",52.32431,73.231094,75.412125
"3141",52.337646,73.00893,74.97843
"3142",52.350983,72.8307,74.58174
"3143",52.36432,72.69398,74.22098
"3144",52.377655,72.57435,73.87303
"3145",52.39099,72.43763,73.50426
"3146",52.404327,72.26673,73.09703
"3147",52.417664,72.05432,72.64296
"3148",52.43097,71.81506,72.155396
"3149",52.444305,71.624626,71.70918
"3150",52.45764,71.66613,71.48895
"3151",52.470978,72.22278,71.78517
"3152",52.484314,73.568016,72.887375
"3153",52.49765,75.84589,74.96425
"3154",52.510986,78.93919,77.92774
"3155",52.524292,82.49149,81.44689
"3156",52.53763,85.97299,85.00625
"3157",52.550964,88.85634,88.07625
"3158",52.5643,90.78508,90.28175
"3159",52.577637,91.66155,91.49526
"3160",52.590973,91.61028,91.80842
"3161",52.60431,90.87297,91.43393
"3162",52.617645,89.74746,90.6482
"3163",52.63098,88.50477,89.71012
"3164",52.644287,87.35241,88.82353
"3165",52.657623,86.37827,88.07916
"3166",52.67096,85.555504,87.45571
"3167",52.684296,84.79866,86.872475
"3168",52.69763,84.02228,86.24605
"3169",52.710968,83.18974,85.53921
"3170",52.724304,82.34501,84.79415
"3171",52.73761,81.600365,84.12279
"3172",52.750946,81.058365,83.6308
"3173",52.764282,80.762955,83.36846
"3174",52.77762,80.68238,83.31173
"3175",52.790955,80.719,83.369675
"3176",52.80429,80.75563,83.42877
"3177",52.817627,80.67994,83.37669
"3178",52.830963,80.428474,83.14648
"3179",52.8443,79.97925,82.71064
"3180",52.857605,79.344475,82.07522
"3181",52.87094,78.56809,81.27835
"3182",52.884277,77.713585,80.3791
"3183",52.897614,76.82979,79.42385
"3184",52.91095,75.9704,78.46539
"3185",52.924286,75.16472,77.53379
"3186",52.937622,74.442055,76.66003
"3187",52.950928,73.812164,75.85645
"3188",52.964264,73.27993,75.13085
"3189",52.9776,72.85268,74.4936
"3190",52.990936,72.5304,73.947975
"3191",53.004272,72.30579,73.489944
"3192",53.01761,72.166626,73.11034
"3193",53.030945,72.10071,72.79962
"3194",53.04428,72.08362,72.535675
"3195",53.057617,72.095825,72.30049
"3196",53.070923,72.10071,72.058365
"3197",53.08426,72.078735,71.789536
"3198",53.097595,72.007935,71.47119
"3199",53.11093,71.89319,71.10669
"3200",53.124268,71.75647,70.71663
"3201",53.137604,71.710075,70.41263
"3202",53.15094,71.9762,70.41969
"3203",53.164246,72.89418,71.08693
"3204",53.17758,74.74723,72.717926
"3205",53.190918,77.61837,75.42492
"3206",53.204254,81.31716,79.049286
"3207",53.21759,85.399254,83.17254
"3208",53.230927,89.26162,87.20363
"3209",53.244263,92.367134,90.59857
"3210",53.2576,94.400856,93.01877
"3211",53.270935,95.33105,94.39899
"3212",53.28424,95.34081,94.88785
"3213",53.297577,94.713356,94.73979
"3214",53.310913,93.753876,94.240105
"3215",53.32425,92.73579,93.651825
"3216",53.337585,91.842224,93.15626
"3217",53.35092,91.14397,92.82807
"3218",53.364258,90.582436,92.61479
"3219",53.377563,90.03311,92.39617
"3220",53.3909,89.34951,92.02611
"3221",53.404236,88.446175,91.41495
"3222",53.417572,87.325554,90.55827
"3223",53.43091,86.0853,89.546936
"3224",53.444244,84.874344,88.526146
"3225",53.45758,83.83673,87.640854
"3226",53.470917,83.05058,86.9746
"3227",53.484253,82.511024,86.53037
"3228",53.49756,82.13992,86.23774
"3229",53.510895,81.829865,85.99455
"3230",53.52423,81.46853,85.6904
"3231",53.537567,80.990005,85.25777
"3232",53.550903,80.360115,84.65881
"3233",53.56424,79.588615,83.89857
"3234",53.577576,78.709694,83.00679
"3235",53.59088,77.77707,82.033844
"3236",53.604218,76.83467,81.02198
"3237",53.617554,75.93622,80.02461
"3238",53.63089,75.11345,79.07485
"3239",53.644226,74.38346,78.19216
"3240",53.657562,73.75357,77.38676
"3241",53.6709,73.21156,76.64955
"3242",53.684235,72.742805,75.96866
"3243",53.69757,72.33021,75.32927
"3244",53.710876,71.97864,74.73802
"3245",53.724213,71.70031,74.20903
"3246",53.73755,71.49767,73.747025
"3247",53.750885,71.37072,73.35437
"3248",53.76422,71.30724,73.021225
"3249",53.777557,71.29015,72.73248
"3250",53.790894,71.26818,72.438324
"3251",53.8042,71.21446,72.11174
"3252",53.817535,71.09972,71.72244
"3253",53.83087,70.923935,71.268524
"3254",53.844208,70.7042,70.76517
"3255",53.857544,70.53086,70.30133
"3256",53.87088,70.608986,70.08354
"3257",53.884216,71.26574,70.44682
"3258",53.897552,72.83559,71.74373
"3259",53.91089,75.47967,74.163925
"3260",53.924194,79.093,77.636
"3261",53.93753,83.28008,81.79474
"3262",53.950867,87.44274,86.0599
"3263",53.964203,90.97307,89.822815
"3264",53.97754,93.4609,92.65356
"3265",53.990875,94.786606,94.39992
"3266",54.00421,95.079575,95.15497
"3267",54.017517,94.62791,95.17454
"3268",54.030853,93.75876,94.76251
"3269",54.04419,92.76753,94.20125
"3270",54.057526,91.86664,93.69934
"3271",54.07086,91.15373,93.35727
"3272",54.084198,90.599525,93.15162
"3273",54.097534,90.07706,92.96039
"3274",54.11087,89.43252,92.63076
"3275",54.124207,88.551155,92.04417
"3276",54.137512,87.40368,91.16391
"3277",54.15085,86.07065,90.06224
"3278",54.164185,84.70344,88.884735
"3279",54.17752,83.46563,87.79391
"3280",54.190857,82.47929,86.91586
"3281",54.204193,81.76883,86.28288
"3282",54.21753,81.28054,85.84987
"3283",54.230835,80.907,85.51634
"3284",54.24417,80.53834,85.176025
"3285",54.257507,80.08423,84.73874
"3286",54.270844,79.4934,84.15054
"3287",54.28418,78.75853,83.39984
"3288",54.297516,77.908905,82.51142
"3289",54.310852,76.98848,81.52565
"3290",54.32419,76.04608,80.48914
"3291",54.337524,75.13298,79.452484
"3292",54.35083,74.27848,78.44589
"3293",54.364166,73.50454,77.49316
"3294",54.377502,72.81117,76.59681
"3295",54.39084,72.19592,75.75691
"3296",54.404175,71.64904,74.966156
"3297",54.41751,71.16075,74.2169
"3298",54.430847,70.73106,73.51099
"3299",54.444153,70.364845,72.85512
"3300",54.45749,70.07187,72.26104
"3301",54.470825,69.8497,71.728615
"3302",54.48416,69.70565,71.267365
"3303",54.497498,69.63241,70.87242
"3304",54.510834,69.625084,70.54111
"3305",54.52417,69.66659,70.25839
"3306",54.537506,69.73739,70.00627
"3307",54.550842,69.81796,69.766136
"3308",54.564148,69.88388,69.51386
"3309",54.577484,69.91318,69.22703
"3310",54.59082,69.88388,68.882515
"3311",54.604156,69.7789,68.4614
"3312",54.617493,69.60311,67.9662
"3313",54.63083,69.39803,67.43622
"3314",54.644165,69.312584,67.019455
"3315",54.65747,69.65926,67.03215
"3316",54.670807,70.86778,67.91752
"3317",54.684143,73.2433,70.00766
"3318",54.69748,76.81758,73.3708
"3319",54.710815,81.28542,77.73919
"3320",54.72415,86.046234,82.54017
"3321",54.737488,90.38468,87.06756
"3322",54.750824,93.70748,90.71488
"3323",54.76416,95.743645,93.179405
"3324",54.777466,96.54688,94.47463
"3325",54.790802,96.378426,94.823265
"3326",54.80414,95.58007,94.536736
"3327",54.817474,94.486305,93.92985
"3328",54.83081,93.382774,93.279015
"3329",54.844147,92.43305,92.747505
"3330",54.857483,91.69085,92.39384
"3331",54.87079,91.087814,92.15614
"3332",54.884125,90.47501,91.88984
"3333",54.89746,89.71572,91.45789
"3334",54.910797,88.73182,90.77761
"3335",54.924133,87.55016,89.86882
"3336",54.93747,86.27329,88.827896
"3337",54.950806,85.06966,87.8203
"3338",54.96414,84.07355,86.98261
"3339",54.977478,83.35088,86.387245
"3340",54.990784,82.86992,86.010994
"3341",55.00412,82.54276,85.77352
"3342",55.017456,82.25468,85.564896
"3343",55.030792,81.900665,85.28134
"3344",55.04413,81.40749,84.847565
"3345",55.057465,80.75319,84.23724
"3346",55.0708,79.94507,83.45266
"3347",55.084106,79.01488,82.52075
"3348",55.097443,78.02365,81.49874
"3349",55.11078,77.015335,80.428665
"3350",55.124115,76.04608,79.36614
"3351",55.13745,75.159836,78.35634
"3352",55.150787,74.37614,77.42139
"3353",55.164124,73.70229,76.5718
"3354",55.17746,73.14076,75.81347
"3355",55.190796,72.67933,75.13769
"3356",55.2041,72.30579,74.535385
"3357",55.217438,72.00061,73.98976
"3358",55.230774,71.74914,73.48831
"3359",55.24411,71.5465,73.02783
"3360",55.257446,71.38293,72.60008
"3361",55.270782,71.26086,72.208725
"3362",55.28412,71.18028,71.85506
"3363",55.297424,71.133896,71.53305
"3364",55.31076,71.1046,71.226685
"3365",55.324097,71.07774,70.921844
"3366",55.337433,71.03624,70.60152
"3367",55.35077,70.96788,70.25304
"3368",55.364105,70.86046,69.86336
"3369",55.37744,70.69932,69.41661
"3370",55.390778,70.47959,68.906235
"3371",55.404114,70.20859,68.337715
"3372",55.41742,69.91318,67.73632
"3373",55.430756,69.69344,67.20137
"3374",55.44409,69.788666,66.97451
"3375",55.457428,70.57969,67.44643
"3376",55.470764,72.41566,68.98801
"3377",55.4841,75.43572,71.77106
"3378",55.497437,79.449455,75.64216
"3379",55.510742,83.96124,80.13674
"3380",55.52408,88.2826,84.58189
"3381",55.537415,91.76166,88.31978
"3382",55.55075,94.00046,90.92613
"3383",55.564087,94.940414,92.303604
"3384",55.577423,94.77684,92.60692
"3385",55.59076,93.832,92.123856
"3386",55.604095,92.46235,91.186455
"3387",55.61743,90.99504,90.1086
"3388",55.630737,89.669334,89.12649
"3389",55.644073,88.587776,88.3471
"3390",55.65741,87.7235,87.75119
"3391",55.670746,86.959335,87.22838
"3392",55.684082,86.170746,86.657265
"3393",55.69742,85.28939,85.96874
"3394",55.710754,84.3299,85.174545
"3395",55.72406,83.39727,84.37722
"3396",55.737396,82.61356,83.69968
"3397",55.750732,82.06668,83.23447
"3398",55.76407,81.75662,82.98899
"3399",55.777405,81.619896,82.90716
"3400",55.79074,81.53689,82.87477
"3401",55.804077,81.40017,82.78608
"3402",55.817413,81.11452,82.54418
"3403",55.83075,80.63355,82.098045
"3404",55.844055,79.954834,81.439125
"3405",55.85739,79.10521,80.58809
"3406",55.870728,78.12863,79.58355
"3407",55.884064,77.08858,78.485016
"3408",55.8974,76.04364,77.3491
"3409",55.910736,75.04997,76.2318
"3410",55.924072,74.15152,75.17866
"3411",55.937378,73.3727,74.21708
"3412",55.950714,72.72083,73.35811
"3413",55.96405,72.181274,72.59108
"3414",55.977386,71.73693,71.902405
"3415",55.990723,71.37072,71.27797
"3416",56.00406,71.080185,70.71777
"3417",56.017395,70.86534,70.22418
"3418",56.03073,70.73106,69.80444
"3419",56.044067,70.674904,69.45863
"3420",56.057373,70.69199,69.18431
"3421",56.07071,70.75548,68.95692
"3422",56.084045,70.836044,68.7486
"3423",56.09738,70.9044,68.53058
"3424",56.110718,70.93126,68.27319
"3425",56.124054,70.88243,67.94096
"3426",56.13739,70.75548,67.52908
"3427",56.150696,70.56016,67.044876
"3428",56.164032,70.345314,66.535034
"3429",56.17737,70.25498,66.14299
"3430",56.190704,70.59434,66.17781
"3431",56.20404,71.766235,67.05578
"3432",56.217377,74.0856,69.11784
"3433",56.230713,77.591515,72.438934
"3434",56.24405,81.97879,76.750946
"3435",56.257385,86.67124,81.50523
"3436",56.27069,90.948654,85.99112
"3437",56.284027,94.21042,89.59503
"3438",56.297363,96.166016,91.994705
"3439",56.3107,96.849625,93.1835
"3440",56.324036,96.50538,93.36581
"3441",56.33737,95.458,92.83422
"3442",56.350708,94.049286,91.90857
"3443",56.364014,92.57954,90.87786
"3444",56.37735,91.2636,89.95504
"3445",56.390686,90.18692,89.23035
"3446",56.404022,89.31289,88.67466
"3447",56.41736,88.52186,88.17466
"3448",56.430695,87.68688,87.60599
"3449",56.44403,86.73228,86.8916
"3450",56.457367,85.67025,86.039955
"3451",56.470703,84.6009,85.1478
"3452",56.48401,83.64629,84.33697
"3453",56.497345,82.90654,83.71116
"3454",56.51068,82.406044,83.30149
"3455",56.524017,82.108185,83.07882
"3456",56.537354,81.91043,82.946945
"3457",56.55069,81.705345,82.80156
"3458",56.564026,81.40261,82.55212
"3459",56.57733,80.938736,82.13207
"3460",56.590668,80.289314,81.511986
"3461",56.604004,79.466545,80.69826
"3462",56.61734,78.5095,79.72454
"3463",56.630676,77.47921,78.647675
"3464",56.644012,76.42939,77.51908
"3465",56.65735,75.40154,76.379654
"3466",56.670685,74.442055,75.27647
"3467",56.68402,73.57534,74.23607
"3468",56.697327,72.816055,73.27602
"3469",56.710663,72.1593,72.39477
"3470",56.724,71.60998,71.60042
"3471",56.737335,71.17052,70.89877
"3472",56.75067,70.836044,70.288376
"3473",56.764008,70.59922,69.76518
"3474",56.777344,70.44785,69.32004
"3475",56.79065,70.36729,68.94096
"3476",56.803986,70.34043,68.61308
"3477",56.81732,70.347755,68.31854
"3478",56.830658,70.38682,68.05597
"3479",56.843994,70.44297,67.81171
"3480",56.85733,70.49912,67.5692
"3481",56.870667,70.52842,67.30159
"3482",56.884003,70.49424,66.97142
"3483",56.89734,70.37217,66.55229
"3484",56.910645,70.15732,66.03657
"3485",56.92398,69.90097,65.47263
"3486",56.937317,69.786224,65.04229
"3487",56.950653,70.20126,65.138145
"3488",56.96399,71.63683,66.2675
"3489",56.977325,74.43229,68.801605
"3490",56.99066,78.55833,72.753654
"3491",57.003967,83.58526,77.735535
"3492",57.017303,88.79286,83.055176
"3493",57.03064,93.365685,87.90277
"3494",57.043976,96.68116,91.635925
"3495",57.057312,98.52201,93.99806
"3496",57.07065,99.037155,95.09202
"3497",57.083984,98.5391,95.18887
"3498",57.09732,97.391624,94.62074
"3499",57.110657,95.94629,93.718895
"3500",57.123962,94.49119,92.762115
"3501",57.1373,93.20943,91.933205
"3502",57.150635,92.16693,91.303505
"3503",57.16397,91.3222,90.83899
"3504",57.177307,90.54093,90.411545
"3505",57.190643,89.68154,89.88156
"3506",57.20398,88.653694,89.156265
"3507",57.217285,87.464714,88.23772
"3508",57.23062,86.1976,87.20387
"3509",57.243958,84.981766,86.18171
"3510",57.257294,83.946594,85.302216
"3511",57.27063,83.158005,84.636955
"3512",57.283966,82.60624,84.183876
"3513",57.297302,82.21805,83.87713
"3514",57.31064,81.90555,83.63394
"3515",57.323975,81.5613,83.34924
"3516",57.33728,81.10231,82.93904
"3517",57.350616,80.48463,82.355804
"3518",57.363953,79.69848,81.5848
"3519",57.37729,78.765854,80.64275
"3520",57.390625,77.72335,79.56168
"3521",57.40396,76.627144,78.39433
"3522",57.417297,75.53094,77.192726
"3523",57.430603,74.48356,76.00569
"3524",57.44394,73.51919,74.868935
"3525",57.457275,72.66712,73.81435
"3526",57.47061,71.93225,72.85033
"3527",57.483948,71.30236,71.96832
"3528",57.497284,70.767685,71.16185
"3529",57.51062,70.30625,70.41191
"3530",57.523956,69.91318,69.715904
"3531",57.537292,69.58358,69.07109
"3532",57.5506,69.32723,68.48923
"3533",57.563934,69.15877,67.987236
"3534",57.57727,69.085526,67.5752
"3535",57.590607,69.10506,67.253654
"3536",57.603943,69.20027,67.0084
"3537",57.61728,69.33456,66.80519
"3538",57.630615,69.46151,66.59885
"3539",57.64392,69.52987,66.337875
"3540",57.657257,69.49813,65.97894
"3541",57.670593,69.35165,65.50427
"3542",57.68393,69.100174,64.92004
"3543",57.697266,68.79988,64.27912
"3544",57.7106,68.60212,63.731354
"3545",57.723938,68.87068,63.64373
"3546",57.737274,70.11337,64.53863
"3547",57.75061,72.742805,66.8591
"3548",57.763916,76.82979,70.7193
"3549",57.777252,82.005646,75.79609
"3550",57.79059,87.56237,81.41549
"3551",57.803925,92.62348,86.71292
"3552",57.81726,96.46143,90.94536
"3553",57.830597,98.739296,93.73764
"3554",57.843933,99.53277,95.116714
"3555",57.85724,99.156784,95.35113
"3556",57.870575,97.99222,94.78521
"3557",57.88391,96.412605,93.76785
"3558",57.897247,94.74265,92.610794
"3559",57.910583,93.21675,91.5456
"3560",57.92392,91.96185,90.70373
"3561",57.937256,90.97063,90.08631
"3562",57.950592,90.13565,89.59417
"3563",57.96393,89.305565,89.080826
"3564",57.977234,88.375374,88.44144
"3565",57.99057,87.32067,87.64847
"3566",58.003906,86.202484,86.75905
"3567",58.017242,85.1429,85.89329
"3568",58.03058,84.263985,85.17509
"3569",58.043915,83.63409,84.67844
"3570",58.05725,83.23613,84.39404
"3571",58.070557,82.98955,84.24859
"3572",58.083893,82.791794,84.14426
"3573",58.09723,82.54032,83.98003
"3574",58.110565,82.16922,83.68831
"3575",58.1239,81.62966,83.21654
"3576",58.137238,80.91676,82.554565
"3577",58.150574,80.05249,81.71894
"3578",58.16391,79.080795,80.748886
"3579",58.177246,78.0383,79.677666
"3580",58.19055,76.98604,78.5641
"3581",58.203888,75.965515,77.449394
"3582",58.217224,75.020676,76.37848
"3583",58.23056,74.17105,75.37325
"3584",58.243896,73.42397,74.44402
"3585",58.257233,72.78676,73.60131
"3586",58.27057,72.254524,72.843666
"3587",58.283875,71.81995,72.16704
"3588",58.29721,71.47326,71.56473
"3589",58.310547,71.21202,71.03703
"3590",58.323883,71.02159,70.571976
"3591",58.33722,70.89952,70.16933
"3592",58.350555,70.83116,69.816574
"3593",58.36389,70.80919,69.50807
"3594",58.377228,70.80675,69.218414
"3595",58.390564,70.79942,68.9238
"3596",58.40387,70.75304,68.58989
"3597",58.417206,70.63584,68.18373
"3598",58.430542,70.43809,67.693344
"3599",58.44388,70.17197,67.12841
"3600",58.457214,69.944916,66.59423
"3601",58.47055,70.01816,66.35325
"3602",58.483887,70.83116,66.85432
"3603",58.497192,72.81117,68.547806
"3604",58.51053,76.12909,71.641075
"3605",58.523865,80.55543,75.94645
"3606",58.5372,85.51156,80.91994
"3607",58.550537,90.213776,85.79439
"3608",58.563873,93.924774,89.82457
"3609",58.57721,96.22461,92.559555
"3610",58.590546,97.08644,93.928406
"3611",58.60388,96.75197,94.127884
"3612",58.617188,95.55566,93.45507
"3613",58.630524,93.85886,92.244385
"3614",58.64386,91.983826,90.802444
"3615",58.657196,90.17471,89.36783
"3616",58.670532,88.587776,88.098854
"3617",58.68387,87.24498,87.02443
"3618",58.697205,86.080414,86.086266
"3619",58.71051,84.998856,85.19472
"3620",58.723846,83.946594,84.29867
"3621",58.737183,82.94316,83.418564
"3622",58.75052,82.08133,82.648705
"3623",58.763855,81.46853,82.100945
"3624",58.77719,81.163345,81.84165
"3625",58.790527,81.143814,81.858475
"3626",58.803864,81.31228,82.06268
"3627",58.8172,81.529564,82.32098
"3628",58.830505,81.651634,82.490845
"3629",58.84384,81.57595,82.466774
"3630",58.857178,81.248795,82.188866
"3631",58.870514,80.66529,81.64439
"3632",58.88385,79.85718,80.85706
"3633",58.897186,78.88548,79.880905
"3634",58.910522,77.80881,78.7694
"3635",58.92383,76.68818,77.5803
"3636",58.937164,75.577324,76.36595
"3637",58.9505,74.52262,75.17304
"3638",58.963837,73.57046,74.04971
"3639",58.977173,72.75014,73.02847
"3640",58.99051,72.06653,72.11831
"3641",59.003845,71.517204,71.32106
"3642",59.01718,71.09483,70.633606
"3643",59.030518,70.77745,70.03793
"3644",59.043823,70.54795,69.52023
"3645",59.05716,70.38682,69.06372
"3646",59.070496,70.276955,68.65344
"3647",59.08383,70.203705,68.276344
"3648",59.097168,70.14755,67.914055
"3649",59.110504,70.084076,67.54269
"3650",59.12384,70.00595,67.154686
"3651",59.137146,69.910736,66.747154
"3652",59.150482,69.84238,66.3635
"3653",59.16382,69.98398,66.187675
"3654",59.177155,70.7042,66.594894
"3655",59.19049,72.45472,68.05492
"3656",59.203827,75.50408,70.868484
"3657",59.217163,79.74975,74.973656
"3658",59.2305,84.72785,79.94394
"3659",59.243835,89.71328,85.07711
"3660",59.25714,93.92233,89.58971
"3661",59.270477,96.813,92.91545
"3662",59.283813,98.23392,94.86177
"3663",59.29715,98.355995,95.55366
"3664",59.310486,97.50149,95.27277
"3665",59.323822,96.024414,94.34262
"3666",59.33716,94.27146,93.09043
"3667",59.350464,92.52827,91.79322
"3668",59.3638,90.985275,90.64174
"3669",59.377136,89.705956,89.70571
"3670",59.390472,88.64881,88.95188
"3671",59.40381,87.68932,88.262665
"3672",59.417145,86.72495,87.53859
"3673",59.43048,85.71664,86.740425
"3674",59.443817,84.70832,85.91075
"3675",59.457153,83.809875,85.15944
"3676",59.47046,83.13115,84.59977
"3677",59.483795,82.72343,84.289894
"3678",59.49713,82.55741,84.208984
"3679",59.510468,82.53788,84.26937
"3680",59.523804,82.533,84.343796
"3681",59.53714,82.42802,84.31797
"3682",59.550476,82.13748,84.10331
"3683",59.56378,81.617455,83.65008
"3684",59.577118,80.87526,82.95843
"3685",59.590454,79.940186,82.050705
"3686",59.60379,78.88304,80.99169
"3687",59.617126,77.7673,79.84105
"3688",59.630463,76.66132,78.6653
"3689",59.6438,75.61883,77.51847
"3690",59.657135,74.67643,76.43916
"3691",59.67047,73.848785,75.44516
"3692",59.683777,73.13344,74.53759
"3693",59.697113,72.52308,73.712654
"3694",59.71045,72.007935,72.96385
"3695",59.723785,71.59533,72.3015
"3696",59.73712,71.275505,71.719025
"3697",59.750458,71.05577,71.226654
"3698",59.763794,70.92638,70.81775
"3699",59.7771,70.872665,70.480484
"3700",59.790436,70.855576,70.17816
"3701",59.803772,70.82628,69.8631
"3702",59.81711,70.750595,69.50073
"3703",59.830444,70.61143,69.072525
"3704",59.84378,70.46006,68.62776
"3705",59.857117,70.4918,68.361374
"3706",59.870453,71.10216,68.6746
"3707",59.88379,72.74525,70.03963
"3708",59.897095,75.69207,72.759735
"3709",59.91043,79.84741,76.78046
"3710",59.923767,84.749825,81.6781
"3711",59.937103,89.686424,86.76313
"3712",59.95044,93.893036,91.272446
"3713",59.963776,96.82521,94.63878
"3714",59.97711,98.33158,96.67094
"3715",59.990417,98.57816,97.49038
"3716",60.003754,97.882355,97.37514
"3717",60.01709,96.60548,96.65708
"3718",60.030426,95.08446,95.65498
"3719",60.043762,93.59762,94.639534
"3720",60.0571,92.315865,93.78271
"3721",60.070435,91.29046,93.14217
"3722",60.08377,90.46281,92.66735
"3723",60.097107,89.69131,92.22282
"3724",60.110413,88.83925,91.673615
"3725",60.12375,87.833374,90.94397
"3726",60.137085,86.68345,90.03883
"3727",60.15042,85.489586,89.053825
"3728",60.163757,84.38361,88.1194
"3729",60.177094,83.47784,87.35061
"3730",60.19043,82.81865,86.8001
"3731",60.203735,82.36454,86.434074
"3732",60.21707,82.03494,86.17837
"3733",60.230408,81.71999,85.92701
"3734",60.243744,81.32937,85.59013
"3735",60.25708,80.797134,85.09944
"3736",60.270416,80.09888,84.426094
"3737",60.283752,79.24437,83.57468
"3738",60.29709,78.27512,82.58182
"3739",60.310425,77.2375,81.490295
"3740",60.32373,76.190125,80.35659
"3741",60.337067,75.18669,79.2341
"3742",60.350403,74.26383,78.16083
"3743",60.36374,73.43374,77.15148
"3744",60.377075,72.706184,76.218735
"3745",60.39041,72.08362,75.36824
"3746",60.403748,71.56603,74.60327
"3747",60.417053,71.15343,73.92711
"3748",60.43039,70.84825,73.345474
"3749",60.443726,70.640724,72.85196
"3750",60.45706,70.50889,72.42764
"3751",60.470398,70.42588,72.048035
"3752",60.483734,70.35752,71.68048
"3753",60.49707,70.26475,71.28638
"3754",60.510406,70.12314,70.84054
"3755",60.523743,69.91318,70.32192
"3756",60.53705,69.65926,69.75279
"3757",60.550385,69.46639,69.23677
"3758",60.56372,69.590904,69.032104
"3759",60.577057,70.44297,69.55888
"3760",60.590393,72.40101,71.21826
"3761",60.60373,75.60418,74.18396
"3762",60.617065,79.84009,78.2825
"3763",60.63037,84.56916,83.00658
"3764",60.643707,89.07851,87.65871
"3765",60.657043,92.70649,91.57039
"3766",60.67038,95.05272,94.3137
"3767",60.683716,96.08301,95.814384
"3768",60.697052,96.01221,96.24618
"3769",60.71039,95.16991,95.90426
"3770",60.723724,93.910126,95.11854
"3771",60.73706,92.5478,94.1909
"3772",60.750366,91.31487,93.3501
"3773",60.763702,90.321205,92.71002
"3774",60.77704,89.547264,92.25862
"3775",60.790375,88.87099,91.8807
"3776",60.80371,88.14099,91.42792
"3777",60.817047,87.25475,90.79608
"3778",60.830383,86.19028,89.95831
"3779",60.84369,85.02327,88.98475
"3780",60.857025,83.888,88.006454
"3781",60.87036,82.92119,87.16114
"3782",60.883698,82.20096,86.532196
"3783",60.897034,81.71999,86.12001
"3784",60.91037,81.41482,85.86858
"3785",60.923706,81.17799,85.67597
"3786",60.937042,80.89479,85.42958
"3787",60.95038,80.48951,85.05226
"3788",60.963684,79.923096,84.501144
"3789",60.97702,79.20531,83.78095
"3790",60.990356,78.37034,82.92115
"3791",61.003693,77.467,81.96689
"3792",61.01703,76.55146,80.97219
"3793",61.030365,75.667656,79.98062
"3794",61.0437,74.85222,79.0298
"3795",61.057007,74.13199,78.148705
"3796",61.070343,73.51186,77.34521
"3797",61.08368,72.99672,76.62731
"3798",61.097015,72.57191,75.98365
"3799",61.11035,72.22522,75.40483
"3800",61.123688,71.94934,74.88599
"3801",61.137024,71.744255,74.42932
"3802",61.15036,71.60021,74.02728
"3803",61.163696,71.51232,73.676895
"3804",61.177002,71.45373,73.35306
"3805",61.19034,71.397575,73.02983
"3806",61.203674,71.32189,72.68532
"3807",61.21701,71.2047,72.296936
"3808",61.230347,71.03868,71.856064
"3809",61.243683,70.83116,71.3685
"3810",61.25702,70.65049,70.901306
"3811",61.270325,70.65537,70.61401
"3812",61.28366,71.15587,70.82249
"3813",61.296997,72.50111,71.89134
"3814",61.310333,74.90837,74.06427
"3815",61.32367,78.3093,77.30609
"3816",61.337006,82.340126,81.28408
"3817",61.35034,86.417336,85.43442
"3818",61.363678,89.90616,89.12378
"3819",61.377014,92.33784,91.86503
"3820",61.39032,93.56344,93.47619
"3821",61.403656,93.7026,94.03921
"3822",61.416992,93.02388,93.7887
"3823",61.43033,91.859314,93.03113
"3824",61.443665,90.52628,92.0687
"3825",61.457,89.26406,91.13543
"3826",61.470337,88.20691,90.36778
"3827",61.483643,87.362175,89.77951
"3828",61.49698,86.63706,89.28447
"3829",61.510315,85.91196,88.76677
"3830",61.52365,85.101395,88.14095
"3831",61.536987,84.20294,87.40192
"3832",61.550323,83.29229,86.622604
"3833",61.56366,82.493935,85.92713
"3834",61.576996,81.90799,85.41912
"3835",61.590332,81.55886,85.129616
"3836",61.603638,81.3904,85.00987
"3837",61.616974,81.30007,84.96299
"3838",61.63031,81.17311,84.876656
"3839",61.643646,80.919205,84.65941
"3840",61.656982,80.49195,84.26088
"3841",61.67032,79.88159,83.66589
"3842",61.683655,79.12474,82.90534
"3843",61.69696,78.26536,82.01861
"3844",61.710297,77.36202,81.061066
"3845",61.723633,76.473335,80.08994
"3846",61.73697,75.63836,79.14476
"3847",61.750305,74.88396,78.25406
"3848",61.76364,74.21988,77.43011
"3849",61.776978,73.651024,76.680626
"3850",61.790314,73.16518,75.996376
"3851",61.80365,72.75258,75.37019
"3852",61.816956,72.410774,74.80191
"3853",61.83029,72.130005,74.28398
"3854",61.843628,71.90051,73.80855
"3855",61.856964,71.71252,73.36745
"3856",61.8703,71.553825,72.94977
"3857",61.883636,71.40246,72.534454
"3858",61.896973,71.25109,72.11441
"3859",61.91028,71.09239,71.68231
"3860",61.923615,70.92638,71.23793
"3861",61.93695,70.79454,70.82254
"3862",61.950287,70.83116,70.57149
"3863",61.963623,71.28039,70.73419
"3864",61.97696,72.45228,71.63359
"3865",61.990295,74.55192,73.49736
"3866",62.00363,77.55978,76.33497
"3867",62.016968,81.17311,79.87205
"3868",62.030273,84.88655,83.62215
"3869",62.04361,88.12146,87.00976
"3870",62.056946,90.426186,89.56828
"3871",62.070282,91.61761,91.085526
"3872",62.08362,91.78119,91.61216
"3873",62.096954,91.15617,91.35531
"3874",62.11029,90.055084,90.60285
"3875",62.123596,88.7831,89.64509
"3876",62.136932,87.57702,88.713486
"3877",62.15027,86.556496,87.92975
"3878",62.163605,85.72396,87.3021
"3879",62.17694,84.99397,86.750984
"3880",62.190277,84.2591,86.17217
"3881",62.203613,83.46075,85.50691
"3882",62.21695,82.61845,84.77276
"3883",62.230286,81.81766,84.053795
"3884",62.24359,81.17311,83.46605
"3885",62.256927,80.76051,83.09011
"3886",62.270264,80.58228,82.935646
"3887",62.2836,80.567635,82.93919
"3888",62.296936,80.59937,82.98867
"3889",62.310272,80.567635,82.97566
"3890",62.32361,80.38453,82.810295
"3891",62.336914,80.00122,82.439
"3892",62.35025,79.4226,81.86042
"3893",62.363586,78.68284,81.102615
"3894",62.376923,77.83566,80.21428
"3895",62.39026,76.94209,79.253075
"3896",62.403595,76.06317,78.278595
"3897",62.41693,75.24773,77.340126
"3898",62.430267,74.52506,76.468956
"3899",62.443604,73.90982,75.682625
"3900",62.45691,73.40444,74.98693
"3901",62.470245,72.99672,74.3731
"3902",62.48358,72.66712,73.82465
"3903",62.496918,72.413216,73.3416
"3904",62.510254,72.2301,72.9214
"3905",62.52359,72.11047,72.55896
"3906",62.536926,72.044556,72.24649
"3907",62.550232,72.01526,71.96858
"3908",62.56357,72.00549,71.70929
"3909",62.576904,71.973755,71.42772
"3910",62.59024,71.902954,71.106094
"3911",62.603577,71.78577,70.73587
"3912",62.616913,71.658806,70.35222
"3913",62.63025,71.64416,70.076904
"3914",62.643585,72.00305,70.17468
"3915",62.65692,73.094376,71.0161
"3916",62.670227,75.176926,72.88285
"3917",62.683563,78.28001,75.83521
"3918",62.6969,82.1326,79.634056
"3919",62.710236,86.22934,83.79744
"3920",62.72357,89.95743,87.72019
"3921",62.736908,92.79439,90.868324
"3922",62.750244,94.49851,92.972275
"3923",62.76355,95.11864,94.04548
"3924",62.776886,94.87694,94.27624
"3925",62.790222,94.081024,93.94523
"3926",62.80356,93.04097,93.34521
"3927",62.816895,92.015564,92.72733
"3928",62.83023,91.16594,92.2532
"3929",62.843567,90.52384,91.96004
"3930",62.856903,90.006256,91.771324
"3931",62.87024,89.4667,91.544464
"3932",62.883545,88.77333,91.146935
"3933",62.89688,87.852905,90.50067
"3934",62.910217,86.7396,89.63277
"3935",62.923553,85.55306,88.65684
"3936",62.93689,84.44709,87.724396
"3937",62.950226,83.54131,86.95759
"3938",62.963562,82.88945,86.41639
"3939",62.976868,82.442665,86.0599
"3940",62.990204,82.108185,85.80175
"3941",63.00354,81.78348,85.54292
"3942",63.016876,81.375755,85.19093
"3943",63.030212,80.82399,84.68216
"3944",63.04355,80.12085,84.00477
"3945",63.056885,79.293205,83.1809
"3946",63.07022,78.380104,82.24571
"3947",63.083557,77.43282,81.24781
"3948",63.096863,76.48798,80.22275
"3949",63.1102,75.59441,79.21943
"3950",63.123535,74.78142,78.26876
"3951",63.13687,74.06607,77.390335
"3952",63.150208,73.45571,76.59454
"3953",63.163544,72.94789,75.88222
"3954",63.17688,72.535286,75.24924
"3955",63.190186,72.20569,74.68637
"3956",63.20352,71.95422,74.19133
"3957",63.216858,71.776,73.76167
"3958",63.230194,71.66369,73.392365
"3959",63.24353,71.61242,73.08058
"3960",63.256866,71.59777,72.80382
"3961",63.270203,71.59289,72.53636
"3962",63.28354,71.56115,72.2419
"3963",63.296875,71.48058,71.89761
"3964",63.31018,71.34142,71.49222
"3965",63.323517,71.15343,71.033646
"3966",63.336853,70.975204,70.578964
"3967",63.35019,70.97276,70.294495
"3968",63.363525,71.4464,70.48604
"3969",63.37686,72.75502,71.52736
"3970",63.390198,75.11833,73.66427
"3971",63.403503,78.49485,76.88824
"3972",63.41684,82.547646,80.894
"3973",63.430176,86.72007,85.146034
"3974",63.443512,90.374916,89.01088
"3975",63.45685,93.04585,92.006035
"3976",63.470184,94.554665,93.92253
"3977",63.48352,95.00145,94.82415
"3978",63.496857,94.645,94.93649
"3979",63.510193,93.81247,94.56162
"3980",63.5235,92.81148,93.99227
"3981",63.536835,91.87396,93.45512
"3982",63.55017,91.10979,93.062004
"3983",63.563507,90.50919,92.80859
"3984",63.576843,89.96231,92.590126
"3985",63.59018,89.31289,92.25203
"3986",63.603516,88.446175,91.676346
"3987",63.61682,87.33776,90.83188
"3988",63.630157,86.048676,89.772095
"3989",63.643494,84.71809,88.63052
"3990",63.65683,83.50225,87.562126
"3991",63.670166,82.52079,86.69011
"3992",63.683502,81.80301,86.0511
"3993",63.69684,81.30251,85.60695
"3994",63.710175,80.92653,85.27167
"3995",63.72351,80.567635,84.94173
"3996",63.736816,80.14038,84.53221
"3997",63.750153,79.586174,83.98239
"3998",63.76349,78.89769,83.280975
"3999",63.776825,78.08713,82.43597
"4000",63.79016,77.20088,81.489944
"4001",63.803497,76.28535,80.48694
"4002",63.816833,75.386894,79.472404
"4003",63.83014,74.53971,78.481064
"4004",63.843475,73.777985,77.548706
"4005",63.85681,73.11635,76.692635
"4006",63.870148,72.56214,75.92332
"4007",63.883484,72.11536,75.244095
"4008",63.89682,71.75891,74.64125
"4009",63.910156,71.483025,74.107834
"4010",63.923492,71.26086,73.61951
"4011",63.93683,71.08507,73.17062
"4012",63.950134,70.94835,72.75531
"4013",63.96347,70.855576,72.37967
"4014",63.976807,70.80675,72.045074
"4015",63.990143,70.79942,71.75046
"4016",64.00348,70.82628,71.48979
"4017",64.016815,70.872665,71.2495
"4018",64.03015,70.91173,71.00333
"4019",64.04346,70.923935,70.73152
"4020",64.05679,70.88243,70.40639
"4021",64.07013,70.77501,70.01404
"4022",64.083466,70.59678,69.54753
"4023",64.0968,70.37949,69.03639
"4024",64.11014,70.22568,68.58193
"4025",64.123474,70.36973,68.42053
"4026",64.13681,71.182724,68.93258
"4027",64.15015,73.00893,70.483246
"4028",64.16345,75.98993,73.24578
"4029",64.17679,79.940186,77.070724
"4030",64.190125,84.38361,81.51228
"4031",64.20346,88.656136,85.92179
"4032",64.2168,92.122986,89.65915
"4033",64.23013,94.39353,92.30854
"4034",64.24347,95.4165,93.7813
"4035",64.256775,95.38964,94.23621
"4036",64.27011,94.63767,93.96517
"4037",64.28345,93.51461,93.29954
"4038",64.29678,92.33051,92.53777
"4039",64.31012,91.2929,91.88549
"4040",64.323456,90.48478,91.430275
"4041",64.33679,89.85489,91.12804
"4042",64.35013,89.271385,90.8525
"4043",64.363464,88.58045,90.4513
"4044",64.37677,87.68932,89.82831
"4045",64.39011,86.607765,88.987045
"4046",64.40344,85.43832,88.024086
"4047",64.41678,84.32014,87.07585
"4048",64.430115,83.39483,86.285545
"4049",64.44345,82.718544,85.71535
"4050",64.45679,82.27177,85.35352
"4051",64.47009,81.9617,85.11445
"4052",64.48343,81.68093,84.89498
"4053",64.496765,81.33669,84.60327
"4054",64.5101,80.86061,84.16896
"4055",64.52344,80.23071,83.565956
"4056",64.53677,79.45922,82.801674
"4057",64.55011,78.5803,81.90585
"4058",64.563446,77.6379,80.91909
"4059",64.57678,76.68574,79.89311
"4060",64.59009,75.775085,78.87889
"4061",64.603424,74.94499,77.91677
"4062",64.61676,74.21988,77.03369
"4063",64.6301,73.602196,76.23538
"4064",64.64343,73.077286,75.510544
"4065",64.65677,72.62806,74.844986
"4066",64.670105,72.23987,74.226425
"4067",64.68341,71.902954,73.647
"4068",64.69675,71.61486,73.10588
"4069",64.71008,71.38781,72.61679
"4070",64.72342,71.219345,72.1792
"4071",64.736755,71.09972,71.78517
"4072",64.75009,71.02403,71.43135
"4073",64.76343,70.98253,71.109344
"4074",64.776764,70.95079,70.79581
"4075",64.7901,70.9044,70.46663
"4076",64.803406,70.818954,70.09694
"4077",64.81674,70.67002,69.6611
"4078",64.83008,70.450294,69.14981
"4079",64.843414,70.17197,68.57305
"4080",64.85675,69.910736,68.00469
"4081",64.87009,69.85947,67.63813
"4082",64.88342,70.364845,67.826614
"4083",64.89673,71.79797,68.95864
"4084",64.910065,74.36149,71.26584
"4085",64.9234,77.960175,74.688324
"4086",64.93674,82.18875,78.85316
"4087",64.95007,86.42222,83.15502
"4088",64.96341,89.99893,86.93243
"4089",64.976746,92.45991,89.70587
"4090",64.99008,93.66842,91.30376
"4091",65.00342,93.7612,91.82368
"4092",65.01672,93.02144,91.513954
"4093",65.03006,91.79584,90.695274
"4094",65.043396,90.41154,89.679596
"4095",65.05673,89.12001,88.71343
"4096",65.07007,88.05798,87.9364
"4097",65.083405,87.21324,87.343475
"4098",65.09674,86.47837,86.834015
"4099",65.11005,85.72396,86.28205
"4100",65.12338,84.86946,85.60642
"4101",65.13672,83.92218,84.81131
"4102",65.150055,82.97734,83.98904
"4103",65.16339,82.17166,83.2764
"4104",65.17673,81.60525,82.77785
"4105",65.19006,81.287865,82.51063
"4106",65.2034,81.16823,82.43124
"4107",65.216736,81.129166,82.42868
"4108",65.23004,81.05104,82.38584
"4109",65.24338,80.84108,82.208725
"4110",65.256714,80.44068,81.83461
"4111",65.27005,79.83276,81.24046
"4112",65.28339,79.04173,80.44421
"4113",65.29672,78.12375,79.49628
"4114",65.31006,77.13985,78.45374
"4115",65.323364,76.14862,77.37314
"4116",65.3367,75.21355,76.31771
"4117",65.35004,74.373695,75.328285
"4118",65.36337,73.64858,74.42735
"4119",65.37671,73.03578,73.61607
"4120",65.390045,72.52552,72.88818
"4121",65.40338,72.10315,72.23224
"4122",65.41672,71.75159,71.633896
"4123",65.43005,71.47326,71.09781
"4124",65.44336,71.2633,70.62138
"4125",65.456696,71.12657,70.21164
"4126",65.47003,71.06798,69.87575
"4127",65.48337,71.08995,69.61859
"4128",65.496704,71.17052,69.420715
"4129",65.51004,71.29504,69.26932
"4130",65.52338,71.44396,69.14621
"4131",65.53668,71.58068,69.01555
"4132",65.55002,71.658806,68.83057
