"","Time..s.","PPG.trace","Preprocessed.PPG"
"93012",1253.4745,110.25315,270.62622
"93013",1253.4878,104.58167,265.90015
"93014",1253.5011,98.439,260.52567
"93015",1253.5144,92.13519,254.79808
"93016",1253.5277,85.95834,249.00046
"93017",1253.541,80.14282,243.37114
"93018",1253.5543,74.8864,238.11917
"93019",1253.5676,70.3502,233.42317
"93020",1253.5809,66.73197,229.50339
"93021",1253.5942,64.253914,226.6107
"93022",1253.6075,63.160145,225.02487
"93023",1253.6208,63.606926,224.9454
"93024",1253.6342,65.59182,226.41801
"93025",1253.6475,68.878006,229.25395
"93026",1253.6608,73.02602,233.0544
"93027",1253.6741,77.48165,237.2921
"93028",1253.6874,81.66384,241.39558
"93029",1253.7007,85.07698,244.86072
"93030",1253.714,87.40856,247.35095
"93031",1253.7273,88.531624,248.70554
"93032",1253.7406,88.50477,248.9453
"93033",1253.7539,87.50622,248.21252
"93034",1253.7672,85.7728,246.71367
"93035",1253.7805,83.53643,244.6577
"93036",1253.7938,80.987564,242.21935
"93037",1253.8071,78.25803,239.52068
"93038",1253.8204,75.4699,236.6781
"93039",1253.8337,72.7306,233.79723
"93040",1253.847,70.14267,230.98213
"93041",1253.8604,67.791565,228.32298
"93042",1253.8737,65.74563,225.89554
"93043",1253.887,64.04883,223.7533
"93044",1253.9003,62.718243,221.92424
"93045",1253.9136,61.758755,220.4247
"93046",1253.9269,61.17037,219.26627
"93047",1253.9402,60.950638,218.45811
"93048",1253.9535,61.07759,217.98978
"93049",1253.9668,61.49996,217.82082
"93050",1253.9801,62.15427,217.897
"93051",1253.9934,62.96483,218.14989
"93052",1254.0067,63.86572,218.51843
"93053",1254.02,64.86427,219.01279
"93054",1254.0333,66.16556,219.84108
"93055",1254.0466,68.27009,221.51329
"93056",1254.0599,71.922485,224.79913
"93057",1254.0732,77.74044,230.36467
"93058",1254.0865,85.694664,238.24828
"93059",1254.0999,94.94774,247.6793
"93060",1254.1132,104.12512,257.3238
"93061",1254.1265,111.815674,265.76825
"93062",1254.1398,116.996414,271.94324
"93063",1254.1531,119.379265,275.48224
"93064",1254.1664,119.33532,276.66888
"93065",1254.1797,117.523766,276.08655
"93066",1254.193,114.46464,274.20004
"93067",1254.2063,110.44358,271.256
"93068",1254.2196,105.67544,267.43924
"93069",1254.2329,100.40925,262.9754
"93070",1254.2462,94.90379,258.10773
"93071",1254.2595,89.38613,253.05582
"93072",1254.2728,84.03937,248.00237
"93073",1254.2861,79.00511,243.09435
"93074",1254.2994,74.41764,238.47578
"93075",1254.3127,70.46006,234.34375
"93076",1254.326,67.35699,230.94255
"93077",1254.3394,65.36721,228.55768
"93078",1254.3527,64.70313,227.43633
"93079",1254.366,65.44778,227.70294
"93080",1254.3793,67.48394,229.28435
"93081",1254.3926,70.504005,231.91328
"93082",1254.4059,74.06363,235.17616
"93083",1254.4192,77.67452,238.60155
"93084",1254.4325,80.902115,241.75647
"93085",1254.4458,83.421684,244.30423
"93086",1254.4591,85.050125,246.0396
"93087",1254.4724,85.74105,246.88834
"93088",1254.4857,85.540855,246.86755
"93089",1254.499,84.576485,246.07634
"93090",1254.5123,83.00664,244.6495
"93091",1254.5256,80.99733,242.73416
"93092",1254.539,78.71458,240.48257
"93093",1254.5522,76.299995,238.02782
"93094",1254.5656,73.85611,235.4683
"93095",1254.5789,71.47814,232.89835
"93096",1254.5922,69.23689,230.3908
"93097",1254.6055,67.19585,228.0134
"93098",1254.6188,65.4136,225.83102
"93099",1254.6321,63.934082,223.89569
"93100",1254.6454,62.789043,222.2486
"93101",1254.6587,61.98825,220.90996
"93102",1254.672,61.52926,219.88809
"93103",1254.6853,61.37789,219.15952
"93104",1254.6986,61.492638,218.69232
"93105",1254.7119,61.81979,218.44112
"93106",1254.7252,62.337376,218.39056
"93107",1254.7385,63.130848,218.63208
"93108",1254.7518,64.532234,219.5063
"93109",1254.7651,67.159225,221.64993
"93110",1254.7784,71.71984,225.80928
"93111",1254.7917,78.53147,232.36215
"93112",1254.805,87.16441,240.9492
"93113",1254.8184,96.48585,250.49452
"93114",1254.8317,105.07973,259.60358
"93115",1254.845,111.708244,267.01584
"93116",1254.8583,115.717094,272.01556
"93117",1254.8716,117.172195,274.58682
"93118",1254.8849,116.644844,275.2211
"93119",1254.8982,114.74784,274.46924
"93120",1254.9115,111.88403,272.69128
"93121",1254.9248,108.265816,270.06946
"93122",1254.9381,104.09094,266.7779
"93123",1254.9514,99.56451,263.0043
"93124",1254.9647,94.89159,258.94278
"93125",1254.978,90.230865,254.74742
"93126",1254.9913,85.70687,250.54314
"93127",1255.0046,81.41726,246.43187
"93128",1255.018,77.49386,242.55276
"93129",1255.0312,74.1149,239.09549
"93130",1255.0446,71.505,236.30168
"93131",1255.0579,69.88632,234.41754
"93132",1255.0712,69.42977,233.64494
"93133",1255.0845,70.152435,234.0373
"93134",1255.0978,71.91028,235.4874
"93135",1255.1111,74.40299,237.72731
"93136",1255.1244,77.23506,240.38448
"93137",1255.1377,80.008545,243.07155
"93138",1255.151,82.3621,245.42537
"93139",1255.1643,84.034485,247.17157
"93140",1255.1776,84.91341,248.17657
"93141",1255.1909,84.98909,248.4058
"93142",1255.2042,84.34455,247.91718
"93143",1255.2175,83.1165,246.82489
"93144",1255.2308,81.463646,245.26942
"93145",1255.2441,79.534904,243.38643
"93146",1255.2574,77.452354,241.28934
"93147",1255.2708,75.32342,239.08078
"93148",1255.284,73.231094,236.84232
"93149",1255.2974,71.23155,234.63124
"93150",1255.3107,69.36385,232.48953
"93151",1255.324,67.66949,230.46278
"93152",1255.3373,66.18021,228.58818
"93153",1255.3506,64.920425,226.89653
"93154",1255.3639,63.921875,225.42674
"93155",1255.3772,63.208973,224.2114
"93156",1255.3905,62.78172,223.25943
"93157",1255.4038,62.61814,222.55779
"93158",1255.4171,62.688946,222.0854
"93159",1255.4304,63.00145,221.85693
"93160",1255.4437,63.702145,222.02643
"93161",1255.457,65.215836,223.0308
"93162",1255.4703,68.18463,225.5376
"93163",1255.4836,73.1432,230.12694
"93164",1255.497,80.07446,236.84392
"93165",1255.5103,88.28016,245.05194
"93166",1255.5236,96.568855,253.5994
"93167",1255.5369,103.68322,261.23154
"93168",1255.5502,108.71259,267.001
"93169",1255.5635,111.36889,270.55457
"93170",1255.5768,111.96216,272.1281
"93171",1255.5901,111.063705,272.2285
"93172",1255.6034,109.12764,271.26315
"93173",1255.6167,106.42741,269.47314
"93174",1255.63,103.14366,267.01526
"93175",1255.6433,99.47173,264.06656
"93176",1255.6566,95.589836,260.79315
"93177",1255.6699,91.65911,257.3496
"93178",1255.6832,87.77478,253.82962
"93179",1255.6965,83.99786,250.29567
"93180",1255.7098,80.396736,246.81947
"93181",1255.7231,77.12276,243.55789
"93182",1255.7365,74.37614,240.72136
"93183",1255.7498,72.39124,238.56071
"93184",1255.7631,71.36584,237.29753
"93185",1255.7764,71.38781,237.04968
"93186",1255.7897,72.38636,237.7791
"93187",1255.803,74.13687,239.29169
"93188",1255.8163,76.30488,241.27647
"93189",1255.8296,78.536354,243.39247
"93190",1255.8429,80.49683,245.3072
"93191",1255.8562,81.92752,246.75342
"93192",1255.8695,82.69657,247.5827
"93193",1255.8828,82.77959,247.74998
"93194",1255.8961,82.23758,247.29485
"93195",1255.9094,81.16823,246.29543
"93196",1255.9227,79.693596,244.8573
"93197",1255.936,77.92844,243.08257
"93198",1255.9493,75.97772,241.06711
"93199",1255.9626,73.94156,238.90524
"93200",1255.976,71.90784,236.68219
"93201",1255.9893,69.942474,234.46394
"93202",1256.0026,68.10895,232.31612
"93203",1256.0159,66.45609,230.29167
"93204",1256.0292,65.02785,228.44019
"93205",1256.0425,63.858395,226.80286
"93206",1256.0558,62.962387,225.40242
"93207",1256.0691,62.337376,224.24498
"93208",1256.0824,61.958954,223.3146
"93209",1256.0957,61.792934,222.58481
"93210",1256.109,61.812466,222.03537
"93211",1256.1223,62.085907,221.74045
"93212",1256.1356,62.891586,221.98631
"93213",1256.1489,64.815445,223.37553
"93214",1256.1622,68.543526,226.62909
"93215",1256.1755,74.39567,232.12321
"93216",1256.1888,81.98123,239.53365
"93217",1256.2021,90.29191,247.90623
"93218",1256.2155,98.0679,256.00385
"93219",1256.2288,104.19592,262.69647
"93220",1256.2421,108.09979,267.35648
"93221",1256.2554,109.872284,270.00708
"93222",1256.2687,110.0383,271.1066
"93223",1256.282,109.09834,271.10535
"93224",1256.2953,107.34539,270.26172
"93225",1256.3086,104.94545,268.7163
"93226",1256.3219,102.05722,266.60764
"93227",1256.3352,98.8687,264.1084
"93228",1256.3485,95.5581,261.38745
"93229",1256.3618,92.25971,258.57526
"93230",1256.3751,89.02968,255.72833
"93231",1256.3884,85.87778,252.85861
"93232",1256.4017,82.81865,249.98317
"93233",1256.415,79.937744,247.19035
"93234",1256.4283,77.41085,244.66151
"93235",1256.4417,75.44793,242.61768
"93236",1256.455,74.23941,241.2669
"93237",1256.4683,73.87564,240.72311
"93238",1256.4816,74.31266,240.96875
"93239",1256.4949,75.36248,241.84084
"93240",1256.5082,76.75166,243.0851
"93241",1256.5215,78.204315,244.43623
"93242",1256.5348,79.46166,245.63747
"93243",1256.5481,80.35035,246.50932
"93244",1256.5614,80.762955,246.93288
"93245",1256.5747,80.672615,246.86638
"93246",1256.588,80.10376,246.31854
"93247",1256.6013,79.12474,245.34277
"93248",1256.6146,77.81125,244.00192
"93249",1256.6279,76.243835,242.3661
"93250",1256.6412,74.50065,240.50554
"93251",1256.6545,72.66468,238.49771
"93252",1256.6678,70.804306,236.40811
"93253",1256.6812,68.98543,234.30186
"93254",1256.6945,67.27642,232.24866
"93255",1256.7078,65.73586,230.31049
"93256",1256.7211,64.41993,228.5488
"93257",1256.7344,63.372547,227.01454
"93258",1256.7477,62.620583,225.74297
"93259",1256.761,62.17136,224.75064
"93260",1256.7743,62.01999,224.04213
"93261",1256.7876,62.122528,223.5828
"93262",1256.8009,62.42771,223.32932
"93263",1256.8142,62.874493,223.22696
"93264",1256.8275,63.38964,223.20694
"93265",1256.8408,63.91455,223.21277
"93266",1256.8541,64.41993,223.21548
"93267",1256.8674,64.92775,223.23642
"93268",1256.8807,65.618675,223.45633
"93269",1256.894,66.966354,224.3546
"93270",1256.9073,69.65438,226.63533
"93271",1256.9207,74.17349,230.83115
"93272",1256.934,80.41871,236.89429
"93273",1256.9473,87.6527,244.14136
"93274",1256.9606,94.81102,251.53882
"93275",1256.9739,100.82674,258.0174
"93276",1256.9872,104.98207,262.82358
"93277",1257.0005,107.17937,265.80157
"93278",1257.0138,107.81659,267.28815
"93279",1257.0271,107.372246,267.71307
"93280",1257.0404,106.141754,267.33795
"93281",1257.0537,104.288704,266.30182
"93282",1257.067,101.962006,264.73413
"93283",1257.0803,99.320366,262.7788
"93284",1257.0936,96.52735,260.58957
"93285",1257.1069,93.71725,258.29596
"93286",1257.1202,90.982834,255.9902
"93287",1257.1335,88.3534,253.70398
"93288",1257.1469,85.81674,251.42836
"93289",1257.1602,83.36797,249.16136
"93290",1257.1735,81.06325,246.96188
"93291",1257.1868,79.029526,244.9614
"93292",1257.2001,77.437706,243.33925
"93293",1257.2134,76.42939,242.25085
"93294",1257.2267,76.07782,241.7877
"93295",1257.24,76.32929,241.91661
"93296",1257.2533,77.02266,242.49527
"93297",1257.2666,77.9382,243.31776
"93298",1257.2799,78.85863,244.17375
"93299",1257.2932,79.59594,244.8754
"93300",1257.3065,80.03052,245.29735
"93301",1257.3198,80.08911,245.3569
"93302",1257.3331,79.76196,245.03253
"93303",1257.3464,79.078354,244.34149
"93304",1257.3597,78.09689,243.33122
"93305",1257.373,76.86885,242.0437
"93306",1257.3864,75.45037,240.52737
"93307",1257.3997,73.89761,238.83244
"93308",1257.413,72.26673,237.01086
"93309",1257.4263,70.61387,235.11633
"93310",1257.4396,69.00984,233.219
"93311",1257.4529,67.51812,231.38383
"93312",1257.4662,66.197296,229.67296
"93313",1257.4795,65.093765,228.13809
"93314",1257.4928,64.2417,226.8202
"93315",1257.5061,63.650875,225.73694
"93316",1257.5194,63.321278,224.89642
"93317",1257.5327,63.216297,224.27023
"93318",1257.546,63.30663,223.83607
"93319",1257.5593,63.550774,223.55855
"93320",1257.5726,63.909668,223.40341
"93321",1257.5859,64.36378,223.3547
"93322",1257.5992,64.89357,223.39587
"93323",1257.6125,65.479515,223.50974
"93324",1257.6259,66.08011,223.65657
"93325",1257.6392,66.67094,223.81241
"93326",1257.6525,67.20317,223.92812
"93327",1257.6658,67.64019,223.96524
"93328",1257.6791,67.96002,223.89883
"93329",1257.6924,68.17731,223.73987
"93330",1257.7057,68.39948,223.59259
"93331",1257.719,68.96834,223.79893
"93332",1257.7323,70.54063,225.02649
"93333",1257.7456,73.71938,227.90964
"93334",1257.7589,78.624245,232.61823
"93335",1257.7722,84.754715,238.7057
"93336",1257.7855,91.22453,245.32411
"93337",1257.7988,96.99855,251.4489
"93338",1257.8121,101.24422,256.22577
"93339",1257.8254,103.658806,259.30423
"93340",1257.8387,104.50355,260.8883
"93341",1257.852,104.23743,261.3879
"93342",1257.8654,103.19005,261.09796
"93343",1257.8787,101.56405,260.19666
"93344",1257.892,99.523,258.8295
"93345",1257.9053,97.2256,257.14218
"93346",1257.9186,94.83299,255.28787
"93347",1257.9319,92.48432,253.40274
"93348",1257.9452,90.27726,251.58582
"93349",1257.9585,88.255745,249.88547
"93350",1257.9718,86.400246,248.28796
"93351",1257.9851,84.64973,246.73746
"93352",1257.9984,82.98222,245.21526
"93353",1258.0117,81.43191,243.75813
"93354",1258.025,80.09155,242.46252
"93355",1258.0383,79.07591,241.44974
"93356",1258.0516,78.485085,240.83003
"93357",1258.065,78.34104,240.63864
"93358",1258.0782,78.5803,240.82605
"93359",1258.0916,79.080795,241.28218
"93360",1258.1049,79.69848,241.87114
"93361",1258.1182,80.28687,242.4501
"93362",1258.1315,80.726326,242.89853
"93363",1258.1448,80.936295,243.1312
"93364",1258.1581,80.87038,243.09454
"93365",1258.1714,80.516365,242.76773
"93366",1258.1847,79.89624,242.16374
"93367",1258.198,79.03929,241.30356
"93368",1258.2113,77.977264,240.2115
"93369",1258.2246,76.73945,238.91048
"93370",1258.2379,75.372246,237.44138
"93371",1258.2512,73.93179,235.85631
"93372",1258.2645,72.48402,234.2189
"93373",1258.2778,71.08751,232.58752
"93374",1258.2911,69.805756,231.02725
"93375",1258.3044,68.69001,229.59294
"93376",1258.3177,67.76471,228.31421
"93377",1258.331,67.04692,227.21407
"93378",1258.3444,66.55619,226.31856
"93379",1258.3577,66.29008,225.63232
"93380",1258.371,66.2388,225.15262
"93381",1258.3843,66.38285,224.86664
"93382",1258.3976,66.69535,224.7536
"93383",1258.4109,67.13481,224.7773
"93384",1258.4242,67.664604,224.90506
"93385",1258.4375,68.24567,225.10065
"93386",1258.4508,68.841385,225.32904
"93387",1258.4641,69.42733,225.56628
"93388",1258.4774,69.98398,225.79254
"93389",1258.4907,70.49912,225.99469
"93390",1258.504,70.94591,226.14458
"93391",1258.5173,71.30724,226.22298
"93392",1258.5306,71.551384,226.19547
"93393",1258.544,71.67101,226.05107
"93394",1258.5573,71.656364,225.77614
"93395",1258.5706,71.52209,225.38112
"93396",1258.5839,71.28039,224.87448
"93397",1258.5972,70.94835,224.26996
"93398",1258.6105,70.53086,223.56961
"93399",1258.6238,70.0499,222.79274
"93400",1258.6371,69.576256,222.00816
"93401",1258.6504,69.34432,221.45049
"93402",1258.6637,69.89609,221.66927
"93403",1258.677,71.99573,223.45316
"93404",1258.6903,76.104675,227.31197
"93405",1258.7036,82.00076,233.08632
"93406",1258.7169,88.834366,239.98245
"93407",1258.7302,95.47265,246.8968
"93408",1258.7435,100.80965,252.71732
"93409",1258.7568,104.15686,256.71484
"93410",1258.7701,105.531395,258.84427
"93411",1258.7834,105.45327,259.564
"93412",1258.7968,104.45472,259.36087
"93413",1258.81,102.84337,258.51373
"93414",1258.8234,100.80476,257.189
"93415",1258.8367,98.48295,255.51733
"93416",1258.85,96.01953,253.63152
"93417",1258.8633,93.54391,251.6565
"93418",1258.8766,91.17082,249.70665
"93419",1258.8899,88.98085,247.86577
"93420",1258.9032,86.98619,246.15176
"93421",1258.9165,85.155106,244.539
"93422",1258.9298,83.438774,242.98376
"93423",1258.9431,81.832306,241.48476
"93424",1258.9564,80.40162,240.11133
"93425",1258.9697,79.27123,238.9935
"93426",1258.983,78.555885,238.25537
"93427",1258.9963,78.311745,237.9661
"93428",1259.0096,78.52415,238.12573
"93429",1259.023,79.09056,238.64603
"93430",1259.0363,79.85718,239.38422
"93431",1259.0496,80.66285,240.18542
"93432",1259.0629,81.36599,240.90929
"93433",1259.0762,81.85428,241.44026
"93434",1259.0895,82.054474,241.69841
"93435",1259.1028,81.92752,241.63567
"93436",1259.1161,81.478294,241.24667
"93437",1259.1294,80.73609,240.55067
"93438",1259.1427,79.73754,239.57513
"93439",1259.156,78.51194,238.34132
"93440",1259.1693,77.10567,236.88855
"93441",1259.1826,75.57244,235.26488
"93442",1259.1959,73.98306,233.53714
"93443",1259.2092,72.413216,231.77927
"93444",1259.2225,70.941025,230.06999
"93445",1259.2358,69.644615,228.4905
"93446",1259.2491,68.577705,227.09998
"93447",1259.2625,67.77203,225.93736
"93448",1259.2758,67.23247,225.01567
"93449",1259.2891,66.95903,224.34325
"93450",1259.3024,66.92241,223.8991
"93451",1259.3157,67.09331,223.66132
"93452",1259.329,67.43511,223.5998
"93453",1259.3423,67.91608,223.68811
"93454",1259.3556,68.492256,223.88667
"93455",1259.3689,69.12459,224.1594
"93456",1259.3822,69.77646,224.4714
"93457",1259.3955,70.41856,224.79402
"93458",1259.4088,71.02159,225.09764
"93459",1259.4221,71.568474,225.36395
"93460",1259.4354,72.042114,225.57411
"93461",1259.4487,72.427864,225.71118
"93462",1259.462,72.71107,225.75775
"93463",1259.4753,72.8893,225.7082
"93464",1259.4886,72.95766,225.55435
"93465",1259.502,72.92348,225.3001
"93466",1259.5153,72.80141,224.95688
"93467",1259.5286,72.60853,224.53905
"93468",1259.5419,72.35462,224.05415
"93469",1259.5552,72.059204,223.51982
"93470",1259.5685,71.73693,222.9494
"93471",1259.5818,71.39025,222.3445
"93472",1259.5951,71.01671,221.7019
"93473",1259.6084,70.626076,221.03055
"93474",1259.6217,70.240326,220.35187
"93475",1259.635,69.93271,219.73926
"93476",1259.6483,69.9498,219.44174
"93477",1259.6616,70.87511,220.05298
"93478",1259.6749,73.54116,222.43388
"93479",1259.6882,78.450905,227.14178
"93480",1259.7015,85.3016,233.94406
"93481",1259.7148,93.09224,241.90038
"93482",1259.7281,100.51179,249.72905
"93483",1259.7415,106.33463,256.1929
"93484",1259.7548,109.83078,260.512
"93485",1259.7681,111.07103,262.68445
"93486",1259.7814,110.70725,263.29163
"93487",1259.7947,109.38155,262.92554
"93488",1259.808,107.43084,261.893
"93489",1259.8213,105.023575,260.34296
"93490",1259.8346,102.30869,258.41006
"93491",1259.8479,99.43755,256.23608
"93492",1259.8612,96.55665,253.9626
"93493",1259.8745,93.802704,251.72604
"93494",1259.8878,91.27337,249.62804
"93495",1259.9011,89.00282,247.70978
"93496",1259.9144,86.94957,245.93787
"93497",1259.9277,85.06477,244.27025
"93498",1259.941,83.336235,242.69998
"93499",1259.9543,81.812775,241.28078
"93500",1259.9677,80.601814,240.12646
"93501",1259.981,79.823,239.36646
"93502",1259.9943,79.54711,239.08504
"93503",1260.0076,79.7522,239.27597
"93504",1260.0209,80.35035,239.86638
"93505",1260.0342,81.17555,240.70253
"93506",1260.0475,82.05936,241.62308
"93507",1260.0608,82.84306,242.47115
"93508",1260.0741,83.39483,243.11176
"93509",1260.0874,83.6292,243.45222
"93510",1260.1007,83.50225,243.43869
"93511",1260.114,83.018845,243.06473
"93512",1260.1273,82.20828,242.34851
"93513",1260.1406,81.126724,241.33597
"93514",1260.1539,79.82788,240.07234
"93515",1260.1672,78.363014,238.6021
"93516",1260.1805,76.79317,236.9811
"93517",1260.1938,75.18181,235.26952
"93518",1260.2072,73.602196,233.53934
"93519",1260.2205,72.1178,231.85501
"93520",1260.2338,70.79454,230.28543
"93521",1260.2471,69.68124,228.88446
"93522",1260.2604,68.807205,227.68797
"93523",1260.2737,68.17731,226.7083
"93524",1260.287,67.7818,225.94333
"93525",1260.3003,67.60845,225.38817
"93526",1260.3136,67.62798,225.02046
"93527",1260.3269,67.81598,224.82184
"93528",1260.3402,68.140686,224.7658
"93529",1260.3535,68.577705,224.83221
"93530",1260.3668,69.102615,225.00018
"93531",1260.3801,69.67391,225.23094
"93532",1260.3934,70.26231,225.49664
"93533",1260.4067,70.84337,225.7734
"93534",1260.42,71.380486,226.02438
"93535",1260.4333,71.8468,226.22134
"93536",1260.4467,72.22766,226.34741
"93537",1260.46,72.50843,226.3853
"93538",1260.4733,72.689095,226.33185
"93539",1260.4866,72.781876,226.19617
"93540",1260.4999,72.80385,225.99257
"93541",1260.5132,72.76967,225.7335
"93542",1260.5265,72.69398,225.43187
"93543",1260.5398,72.57679,225.08636
"93544",1260.5531,72.42542,224.70302
"93545",1260.5664,72.232544,224.27344
"93546",1260.5797,71.99817,223.79633
"93547",1260.593,71.71252,223.26062
"93548",1260.6063,71.38537,222.67448
"93549",1260.6196,71.03624,222.05615
"93550",1260.6329,70.7335,221.4733
"93551",1260.6462,70.68223,221.13245
"93552",1260.6595,71.4049,221.56393
"93553",1260.6729,73.74624,223.63667
"93554",1260.6862,78.34348,228.03848
"93555",1260.6995,85.067215,234.71045
"93556",1260.7128,92.98482,242.7864
"93557",1260.7261,100.76814,250.97551
"93558",1260.7394,107.089035,257.9454
"93559",1260.7527,111.05394,262.75684
"93560",1260.766,112.57496,265.2483
"93561",1260.7793,112.272224,265.96353
"93562",1260.7926,110.86595,265.56577
"93563",1260.8059,108.76875,264.43314
"93564",1260.8192,106.17349,262.7369
"93565",1260.8325,103.22423,260.60556
"93566",1260.8458,100.069885,258.17697
"93567",1260.8591,96.869156,255.60342
"93568",1260.8724,93.753876,253.0153
"93569",1260.8857,90.83879,250.53003
"93570",1260.899,88.17761,248.20757
"93571",1260.9124,85.767914,246.05342
"93572",1260.9257,83.57061,244.03636
"93573",1260.939,81.56863,242.14597
"93574",1260.9523,79.80591,240.43227
"93575",1260.9656,78.38987,239.01016
"93576",1260.9789,77.45724,238.0272
"93577",1260.9922,77.10567,237.59618
"93578",1261.0055,77.36202,237.76208
"93579",1261.0188,78.14816,238.46579
"93580",1261.0321,79.30053,239.56029
"93581",1261.0454,80.6067,240.84459
"93582",1261.0587,81.85428,242.11113
"93583",1261.072,82.86992,243.18472
"93584",1261.0853,83.526665,243.93115
"93585",1261.0986,83.75372,244.26842
"93586",1261.1119,83.54131,244.17331
"93587",1261.1252,82.930954,243.67361
"93588",1261.1385,81.97879,242.81305
"93589",1261.1519,80.75563,241.65173
"93590",1261.1652,79.32494,240.24466
"93591",1261.1785,77.7551,238.65372
"93592",1261.1918,76.10712,236.93558
"93593",1261.2051,74.45182,235.15863
"93594",1261.2184,72.85756,233.39099
"93595",1261.2317,71.38781,231.69804
"93596",1261.245,70.09628,230.13739
"93597",1261.2583,69.02449,228.7561
"93598",1261.2716,68.19928,227.5879
"93599",1261.2849,67.61822,226.63808
"93600",1261.2982,67.2691,225.90202
"93601",1261.3115,67.13237,225.36746
"93602",1261.3248,67.1812,225.01418
"93603",1261.3381,67.37896,224.81136
"93604",1261.3514,67.6939,224.73189
"93605",1261.3647,68.104065,224.75749
"93606",1261.378,68.58259,224.86427
"93607",1261.3914,69.1075,225.0324
"93608",1261.4047,69.65926,225.24377
"93609",1261.418,70.21347,225.47484
"93610",1261.4313,70.750595,225.70613
"93611",1261.4446,71.2462,225.91269
"93612",1261.4579,71.68078,226.07372
"93613",1261.4712,72.03967,226.17264
"93614",1261.4845,72.318,226.20221
"93615",1261.4978,72.50843,226.15257
"93616",1261.5111,72.620735,226.03076
"93617",1261.5244,72.66468,225.8441
"93618",1261.5377,72.64759,225.59778
"93619",1261.551,72.57191,225.29233
"93620",1261.5643,72.43275,224.92104
"93621",1261.5776,72.22766,224.47948
"93622",1261.591,71.96399,223.97292
"93623",1261.6042,71.7174,223.4752
"93624",1261.6176,71.7174,223.21637
"93625",1261.6309,72.515755,223.75589
"93626",1261.6442,74.9572,225.96346
"93627",1261.6575,79.65942,230.50809
"93628",1261.6708,86.45396,237.29199
"93629",1261.6841,94.36668,245.4064
"93630",1261.6974,102.05478,253.54346
"93631",1261.7107,108.209656,260.38754
"93632",1261.724,111.974365,265.0338
"93633",1261.7373,113.30984,267.36847
"93634",1261.7506,112.848404,267.94797
"93635",1261.7639,111.32006,267.44614
"93636",1261.7772,109.12276,266.2276
"93637",1261.7905,106.444496,264.4594
"93638",1261.8038,103.42443,262.26575
"93639",1261.8171,100.20416,259.7775
"93640",1261.8304,96.937515,257.14224
"93641",1261.8438,93.77829,254.51231
"93642",1261.857,90.83635,252.00095
"93643",1261.8704,88.16052,249.66376
"93644",1261.8837,85.74105,247.4993
"93645",1261.897,83.52422,245.46188
"93646",1261.9103,81.48806,243.53586
"93647",1261.9236,79.674065,241.76837
"93648",1261.9369,78.20187,240.286
"93649",1261.9502,77.21553,239.24345
"93650",1261.9635,76.822464,238.76337
"93651",1261.9768,77.049515,238.89111
"93652",1261.9901,77.83322,239.58261
"93653",1262.0034,79.01976,240.70143
"93654",1262.0167,80.39185,242.0429
"93655",1262.03,81.72488,243.38817
"93656",1262.0433,82.8333,244.55049
"93657",1262.0566,83.57061,245.37634
"93658",1262.07,83.85626,245.77357
"93659",1262.0833,83.66827,245.70609
"93660",1262.0966,83.055466,245.20792
"93661",1262.1099,82.08133,244.32927
"93662",1262.1232,80.816666,243.12965
"93663",1262.1365,79.327385,241.6659
"93664",1262.1498,77.69894,240.01642
"93665",1262.1631,76.00214,238.24771
"93666",1262.1764,74.3151,236.43575
"93667",1262.1897,72.7013,234.64429
"93668",1262.203,71.219345,232.93425
"93669",1262.2163,69.90341,231.34392
"93670",1262.2296,68.78523,229.91022
"93671",1262.2429,67.879456,228.65398
"93672",1262.2562,67.193405,227.58916
"93673",1262.2695,66.72953,226.72508
"93674",1262.2828,66.48051,226.06136
"93675",1262.2961,66.439,225.59737
"93676",1262.3094,66.58793,225.32251
"93677",1262.3228,66.9102,225.22566
"93678",1262.336,67.369194,225.2756
"93679",1262.3494,67.92828,225.43999
"93680",1262.3627,68.543526,225.678
"93681",1262.376,69.17586,225.95232
"93682",1262.3893,69.8082,226.2464
"93683",1262.4026,70.41856,226.53827
"93684",1262.4159,70.99962,226.81992
"93685",1262.4292,71.54162,227.08066
"93686",1262.4425,72.02991,227.30463
"93687",1262.4558,72.44007,227.46573
"93688",1262.4691,72.75258,227.54199
"93689",1262.4824,72.952774,227.5157
"93690",1262.4957,73.02113,227.36383
"93691",1262.509,72.94301,227.06761
"93692",1262.5223,72.70374,226.60782
"93693",1262.5356,72.28626,225.96233
"93694",1262.549,71.70275,225.13776
"93695",1262.5623,70.98985,224.16557
"93696",1262.5756,70.28672,223.18088
"93697",1262.5889,69.98398,222.5746
"93698",1262.6022,70.887314,223.16493
"93699",1262.6155,74.04898,226.04182
"93700",1262.6288,80.01831,231.82518
"93701",1262.6421,88.31678,240.12422
"93702",1262.6554,97.601585,249.66893
"93703",1262.6687,106.2272,258.8446
"93704",1262.682,112.72877,266.16577
"93705",1262.6953,116.32746,270.78723
"93706",1262.7086,117.25033,272.84534
"93707",1262.7219,116.36408,273.12317
"93708",1262.7352,114.44022,272.3357
"93709",1262.7485,111.818115,270.78986
"93710",1262.7618,108.65156,268.6176
"93711",1262.7751,105.057755,265.91916
"93712",1262.7885,101.17586,262.8203
"93713",1262.8018,97.164566,259.47076
"93714",1262.8151,93.19966,256.04224
"93715",1262.8284,89.44228,252.69734
"93716",1262.8417,86.00961,249.55974
"93717",1262.855,82.9456,246.68353
"93718",1262.8683,80.235596,244.06558
"93719",1262.8816,77.872284,241.70963
"93720",1262.8949,75.8996,239.67044
"93721",1262.9082,74.43473,238.07744
"93722",1262.9215,73.602196,237.07098
"93723",1262.9348,73.52163,236.79048
"93724",1262.9481,74.22232,237.28873
"93725",1262.9614,75.613945,238.4998
"93726",1262.9747,77.47921,240.228
"93727",1262.988,79.534904,242.20491
"93728",1263.0013,81.48318,244.13864
"93729",1263.0146,83.06279,245.7646
"93730",1263.028,84.08087,246.8784
"93731",1263.0413,84.44953,247.37459
"93732",1263.0546,84.18341,247.24751
"93733",1263.0679,83.36553,246.56036
"93734",1263.0812,82.10574,245.40575
"93735",1263.0945,80.516365,243.88217
"93736",1263.1078,78.69993,242.08188
"93737",1263.1211,76.754105,240.09543
"93738",1263.1344,74.776535,238.01642
"93739",1263.1477,72.84291,235.91956
"93740",1263.161,71.01671,233.86969
"93741",1263.1743,69.35653,231.92879
"93742",1263.1876,67.894104,230.13376
"93743",1263.2009,66.66117,228.52252
"93744",1263.2142,65.67727,227.12178
"93745",1263.2275,64.954605,225.95154
"93746",1263.2408,64.48585,225.0126
"93747",1263.2542,64.256355,224.2983
"93748",1263.2675,64.23193,223.78189
"93749",1263.2808,64.39796,223.45517
"93750",1263.2941,64.725105,223.29475
"93751",1263.3074,65.19386,223.28616
"93752",1263.3207,65.78226,223.41187
"93753",1263.334,66.46342,223.64873
"93754",1263.3473,67.20561,223.96791
"93755",1263.3606,67.981995,224.34447
"93756",1263.3739,68.76082,224.74773
"93757",1263.3872,69.51278,225.14847
"93758",1263.4005,70.21835,225.52632
"93759",1263.4138,70.84825,225.85054
"93760",1263.4271,71.38537,226.10167
"93761",1263.4404,71.81262,226.25972
"93762",1263.4537,72.10315,226.29439
"93763",1263.467,72.23987,226.18433
"93764",1263.4803,72.215454,225.9174
"93765",1263.4937,72.05432,225.513
"93766",1263.507,71.87854,225.08891
"93767",1263.5203,72.078735,225.03531
"93768",1263.5336,73.4728,226.18184
"93769",1263.5469,77.11543,229.6205
"93770",1263.5602,83.53887,235.9538
"93771",1263.5735,92.22797,244.75348
"93772",1263.5868,101.82529,254.73293
"93773",1263.6001,110.658424,264.2481
"93774",1263.6134,117.26009,271.80786
"93775",1263.6267,120.86366,276.5758
"93776",1263.64,121.720604,278.70975
"93777",1263.6533,120.70496,278.99786
"93778",1263.6666,118.573586,278.13852
"93779",1263.6799,115.67315,276.4435
"93780",1263.6932,112.15991,274.04504
"93781",1263.7065,108.16327,271.0534
"93782",1263.7198,103.84436,267.6146
"93783",1263.7332,99.38384,263.8992
"93784",1263.7465,94.98192,260.10303
"93785",1263.7598,90.81438,256.4037
"93786",1263.7731,87.010605,252.93787
"93787",1263.7864,83.617,249.76334
"93788",1263.7997,80.62379,246.88316
"93789",1263.813,78.02121,244.30008
"93790",1263.8263,75.85321,242.07024
"93791",1263.8396,74.22232,240.30975
"93792",1263.8529,73.26284,239.16972
"93793",1263.8662,73.11391,238.81026
"93794",1263.8795,73.831696,239.31285
"93795",1263.8928,75.34783,240.63623
"93796",1263.9061,77.44259,242.5856
"93797",1263.9194,79.801025,244.86412
"93798",1263.9327,82.06912,247.126
"93799",1263.946,83.93439,249.05594
"93800",1263.9594,85.16731,250.41182
"93801",1263.9727,85.662926,251.06891
"93802",1263.986,85.44564,251.0286
"93803",1263.9993,84.59846,250.3516
"93804",1264.0126,83.23857,249.1354
"93805",1264.0259,81.48318,247.48122
"93806",1264.0392,79.43725,245.48164
"93807",1264.0525,77.20332,243.23013
"93808",1264.0658,74.8864,240.8258
"93809",1264.0791,72.584114,238.36372
"93810",1264.0924,70.38926,235.93712
"93811",1264.1057,68.37507,233.62259
"93812",1264.119,66.600136,231.48438
"93813",1264.1323,65.10597,229.57147
"93814",1264.1456,63.904785,227.90485
"93815",1264.1589,62.99901,226.4961
"93816",1264.1722,62.373997,225.3398
"93817",1264.1855,62.010223,224.42522
"93818",1264.1989,61.88571,223.73853
"93819",1264.2122,61.976044,223.26279
"93820",1264.2255,62.25681,222.9803
"93821",1264.2388,62.71336,222.88239
"93822",1264.2521,63.318836,222.94766
"93823",1264.2654,64.041504,223.14905
"93824",1264.2787,64.85695,223.46579
"93825",1264.292,65.73342,223.86905
"93826",1264.3053,66.63676,224.32655
"93827",1264.3186,67.527885,224.80008
"93828",1264.3319,68.37507,225.2575
"93829",1264.3452,69.136795,225.65596
"93830",1264.3585,69.788666,225.96835
"93831",1264.3718,70.29893,226.15952
"93832",1264.3851,70.660255,226.21768
"93833",1264.3984,70.95079,226.21635
"93834",1264.4117,71.49035,226.47313
"93835",1264.425,73.04799,227.76485
"93836",1264.4384,76.680855,231.18047
"93837",1264.4517,83.01152,237.40741
"93838",1264.465,91.66155,246.15155
"93839",1264.4783,101.366295,256.2207
"93840",1264.4916,110.48997,266.0121
"93841",1264.5049,117.52865,274.00357
"93842",1264.5182,121.63271,279.2804
"93843",1264.5315,122.934006,281.88272
"93844",1264.5448,122.24307,282.53348
"93845",1264.5581,120.309456,281.91995
"93846",1264.5714,117.487144,280.3573
"93847",1264.5847,113.92996,277.9716
"93848",1264.598,109.77219,274.8741
"93849",1264.6113,105.16762,271.19992
"93850",1264.6246,100.299385,267.11816
"93851",1264.638,95.37499,262.82812
"93852",1264.6512,90.61173,258.54535
"93853",1264.6646,86.185394,254.45062
"93854",1264.6779,82.2034,250.66193
"93855",1264.6912,78.709694,247.23708
"93856",1264.7045,75.718925,244.20598
"93857",1264.7178,73.25796,241.61122
"93858",1264.7311,71.4049,239.54747
"93859",1264.7444,70.294044,238.16801
"93860",1264.7577,70.0621,237.63277
"93861",1264.771,70.78722,238.04732
"93862",1264.7843,72.430305,239.40251
"93863",1264.7976,74.78142,241.51707
"93864",1264.8109,77.4963,244.06888
"93865",1264.8242,80.184326,246.67867
"93866",1264.8375,82.46952,248.96962
"93867",1264.8508,84.068665,250.64594
"93868",1264.8641,84.83772,251.54214
"93869",1264.8774,84.78157,251.63718
"93870",1264.8907,83.99298,250.99802
"93871",1264.904,82.61112,249.74094
"93872",1264.9174,80.78493,247.99634
"93873",1264.9307,78.64866,245.8846
"93874",1264.944,76.32441,243.51811
"93875",1264.9573,73.92203,241.00087
"93876",1264.9706,71.53918,238.42809
"93877",1264.9839,69.2662,235.8907
"93878",1264.9972,67.18852,233.4776
"93879",1265.0105,65.357445,231.24617
"93880",1265.0238,63.812008,229.24315
"93881",1265.0371,62.569313,227.49458
"93882",1265.0504,61.62936,226.00992
"93883",1265.0637,60.97261,224.77908
"93884",1265.077,60.577095,223.78896
"93885",1265.0903,60.415962,223.02086
"93886",1265.1036,60.46723,222.46013
"93887",1265.117,60.706493,222.08899
"93888",1265.1302,61.104446,221.88402
"93889",1265.1436,61.639126,221.82822
"93890",1265.1569,62.283665,221.89897
"93891",1265.1702,63.011215,222.07289
"93892",1265.1835,63.794918,222.3257
"93893",1265.1968,64.61524,222.63962
"93894",1265.2101,65.44778,222.99138
"93895",1265.2234,66.270546,223.35939
"93896",1265.2367,67.054245,223.71405
"93897",1265.25,67.76227,224.01752
"93898",1265.2633,68.35798,224.2308
"93899",1265.2766,68.81941,224.32843
"93900",1265.2899,69.21248,224.3721
"93901",1265.3032,69.879,224.7015
"93902",1265.3165,71.63195,226.13818
"93903",1265.3298,75.5993,229.84402
"93904",1265.3431,82.44511,236.5523
"93905",1265.3564,91.76654,245.95015
"93906",1265.3698,102.203705,256.755
"93907",1265.383,112.02319,267.26837
"93908",1265.3964,119.63073,275.87665
"93909",1265.4097,124.10834,281.5927
"93910",1265.423,125.58053,284.4433
"93911",1265.4363,124.892044,285.1792
"93912",1265.4496,122.829025,284.51904
"93913",1265.4629,119.75525,282.78366
"93914",1265.4762,115.82208,280.09283
"93915",1265.4895,111.17357,276.56375
"93916",1265.5028,105.99039,272.35474
"93917",1265.5161,100.48737,267.6639
"93918",1265.5294,94.91356,262.73032
"93919",1265.5427,89.530174,257.813
"93920",1265.556,84.56672,253.14735
"93921",1265.5693,80.16235,248.8857
"93922",1265.5826,76.37812,245.10654
"93923",1265.596,73.22621,241.84145
"93924",1265.6093,70.728615,239.13217
"93925",1265.6226,68.96834,237.08217
"93926",1265.6359,68.07965,235.84874
"93927",1265.6492,68.21881,235.61539
"93928",1265.6625,69.46395,236.49237
"93929",1265.6758,71.72228,238.42145
"93930",1265.6891,74.720375,241.16086
"93931",1265.7024,78.02609,244.30159
"93932",1265.7157,81.15846,247.37227
"93933",1265.729,83.69756,249.94757
"93934",1265.7423,85.365074,251.73064
"93935",1265.7556,86.046234,252.57945
"93936",1265.7689,85.79233,252.5145
"93937",1265.7822,84.7425,251.64568
"93938",1265.7955,83.075,250.12637
"93939",1265.8088,80.96559,248.11307
"93940",1265.8221,78.56565,245.7433
"93941",1265.8354,75.99725,243.13008
"93942",1265.8488,73.35317,240.36092
"93943",1265.862,70.7335,237.53352
"93944",1265.8754,68.2359,234.74635
"93945",1265.8887,65.94339,232.08621
"93946",1265.902,63.934082,229.63763
"93947",1265.9153,62.25925,227.46074
"93948",1265.9286,60.93599,225.58308
"93949",1265.9419,59.95453,224.00587
"93950",1265.9552,59.288013,222.71294
"93951",1265.9685,58.914474,221.69215
"93952",1265.9818,58.797283,220.91605
"93953",1265.9951,58.912033,220.36821
"93954",1266.0084,59.236744,220.03392
"93955",1266.0217,59.75433,219.90265
"93956",1266.035,60.44526,219.9609
"93957",1266.0483,61.27779,220.18236
"93958",1266.0616,62.22263,220.54213
"93959",1266.075,63.230946,220.9949
"93960",1266.0883,64.26368,221.5036
"93961",1266.1016,65.26711,222.01527
"93962",1266.1149,66.197296,222.48506
"93963",1266.1282,67.01518,222.87161
"93964",1266.1415,67.73296,223.18362
"93965",1266.1548,68.54597,223.61328
"93966",1266.1681,70.04257,224.75195
"93967",1266.1814,73.27993,227.67815
"93968",1266.1947,79.1931,233.38132
"93969",1266.208,87.81384,241.97684
"93970",1266.2213,98.10208,252.50926
"93971",1266.2346,108.40742,263.38028
"93972",1266.2479,117.015945,272.87653
"93973",1266.2612,122.65324,279.67056
"93974",1266.2745,125.016556,283.3668
"93975",1266.2878,124.74067,284.49768
"93976",1266.3011,122.70939,283.86456
"93977",1266.3145,119.450066,281.9399
"93978",1266.3278,115.192184,278.91486
"93979",1266.3411,110.101776,274.9242
"93980",1266.3544,104.39857,270.16168
"93981",1266.3677,98.34135,264.8669
"93982",1266.381,92.245056,259.34378
"93983",1266.3943,86.40757,253.88895
"93984",1266.4076,81.08522,248.76683
"93985",1266.4209,76.419624,244.13515
"93986",1266.4342,72.46937,240.073
"93987",1266.4475,69.23689,236.6052
"93988",1266.4608,66.758835,233.79079
"93989",1266.4741,65.127945,231.74611
"93990",1266.4874,64.500496,230.6539
"93991",1266.5007,65.040054,230.7091
"93992",1266.514,66.83452,232.03607
"93993",1266.5273,69.771576,234.5617
"93994",1266.5406,73.53384,238.00433
"93995",1266.554,77.61837,241.8868
"93996",1266.5673,81.45388,245.64787
"93997",1266.5806,84.54475,248.78418
"93998",1266.5939,86.56382,250.94528
"93999",1266.6072,87.40368,251.99026
"94000",1266.6205,87.13756,251.9555
"94001",1266.6338,85.94858,250.98958
"94002",1266.6471,84.04425,249.27115
"94003",1266.6604,81.63943,246.9927
"94004",1266.6737,78.91478,244.31929
"94005",1266.687,76.04364,241.41423
"94006",1266.7003,73.179825,238.42677
"94007",1266.7136,70.4625,235.49632
"94008",1266.7269,67.98688,232.72266
"94009",1266.7402,65.80179,230.16216
"94010",1266.7535,63.943848,227.86052
"94011",1266.7668,62.415504,225.83041
"94012",1266.7802,61.19234,224.05774
"94013",1266.7935,60.240177,222.51784
"94014",1266.8068,59.544365,221.20453
"94015",1266.8201,59.10002,220.12094
"94016",1266.8334,58.919357,219.28716
"94017",1266.8467,59.002365,218.7114
"94018",1266.86,59.346607,218.39946
"94019",1266.8733,59.92035,218.32779
"94020",1266.8866,60.68208,218.46204
"94021",1266.8999,61.58053,218.7568
"94022",1266.9132,62.574196,219.17487
"94023",1266.9265,63.62646,219.68257
"94024",1266.9398,64.69581,220.24025
"94025",1266.9531,65.72854,220.79472
"94026",1266.9664,66.65629,221.27649
"94027",1266.9797,67.44244,221.64565
"94028",1266.993,68.21637,222.02716
"94029",1267.0063,69.52499,222.96754
"94030",1267.0197,72.42054,225.53575
"94031",1267.033,77.996796,230.87515
"94032",1267.0463,86.505226,239.32098
"94033",1267.0596,97.01564,250.03468
"94034",1267.0729,107.81659,261.36737
"94035",1267.0862,117.02815,271.4482
"94036",1267.0995,123.16838,278.74557
"94037",1267.1128,125.71725,282.64346
"94038",1267.1261,125.2314,283.58627
"94039",1267.1394,122.684975,282.45334
"94040",1267.1527,118.75426,279.85654
"94041",1267.166,113.73708,276.05045
"94042",1267.1793,107.85077,271.2184
"94043",1267.1926,101.35653,265.5945
"94044",1267.2059,94.56931,259.4747
"94045",1267.2192,87.82849,253.18916
"94046",1267.2325,81.45632,247.06163
"94047",1267.2458,75.70672,241.35754
"94048",1267.2592,70.71641,236.23306
"94049",1267.2725,66.54398,231.77052
"94050",1267.2858,63.22118,228.02722
"94051",1267.2991,60.799267,225.08096
"94052",1267.3124,59.388115,223.0698
"94053",1267.3257,59.14641,222.18398
"94054",1267.339,60.201115,222.587
"94055",1267.3523,62.58152,224.3487
"94056",1267.3656,66.1387,227.36154
"94057",1267.3789,70.50889,231.29857
"94058",1267.3922,75.15251,235.6456
"94059",1267.4055,79.48852,239.83012
"94060",1267.4188,82.984665,243.31029
"94061",1267.4321,85.28451,245.7034
"94062",1267.4454,86.26841,246.85245
"94063",1267.4587,86.03647,246.81639
"94064",1267.472,84.79866,245.76723
"94065",1267.4854,82.81865,243.93718
"94066",1267.4987,80.35035,241.55696
"94067",1267.512,77.60616,238.82373
"94068",1267.5253,74.74967,235.89243
"94069",1267.5386,71.93469,232.91338
"94070",1267.5519,69.28329,230.00993
"94071",1267.5652,66.88823,227.27998
"94072",1267.5785,64.81789,224.7999
"94073",1267.5918,63.10643,222.614
"94074",1267.6051,61.763638,220.74329
"94075",1267.6184,60.774853,219.18462
"94076",1267.6317,60.108337,217.91731
"94077",1267.645,59.725033,216.9124
"94078",1267.6583,59.593193,216.14697
"94079",1267.6716,59.676205,215.59227
"94080",1267.6849,59.944763,215.22571
"94081",1267.6982,60.372013,215.02623
"94082",1267.7115,60.93599,214.97684
"94083",1267.7249,61.612267,215.05736
"94084",1267.7382,62.354465,215.22495
"94085",1267.7515,63.128407,215.44746
"94086",1267.7648,63.91455,215.70638
"94087",1267.7781,64.75929,216.04845
"94088",1267.7914,65.93118,216.74406
"94089",1267.8047,68.09918,218.47241
"94090",1267.818,72.271614,222.27295
"94091",1267.8313,79.26147,229.02129
"94092",1267.8446,88.96376,238.7005
"94093",1267.8579,100.16754,250.1844
"94094",1267.8712,111.027084,261.6742
"94095",1267.8845,119.725945,271.34265
"94096",1267.8978,125.04341,277.90155
"94097",1267.9111,126.77196,281.03772
"94098",1267.9244,125.61715,281.34454
"94099",1267.9377,122.57511,279.72803
"94100",1267.951,118.312355,276.79575
"94101",1267.9644,113.126724,272.80737
"94102",1267.9777,107.228195,267.94406
"94103",1267.991,100.87068,262.43744
"94104",1268.0043,94.3447,256.56366
"94105",1268.0176,87.93347,250.6007
"94106",1268.0309,81.86893,244.78407
"94107",1268.0442,76.32197,239.29552
"94108",1268.0575,71.40246,234.26106
"94109",1268.0708,67.20561,229.79555
"94110",1268.0841,63.85107,226.04118
"94111",1268.0974,61.487755,223.17322
"94112",1268.1107,60.28168,221.38864
"94113",1268.124,60.36469,220.85545
"94114",1268.1373,61.78805,221.6652
"94115",1268.1506,64.46632,223.77435
"94116",1268.164,68.14801,226.97061
"94117",1268.1772,72.45716,230.9094
"94118",1268.1906,76.912796,235.12932
"94119",1268.2039,81.01198,239.13202
"94120",1268.2172,84.32502,242.47668
"94121",1268.2305,86.57847,244.8653
"94122",1268.2438,87.68932,246.18173
"94123",1268.2571,87.74792,246.48062
"94124",1268.2704,86.94957,245.9244
"94125",1268.2837,85.521324,244.71332
"94126",1268.297,83.67071,243.03525
"94127",1268.3103,81.566185,241.04544
"94128",1268.3236,79.34936,238.87756
"94129",1268.3369,77.13008,236.63795
"94130",1268.3502,74.99138,234.40956
"94131",1268.3635,73.006485,232.26814
"94132",1268.3768,71.22179,230.2649
"94133",1268.3901,69.65438,228.42317
"94134",1268.4034,68.32136,226.76685
"94135",1268.4167,67.21782,225.29836
"94136",1268.43,66.34135,224.02245
"94137",1268.4434,65.68215,222.93642
"94138",1268.4567,65.21828,222.02512
"94139",1268.47,64.920425,221.26534
"94140",1268.4833,64.75929,220.63297
"94141",1268.4966,64.72999,220.12738
"94142",1268.5099,64.93019,219.8504
"94143",1268.5232,65.70901,220.1583
"94144",1268.5365,67.774475,221.77718
"94145",1268.5498,72.03967,225.66032
"94146",1268.5631,79.04173,232.41362
"94147",1268.5764,88.394905,241.73685
"94148",1268.5897,98.775925,252.3802
"94149",1268.603,108.40986,262.6009
"94150",1268.6163,115.702446,270.78128
"94151",1268.6296,119.73327,275.9278
"94152",1268.643,120.534065,277.97025
"94153",1268.6562,118.85924,277.5621
"94154",1268.6696,115.580376,275.4976
"94155",1268.6829,111.24681,272.2759
"94156",1268.6962,106.12955,268.1351
"94157",1268.7095,100.419014,263.24112
"94158",1268.7228,94.34959,257.80978
"94159",1268.7361,88.15564,252.06425
"94160",1268.7494,82.07156,246.23505
"94161",1268.7627,76.299995,240.52821
"94162",1268.776,71.026474,235.13907
"94163",1268.7893,66.42191,230.25409
"94164",1268.8026,62.66453,226.07239
"94165",1268.8159,59.92035,222.78647
"94166",1268.8292,58.340733,220.57936
"94167",1268.8425,58.0502,219.61198
"94168",1268.8558,59.104904,219.98076
"94169",1268.8691,61.456017,221.6789
"94170",1268.8824,64.90822,224.55159
"94171",1268.8958,69.12215,228.2939
"94172",1268.909,73.636375,232.4682
"94173",1268.9224,77.943085,236.57605
"94174",1268.9357,81.57107,240.13976
"94175",1268.949,84.20294,242.82072
"94176",1268.9623,85.69955,244.44867
"94177",1268.9756,86.08774,245.01497
"94178",1268.9889,85.514,244.63147
"94179",1269.0022,84.18341,243.47319
"94180",1269.0155,82.30106,241.72157
"94181",1269.0288,80.076904,239.56932
"94182",1269.0421,77.696495,237.19131
"94183",1269.0554,75.31365,234.73648
"94184",1269.0687,73.05531,232.3317
"94185",1269.082,71.0045,230.06386
"94186",1269.0953,69.207596,227.98584
"94187",1269.1086,67.67925,226.12024
"94188",1269.122,66.42191,224.47787
"94189",1269.1353,65.41848,223.05013
"94190",1269.1486,64.656746,221.83272
"94191",1269.1619,64.10986,220.80637
"94192",1269.1752,63.750973,219.95091
"94193",1269.1885,63.58251,219.27467
"94194",1269.2018,63.72656,218.90567
"94195",1269.2151,64.57862,219.24919
"94196",1269.2284,66.85893,221.04758
"94197",1269.2417,71.42687,225.20486
"94198",1269.255,78.7219,232.23198
"94199",1269.2683,88.26307,241.7332
"94200",1269.2816,98.67826,252.40662
"94201",1269.2949,108.2121,262.52414
"94202",1269.3082,115.346,270.53967
"94203",1269.3215,119.28161,275.57983
"94204",1269.3348,120.128784,277.65457
"94205",1269.3481,118.678566,277.45837
"94206",1269.3615,115.79523,275.78375
"94207",1269.3748,112.02075,273.12787
"94208",1269.3881,107.60418,269.71194
"94209",1269.4014,102.728615,265.699
"94210",1269.4147,97.564964,261.24564
"94211",1269.428,92.281685,256.51126
"94212",1269.4413,87.0399,251.65327
"94213",1269.4546,81.991,246.82437
"94214",1269.4679,77.28878,242.18437
"94215",1269.4812,73.12367,237.93454
"94216",1269.4945,69.691,234.28699
"94217",1269.5078,67.18852,231.46236
"94218",1269.5211,65.7847,229.65817
"94219",1269.5344,65.599144,229.0284
"94220",1269.5477,66.648964,229.62819
"94221",1269.561,68.824295,231.3863
"94222",1269.5743,71.86633,234.0791
"94223",1269.5876,75.39178,237.35037
"94224",1269.601,78.94408,240.75867
"94225",1269.6143,82.074005,243.85559
"94226",1269.6276,84.42512,246.27151
"94227",1269.6409,85.81674,247.80142
"94228",1269.6542,86.22446,248.39091
"94229",1269.6675,85.76059,248.12157
"94230",1269.6808,84.59846,247.13945
"94231",1269.6941,82.94072,245.62541
"94232",1269.7074,80.98024,243.75684
"94233",1269.7207,78.87816,241.6854
"94234",1269.734,76.75166,239.52383
"94235",1269.7473,74.68864,237.3593
"94236",1269.7606,72.742805,235.24748
"94237",1269.7739,70.94591,233.2238
"94238",1269.7872,69.30282,231.29778
"94239",1269.8005,67.8233,229.48398
"94240",1269.8138,66.512245,227.7924
"94241",1269.8271,65.391624,226.25029
"94242",1269.8405,64.52979,224.93195
"94243",1269.8538,64.183105,224.1018
"94244",1269.8671,64.91066,224.33508
"94245",1269.8804,67.51812,226.47101
"94246",1269.8937,72.65736,231.22018
"94247",1269.907,80.28687,238.62024
"94248",1269.9203,89.50088,247.8432
"94249",1269.9336,98.80278,257.44202
"94250",1269.9469,106.66178,265.8886
"94251",1269.9602,111.99878,272.05878
"94252",1269.9735,114.528114,275.58807
"94253",1269.9868,114.70634,276.8453
"94254",1270.0001,113.28542,276.50897
"94255",1270.0134,110.84642,275.11014
"94256",1270.0267,107.69695,272.92462
"94257",1270.04,104.02014,270.11334
"94258",1270.0533,99.984436,266.82828
"94259",1270.0667,95.76807,263.23642
"94260",1270.08,91.49798,259.45908
"94261",1270.0933,87.26452,255.58493
"94262",1270.1066,83.1458,251.69322
"94263",1270.1199,79.24925,247.89499
"94264",1270.1332,75.72869,244.35097
"94265",1270.1465,72.7892,241.278
"94266",1270.1598,70.65293,238.9164
"94267",1270.1731,69.5079,237.47926
"94268",1270.1864,69.43221,237.0757
"94269",1270.1997,70.37949,237.69273
"94270",1270.213,72.164185,239.17679
"94271",1270.2263,74.48844,241.25618
"94272",1270.2396,76.9836,243.5791
"94273",1270.2529,79.29809,245.79933
"94274",1270.2662,81.126724,247.60603
"94275",1270.2795,82.26444,248.77896
"94276",1270.2928,82.6453,249.23059
"94277",1270.3062,82.31571,248.98367
"94278",1270.3195,81.39529,248.13562
"94279",1270.3328,80.02319,246.80713
"94280",1270.3461,78.35081,245.13547
"94281",1270.3594,76.51728,243.2504
"94282",1270.3727,74.64469,241.26897
"94283",1270.386,72.8307,239.28763
"94284",1270.3993,71.13634,237.36922
"94285",1270.4126,69.58846,235.54436
"94286",1270.4259,68.17975,233.81029
"94287",1270.4392,66.89067,232.15182
"94288",1270.4525,65.71877,230.57027
"94289",1270.4658,64.81789,229.2231
"94290",1270.4791,64.61036,228.54114
"94291",1270.4924,65.86038,229.31024
"94292",1270.5057,69.37362,232.38162
"94293",1270.519,75.41863,238.09456
"94294",1270.5323,83.404594,245.93735
"94295",1270.5457,92.103455,254.7426
"94296",1270.559,100.06256,263.07993
"94297",1270.5723,106.08316,269.72748
"94298",1270.5856,109.61837,274.0778
"94299",1270.5989,110.890366,276.27536
"94300",1270.6122,110.53147,276.88177
"94301",1270.6255,109.083694,276.38812
"94302",1270.6388,106.844894,275.0582
"94303",1270.6521,103.9884,273.04062
"94304",1270.6654,100.69001,270.49185
"94305",1270.6787,97.12306,267.57147
"94306",1270.692,93.46334,264.44684
"94307",1270.7053,89.830475,261.2347
"94308",1270.7186,86.28306,257.9945
"94309",1270.7319,82.845505,254.7533
"94310",1270.7452,79.57397,251.57068
"94311",1270.7585,76.5832,248.56659
"94312",1270.7719,74.06119,245.9378
"94313",1270.7852,72.21301,243.90404
"94314",1270.7985,71.21202,242.6597
"94315",1270.8118,71.12413,242.29718
"94316",1270.8251,71.86633,242.76201
"94317",1270.8384,73.21889,243.86038
"94318",1270.8517,74.896164,245.32574
"94319",1270.865,76.59785,246.86794
"94320",1270.8783,78.05783,248.2216
"94321",1270.8916,79.07103,249.1741
"94322",1270.9049,79.53002,249.60406
"94323",1270.9182,79.41772,249.47707
"94324",1270.9315,78.7805,248.82166
"94325",1270.9448,77.69894,247.70198
"94326",1270.9581,76.280464,246.2116
"94327",1270.9714,74.632484,244.44737
"94328",1270.9847,72.86244,242.5096
"94329",1270.998,71.063095,240.4872
"94330",1271.0114,69.3077,238.45253
"94331",1271.0247,67.65728,236.46797
"94332",1271.038,66.15091,234.5759
"94333",1271.0513,64.80324,232.79544
"94334",1271.0646,63.61669,231.134
"94335",1271.0779,62.58152,229.58685
"94336",1271.0912,61.741665,228.20267
"94337",1271.1045,61.285114,227.17554
"94338",1271.1178,61.729458,227.03503
"94339",1271.1311,63.89258,228.6272
"94340",1271.1444,68.39704,232.6283
"94341",1271.1577,75.16716,239.03583
"94342",1271.171,83.36553,247.08318
"94343",1271.1843,91.72259,255.54541
"94344",1271.1976,98.92485,263.114
"94345",1271.2109,104.03723,268.8178
"94346",1271.2242,106.861984,272.39374
"94347",1271.2375,107.81659,274.18777
"94348",1271.2509,107.4699,274.71036
"94349",1271.2642,106.18326,274.28214
"94350",1271.2775,104.166626,273.08374
"94351",1271.2908,101.60067,271.27298
"94352",1271.3041,98.67094,269.01828
"94353",1271.3174,95.56298,266.4938
"94354",1271.3307,92.42817,263.84534
"94355",1271.344,89.35439,261.15994
"94356",1271.3573,86.3563,258.45416
"94357",1271.3706,83.4168,255.7133
"94358",1271.3839,80.550545,252.95383
"94359",1271.3972,77.840546,250.26103
"94360",1271.4105,75.44305,247.79605
"94361",1271.4238,73.548485,245.75908
"94362",1271.4371,72.33265,244.34163
"94363",1271.4504,71.87366,243.64304
"94364",1271.4637,72.12756,243.64299
"94365",1271.477,72.938126,244.20753
"94366",1271.4904,74.06851,245.11723
"94367",1271.5037,75.27215,246.13551
"94368",1271.517,76.30976,247.02538
"94369",1271.5303,77.01778,247.61807
"94370",1271.5436,77.29366,247.80077
"94371",1271.5569,77.12764,247.55017
"94372",1271.5702,76.56367,246.89644
"94373",1271.5835,75.67498,245.90036
"94374",1271.5968,74.53971,244.62993
"94375",1271.6101,73.22865,243.14824
"94376",1271.6234,71.81506,241.52304
"94377",1271.6367,70.34287,239.79507
"94378",1271.65,68.858475,238.0089
"94379",1271.6633,67.405815,236.20807
"94380",1271.6766,66.0264,234.43509
"94381",1271.69,64.764175,232.73619
"94382",1271.7032,63.67529,231.17119
"94383",1271.7166,62.80369,229.78944
"94384",1271.7299,62.178684,228.62704
"94385",1271.7432,61.797817,227.68927
"94386",1271.7565,61.64889,226.97153
"94387",1271.7698,61.69772,226.44688
"94388",1271.7831,61.912567,226.08978
"94389",1271.7964,62.25925,225.87123
"94390",1271.8097,62.691387,225.74896
"94391",1271.823,63.165028,225.6817
"94392",1271.8363,63.631344,225.62192
"94393",1271.8496,64.0708,225.54985
"94394",1271.8629,64.5713,225.55255
"94395",1271.8762,65.52834,226.02745
"94396",1271.8895,67.65484,227.7017
"94397",1271.9028,71.64416,231.30524
"94398",1271.9161,77.62081,237.02077
"94399",1271.9294,85.015945,244.34155
"94400",1271.9427,92.78706,252.26942
"94401",1271.956,99.76227,259.64423
"94402",1271.9694,104.98451,265.48404
"94403",1271.9827,108.11688,269.3972
"94404",1271.996,109.43282,271.59177
"94405",1272.0093,109.42794,272.50665
"94406",1272.0226,108.44648,272.44482
"94407",1272.0359,106.683754,271.57104
"94408",1272.0492,104.308235,270.0294
"94409",1272.0625,101.522545,268.00333
"94410",1272.0758,98.52445,265.67783
"94411",1272.0891,95.51171,263.244
"94412",1272.1024,92.62104,260.83807
"94413",1272.1157,89.91104,258.5225
"94414",1272.129,87.35973,256.2809
"94415",1272.1423,84.91585,254.06702
"94416",1272.1556,82.57206,251.87685
"94417",1272.169,80.38941,249.77458
"94418",1272.1823,78.502174,247.89952
"94419",1272.1956,77.07637,246.42691
"94420",1272.2089,76.24628,245.50545
"94421",1272.2222,76.033875,245.17574
"94422",1272.2355,76.351265,245.36919
"94423",1272.2488,77.01778,245.92168
"94424",1272.2621,77.8259,246.6366
"94425",1272.2754,78.572975,247.31573
"94426",1272.2887,79.08324,247.7814
"94427",1272.302,79.24681,247.91632
"94428",1272.3153,79.027084,247.67305
"94429",1272.3286,78.433815,247.04938
"94430",1272.3419,77.51095,246.07756
"94431",1272.3552,76.33173,244.82056
"94432",1272.3685,74.966965,243.34116
"94433",1272.3818,73.47524,241.69215
"94434",1272.3951,71.90051,239.91353
"94435",1272.4084,70.30381,238.06372
"94436",1272.4218,68.74372,236.20062
"94437",1272.435,67.28619,234.39133
"94438",1272.4484,65.99222,232.70006
"94439",1272.4617,64.91066,231.18076
"94440",1272.475,64.06592,229.86447
"94441",1272.4883,63.453117,228.75372
"94442",1272.5016,63.05516,227.83868
"94443",1272.5149,62.857403,227.1114
"94444",1272.5282,62.83787,226.55617
"94445",1272.5415,62.989243,226.17122
"94446",1272.5548,63.294422,225.94481
"94447",1272.5681,63.729,225.85733
"94448",1272.5814,64.26612,225.88599
"94449",1272.5947,64.866714,225.9949
"94450",1272.608,65.496605,226.15189
"94451",1272.6213,66.11429,226.31635
"94452",1272.6346,66.68314,226.45128
"94453",1272.648,67.17876,226.53075
"94454",1272.6613,67.579155,226.53049
"94455",1272.6746,67.8819,226.44508
"94456",1272.6879,68.09186,226.27635
"94457",1272.7012,68.21881,226.03117
"94458",1272.7145,68.27009,225.7143
"94459",1272.7278,68.24567,225.32332
"94460",1272.7411,68.15045,224.86078
"94461",1272.7544,67.96979,224.30981
"94462",1272.7677,67.701225,223.66531
"94463",1272.781,67.35699,222.93674
"94464",1272.7943,67.00786,222.19252
"94465",1272.8076,66.897995,221.67665
"94466",1272.8209,67.647514,222.01674
"94467",1272.8342,70.1622,224.14542
"94468",1272.8475,75.05974,228.73552
"94469",1272.8608,82.14969,235.67108
"94470",1272.8741,90.48966,244.07823
"94471",1272.8875,98.77104,252.68741
"94472",1272.9008,105.68276,260.18573
"94473",1272.9141,110.35325,265.6588
"94474",1272.9274,112.71168,268.9658
"94475",1272.9407,113.28542,270.56177
"94476",1272.954,112.6482,270.96472
"94477",1272.9673,111.11742,270.4542
"94478",1272.9806,108.89082,269.2
"94479",1272.9939,106.15396,267.366
"94480",1273.0072,103.11192,265.14127
"94481",1273.0205,99.96246,262.71405
"94482",1273.0338,96.87404,260.24945
"94483",1273.0471,93.95163,257.85437
"94484",1273.0604,91.226974,255.5657
"94485",1273.0737,88.66834,253.35791
"94486",1273.087,86.239105,251.19955
"94487",1273.1003,83.963684,249.11911
"94488",1273.1136,81.9324,247.2117
"94489",1273.127,80.29664,245.63632
"94490",1273.1403,79.20531,244.55426
"94491",1273.1536,78.73655,244.06067
"94492",1273.1669,78.84642,244.13106
"94493",1273.1802,79.39086,244.63945
"94494",1273.1935,80.16968,245.39923
"94495",1273.2068,80.95827,246.19312
"94496",1273.2201,81.566185,246.83098
"94497",1273.2334,81.8616,247.17534
"94498",1273.2467,81.77371,247.14563
"94499",1273.26,81.290306,246.71765
"94500",1273.2733,80.45533,245.923
"94501",1273.2866,79.33959,244.8215
"94502",1273.2999,78.011444,243.47272
"94503",1273.3132,76.53193,241.93106
"94504",1273.3265,74.94255,240.2333
"94505",1273.3398,73.29214,238.42485
"94506",1273.3531,71.63195,236.55504
"94507",1273.3665,70.01816,234.67975
"94508",1273.3798,68.51179,232.86145
"94509",1273.3931,67.173874,231.16454
"94510",1273.4064,66.055695,229.64554
"94511",1273.4197,65.17677,228.33086
"94512",1273.433,64.551765,227.24261
"94513",1273.4463,64.183105,226.3912
"94514",1273.4596,64.05615,225.76997
"94515",1273.4729,64.15137,225.36694
"94516",1273.4862,64.446785,225.16708
"94517",1273.4995,64.900894,225.13516
"94518",1273.5128,65.46975,225.23218
"94519",1273.5261,66.10452,225.41289
"94520",1273.5394,66.76128,225.6354
"94521",1273.5527,67.40826,225.86868
"94522",1273.566,68.016174,226.08311
"94523",1273.5793,68.560616,226.25307
"94524",1273.5927,69.02937,226.36435
"94525",1273.606,69.41024,226.40239
"94526",1273.6193,69.70809,226.36931
"94527",1273.6326,69.91562,226.25522
"94528",1273.6459,70.04501,226.06947
"94529",1273.6592,70.09384,225.8072
"94530",1273.6725,70.066986,225.47078
"94531",1273.6858,69.9498,225.04318
"94532",1273.6991,69.72518,224.5045
"94533",1273.7124,69.38827,223.8465
"94534",1273.7257,68.97322,223.09984
"94535",1273.739,68.61677,222.3988
"94536",1273.7523,68.733955,222.16026
"94537",1273.7656,70.098724,223.17297
"94538",1273.7789,73.48745,226.25229
"94539",1273.7922,79.08568,231.647
"94540",1273.8055,86.30259,238.83534
"94541",1273.8188,94.01755,246.74725
"94542",1273.8322,100.95857,254.12633
"94543",1273.8455,106.06607,259.8888
"94544",1273.8588,108.93477,263.57205
"94545",1273.8721,109.86496,265.40646
"94546",1273.8854,109.46212,265.9369
"94547",1273.8987,108.16815,265.5636
"94548",1273.912,106.22232,264.49802
"94549",1273.9253,103.81506,262.91022
"94550",1273.9386,101.12459,260.96396
"94551",1273.9519,98.338905,258.8384
"94552",1273.9652,95.60937,256.68198
"94553",1273.9785,93.04097,254.60138
"94554",1273.9918,90.67521,252.64314
"94555",1274.0051,88.47791,250.77945
"94556",1274.0184,86.383156,248.94963
"94557",1274.0317,84.3592,247.12515
"94558",1274.045,82.46708,245.36926
"94559",1274.0583,80.833755,243.81303
"94560",1274.0717,79.60815,242.61348
"94561",1274.085,78.91722,241.91031
"94562",1274.0983,78.80736,241.7666
"94563",1274.1116,79.21507,242.13704
"94564",1274.1249,79.98169,242.87912
"94565",1274.1382,80.89967,243.79654
"94566",1274.1515,81.75906,244.68405
"94567",1274.1648,82.38651,245.36647
"94568",1274.1781,82.65507,245.70961
"94569",1274.1914,82.51835,245.65587
"94570",1274.2047,81.991,245.20721
"94571",1274.218,81.1194,244.39784
"94572",1274.2313,79.974365,243.2878
"94573",1274.2446,78.61448,241.92711
"94574",1274.2579,77.0959,240.36523
"94575",1274.2712,75.47723,238.6558
"94576",1274.2845,73.82193,236.85918
"94577",1274.2979,72.19592,235.0401
"94578",1274.3112,70.657814,233.25812
"94579",1274.3245,69.263756,231.57211
"94580",1274.3378,68.050354,230.02321
"94581",1274.3511,67.04936,228.64879
"94582",1274.3644,66.26566,227.46039
"94583",1274.3777,65.70901,226.47453
"94584",1274.391,65.38186,225.70079
"94585",1274.4043,65.289085,225.1512
"94586",1274.4176,65.40383,224.80623
"94587",1274.4309,65.71145,224.65771
"94588",1274.4442,66.17044,224.6702
"94589",1274.4575,66.72953,224.79712
"94590",1274.4708,67.3399,224.99278
"94591",1274.4841,67.95758,225.21484
"94592",1274.4974,68.541084,225.42203
"94593",1274.5107,69.06111,225.58397
"94594",1274.524,69.51522,225.69624
"94595",1274.5374,69.90097,225.75435
"94596",1274.5507,70.220795,225.75858
"94597",1274.564,70.48203,225.71422
"94598",1274.5773,70.68711,225.62186
"94599",1274.5906,70.818954,225.46268
"94600",1274.6039,70.86778,225.2246
"94601",1274.6172,70.804306,224.87573
"94602",1274.6305,70.61143,224.3955
"94603",1274.6438,70.27451,223.76518
"94604",1274.6571,69.82529,223.01204
"94605",1274.6704,69.36141,222.23021
"94606",1274.6837,69.188065,221.72441
"94607",1274.697,69.95224,222.15071
"94608",1274.7103,72.50111,224.38559
"94609",1274.7236,77.315636,228.96577
"94610",1274.7369,84.08087,235.64713
"94611",1274.7502,91.810486,243.50427
"94612",1274.7635,99.247116,251.30998
"94613",1274.7769,105.18715,257.8515
"94614",1274.7902,108.91768,262.36914
"94615",1274.8035,110.504616,264.85974
"94616",1274.8168,110.51682,265.82523
"94617",1274.8301,109.488976,265.75104
"94618",1274.8434,107.72137,264.90497
"94619",1274.8567,105.38979,263.4397
"94620",1274.87,102.66514,261.50848
"94621",1274.8833,99.72076,259.2724
"94622",1274.8966,96.72999,256.89792
"94623",1274.9099,93.839325,254.53006
"94624",1274.9232,91.139084,252.2623
"94625",1274.9365,88.64637,250.11768
"94626",1274.9498,86.32456,248.06607
"94627",1274.9631,84.13214,246.07129
"94628",1274.9764,82.09354,244.16182
"94629",1274.9897,80.31129,242.44499
"94630",1275.003,78.93675,241.08018
"94631",1275.0164,78.12619,240.23639
"94632",1275.0297,77.962616,240.01425
"94633",1275.043,78.41184,240.39981
"94634",1275.0563,79.3225,241.26083
"94635",1275.0696,80.479744,242.3969
"94636",1275.0829,81.64675,243.5789
"94637",1275.0962,82.60868,244.5923
"94638",1275.1095,83.211716,245.27686
"94639",1275.1228,83.38262,245.54813
"94640",1275.1361,83.106735,245.37794
"94641",1275.1494,82.41581,244.7841
"94642",1275.1627,81.3782,243.82199
"94643",1275.176,80.0647,242.55156
"94644",1275.1893,78.54612,241.035
"94645",1275.2026,76.88106,239.32451
"94646",1275.216,75.142746,237.48872
"94647",1275.2292,73.402,235.59619
"94648",1275.2426,71.73449,233.72249
"94649",1275.2559,70.20615,231.93585
"94650",1275.2692,68.87068,230.29433
"94651",1275.2825,67.77203,228.84789
"94652",1275.2958,66.934616,227.62834
"94653",1275.3091,66.36088,226.64632
"94654",1275.3224,66.038605,225.89783
"94655",1275.3357,65.94827,225.3712
"94656",1275.349,66.06302,225.04683
"94657",1275.3623,66.34867,224.89696
"94658",1275.3756,66.76616,224.88785
"94659",1275.3889,67.29351,225.00165
"94660",1275.4022,67.88922,225.20029
"94661",1275.4155,68.523994,225.4566
"94662",1275.4288,69.16365,225.73764
"94663",1275.4421,69.7789,226.01425
"94664",1275.4554,70.34043,226.25638
"94665",1275.4688,70.81651,226.4306
"94666",1275.482,71.19249,226.51959
"94667",1275.4954,71.46105,226.51292
"94668",1275.5087,71.62707,226.4121
"94669",1275.522,71.69787,226.22124
"94670",1275.5353,71.6881,225.95203
"94671",1275.5486,71.6173,225.62148
"94672",1275.5619,71.48791,225.23012
"94673",1275.5752,71.29504,224.77124
"94674",1275.5885,71.03136,224.23553
"94675",1275.6018,70.68955,223.61346
"94676",1275.6151,70.276955,222.90991
"94677",1275.6284,69.84238,222.1715
"94678",1275.6417,69.56161,221.5733
"94679",1275.655,69.92294,221.60844
"94680",1275.6683,71.79553,223.16612
"94681",1275.6816,75.95331,227.0675
"94682",1275.695,82.46464,233.45238
"94683",1275.7083,90.53605,241.60081
"94684",1275.7216,98.85649,250.2505
"94685",1275.7349,106.03189,258.01517
"94686",1275.7482,111.009995,263.80676
"94687",1275.7615,113.50515,267.271
"94688",1275.7748,113.99344,268.80634
"94689",1275.7881,113.1902,269.0654
"94690",1275.8014,111.54223,268.45462
"94691",1275.8147,109.26681,267.1649
"94692",1275.828,106.510414,265.3231
"94693",1275.8413,103.4464,263.08752
"94694",1275.8546,100.24811,260.62192
"94695",1275.8679,97.08156,258.08813
"94696",1275.8812,94.06882,255.60919
"94697",1275.8945,91.27337,253.25339
"94698",1275.9078,88.68299,251.0153
"94699",1275.9211,86.24155,248.8452
"94700",1275.9344,83.94415,246.74286
"94701",1275.9478,81.84207,244.76404
"94702",1275.961,80.06958,243.04912
"94703",1275.9744,78.79271,241.77441
"94704",1275.9877,78.14816,241.09213
"94705",1276.001,78.19211,241.0782
"94706",1276.0143,78.853745,241.68333
"94707",1276.0276,79.954834,242.7486
"94708",1276.0409,81.253685,244.04604
"94709",1276.0542,82.50614,245.33768
"94710",1276.0675,83.492485,246.40234
"94711",1276.0808,84.05646,247.07545
"94712",1276.0941,84.1297,247.27547
"94713",1276.1074,83.72198,246.9968
"94714",1276.1207,82.88701,246.27814
"94715",1276.134,81.69558,245.17693
"94716",1276.1473,80.23071,243.76505
"94717",1276.1606,78.57542,242.11696
"94718",1276.174,76.80293,240.29996
"94719",1276.1873,74.99138,238.38849
"94720",1276.2006,73.214005,236.45459
"94721",1276.2139,71.536736,234.56526
"94722",1276.2272,70.013275,232.77733
"94723",1276.2405,68.67292,231.1249
"94724",1276.2538,67.54742,229.64542
"94725",1276.2671,66.65873,228.36758
"94726",1276.2804,66.02396,227.3159
"94727",1276.2937,65.6553,226.5105
"94728",1276.307,65.564964,225.9719
"94729",1276.3203,65.73342,225.68925
"94730",1276.3336,66.11917,225.62918
"94731",1276.3469,66.67826,225.7545
"94732",1276.3602,67.352104,226.01204
"94733",1276.3735,68.08209,226.34679
"94734",1276.3868,68.83406,226.72632
"94735",1276.4001,69.5787,227.12202
"94736",1276.4135,70.294044,227.5117
"94737",1276.4268,70.963,227.87735
"94738",1276.4401,71.56603,228.19798
"94739",1276.4534,72.09338,228.46178
"94740",1276.4667,72.535286,228.6566
"94741",1276.48,72.8893,228.77734
"94742",1276.4933,73.145645,228.81148
"94743",1276.5066,73.304344,228.75598
"94744",1276.5199,73.36538,228.60777
"94745",1276.5332,73.32876,228.36382
"94746",1276.5465,73.17738,228.00397
"94747",1276.5598,72.89662,227.51
"94748",1276.5731,72.481575,226.87297
"94749",1276.5864,71.9469,226.10335
"94750",1276.5997,71.36584,225.27063
"94751",1276.613,70.98253,224.61751
"94752",1276.6263,71.38537,224.73856
"94753",1276.6396,73.50698,226.59096
"94754",1276.653,78.06027,230.94135
"94755",1276.6663,84.93782,237.75827
"94756",1276.6796,93.21919,246.19395
"94757",1276.6929,101.53475,254.9226
"94758",1276.7062,108.49287,262.55368
"94759",1276.7195,113.129166,268.08038
"94760",1276.7328,115.29717,271.2837
"94761",1276.7461,115.55352,272.64307
"94762",1276.7594,114.564735,272.76532
"94763",1276.7727,112.709236,271.98996
"94764",1276.786,110.1799,270.4828
"94765",1276.7993,107.13786,268.38388
"94766",1276.8126,103.766235,265.86032
"94767",1276.8259,100.25544,263.09222
"94768",1276.8392,96.78371,260.25348
"94769",1276.8525,93.504845,257.4991
"94770",1276.8658,90.4921,254.9084
"94771",1276.8792,87.75769,252.50186
"94772",1276.8925,85.2723,250.2589
"94773",1276.9058,83.0164,248.16776
"94774",1276.9191,81.024185,246.2698
"94775",1276.9324,79.40551,244.68314
"94776",1276.9457,78.30198,243.56102
"94777",1276.959,77.83322,243.0392
"94778",1276.9723,78.04318,243.18144
"94779",1276.9856,78.84398,243.92108
"94780",1276.9989,80.05005,245.09102
"94781",1277.0122,81.41238,246.45491
"94782",1277.0255,82.686806,247.77348
"94783",1277.0388,83.65362,248.82426
"94784",1277.0521,84.1712,249.45602
"94785",1277.0654,84.17853,249.5937
"94786",1277.0787,83.67803,249.22379
"94787",1277.092,82.73319,248.39389
"94788",1277.1053,81.43679,247.1829
"94789",1277.1187,79.87427,245.66528
"94790",1277.132,78.12131,243.90839
"94791",1277.1453,76.26093,241.9893
"94792",1277.1586,74.36149,239.973
"94793",1277.1719,72.481575,237.91689
"94794",1277.1852,70.68955,235.88991
"94795",1277.1985,69.03914,233.94855
"94796",1277.2118,67.579155,232.14604
"94797",1277.2251,66.34867,230.5274
"94798",1277.2384,65.36965,229.12178
"94799",1277.2517,64.64942,227.94435
"94800",1277.265,64.183105,226.99832
"94801",1277.2783,63.958496,226.27943
"94802",1277.2916,63.94873,225.76837
"94803",1277.3049,64.13916,225.4572
"94804",1277.3182,64.50782,225.3302
"94805",1277.3315,65.02785,225.36609
"94806",1277.3448,65.669945,225.54031
"94807",1277.3582,66.390175,225.81273
"94808",1277.3715,67.15434,226.1516
"94809",1277.3848,67.92096,226.51678
"94810",1277.3981,68.648506,226.86687
"94811",1277.4114,69.30526,227.16888
"94812",1277.4247,69.86191,227.39133
"94813",1277.438,70.30137,227.51398
"94814",1277.4513,70.623634,227.53316
"94815",1277.4646,70.82872,227.44524
"94816",1277.4779,70.92149,227.2514
"94817",1277.4912,70.9044,226.9506
"94818",1277.5045,70.78722,226.54918
"94819",1277.5178,70.591896,226.06596
"94820",1277.5311,70.33311,225.51317
"94821",1277.5444,70.0206,224.89857
"94822",1277.5577,69.67147,224.2376
"94823",1277.571,69.29305,223.5364
"94824",1277.5844,68.93904,222.84781
"94825",1277.5977,68.85603,222.41914
"94826",1277.611,69.68856,222.90343
"94827",1277.6243,72.43275,225.32538
"94828",1277.6376,77.8259,230.48206
"94829",1277.6509,85.71664,238.30486
"94830",1277.6642,95.04295,247.80981
"94831",1277.6775,104.288704,257.52567
"94832",1277.6908,111.94751,265.94348
"94833",1277.7041,117.00374,271.99808
"94834",1277.7174,119.34264,275.49335
"94835",1277.7307,119.586784,276.96695
"94836",1277.744,118.451515,277.06876
"94837",1277.7573,116.334785,276.15363
"94838",1277.7706,113.43191,274.3862
"94839",1277.7839,109.91135,271.9104
"94840",1277.7972,105.9733,268.90707
"94841",1277.8105,101.837494,265.58295
"94842",1277.8239,97.723656,262.15152
"94843",1277.8372,93.81491,258.79663
"94844",1277.8505,90.24307,255.65651
"94845",1277.8638,87.05455,252.78809
"94846",1277.8771,84.22003,250.17403
"94847",1277.8904,81.69314,247.779
"94848",1277.9037,79.48852,245.6273
"94849",1277.917,77.696495,243.81929
"94850",1277.9303,76.45869,242.50949
"94851",1277.9436,75.91913,241.85927
"94852",1277.9569,76.14618,241.95879
"94853",1277.9702,77.06172,242.75389
"94854",1277.9835,78.470436,244.07079
"94855",1277.9968,80.093994,245.64655
"94856",1278.0101,81.64431,247.1998
"94857",1278.0234,82.86748,248.47435
"94858",1278.0367,83.59014,249.28662
"94859",1278.05,83.736626,249.5453
"94860",1278.0634,83.3045,249.22995
"94861",1278.0767,82.35966,248.38838
"94862",1278.09,80.99733,247.0998
"94863",1278.1033,79.31762,245.45125
"94864",1278.1166,77.420616,243.53291
"94865",1278.1299,75.389336,241.42102
"94866",1278.1432,73.3019,239.1895
"94867",1278.1565,71.23399,236.91228
"94868",1278.1698,69.261314,234.66566
"94869",1278.1831,67.44976,232.51852
"94870",1278.1964,65.85794,230.53452
"94871",1278.2097,64.52003,228.75467
"94872",1278.223,63.450676,227.20157
"94873",1278.2363,62.645,225.87872
"94874",1278.2496,62.09323,224.7846
"94875",1278.263,61.78561,223.9174
"94876",1278.2762,61.707485,223.27008
"94877",1278.2896,61.849087,222.84004
"94878",1278.3029,62.18845,222.61218
"94879",1278.3162,62.703594,222.57071
"94880",1278.3295,63.36034,222.68695
"94881",1278.3428,64.11719,222.92381
"94882",1278.3561,64.92775,223.23804
"94883",1278.3694,65.73342,223.5727
"94884",1278.3827,66.50004,223.89348
"94885",1278.396,67.18852,224.1601
"94886",1278.4093,67.7818,224.35301
"94887",1278.4226,68.27009,224.45949
"94888",1278.4359,68.665596,224.48843
"94889",1278.4492,68.9781,224.44675
"94890",1278.4625,69.21248,224.33669
"94891",1278.4758,69.385826,224.17293
"94892",1278.4891,69.50057,223.95598
"94893",1278.5024,69.57137,223.69867
"94894",1278.5157,69.58846,223.38986
"94895",1278.529,69.5494,223.02544
"94896",1278.5424,69.42977,222.57922
"94897",1278.5557,69.23445,222.05359
"94898",1278.569,68.9781,221.46082
"94899",1278.5823,68.75105,220.88933
"94900",1278.5956,68.88045,220.66719
"94901",1278.6089,70.10849,221.54774
"94902",1278.6222,73.5021,224.63225
"94903",1278.6355,79.77661,230.7037
"94904",1278.6488,88.65858,239.57869
"94905",1278.6621,98.92973,250.12042
"94906",1278.6754,108.91768,260.69992
"94907",1278.6887,117.02571,269.71164
"94908",1278.702,122.22598,276.06897
"94909",1278.7153,124.477,279.63956
"94910",1278.7286,124.48676,281.03925
"94911",1278.742,123.02678,280.96948
"94912",1278.7552,120.49012,279.7774
"94913",1278.7686,117.07698,277.62958
"94914",1278.7819,112.96315,274.6744
"94915",1278.7952,108.36103,271.1024
"94916",1278.8085,103.49523,267.12286
"94917",1278.8218,98.60746,262.96933
"94918",1278.8351,93.91989,258.86325
"94919",1278.8484,89.62295,255.0013
"94920",1278.8617,85.81186,251.49092
"94921",1278.875,82.50858,248.36926
"94922",1278.8883,79.70336,245.64244
"94923",1278.9016,77.41085,243.34065
"94924",1278.9149,75.71404,241.56293
"94925",1278.9282,74.720375,240.43532
"94926",1278.9415,74.547035,240.09698
"94927",1278.9548,75.211105,240.59065
"94928",1278.9681,76.60029,241.83018
"94929",1278.9814,78.467995,243.59164
"94930",1278.9948,80.48707,245.56284
"94931",1279.008,82.340126,247.43112
"94932",1279.0214,83.758606,248.92273
"94933",1279.0347,84.56916,249.85074
"94934",1279.048,84.698555,250.12292
"94935",1279.0613,84.16876,249.73996
"94936",1279.0746,83.06767,248.76915
"94937",1279.0879,81.512474,247.30981
"94938",1279.1012,79.62768,245.47229
"94939",1279.1145,77.53048,243.36345
"94940",1279.1278,75.318535,241.07433
"94941",1279.1411,73.0724,238.6819
"94942",1279.1544,70.86778,236.26079
"94943",1279.1677,68.773026,233.88065
"94944",1279.181,66.85405,231.61082
"94945",1279.1943,65.164566,229.51053
"94946",1279.2076,63.74609,227.62845
"94947",1279.221,62.6157,225.99013
"94948",1279.2343,61.778286,224.60945
"94949",1279.2476,61.214314,223.47604
"94950",1279.2609,60.90425,222.57893
"94951",1279.2742,60.831005,221.90895
"94952",1279.2875,60.97261,221.45152
"94953",1279.3008,61.31197,221.19627
"94954",1279.3141,61.814907,221.1152
"94955",1279.3274,62.454567,221.18658
"94956",1279.3407,63.18944,221.37317
"94957",1279.354,63.98047,221.63887
"94958",1279.3673,64.78615,221.94394
"94959",1279.3806,65.57473,222.25708
"94960",1279.3939,66.30961,222.54117
"94961",1279.4072,66.966354,222.7701
"94962",1279.4205,67.54009,222.93654
"94963",1279.4338,68.033264,223.04034
"94964",1279.4471,68.46296,223.09608
"94965",1279.4604,68.8365,223.1091
"94966",1279.4738,69.153885,223.07762
"94967",1279.487,69.402916,222.98772
"94968",1279.5004,69.573814,222.82745
"94969",1279.5137,69.65194,222.57976
"94970",1279.527,69.61776,222.2222
"94971",1279.5403,69.46151,221.7415
"94972",1279.5536,69.20027,221.15094
"94973",1279.5669,68.929276,220.54245
"94974",1279.5802,68.997635,220.26485
"94975",1279.5935,70.18906,221.11244
"94976",1279.6068,73.636375,224.25317
"94977",1279.6201,80.128174,230.54611
"94978",1279.6334,89.410545,239.83249
"94979",1279.6467,100.21637,250.93239
"94980",1279.66,110.77806,262.12585
"94981",1279.6733,119.396355,271.70596
"94982",1279.6866,124.97017,278.51093
"94983",1279.7,127.41894,282.36502
"94984",1279.7133,127.47021,283.89813
"94985",1279.7266,125.93942,283.8508
"94986",1279.7399,123.26116,282.60815
"94987",1279.7532,119.64538,280.34427
"94988",1279.7665,115.265434,277.20325
"94989",1279.7798,110.33372,273.37357
"94990",1279.7931,105.08705,269.07483
"94991",1279.8064,99.78912,264.56088
"94992",1279.8197,94.68406,260.07422
"94993",1279.833,89.9794,255.82843
"94994",1279.8463,85.787445,251.94833
"94995",1279.8596,82.13992,248.48167
"94996",1279.8729,79.04173,245.45036
"94997",1279.8862,76.53437,242.91306
"94998",1279.8995,74.703285,240.97366
"94999",1279.9128,73.670555,239.7754
"95000",1279.9261,73.54604,239.4531
"95001",1279.9395,74.35172,240.05708
"95002",1279.9528,75.96307,241.49193
"95003",1279.9661,78.10422,243.50691
"95004",1279.9794,80.42603,245.76949
"95005",1279.9927,82.564735,247.92151
"95006",1280.006,84.207825,249.64474
"95007",1280.0193,85.155106,250.72353
"95008",1280.0326,85.333336,251.06285
"95009",1280.0459,84.771805,250.66798
"95010",1280.0592,83.57549,249.62079
"95011",1280.0725,81.8909,248.04793
"95012",1280.0858,79.87427,246.0904
"95013",1280.0991,77.659874,243.87207
"95014",1280.1124,75.3576,241.49666
"95015",1280.1257,73.04555,239.03954
"95016",1280.139,70.77989,236.55655
"95017",1280.1523,68.60456,234.0931
"95018",1280.1656,66.57572,231.70815
"95019",1280.179,64.75441,229.46733
"95020",1280.1923,63.196766,227.43326
"95021",1280.2056,61.946747,225.65814
"95022",1280.2189,61.02632,224.17355
"95023",1280.2322,60.42817,222.98247
"95024",1280.2455,60.127872,222.07056
"95025",1280.2588,60.105896,221.42758
"95026",1280.2721,60.318302,221.0183
"95027",1280.2854,60.728466,220.8134
"95028",1280.2987,61.29488,220.77757
"95029",1280.312,61.980927,220.87909
"95030",1280.3253,62.7451,221.08017
"95031",1280.3386,63.54589,221.34175
"95032",1280.3519,64.34669,221.62836
"95033",1280.3652,65.12306,221.91556
"95034",1280.3785,65.848175,222.17577
"95035",1280.3918,66.52201,222.40736
"95036",1280.4052,67.1519,222.61607
"95037",1280.4185,67.74273,222.8054
"95038",1280.4318,68.299385,222.97902
"95039",1280.4451,68.807205,223.1212
"95040",1280.4584,69.23201,223.19623
"95041",1280.4717,69.53719,223.16492
"95042",1280.485,69.691,222.99176
"95043",1280.4983,69.71053,222.68913
"95044",1280.5116,69.786224,222.44328
"95045",1280.5249,70.501564,222.83945
"95046",1280.5382,72.89418,224.93524
"95047",1280.5515,77.962616,229.78162
"95048",1280.5648,85.92172,237.67705
"95049",1280.5781,95.91943,247.85982
"95050",1280.5914,106.39567,258.83353
"95051",1280.6047,115.61944,268.88217
"95052",1280.618,122.2211,276.59692
"95053",1280.6313,125.70748,281.4027
"95054",1280.6447,126.50828,283.63187
"95055",1280.658,125.40963,283.9866
"95056",1280.6713,122.98039,282.9764
"95057",1280.6846,119.481804,280.82095
"95058",1280.6979,115.09697,277.66992
"95059",1280.7112,110.03342,273.70316
"95060",1280.7245,104.54505,269.15332
"95061",1280.7378,98.91753,264.29282
"95062",1280.7511,93.44625,259.41272
"95063",1280.7644,88.39979,254.78645
"95064",1280.7777,83.94415,250.5933
"95065",1280.791,80.1355,246.90791
"95066",1280.8043,76.95674,243.7334
"95067",1280.8176,74.41276,241.09431
"95068",1280.8309,72.567024,239.07397
"95069",1280.8442,71.551384,237.82605
"95070",1280.8575,71.51232,237.52296
"95071",1280.8708,72.50355,238.24895
"95072",1280.8842,74.39567,239.9068
"95073",1280.8975,76.895706,242.2317
"95074",1280.9108,79.60815,244.84714
"95075",1280.9241,82.13016,247.3569
"95076",1280.9374,84.12726,249.42058
"95077",1280.9507,85.38705,250.80934
"95078",1280.964,85.83139,251.42203
"95079",1280.9773,85.49935,251.27222
"95080",1280.9906,84.49836,250.44308
"95081",1281.0039,82.96269,249.04799
"95082",1281.0172,81.03639,247.21428
"95083",1281.0305,78.853745,245.06403
"95084",1281.0438,76.524605,242.69907
"95085",1281.0571,74.13931,240.20517
"95086",1281.0704,71.77844,237.66115
"95087",1281.0837,69.51278,235.13857
"95088",1281.097,67.39117,232.68922
"95089",1281.1104,65.46731,230.37134
"95090",1281.1237,63.787594,228.23747
"95091",1281.137,62.39353,226.33678
"95092",1281.1503,61.307087,224.70013
"95093",1281.1636,60.542915,223.3518
"95094",1281.1769,60.09369,222.29454
"95095",1281.1902,59.934998,221.51378
"95096",1281.2035,60.04242,220.99417
"95097",1281.2168,60.386665,220.71474
"95098",1281.2301,60.943314,220.65846
"95099",1281.2434,61.67819,220.79782
"95100",1281.2567,62.557106,221.10419
"95101",1281.27,63.538567,221.54056
"95102",1281.2833,64.5835,222.07108
"95103",1281.2966,65.64065,222.64645
"95104",1281.3099,66.66605,223.22313
"95105",1281.3232,67.62066,223.76105
"95106",1281.3365,68.47028,224.22382
"95107",1281.3499,69.18562,224.57886
"95108",1281.3632,69.72274,224.77803
"95109",1281.3765,70.05234,224.78647
"95110",1281.3898,70.1622,224.58546
"95111",1281.4031,70.15976,224.27559
"95112",1281.4164,70.44297,224.2513
"95113",1281.4297,71.8468,225.35648
"95114",1281.443,75.43084,228.68573
"95115",1281.4563,81.77371,234.88582
"95116",1281.4696,90.48966,243.6572
"95117",1281.4829,100.32868,253.82402
"95118",1281.4962,109.662315,263.79294
"95119",1281.5095,116.98665,272.04422
"95120",1281.5228,121.43008,277.6435
"95121",1281.5361,123.0341,280.5422
"95122",1281.5494,122.46769,281.32062
"95123",1281.5627,120.375374,280.55542
"95124",1281.576,117.101395,278.54318
"95125",1281.5894,112.84352,275.44473
"95126",1281.6027,107.79706,271.42462
"95127",1281.616,102.1915,266.6877
"95128",1281.6293,96.29542,261.4851
"95129",1281.6426,90.41154,256.11047
"95130",1281.6559,84.825516,250.84981
"95131",1281.6692,79.77417,245.94926
"95132",1281.6825,75.40154,241.56958
"95133",1281.6958,71.78821,237.81255
"95134",1281.7091,68.99275,234.76047
"95135",1281.7224,67.11528,232.53902
"95136",1281.7357,66.29252,231.31361
"95137",1281.749,66.65873,231.25146
"95138",1281.7623,68.24567,232.4215
"95139",1281.7756,70.91173,234.72023
"95140",1281.789,74.302895,237.8274
"95141",1281.8022,77.93332,241.27979
"95142",1281.8156,81.29275,244.57463
"95143",1281.8289,83.966125,247.2884
"95144",1281.8422,85.697105,249.14333
"95145",1281.8555,86.41001,250.03427
"95146",1281.8688,86.168304,249.99287
"95147",1281.8821,85.1136,249.13094
"95148",1281.8954,83.4168,247.59393
"95149",1281.9087,81.248795,245.5327
"95150",1281.922,78.77562,243.09856
"95151",1281.9353,76.138855,240.42352
"95152",1281.9486,73.45571,237.61972
"95153",1281.9619,70.82872,234.78822
"95154",1281.9752,68.33112,232.00403
"95155",1281.9885,66.03372,229.34198
"95156",1282.0018,63.98535,226.85716
"95157",1282.0151,62.234837,224.60619
"95158",1282.0284,60.809032,222.62521
"95159",1282.0417,59.72015,220.93661
"95160",1282.055,58.965744,219.54846
"95161",1282.0684,58.5214,218.4468
"95162",1282.0817,58.360264,217.61446
"95163",1282.095,58.455482,217.03343
"95164",1282.1083,58.777752,216.68243
"95165",1282.1216,59.295338,216.53682
"95166",1282.1349,59.996033,216.5905
"95167",1282.1482,60.862743,216.83209
"95168",1282.1615,61.861294,217.2326
"95169",1282.1748,62.962387,217.76686
"95170",1282.1881,64.10742,218.37947
"95171",1282.2014,65.23537,219.01077
"95172",1282.2147,66.270546,219.58456
"95173",1282.228,67.142136,220.02711
"95174",1282.2413,67.78912,220.2723
"95175",1282.2546,68.20416,220.30574
"95176",1282.268,68.47761,220.21057
"95177",1282.2812,69.00008,220.37297
"95178",1282.2946,70.572365,221.60152
"95179",1282.3079,74.24429,224.97884
"95180",1282.3212,80.69215,231.24683
"95181",1282.3345,89.637596,240.2139
"95182",1282.3478,99.83551,250.71298
"95183",1282.3611,109.5671,261.06442
"95184",1282.3744,117.23323,269.6545
"95185",1282.3877,121.8378,275.4226
"95186",1282.401,123.33929,278.23154
"95187",1282.4143,122.39933,278.64594
"95188",1282.4276,119.78699,277.35858
"95189",1282.4409,115.946594,274.76154
"95190",1282.4542,111.10277,271.04105
"95191",1282.4675,105.460594,266.37085
"95192",1282.4808,99.28863,260.99454
"95193",1282.4941,92.90181,255.2105
"95194",1282.5074,86.62241,249.33427
"95195",1282.5208,80.719,243.63782
"95196",1282.534,75.37957,238.32086
"95197",1282.5474,70.69688,233.49377
"95198",1282.5607,66.739296,229.24547
"95199",1282.574,63.602043,225.69382
"95200",1282.5873,61.44137,223.0207
"95201",1282.6006,60.46723,221.46661
"95202",1282.6139,60.877396,221.26637
"95203",1282.6272,62.725567,222.51697
"95204",1282.6405,65.865265,225.11684
"95205",1282.6538,69.94003,228.7499
"95206",1282.6671,74.43229,232.92778
"95207",1282.6804,78.75853,237.08003
"95208",1282.6937,82.406044,240.68875
"95209",1282.707,85.01106,243.36896
"95210",1282.7203,86.431984,244.94647
"95211",1282.7336,86.70298,245.41847
"95212",1282.747,85.99008,244.91504
"95213",1282.7603,84.52277,243.63492
"95214",1282.7736,82.530556,241.78404
"95215",1282.7869,80.201416,239.53398
"95216",1282.8002,77.68917,237.02803
"95217",1282.8135,75.12077,234.38742
"95218",1282.8268,72.59632,231.7105
"95219",1282.8401,70.20126,229.08408
"95220",1282.8534,67.99664,226.57324
"95221",1282.8667,66.03128,224.23277
"95222",1282.88,64.35401,222.11899
"95223",1282.8933,62.991684,220.26773
"95224",1282.9066,61.961395,218.70593
"95225",1282.9199,61.2607,217.44153
"95226",1282.9332,60.87495,216.47017
"95227",1282.9465,60.774853,215.77242
"95228",1282.9598,60.926224,215.323
"95229",1282.9731,61.289997,215.09071
"95230",1282.9865,61.824673,215.0407
"95231",1282.9998,62.483864,215.13191
"95232",1283.0131,63.226063,215.32674
"95233",1283.0264,64.04883,215.62532
"95234",1283.0397,65.059586,216.1376
"95235",1283.053,66.66361,217.27475
"95236",1283.0663,69.63241,219.82678
"95237",1283.0796,74.861984,224.73238
"95238",1283.0929,82.75517,232.465
"95239",1283.1062,92.75044,242.54637
"95240",1283.1195,103.42687,253.62125
"95241",1283.1328,113.06081,263.98727
"95242",1283.1461,120.18005,272.13968
"95243",1283.1594,124.035095,277.25034
"95244",1283.1727,124.81148,279.40283
"95245",1283.186,123.30755,279.29926
"95246",1283.1993,120.29725,277.6423
"95247",1283.2126,116.210266,274.8146
"95248",1283.226,111.276115,271.01202
"95249",1283.2393,105.69497,266.40826
"95250",1283.2526,99.71343,261.2297
"95251",1283.2659,93.58785,255.72017
"95252",1283.2792,87.55749,250.11443
"95253",1283.2925,81.82498,244.61809
"95254",1283.3058,76.561226,239.41136
"95255",1283.3191,71.91028,234.65295
"95256",1283.3324,68.033264,230.52313
"95257",1283.3457,65.110855,227.22676
"95258",1283.359,63.32372,224.97433
"95259",1283.3723,62.825665,223.95514
"95260",1283.3856,63.67773,224.27051
"95261",1283.3989,65.813995,225.8967
"95262",1283.4122,69.00984,228.64923
"95263",1283.4255,72.903946,232.19989
"95264",1283.4388,77.02998,236.10417
"95265",1283.4521,80.89235,239.87372
"95266",1283.4655,84.054016,243.06328
"95267",1283.4788,86.21469,245.35065
"95268",1283.4921,87.257195,246.58736
"95269",1283.5054,87.23277,246.78972
"95270",1283.5187,86.30991,246.09288
"95271",1283.532,84.71809,244.69824
"95272",1283.5453,82.67948,242.80708
"95273",1283.5586,80.40162,240.61296
"95274",1283.5719,78.04074,238.26463
"95275",1283.5852,75.72137,235.88403
"95276",1283.5985,73.53628,233.56523
"95277",1283.6118,71.536736,231.3637
"95278",1283.6251,69.75937,229.32185
"95279",1283.6384,68.20172,227.44418
"95280",1283.6517,66.85649,225.73026
"95281",1283.665,65.70901,224.17204
"95282",1283.6783,64.75685,222.7733
"95283",1283.6917,63.99756,221.53766
"95284",1283.705,63.431145,220.47116
"95285",1283.7183,63.05272,219.57495
"95286",1283.7316,62.857403,218.85004
"95287",1283.7449,62.862286,218.31921
"95288",1283.7582,63.20165,218.12302
"95289",1283.7715,64.29542,218.69183
"95290",1283.7848,66.91997,220.82562
"95291",1283.7981,71.94934,225.44624
"95292",1283.8114,79.74731,232.99263
"95293",1283.8247,89.7084,242.94583
"95294",1283.838,100.387276,253.9281
"95295",1283.8513,110.030975,264.2089
"95296",1283.8646,117.16487,272.28125
"95297",1283.8779,121.04921,277.327
"95298",1283.8912,121.88907,279.44965
"95299",1283.9045,120.463264,279.3329
"95300",1283.9178,117.55306,277.68716
"95301",1283.9312,113.58816,274.89578
"95302",1283.9445,108.81026,271.1675
"95303",1283.9578,103.42443,266.682
"95304",1283.9711,97.66262,261.65222
"95305",1283.9844,91.76166,256.30322
"95306",1283.9977,85.94125,250.85037
"95307",1284.011,80.38941,245.48419
"95308",1284.0243,75.27703,240.38397
"95309",1284.0376,70.78233,235.74168
"95310",1284.0509,67.11528,231.78658
"95311",1284.0642,64.49561,228.76427
"95312",1284.0775,63.118637,226.90277
"95313",1284.0908,63.125965,226.38255
"95314",1284.1041,64.52979,227.25906
"95315",1284.1174,67.18364,229.42947
"95316",1284.1307,70.77013,232.61545
"95317",1284.144,74.84001,236.3969
"95318",1284.1573,78.88304,240.27867
"95319",1284.1707,82.41337,243.7741
"95320",1284.184,85.06233,246.49847
"95321",1284.1973,86.6273,248.22163
"95322",1284.2106,87.098495,248.89993
"95323",1284.2239,86.59312,248.61638
"95324",1284.2372,85.313805,247.5431
"95325",1284.2505,83.47784,245.8732
"95326",1284.2638,81.29275,243.7968
"95327",1284.2771,78.93187,241.47632
"95328",1284.2904,76.541695,239.05276
"95329",1284.3037,74.21988,236.62288
"95330",1284.317,72.05188,234.27425
"95331",1284.3303,70.09384,232.06783
"95332",1284.3436,68.367744,230.03217
"95333",1284.3569,66.88335,228.18427
"95334",1284.3702,65.63821,226.52924
"95335",1284.3835,64.62257,225.06479
"95336",1284.3969,63.812008,223.77368
"95337",1284.4102,63.191883,222.64767
"95338",1284.4235,62.786602,221.71713
"95339",1284.4368,62.78172,221.17433
"95340",1284.4501,63.680172,221.53471
"95341",1284.4634,66.338905,223.68346
"95342",1284.4767,71.588005,228.50565
"95343",1284.49,79.5935,236.24826
"95344",1284.5033,89.530174,246.17224
"95345",1284.5166,99.862366,256.80225
"95346",1284.5299,108.89815,266.45874
"95347",1284.5432,115.32403,273.7877
"95348",1284.5565,118.6273,278.19482
"95349",1284.5698,119.17174,279.94638
"95350",1284.5831,117.75571,279.75446
"95351",1284.5964,115.03349,278.2121
"95352",1284.6097,111.34936,275.62274
"95353",1284.623,106.91081,272.16388
"95354",1284.6364,101.93027,268.0243
"95355",1284.6497,96.63233,263.41168
"95356",1284.663,91.212326,258.51144
"95357",1284.6763,85.8436,253.4931
"95358",1284.6896,80.68238,248.5145
"95359",1284.7029,75.88251,243.73595
"95360",1284.7162,71.622185,239.34695
"95361",1284.7295,68.13092,235.59389
"95362",1284.7428,65.652855,232.74492
"95363",1284.7561,64.412605,231.05632
"95364",1284.7694,64.54444,230.70105
"95365",1284.7827,66.02396,231.69757
"95366",1284.796,68.64118,233.87805
"95367",1284.8093,72.01526,236.89717
"95368",1284.8226,75.650566,240.28296
"95369",1284.8359,79.05638,243.55286
"95370",1284.8492,81.8201,246.28708
"95371",1284.8625,83.67315,248.197
"95372",1284.8759,84.5301,249.16875
"95373",1284.8892,84.44709,249.22731
"95374",1284.9025,83.577934,248.49713
"95375",1284.9158,82.10574,247.13675
"95376",1284.9291,80.22827,245.32509
"95377",1284.9424,78.12131,243.22525
"95378",1284.9557,75.931335,240.97656
"95379",1284.969,73.7731,238.69118
"95380",1284.9823,71.727165,236.45065
"95381",1284.9956,69.84726,234.31223
"95382",1285.0089,68.16754,232.31523
"95383",1285.0222,66.702675,230.4806
"95384",1285.0355,65.44045,228.80284
"95385",1285.0488,64.36378,227.27118
"95386",1285.0621,63.45556,225.87433
"95387",1285.0754,62.757305,224.65906
"95388",1285.0887,62.486305,223.84923
"95389",1285.102,63.21874,224.03436
"95390",1285.1154,65.86282,226.15404
"95391",1285.1287,71.17784,231.02727
"95392",1285.142,79.14427,238.718
"95393",1285.1553,88.80995,248.35693
"95394",1285.1686,98.63676,258.45905
"95395",1285.1819,107.037766,267.44244
"95396",1285.1952,112.85573,274.10535
"95397",1285.2085,115.76593,278.0423
"95398",1285.2218,116.244446,279.6385
"95399",1285.2351,115.035934,279.56262
"95400",1285.2484,112.66773,278.2893
"95401",1285.2617,109.41329,276.05573
"95402",1285.275,105.48501,273.0466
"95403",1285.2883,101.1075,269.46548
"95404",1285.3016,96.50294,265.52054
"95405",1285.315,91.859314,261.39264
"95406",1285.3282,87.31335,257.2173
"95407",1285.3416,82.96025,253.09273
"95408",1285.3549,78.88304,249.10803
"95409",1285.3682,75.20134,245.39142
"95410",1285.3815,72.095825,242.13594
"95411",1285.3948,69.80087,239.59398
"95412",1285.4081,68.5362,238.01059
"95413",1285.4214,68.42878,237.54492
"95414",1285.4347,69.45663,238.21117
"95415",1285.448,71.397575,239.82263
"95416",1285.4613,73.89029,242.04652
"95417",1285.4746,76.51484,244.48015
"95418",1285.4879,78.88304,246.73944
"95419",1285.5012,80.69947,248.52097
"95420",1285.5145,81.78836,249.63171
"95421",1285.5278,82.10574,250.00499
"95422",1285.5411,81.705345,249.6704
"95423",1285.5544,80.69459,248.71294
"95424",1285.5677,79.21019,247.25024
"95425",1285.581,77.383995,245.39937
"95426",1285.5944,75.34539,243.279
"95427",1285.6077,73.20912,240.99728
"95428",1285.621,71.08507,238.66101
"95429",1285.6343,69.05623,236.35358
"95430",1285.6476,67.1812,234.13655
"95431",1285.6609,65.51125,232.06602
"95432",1285.6742,64.07324,230.17525
"95433",1285.6875,62.889145,228.49344
"95434",1285.7008,61.94919,227.01877
"95435",1285.7141,61.24361,225.7491
"95436",1285.7274,60.75288,224.67223
"95437",1285.7407,60.489204,223.80708
"95438",1285.754,60.611275,223.31944
"95439",1285.7673,61.614708,223.71698
"95440",1285.7806,64.3711,225.89883
"95441",1285.794,69.61532,230.65465
"95442",1285.8073,77.347374,238.06218
"95443",1285.8206,86.693214,247.32512
"95444",1285.8339,96.26124,257.1023
"95445",1285.8472,104.5597,265.90894
"95446",1285.8605,110.46067,272.5774
"95447",1285.8738,113.636986,276.7056
"95448",1285.8871,114.52567,278.64545
"95449",1285.9004,113.78836,278.98706
"95450",1285.9137,111.869385,278.12396
"95451",1285.927,109.0251,276.2756
"95452",1285.9403,105.48745,273.645
"95453",1285.9536,101.50301,270.45703
"95454",1285.9669,97.31594,266.94193
"95455",1285.9802,93.14351,263.3106
"95456",1285.9935,89.146866,259.7247
"95457",1286.0068,85.401695,256.26538
"95458",1286.0201,81.92264,252.95512
"95459",1286.0334,78.72678,249.81935
"95460",1286.0468,75.8996,246.95238
"95461",1286.06,73.59731,244.52196
"95462",1286.0734,72.00549,242.73006
"95463",1286.0867,71.28771,241.76245
"95464",1286.1,71.505,241.70747
"95465",1286.1133,72.54749,242.4845
"95466",1286.1266,74.16617,243.87029
"95467",1286.1399,76.019226,245.54103
"95468",1286.1532,77.77951,247.17691
"95469",1286.1665,79.168686,248.49669
"95470",1286.1798,80.008545,249.31056
"95471",1286.1931,80.22827,249.53055
"95472",1286.2064,79.84009,249.1495
"95473",1286.2197,78.91722,248.22165
"95474",1286.233,77.5671,246.83769
"95475",1286.2463,75.897156,245.09172
"95476",1286.2596,74.019684,243.08603
"95477",1286.273,72.025024,240.90448
"95478",1286.2863,69.99863,238.62886
"95479",1286.2996,68.00885,236.32654
"95480",1286.3129,66.12161,234.06458
"95481",1286.3262,64.4004,231.90967
"95482",1286.3395,62.89891,229.92068
"95483",1286.3528,61.673306,228.16068
"95484",1286.3661,60.75532,226.66998
"95485",1286.3794,60.162052,225.47531
"95486",1286.3927,59.88861,224.58194
"95487",1286.406,59.910583,223.97543
"95488",1286.4193,60.184025,223.62108
"95489",1286.4326,60.64546,223.46326
"95490",1286.4459,61.20943,223.4224
"95491",1286.4592,61.795376,223.42113
"95492",1286.4725,62.378883,223.43575
"95493",1286.4858,63.10399,223.6102
"95494",1286.4991,64.480965,224.45917
"95495",1286.5125,67.36675,226.85999
"95496",1286.5258,72.45228,231.55072
"95497",1286.5391,79.727776,238.59035
"95498",1286.5524,88.40467,247.25873
"95499",1286.5657,97.215836,256.33255
"95500",1286.579,104.82338,264.4781
"95501",1286.5923,110.23361,270.66406
"95502",1286.6056,113.197525,274.57278
"95503",1286.6189,114.1033,276.516
"95504",1286.6322,113.50271,276.98114
"95505",1286.6455,111.75708,276.28247
"95506",1286.6588,109.086136,274.60394
"95507",1286.6721,105.71938,272.14612
"95508",1286.6854,101.9205,269.15097
"95509",1286.6987,97.96048,265.87598
"95510",1286.712,94.083466,262.56024
"95511",1286.7253,90.460365,259.37726
"95512",1286.7386,87.15953,256.40332
"95513",1286.752,84.16144,253.62897
"95514",1286.7653,81.4197,251.01727
"95515",1286.7786,78.93187,248.5738
"95516",1286.7919,76.79317,246.40172
"95517",1286.8052,75.16472,244.67305
"95518",1286.8185,74.212555,243.56978
"95519",1286.8318,74.03433,243.2107
"95520",1286.8451,74.58366,243.5736
"95521",1286.8584,75.67254,244.49321
"95522",1286.8717,77.0251,245.71054
"95523",1286.885,78.348366,246.94084
"95524",1286.8983,79.395744,247.9366
"95525",1286.9116,80.008545,248.53052
"95526",1286.9249,80.10864,248.63089
"95527",1286.9382,79.68871,248.21436
"95528",1286.9515,78.80492,247.32083
"95529",1286.9648,77.54757,246.02614
"95530",1286.9781,76.0119,244.41383
"95531",1286.9915,74.27604,242.55334
"95532",1287.0048,72.413216,240.51164
"95533",1287.0181,70.49424,238.35558
"95534",1287.0314,68.58015,236.14442
"95535",1287.0447,66.736855,233.94426
"95536",1287.058,65.03761,231.83055
"95537",1287.0713,63.548332,229.87369
"95538",1287.0846,62.320286,228.13153
"95539",1287.0979,61.37789,226.63664
"95540",1287.1112,60.73335,225.41016
"95541",1287.1245,60.36957,224.44429
"95542",1287.1378,60.267033,223.7283
"95543",1287.1511,60.39643,223.24104
"95544",1287.1644,60.71626,222.94826
"95545",1287.1777,61.187458,222.81683
"95546",1287.191,61.761196,222.80267
"95547",1287.2043,62.398415,222.86993
"95548",1287.2177,63.07225,222.99371
"95549",1287.231,63.768063,223.16054
"95550",1287.2443,64.4712,223.35643
"95551",1287.2576,65.16701,223.56696
"95552",1287.2709,65.8262,223.76262
"95553",1287.2842,66.41703,223.91052
"95554",1287.2975,66.897995,223.96703
"95555",1287.3108,67.22026,223.87985
"95556",1287.3241,67.34966,223.6099
"95557",1287.3374,67.27642,223.14133
"95558",1287.3507,67.04692,222.51422
"95559",1287.364,66.85893,221.92145
"95560",1287.3773,67.283745,221.93561
"95561",1287.3906,69.30282,223.5573
"95562",1287.4039,73.80972,227.72992
"95563",1287.4172,80.972916,234.69966
"95564",1287.4305,90.01846,243.7756
"95565",1287.4438,99.57427,253.64449
"95566",1287.4572,108.09003,262.77194
"95567",1287.4705,114.34745,269.90717
"95568",1287.4838,117.889984,274.52307
"95569",1287.4971,119.07652,276.89368
"95570",1287.5104,118.55161,277.5899
"95571",1287.5237,116.77913,277.02216
"95572",1287.537,114.01785,275.41022
"95573",1287.5503,110.50706,272.96246
"95574",1287.5636,106.5153,269.92404
"95575",1287.5769,102.30869,266.54605
"95576",1287.5902,98.13382,263.06833
"95577",1287.6035,94.186005,259.6872
"95578",1287.6168,90.57023,256.51474
"95579",1287.6301,87.30358,253.57841
"95580",1287.6434,84.35676,250.85983
"95581",1287.6567,81.72488,248.3641
"95582",1287.67,79.483635,246.17677
"95583",1287.6833,77.78195,244.45895
"95584",1287.6967,76.788284,243.39597
"95585",1287.71,76.59052,243.09784
"95586",1287.7233,77.152054,243.55283
"95587",1287.7366,78.28733,244.5991
"95588",1287.7499,79.70092,245.95917
"95589",1287.7632,81.08034,247.32924
"95590",1287.7765,82.16678,248.44945
"95591",1287.7898,82.78447,249.13486
"95592",1287.8031,82.85039,249.2878
"95593",1287.8164,82.35966,248.88614
"95594",1287.8297,81.37087,247.9711
"95595",1287.843,79.97925,246.62231
"95596",1287.8563,78.28977,244.93219
"95597",1287.8696,76.39765,242.98662
"95598",1287.8829,74.38346,240.85985
"95599",1287.8962,72.32044,238.6213
"95600",1287.9095,70.276955,236.33783
"95601",1287.9229,68.31403,234.07106
"95602",1287.9362,66.50492,231.89676
"95603",1287.9495,64.90822,229.87834
"95604",1287.9628,63.570305,228.06882
"95605",1287.9761,62.51316,226.49825
"95606",1287.9894,61.75143,225.19005
"95607",1288.0027,61.27779,224.14613
"95608",1288.016,61.07515,223.35843
"95609",1288.0293,61.123978,222.81586
"95610",1288.0426,61.397423,222.49942
"95611",1288.0559,61.863735,222.3844
"95612",1288.0692,62.47898,222.43289
"95613",1288.0825,63.20165,222.60803
"95614",1288.0958,63.987793,222.86923
"95615",1288.1091,64.79591,223.17697
"95616",1288.1224,65.584496,223.49042
"95617",1288.1357,66.30717,223.7626
"95618",1288.149,66.91997,223.94751
"95619",1288.1624,67.36675,223.98555
"95620",1288.1757,67.613335,223.83734
"95621",1288.189,67.664604,223.50153
"95622",1288.2023,67.664604,223.11604
"95623",1288.2156,68.04547,223.11143
"95624",1288.2289,69.61288,224.30527
"95625",1288.2422,73.253075,227.62086
"95626",1288.2555,79.33227,233.48921
"95627",1288.2688,87.38171,241.51779
"95628",1288.2821,96.26612,250.63289
"95629",1288.2954,104.59876,259.47385
"95630",1288.3087,111.14427,266.78806
"95631",1288.322,115.265434,271.88248
"95632",1288.3353,117.0721,274.7912
"95633",1288.3486,117.09407,275.97168
"95634",1288.3619,115.792786,275.8296
"95635",1288.3752,113.45144,274.60675
"95636",1288.3885,110.294655,272.49533
"95637",1288.4019,106.57633,269.72372
"95638",1288.4152,102.56992,266.54782
"95639",1288.4285,98.53178,263.215
"95640",1288.4418,94.66697,259.92932
"95641",1288.4551,91.10002,256.8207
"95642",1288.4684,87.85535,253.92291
"95643",1288.4817,84.9012,251.21425
"95644",1288.495,82.22049,248.6867
"95645",1288.5083,79.85474,246.39035
"95646",1288.5216,77.93088,244.46194
"95647",1288.5349,76.610054,243.07646
"95648",1288.5482,76.02411,242.38458
"95649",1288.5615,76.18524,242.42146
"95650",1288.5748,76.97383,243.09084
"95651",1288.5881,78.15549,244.17792
"95652",1288.6014,79.449455,245.41425
"95653",1288.6147,80.57984,246.52742
"95654",1288.628,81.34402,247.30972
"95655",1288.6414,81.617455,247.62517
"95656",1288.6547,81.36599,247.42426
"95657",1288.668,80.61402,246.71498
"95658",1288.6813,79.43725,245.5574
"95659",1288.6946,77.93088,244.03345
"95660",1288.7079,76.190125,242.22803
"95661",1288.7212,74.288246,240.20709
"95662",1288.7345,72.29359,238.03394
"95663",1288.7478,70.279396,235.77892
"95664",1288.7611,68.32136,233.5171
"95665",1288.7744,66.48295,231.31374
"95666",1288.7877,64.83498,229.24336
"95667",1288.801,63.44335,227.37784
"95668",1288.8143,62.349583,225.76668
"95669",1288.8276,61.56832,224.43384
"95670",1288.841,61.089798,223.37932
"95671",1288.8542,60.894485,222.59306
"95672",1288.8676,60.945755,222.04729
"95673",1288.8809,61.204548,221.71063
"95674",1288.8942,61.634243,221.55296
"95675",1288.9075,62.2031,221.54788
"95676",1288.9208,62.87938,221.66801
"95677",1288.9341,63.631344,221.88496
"95678",1288.9474,64.43702,222.17912
"95679",1288.9607,65.26467,222.52043
"95680",1288.974,66.08743,222.88272
"95681",1288.9873,66.86626,223.22678
"95682",1289.0006,67.55962,223.50972
"95683",1289.0139,68.11139,223.67273
"95684",1289.0272,68.46784,223.65767
"95685",1289.0405,68.60456,223.434
"95686",1289.0538,68.543526,223.01686
"95687",1289.0671,68.45808,222.5734
"95688",1289.0804,68.84627,222.6009
"95689",1289.0938,70.58213,223.98822
"95690",1289.107,74.53971,227.65149
"95691",1289.1204,81.004654,233.9458
"95692",1289.1337,89.391014,242.36356
"95693",1289.147,98.48295,251.74896
"95694",1289.1603,106.83269,260.6763
"95695",1289.1736,113.2195,267.90164
"95696",1289.1869,117.08675,272.807
"95697",1289.2002,118.62974,275.50897
"95698",1289.2135,118.40269,276.4891
"95699",1289.2268,116.859695,276.1462
"95700",1289.2401,114.28397,274.72235
"95701",1289.2534,110.91722,272.42697
"95702",1289.2667,107.01579,269.4917
"95703",1289.28,102.86534,266.1855
"95704",1289.2933,98.72709,262.76178
"95705",1289.3066,94.801254,259.42117
"95706",1289.32,91.18303,256.2655
"95707",1289.3333,87.89197,253.32391
"95708",1289.3466,84.88167,250.56024
"95709",1289.3599,82.13504,247.96617
"95710",1289.3732,79.69848,245.59633
"95711",1289.3865,77.72335,243.61177
"95712",1289.3998,76.385445,242.20271
"95713",1289.4131,75.82391,241.52823
"95714",1289.4264,76.050964,241.62477
"95715",1289.4397,76.93233,242.38272
"95716",1289.453,78.221405,243.57593
"95717",1289.4663,79.60815,244.90709
"95718",1289.4796,80.82399,246.11069
"95719",1289.4929,81.66384,246.97629
"95720",1289.5062,82.003204,247.36765
"95721",1289.5195,81.80057,247.22762
"95722",1289.5328,81.0901,246.57343
"95723",1289.5461,79.94751,245.4649
"95724",1289.5594,78.47288,243.98863
"95725",1289.5728,76.76143,242.22946
"95726",1289.586,74.896164,240.26299
"95727",1289.5994,72.94789,238.15521
"95728",1289.6127,70.98741,235.97435
"95729",1289.626,69.0782,233.7835
"95730",1289.6393,67.2691,231.63309
"95731",1289.6526,65.62112,229.58727
"95732",1289.6659,64.17578,227.6926
"95733",1289.6792,62.962387,225.9847
"95734",1289.6925,61.998016,224.4879
"95735",1289.7058,61.285114,223.21243
"95736",1289.7191,60.818798,222.16127
"95737",1289.7324,60.581978,221.32504
"95738",1289.7457,60.560005,220.69626
"95739",1289.759,60.72114,220.2499
"95740",1289.7723,61.03853,219.96481
"95741",1289.7856,61.487755,219.82149
"95742",1289.799,62.044403,219.79962
"95743",1289.8123,62.67918,219.87329
"95744",1289.8256,63.367664,220.02051
"95745",1289.8389,64.08057,220.21365
"95746",1289.8522,64.778824,220.41443
"95747",1289.8655,65.43069,220.59064
"95748",1289.8788,66.00931,220.71397
"95749",1289.8921,66.48783,220.7553
"95750",1289.9054,66.8394,220.68462
"95751",1289.9187,67.04204,220.47598
"95752",1289.932,67.088425,220.11743
"95753",1289.9453,67.0103,219.63582
"95754",1289.9586,66.968796,219.18839
"95755",1289.9719,67.439995,219.25237
"95756",1289.9852,69.315025,220.7349
"95757",1289.9985,73.548485,224.63445
"95758",1290.0118,80.48463,231.36897
"95759",1290.0251,89.5375,240.43698
"95760",1290.0385,99.38384,250.58138
"95761",1290.0518,108.4416,260.24487
"95762",1290.0651,115.35577,268.04785
"95763",1290.0784,119.47692,273.27386
"95764",1290.0917,121.022354,276.05295
"95765",1290.105,120.64881,276.96136
"95766",1290.1183,118.925156,276.508
"95767",1290.1316,116.16632,274.96558
"95768",1290.1449,112.6067,272.53613
"95769",1290.1582,108.49287,269.44125
"95770",1290.1715,104.09094,265.92972
"95771",1290.1848,99.64019,262.2318
"95772",1290.1981,95.360344,258.56573
"95773",1290.2114,91.388115,255.07352
"95774",1290.2247,87.77234,251.81361
"95775",1290.238,84.505684,248.78984
"95776",1290.2513,81.57839,246.00336
"95777",1290.2646,79.04906,243.52335
"95778",1290.278,77.04707,241.49164
"95779",1290.2913,75.74578,240.09807
"95780",1290.3046,75.284355,239.5037
"95781",1290.3179,75.68719,239.75916
"95782",1290.3312,76.81514,240.75233
"95783",1290.3445,78.40452,242.24219
"95784",1290.3578,80.12329,243.9111
"95785",1290.3711,81.65652,245.44818
"95786",1290.3844,82.757614,246.60104
"95787",1290.3977,83.28008,247.20969
"95788",1290.411,83.17021,247.20232
"95789",1290.4243,82.459755,246.59093
"95790",1290.4376,81.23659,245.44463
"95791",1290.4509,79.62524,243.87192
"95792",1290.4642,77.747765,241.98273
"95793",1290.4775,75.69695,239.86153
"95794",1290.4908,73.55337,237.58347
"95795",1290.5042,71.380486,235.20912
"95796",1290.5175,69.241776,232.80106
"95797",1290.5308,67.19585,230.41893
"95798",1290.5441,65.32082,228.14378
"95799",1290.5574,63.687496,226.05173
"95800",1290.5707,62.354465,224.20892
"95801",1290.584,61.36324,222.66628
"95802",1290.5973,60.723583,221.44421
"95803",1290.6106,60.42817,220.54642
"95804",1290.6239,60.44526,219.95189
"95805",1290.6372,60.730907,219.62645
"95806",1290.6505,61.236286,219.52966
"95807",1290.6638,61.90036,219.60738
"95808",1290.6771,62.65965,219.80106
"95809",1290.6904,63.462883,220.06241
"95810",1290.7037,64.271,220.35374
"95811",1290.717,65.0547,220.6459
"95812",1290.7303,65.794464,220.91862
"95813",1290.7437,66.47318,221.15343
"95814",1290.757,67.088425,221.34596
"95815",1290.7703,67.62554,221.4796
"95816",1290.7836,68.069885,221.53725
"95817",1290.7969,68.419014,221.51357
"95818",1290.8102,68.65339,221.38603
"95819",1290.8235,68.75105,221.12912
"95820",1290.8368,68.68513,220.71167
"95821",1290.8501,68.46052,220.13347
"95822",1290.8634,68.1358,219.44815
"95823",1290.8767,67.96979,218.91138
"95824",1290.89,68.592354,219.158
"95825",1290.9033,71.00206,221.21123
"95826",1290.9166,76.09979,226.02777
"95827",1290.9299,84.01495,233.82104
"95828",1290.9432,93.86618,243.79774
"95829",1290.9565,104.10803,254.47292
"95830",1290.9698,113.06813,264.1864
"95831",1290.9832,119.47692,271.62857
"95832",1290.9965,122.899826,276.28513
"95833",1291.0098,123.756775,278.4827
"95834",1291.0231,122.811935,278.90527
"95835",1291.0364,120.619514,278.05072
"95836",1291.0497,117.470055,276.17062
"95837",1291.063,113.57839,273.4499
"95838",1291.0763,109.18379,270.1046
"95839",1291.0896,104.52796,266.36078
"95840",1291.1029,99.84039,262.4397
"95841",1291.1162,95.32372,258.54303
"95842",1291.1295,91.10979,254.80795
"95843",1291.1428,87.24986,251.29521
"95844",1291.1561,83.74639,248.0183
"95845",1291.1694,80.63355,245.02254
"95846",1291.1827,78.00168,242.41046
"95847",1291.196,76.0119,240.35823
"95848",1291.2094,74.84001,239.0617
"95849",1291.2227,74.61051,238.67096
"95850",1291.236,75.30633,239.19835
"95851",1291.2493,76.74677,240.49211
"95852",1291.2626,78.6218,242.26547
"95853",1291.2759,80.57252,244.17311
"95854",1291.2892,82.27421,245.8927
"95855",1291.3025,83.49493,247.1845
"95856",1291.3158,84.09308,247.89186
"95857",1291.3291,84.03937,247.96606
"95858",1291.3424,83.387505,247.44043
"95859",1291.3557,82.23514,246.39392
"95860",1291.369,80.69215,244.92078
"95861",1291.3823,78.87816,243.12842
"95862",1291.3956,76.88594,241.10114
"95863",1291.4089,74.80583,238.9237
"95864",1291.4222,72.71107,236.66663
"95865",1291.4355,70.67002,234.3978
"95866",1291.4489,68.73884,232.17505
"95867",1291.4888,64.13916,226.36134
"95868",1291.5021,63.130848,224.85738
"95869",1291.5154,62.417946,223.61731
"95870",1291.5287,62.000458,222.65039
"95871",1291.542,61.8735,221.96095
"95872",1291.5553,62.012665,221.53366
"95873",1291.5686,62.383766,221.34265
"95874",1291.5819,62.94774,221.35611
"95875",1291.5952,63.6582,221.53369
"95876",1291.6085,64.46143,221.82625
"95877",1291.6218,65.32082,222.20006
"95878",1291.6351,66.197296,222.61781
"95879",1291.6484,67.04936,223.03854
"95880",1291.6617,67.8526,223.43707
"95881",1291.675,68.58259,223.78746
"95882",1291.6884,69.224686,224.07277
"95883",1291.7017,69.76181,224.27316
"95884",1291.715,70.18417,224.37558
"95885",1291.7283,70.47959,224.36426
"95886",1291.7416,70.623634,224.21078
"95887",1291.7549,70.60166,223.8958
"95888",1291.7682,70.452736,223.45317
"95889",1291.7815,70.39414,223.09622
"95890",1291.7948,70.977646,223.37955
"95891",1291.8081,73.15053,225.27048
"95892",1291.8214,77.83566,229.74156
"95893",1291.8347,85.243,237.08125
"95894",1291.848,94.623024,246.62512
"95895",1291.8613,104.54505,257.00412
"95896",1291.8746,113.39773,266.62384
"95897",1291.888,119.8822,274.15198
"95898",1291.9012,123.47845,278.99454
"95899",1291.9146,124.506294,281.38107
"95900",1291.9279,123.66155,281.92715
"95901",1291.9412,121.49111,281.12112
"95902",1291.9545,118.30015,279.22675
"95903",1291.9678,114.31815,276.44162
"95904",1291.9811,109.78195,272.97784
"95905",1291.9944,104.94301,269.06958
"95906",1292.0077,100.04059,264.94662
"95907",1292.021,95.28954,260.82184
"95908",1292.0343,90.863205,256.8733
"95909",1292.0476,86.84703,253.1966
"95910",1292.0609,83.27032,249.83385
"95911",1292.0742,80.14526,246.81099
"95912",1292.0875,77.51827,244.18854
"95913",1292.1008,75.508965,242.10167
"95914",1292.1141,74.26139,240.71375
"95915",1292.1274,73.9025,240.17552
"95916",1292.1407,74.43717,240.51965
"95917",1292.154,75.72869,241.63733
"95918",1292.1674,77.4963,243.27145
"95919",1292.1807,79.3933,245.09021
"95920",1292.194,81.08766,246.76561
"95921",1292.2073,82.320595,248.03253
"95922",1292.2206,82.94072,248.72517
"95923",1292.2339,82.896774,248.77313
"95924",1292.2472,82.22293,248.18982
"95925",1292.2605,81.01198,247.04834
"95926",1292.2738,79.38354,245.45152
"95927",1292.2871,77.46212,243.51083
"95928",1292.3004,75.352715,241.32211
"95929",1292.3137,73.14809,238.97226
"95930",1292.327,70.91417,236.52422
"95931",1292.3403,68.72663,234.05275
"95932",1292.3536,66.64652,231.62035
"95933",1292.367,64.742195,229.29872
"95934",1292.3802,63.06981,227.14954
"95935",1292.3936,61.67819,225.22885
"95936",1292.4069,60.58686,223.56497
"95937",1292.4202,59.800716,222.17216
"95938",1292.4335,59.307545,221.04776
"95939",1292.4468,59.09514,220.18872
"95940",1292.4601,59.14397,219.58427
"95941",1292.4734,59.424736,219.21329
"95942",1292.4867,59.90326,219.04883
"95943",1292.5,60.5478,219.06534
"95944",1292.5133,61.31197,219.22163
"95945",1292.5266,62.146946,219.47261
"95946",1292.5399,63.008774,219.77654
"95947",1292.5532,63.863277,220.10007
"95948",1292.5665,64.66895,220.40147
"95949",1292.5798,65.40139,220.65482
"95950",1292.5931,66.05325,220.85048
"95951",1292.6064,66.62211,220.9835
"95952",1292.6198,67.11284,221.05618
"95953",1292.633,67.527885,221.06851
"95954",1292.6464,67.879456,221.03033
"95955",1292.6597,68.16266,220.93477
"95956",1292.673,68.35554,220.75774
"95957",1292.6863,68.43366,220.47197
"95958",1292.6996,68.37995,220.05681
"95959",1292.7129,68.21393,219.52766
"95960",1292.7262,68.04791,218.99333
"95961",1292.7395,68.279854,218.85178
"95962",1292.7528,69.754486,219.96016
"95963",1292.7661,73.59487,223.48038
"95964",1292.7794,80.52857,230.21391
"95965",1292.7927,90.26261,239.96448
"95966",1292.806,101.49569,251.51826
"95967",1292.8193,112.413826,263.10815
"95968",1292.8326,121.29092,272.99817
"95969",1292.846,127.03563,280.03323
"95970",1292.8593,129.56497,284.03244
"95971",1292.8726,129.55765,285.57404
"95972",1292.8859,127.80713,285.3722
"95973",1292.8992,124.789505,283.84854
"95974",1292.9125,120.763565,281.2223
"95975",1292.9258,115.963684,277.69626
"95976",1292.9391,110.64622,273.50266
"95977",1292.9524,105.07973,268.89386
"95978",1292.9657,99.53277,264.13065
"95979",1292.979,94.25681,259.4651
"95980",1292.9923,89.45205,255.10585
"95981",1293.0056,85.223465,251.17264
"95982",1293.0189,81.60769,247.7201
"95983",1293.0322,78.607155,244.7698
"95984",1293.0455,76.25117,242.37029
"95985",1293.0588,74.60319,240.60515
"95986",1293.0721,73.75845,239.59177
"95987",1293.0854,73.777985,239.41624
"95988",1293.0988,74.61051,240.05434
"95989",1293.112,76.085144,241.36055
"95990",1293.1254,77.91867,243.07173
"95991",1293.1387,79.7937,244.88171
"95992",1293.152,81.40749,246.48906
"95993",1293.1653,82.528114,247.65367
"95994",1293.1786,83.0164,248.22096
"95995",1293.1919,82.84306,248.14189
"95996",1293.2052,82.04715,247.43483
"95997",1293.2185,80.73853,246.19019
"95998",1293.2318,79.04906,244.52379
"95999",1293.2451,77.10811,242.55312
"96000",1293.2584,75.02312,240.37775
"96001",1293.2717,72.87709,238.07619
"96002",1293.285,70.73106,235.70757
"96003",1293.2983,68.63386,233.32071
"96004",1293.3116,66.6392,230.97086
"96005",1293.325,64.79347,228.70761
"96006",1293.3383,63.147938,226.58687
"96007",1293.3516,61.741665,224.65396
"96008",1293.3649,60.616158,222.95789
"96009",1293.3782,59.786068,221.52205
"96010",1293.3915,59.253834,220.35812
"96011",1293.4048,58.999924,219.4559
"96012",1293.4181,59.01213,218.81186
"96013",1293.4314,59.258717,218.40257
"96014",1293.4447,59.70062,218.1963
"96015",1293.458,60.301212,218.16254
"96016",1293.4713,61.02388,218.26962
"96017",1293.4846,61.824673,218.47742
"96018",1293.4979,62.671856,218.75662
"96019",1293.5112,63.536125,219.07939
"96020",1293.5245,64.39063,219.4194
"96021",1293.5378,65.21095,219.75192
"96022",1293.5511,65.97513,220.05394
"96023",1293.5645,66.66605,220.3066
"96024",1293.5778,67.266655,220.49051
"96025",1293.5911,67.76715,220.5931
"96026",1293.6044,68.16022,220.60388
"96027",1293.6177,68.436104,220.50978
"96028",1293.631,68.58015,220.29245
"96029",1293.6443,68.59968,219.95511
"96030",1293.6576,68.594795,219.59396
"96031",1293.6709,68.943924,219.58669
"96032",1293.6842,70.467384,220.76465
"96033",1293.6975,74.285805,224.28517
"96034",1293.7108,81.160904,230.9817
"96035",1293.7241,90.85344,240.71051
"96036",1293.7374,102.07675,252.273
"96037",1293.7507,113.01198,263.89813
"96038",1293.764,121.9086,273.8264
"96039",1293.7773,127.63378,280.8612
"96040",1293.7906,130.0679,284.78387
"96041",1293.804,129.89212,286.17273
"96042",1293.8173,127.92676,285.76648
"96043",1293.8306,124.682076,284.0195
"96044",1293.8439,120.429085,281.16284
"96045",1293.8572,115.38262,277.3798
"96046",1293.8705,109.79416,272.89703
"96047",1293.8838,103.94446,267.9784
"96048",1293.8971,98.126495,262.9087
"96049",1293.9104,92.62104,257.9697
"96050",1293.9237,87.64538,253.38844
"96051",1293.937,83.32403,249.30602
"96052",1293.9503,79.69604,245.7819
"96053",1293.9636,76.76143,242.8378
"96054",1293.9769,74.53727,240.51244
"96055",1293.9902,73.09926,238.90372
"96056",1294.0035,72.54261,238.13142
"96057",1294.0168,72.92592,238.2817
"96058",1294.0302,74.20523,239.33994
"96059",1294.0435,76.17792,241.13153
"96060",1294.0568,78.521706,243.35588
"96061",1294.0701,80.86549,245.65347
"96062",1294.0834,82.85771,247.67274
"96063",1294.0967,84.23712,249.14146
"96064",1294.11,84.86702,249.90378
"96065",1294.1233,84.72053,249.90938
"96066",1294.1366,83.85626,249.19263
"96067",1294.1499,82.4036,247.86047
"96068",1294.1632,80.49683,246.02882
"96069",1294.1765,78.28001,243.82753
"96070",1294.1898,75.8703,241.36407
"96071",1294.2031,73.38003,238.74475
"96072",1294.2164,70.89464,236.05249
"96073",1294.2297,68.49714,233.37045
"96074",1294.243,66.253456,230.7673
"96075",1294.2563,64.234375,228.31865
"96076",1294.2697,62.498512,226.09012
"96077",1294.283,61.082474,224.12717
"96078",1294.2963,60.003357,222.45688
"96079",1294.3096,59.256275,221.0849
"96080",1294.3229,58.82414,220.00452
"96081",1294.3362,58.66789,219.18652
"96082",1294.3495,58.763103,218.61511
"96083",1294.3628,59.08049,218.26884
"96084",1294.3761,59.58587,218.12048
"96085",1294.3894,60.2475,218.14418
"96086",1294.4027,61.018997,218.29842
"96087",1294.416,61.863735,218.55
"96088",1294.4293,62.7451,218.86461
"96089",1294.4426,63.64111,219.2214
"96090",1294.4559,64.52979,219.59888
"96091",1294.4692,65.38674,219.97238
"96092",1294.4825,66.19241,220.3214
"96093",1294.4958,66.92973,220.62723
"96094",1294.5092,67.56695,220.856
"96095",1294.5225,68.07477,220.9753
"96096",1294.5358,68.43122,220.95909
"96097",1294.5491,68.64362,220.80997
"96098",1294.5624,68.85359,220.66505
"96099",1294.5757,69.54452,221.00766
"96100",1294.589,71.641716,222.77812
"96101",1294.6023,76.241394,227.11661
"96102",1294.6156,83.86359,234.62134
"96103",1294.6289,93.94919,244.82768
"96104",1294.6422,105.01869,256.3331
"96105",1294.6555,115.226364,267.3226
"96106",1294.6688,122.9633,276.16037
"96107",1294.6821,127.37499,281.91467
"96108",1294.6954,128.62502,284.64517
"96109",1294.7087,127.51415,285.05383
"96110",1294.722,124.80415,283.82864
"96111",1294.7354,120.91249,281.3371
"96112",1294.7487,116.07843,277.78156
"96113",1294.762,110.52415,273.35474
"96114",1294.7753,104.52064,268.3051
"96115",1294.7886,98.37064,262.9214
"96116",1294.8019,92.37934,257.50418
"96117",1294.8152,86.82994,252.34163
"96118",1294.8285,81.9202,247.64532
"96119",1294.8418,77.7551,243.54024
"96120",1294.8551,74.356606,240.0716
"96121",1294.8684,71.77356,237.3122
"96122",1294.8817,70.0914,235.37296
"96123",1294.895,69.44442,234.41634
"96124",1294.9083,69.93027,234.57233
"96125",1294.9216,71.536736,235.86412
"96126",1294.9349,74.06119,238.1241
"96127",1294.9482,77.13008,241.0074
"96128",1294.9615,80.27955,244.06718
"96129",1294.9749,83.06523,246.8616
"96130",1294.9882,85.14534,249.0375
"96131",1295.0015,86.31968,250.37263
"96132",1295.0148,86.54673,250.79718
"96133",1295.0281,85.89975,250.35478
"96134",1295.0414,84.52766,249.16705
"96135",1295.0547,82.60136,247.38225
"96136",1295.068,80.30396,245.16615
"96137",1295.0813,77.79172,242.6634
"96138",1295.0946,75.20378,240.00645
"96139",1295.1079,72.64271,237.2955
"96140",1295.1212,70.19394,234.61682
"96141",1295.1345,67.91608,232.03252
"96142",1295.1478,65.865265,229.60408
"96143",1295.1611,64.078125,227.37523
"96144",1295.1744,62.58396,225.38351
"96145",1295.1877,61.40963,223.66493
"96146",1295.201,60.56733,222.24168
"96147",1295.2144,60.054626,221.1217
"96148",1295.2277,59.849545,220.29333
"96149",1295.241,59.92035,219.73444
"96150",1295.2543,60.22553,219.41212
"96151",1295.2676,60.71626,219.2849
"96152",1295.2809,61.353474,219.31949
"96153",1295.2942,62.100555,219.48387
"96154",1295.3075,62.928207,219.75217
"96155",1295.3208,63.819332,220.1098
"96156",1295.3341,64.761734,220.54655
"96157",1295.3474,65.71877,221.0274
"96158",1295.3607,66.65629,221.51863
"96159",1295.374,67.542534,221.98788
"96160",1295.3873,68.32868,222.38474
"96161",1295.4006,68.963455,222.65479
"96162",1295.414,69.42489,222.77133
"96163",1295.4272,69.76425,222.78023
"96164",1295.4406,70.2501,222.94621
"96165",1295.4539,71.5758,223.96722
"96166",1295.4672,74.810715,226.93889
"96167",1295.4805,80.84108,232.80708
