Time (s), PPG trace, Preprocessed PPG
10.826019,89.65713,89.65713
10.839355,89.37881,89.680595
10.852684,88.76601,89.360886
10.86602,87.94568,88.8145
10.879356,87.044785,88.16191
10.892685,86.170746,87.50802
10.906021,85.39193,86.922035
10.91935,84.74006,86.43866
10.932686,84.20294,86.04967
10.946022,83.74639,85.72446
10.959351,83.32891,85.42405
10.972687,82.9456,85.14477
10.986023,82.61356,84.90478
10.9993515,82.371864,84.74475
11.012688,82.2449,84.69191
11.026016,82.23758,84.75474
11.039352,82.31815,84.905235
11.052689,82.43778,85.097305
11.066017,82.53788,85.27358
11.079353,82.57206,85.38707
11.0926895,82.50858,85.40397
11.106018,82.3328,85.30658
11.119354,82.04471,85.091385
11.132683,81.65896,84.76953
11.146019,81.19508,84.3575
11.159355,80.68482,83.88458
11.172684,80.147705,83.368866
11.18602,79.60815,82.83392
11.199356,79.08812,82.30165
11.212685,78.60227,81.78731
11.226021,78.16037,81.30173
11.239349,77.77463,80.8585
11.252686,77.44015,80.454475
11.266022,77.16182,80.09615
11.27935,76.93233,79.77797
11.292686,76.74677,79.49655
11.306023,76.59785,79.245964
11.319351,76.4831,79.0249
11.332687,76.40009,78.83199
11.346016,76.351265,78.67067
11.359352,76.334175,78.53956
11.372688,76.34882,78.43965
11.386017,76.39277,78.3695
11.399353,76.456245,78.32025
11.412689,76.53193,78.285194
11.426018,76.60273,78.24762
11.439354,76.663765,78.20249
11.4526825,76.70527,78.13974
11.466019,76.71992,78.05143
11.479355,76.70771,77.93672
11.492683,76.67109,77.79722
11.50602,76.61738,77.63948
11.519356,76.54658,77.462975
11.532684,76.46113,77.26961
11.5460205,76.3708,77.06869
11.559349,76.27314,76.85762
11.572685,76.17792,76.645935
11.586021,76.09247,76.44105
11.59935,76.033875,76.260345
11.612686,76.016785,76.119316
11.626022,76.08026,76.05832
11.639351,76.30244,76.158005
11.652687,76.79317,76.53319
11.666016,77.65255,77.29236
11.679352,78.93675,78.503204
11.692688,80.618904,80.15213
11.706017,82.56718,82.11974
11.719353,84.576485,84.209274
11.732689,86.42222,86.19802
11.746017,87.91638,87.892876
11.759354,88.936905,89.16078
11.772682,89.43984,89.94299
11.786018,89.45205,90.2502
11.799355,89.05653,90.15006
11.812683,88.36561,89.74216
11.826019,87.50866,89.14664
11.839355,86.607765,88.48039
11.852684,85.750824,87.82994
11.86602,84.99397,87.2528
11.879349,84.34699,86.76188
11.892685,83.78302,86.33375
11.906021,83.28008,85.94903
11.91935,82.83818,85.60963
11.932686,82.46708,85.32722
11.946022,82.20584,85.143074
11.959351,82.08133,85.087494
11.972687,82.11063,85.18183
11.986015,82.25956,85.39672
11.9993515,82.4744,85.682175
12.012688,82.686806,85.9719
12.026016,82.84062,86.20968
12.039352,82.882126,86.33995
12.052689,82.78935,86.33724
12.066017,82.55741,86.19247
12.079353,82.193634,85.90861
12.092682,81.722435,85.50596
12.106018,81.17555,85.0129
12.119354,80.584724,84.45881
12.132683,79.971924,83.86428
12.146019,79.36645,83.25793
12.159355,78.78294,82.654625
12.172684,78.24094,82.074585
12.18602,77.7551,81.533775
12.199348,77.33761,81.046135
12.212685,76.99092,80.61625
12.226021,76.717476,80.24877
12.239349,76.507515,79.93623
12.252686,76.34882,79.6684
12.266022,76.23651,79.44199
12.27935,76.16327,79.251144
12.292686,76.11932,79.0873
12.306015,76.102234,78.948944
12.319351,76.10956,78.834465
12.332687,76.13641,78.739746
12.346016,76.18524,78.66784
12.359352,76.243835,78.60722
12.372688,76.30976,78.55577
12.386017,76.37324,78.50393
12.399353,76.422066,78.43942
12.412682,76.44892,78.35447
12.426018,76.453804,78.24838
12.439354,76.42695,78.11071
12.4526825,76.37812,77.950226
12.466019,76.30976,77.768684
12.479355,76.226746,77.57035
12.492683,76.138855,77.36455
12.50602,76.04364,77.148674
12.519348,75.945984,76.92738
12.532684,75.85077,76.70548
12.5460205,75.7702,76.495255
12.559349,75.7116,76.304474
12.572685,75.69695,76.155815
12.586021,75.78485,76.109245
12.59935,76.07782,76.27049
12.612686,76.70771,76.77782
12.626015,77.78195,77.749176
12.639351,79.34936,79.24727
12.652687,81.339134,81.21671
12.666016,83.58526,83.504684
12.679352,85.83383,85.865295
12.692688,87.83826,88.052025
12.706017,89.3959,89.854614
12.719353,90.39445,91.14679
12.732681,90.79729,91.87446
12.746017,90.65568,92.07027
12.759354,90.08682,91.834404
12.772682,89.23476,91.297554
12.786018,88.24597,90.59735
12.799355,87.25475,89.863815
12.812683,86.3563,89.19208
12.826019,85.59945,88.63386
12.839348,84.981766,88.191154
12.852684,84.46662,87.83169
12.86602,84.00519,87.509834
12.879349,83.563286,87.19309
12.892685,83.13603,86.87719
12.906021,82.75273,86.59189
12.91935,82.45487,86.38005
12.932686,82.266884,86.268776
12.946014,82.18631,86.25904
12.959351,82.178986,86.32004
12.972687,82.19852,86.40766
12.986015,82.193634,86.47148
12.9993515,82.11795,86.46435
13.012688,81.94705,86.359634
13.026016,81.66384,86.13727
13.039352,81.26833,85.793755
13.052681,80.7776,85.34266
13.066017,80.218506,84.80786
13.079353,79.622795,84.21898
13.092682,79.01976,83.60416
13.106018,78.43137,82.98514
13.119354,77.874725,82.37947
13.132683,77.3547,81.79303
13.146019,76.8835,81.23917
13.159348,76.46601,80.72429
13.172684,76.104675,80.25252
13.18602,75.80438,79.8305
13.226021,75.24773,78.85968
13.239349,75.16228,78.625725
13.252686,75.11833,78.4306
13.266014,75.10368,78.263405
13.27935,75.11833,78.125046
13.292686,75.157394,78.01156
13.306015,75.21355,77.91638
13.319351,75.27703,77.83029
13.332687,75.34539,77.75106
13.346016,75.41131,77.671524
13.359352,75.46258,77.5794
13.372681,75.491875,77.4669
13.386017,75.494316,77.32847
13.399353,75.47234,77.165695
13.412682,75.42596,76.97782
13.426018,75.36004,76.76897
13.439354,75.28191,76.545845
13.4526825,75.20378,76.320274
13.466019,75.13298,76.099594
13.479347,75.07439,75.88891
13.492683,75.04509,75.70569
13.50602,75.0573,75.56306
13.519348,75.142746,75.49405
13.532684,75.386894,75.58641
13.5460205,75.90936,75.96472
13.559349,76.839554,76.76708
13.572685,78.27024,78.09901
13.586014,80.20386,79.97857
13.59935,82.530556,82.31164
13.612686,85.03548,84.89564
13.626015,87.44518,87.4627
13.639351,89.52285,89.773026
13.652687,91.0927,91.640465
13.666016,92.086365,92.98078
13.679352,92.53315,93.80527
13.69268,92.523384,94.187164
13.706017,92.19379,94.248924
13.719353,91.68597,94.12216
13.732681,91.12932,93.9307
13.746017,90.63126,93.78044
13.759354,90.25773,93.739136
13.772682,90.040436,93.8424
13.786018,89.96231,94.07804
13.799347,89.95499,94.38204
13.812683,89.95743,94.69558
13.826019,89.92325,94.97257
13.839348,89.84024,95.19967
13.852684,89.73281,95.39975
13.86602,89.652245,95.62334
13.879349,89.62783,95.90056
13.892685,89.65713,96.23073
13.9060135,89.69863,96.57402
13.91935,89.70107,96.87955
13.932686,89.61074,97.09238
13.946014,89.38857,97.17055
13.959351,89.022354,97.097725
13.972687,88.516975,96.8743
13.986015,87.89685,96.520325
13.9993515,87.183945,96.0542
14.01268,86.40513,95.49988
14.026016,85.58724,94.88215
14.039352,84.754715,94.22422
14.052681,83.92462,93.54271
14.066017,83.11162,92.85235
14.079353,82.32548,92.163445
14.092682,81.583275,91.49391
14.106018,80.89479,90.854904
14.119347,80.26246,90.250534
14.132683,79.69848,89.694756
14.146019,79.200424,89.18728
14.159348,78.75609,88.71796
14.172684,78.36057,88.28357
14.18602,78.00168,87.87344
14.199348,77.67696,87.48628
14.212685,77.37179,87.10851
14.226013,77.09102,86.74561
14.239349,76.82735,86.39104
14.252686,76.58076,86.0453
14.266014,76.33906,85.696754
14.27935,76.102234,85.34553
14.292686,75.8703,84.99179
14.306015,75.63592,84.62836
14.319351,75.39422,84.25028
14.33268,75.142746,83.85488
14.346016,74.881516,83.441864
14.359352,74.61051,83.01091
14.372681,74.32487,82.55685
14.386017,74.03189,82.086525
14.399353,73.75113,81.61926
14.412682,73.48745,81.16031
14.426018,73.25063,80.71998
14.439346,73.057755,80.316185
14.4526825,72.938126,79.979614
14.466019,72.95766,79.778465
14.479347,73.231094,79.83183
14.492683,73.89273,80.281944
14.50602,75.037766,81.23613
14.519348,76.66132,82.70462
14.532684,78.658424,84.59739
14.546013,80.80934,86.70638
14.559349,82.847946,88.77028
14.572685,84.52766,90.53899
14.586014,85.68246,91.83527
14.59935,86.24399,92.57438
14.612686,86.22934,92.75485
14.626015,85.74349,92.46367
14.639351,84.93538,91.83504
14.652679,83.97101,91.024895
14.666016,82.99199,90.16997
14.679352,82.10574,89.37722
14.69268,81.37087,88.70815
14.706017,80.79225,88.17237
14.719353,80.3357,87.74058
14.732681,79.95239,87.36776
14.746017,79.60082,87.0147
14.759346,79.259026,86.66043
14.772682,78.94896,86.32721
14.786018,78.709694,86.0551
14.799347,78.572975,85.87806
14.812683,78.55833,85.81882
14.826019,78.643776,85.859215
14.839348,78.785385,85.95844
14.852684,78.92943,86.06453
14.866013,79.027084,86.12873
14.879349,79.03685,86.10809
14.892685,78.93187,85.973015
14.9060135,78.70725,85.71502
14.91935,78.37278,85.34015
14.932686,77.94797,84.86449
14.946014,77.469444,84.32184
14.959351,76.964066,83.73738
14.972679,76.46113,83.13957
14.986015,75.982605,82.55046
14.9993515,75.545586,81.9879
15.01268,75.157394,81.46051
15.026016,74.830246,80.98203
15.039352,74.57145,80.56168
15.052681,74.373695,80.19429
15.066017,74.23453,79.8793
15.079346,74.15152,79.61613
15.092682,74.1149,79.39674
15.106018,74.11246,79.210396
15.119347,74.13931,79.05327
15.132683,74.19058,78.921394
15.146019,74.26139,78.81066
15.159348,74.35172,78.721664
15.172684,74.4567,78.65014
15.186012,74.57145,78.59166
15.199348,74.686195,78.536766
15.212685,74.793625,78.47814
15.226013,74.8864,78.40822
15.239349,74.9572,78.31922
15.252686,75.00847,78.212906
15.266014,75.03044,78.078896
15.27935,75.02312,77.916275
15.292679,74.986496,77.72413
15.306015,74.92546,77.506424
15.319351,74.844894,77.26728
15.33268,74.75212,77.01341
15.346016,74.65446,76.751755
15.359352,74.57145,76.5017
15.372681,74.5153,76.27591
15.386017,74.49821,76.087425
15.399345,74.54459,75.96188
15.412682,74.70817,75.95498
15.426018,75.09392,76.17536
15.439346,75.83612,76.76425
15.4526825,77.04707,77.845085
15.466019,78.75853,79.464264
15.479347,80.88258,81.54952
15.492683,83.21416,83.908676
15.506012,85.47494,86.2699
15.519348,87.396355,88.362404
15.532684,88.780655,89.977844
15.546013,89.5375,91.00908
15.559349,89.671776,91.44141
15.572685,89.28603,91.35791
15.586014,88.514534,90.8766
15.59935,87.52331,90.15146
15.612679,86.46616,89.32942
15.626015,85.46761,88.532936
15.639351,84.613106,87.84929
15.652679,83.929504,87.309845
15.666016,83.39239,86.89552
15.679352,82.950485,86.55963
15.69268,82.54276,86.24411
15.706017,82.142365,85.92317
15.719345,81.75906,85.60682
15.732681,81.444115,85.34684
15.746017,81.23903,85.18688
15.759346,81.160904,85.14748
15.772682,81.19264,85.21549
15.786018,81.27566,85.33578
15.799347,81.35378,85.453766
15.812683,81.37087,85.51316
15.826012,81.29275,85.477875
15.839348,81.109634,85.33516
15.852684,80.814224,85.074425
15.866013,80.42603,84.71168
15.879349,79.95972,84.258675
15.892685,79.44457,83.74227
15.9060135,78.89525,83.17559
15.91935,78.3386,82.58442
15.932678,77.7966,81.9905
15.946014,77.29122,81.41627
15.959351,76.83467,80.87507
15.972679,76.439156,80.38064
15.986015,76.10712,79.937325
15.9993515,75.843445,79.552
16.01268,75.650566,79.22923
16.026016,75.51873,78.96148
16.039345,75.44305,78.74576
16.052681,75.41375,78.57406
16.066017,75.41619,78.43318
16.079346,75.43816,78.31191
16.092682,75.4699,78.201096
16.106018,75.50652,78.09615
16.119347,75.55779,78.007
16.132683,75.6115,77.9219
16.146011,75.665215,77.83847
16.159348,75.718925,77.75672
16.172684,75.76532,77.669334
16.186012,75.80682,77.57851
16.199348,75.83124,77.471886
16.212685,75.83856,77.34894
16.226013,75.82391,77.20425
16.23935,75.78241,77.03224
16.252678,75.7116,76.829636
16.266014,75.6115,76.59553
16.27935,75.48943,76.33632
16.292679,75.355156,76.06109
16.306015,75.21599,75.77677
16.319351,75.089035,75.50032
16.33268,74.984055,75.241875
16.346016,74.91081,75.01189
16.359344,74.879074,74.82111
16.37268,74.89128,74.673294
16.386017,74.969406,74.591774
16.399345,75.159836,74.625
16.412682,75.577324,74.891235
16.426018,76.36103,75.536736
16.439346,77.63302,76.69501
16.452682,79.44213,78.43015
16.466011,81.7029,80.67349
16.479347,84.210266,83.23407
16.492683,86.6688,85.82417
16.506012,88.7831,88.146866
16.519348,90.32609,89.964325
16.532684,91.20012,91.16105
16.546013,91.41009,91.72102
16.55935,91.05852,91.72602
16.572678,90.29679,91.309875
16.586014,89.2958,90.63066
16.59935,88.21423,89.83959
16.612679,87.186386,89.068436
16.626015,86.295265,88.401886
16.63935,85.575035,87.87838
16.65268,85.00618,87.48374
16.666016,84.53986,87.17387
16.679344,84.105286,86.88116
16.69268,83.67071,86.57487
16.706017,83.24101,86.25988
16.719345,82.85527,85.97542
16.732681,82.55741,85.766785
16.746017,82.37919,85.66848
16.759346,82.31083,85.67447
16.772682,82.320595,85.75645
16.78601,82.34257,85.85094
16.799347,82.32792,85.90949
16.812683,82.22537,85.87969
16.826012,82.01541,85.73927
16.839348,81.68337,85.470215
16.852684,81.23659,85.076035
16.866013,80.69703,84.57512
16.879349,80.079346,83.97922
16.892677,79.41039,83.312744
16.906013,78.7219,82.60583
16.91935,78.05295,81.896935
16.932678,77.4255,81.20864
16.946014,76.86641,80.5691
16.95935,76.39521,79.99998
16.97268,76.00702,79.49914
16.986015,75.699394,79.066734
16.999344,75.4699,78.70285
17.01268,75.31121,78.402596
17.026016,75.21355,78.15841
17.039345,75.16716,77.96245
17.052681,75.16228,77.80654
17.066017,75.18913,77.68222
17.079346,75.24284,77.585594
17.092682,75.32098,77.51507
17.10601,75.41619,77.464066
17.119347,75.51629,77.42092
17.132683,75.6115,77.37602
17.146011,75.699394,77.326775
17.159348,75.772644,77.26563
17.172684,75.83612,77.19701
17.186012,75.894714,77.12548
17.199348,75.945984,77.04846
17.212677,75.98505,76.96084
17.226013,76.00946,76.85979
17.23935,76.00702,76.73264
17.252678,75.97772,76.57857
17.266014,75.928894,76.404045
17.27935,75.86542,76.21335
17.292679,75.789734,76.00846
17.306015,75.70672,75.79388
17.319344,75.62615,75.57915
17.33268,75.55047,75.36678
17.346016,75.49676,75.17403
17.359344,75.47723,75.01377
17.37268,75.50408,74.89929
17.386017,75.596855,74.85157
17.399345,75.809265,74.926384
17.412682,76.23407,75.22023
17.42601,77.015335,75.88381
17.439346,78.27512,77.05033
17.452682,80.06958,78.790886
17.466011,82.3328,81.05628
17.479347,84.86458,83.66096
17.492683,87.36706,86.31545
17.506012,89.530174,88.708786
17.519348,91.11955,90.595985
17.532677,92.018005,91.84193
17.546013,92.225525,92.42501
17.55935,91.83734,92.41888
17.572678,91.00725,91.9587
17.586014,89.918365,91.2138
17.59935,88.7367,90.34209
17.612679,87.60143,89.47984
17.626015,86.62241,88.73837
17.639343,85.84848,88.17139
17.65268,85.25521,87.76088
17.666016,84.78401,87.4539
17.679344,84.35432,87.173706
17.69268,83.91974,86.8752
17.706017,83.46807,86.54602
17.719345,83.04814,86.23447
17.732681,82.71122,85.9928
17.74601,82.49882,85.86512
17.759346,82.41581,85.8602
17.772682,82.425575,85.94546
17.78601,82.46464,86.06032
17.799347,82.47196,86.14466
17.812683,82.39628,86.146225
17.826012,82.20584,86.03067
17.839348,81.88846,85.78222
17.852676,81.449,85.40177
17.866013,80.907,84.90505
17.879349,80.2942,84.320595
17.892677,79.64233,83.67792
17.906013,78.98558,83.009995
17.91935,78.345924,82.33864
17.932678,77.747765,81.68879
17.946014,77.21309,81.08373
17.959343,76.74677,80.53033
17.97268,76.36103,80.04292
17.986015,76.053406,79.62158
17.999344,75.82147,79.26632
18.01268,75.665215,78.979485
18.026016,75.57,78.74881
18.039345,75.526054,78.56643
18.052681,75.51873,78.4193
18.06601,75.53582,78.29635
18.079346,75.56512,78.18614
18.092682,75.60418,78.08662
18.10601,75.648125,77.993195
18.119347,75.701836,77.91091
18.132683,75.76044,77.8352
18.146011,75.81903,77.76131
18.159348,75.87518,77.686806
18.172676,75.92157,77.604294
18.186012,75.948425,77.5037
18.199348,75.95575,77.384415
18.212677,75.94354,77.24583
18.226013,75.911804,77.087326
18.23935,75.86542,76.913185
18.252678,75.809265,76.72783
18.266014,75.7409,76.5285
18.279343,75.66277,76.31728
18.292679,75.57,76.088974
18.306015,75.4699,75.85044
18.319344,75.36248,75.601456
18.33268,75.245285,75.33934
18.346016,75.13054,75.07601
18.359344,75.035324,74.82863
18.37268,74.97185,74.61001
18.38601,74.9572,74.43823
18.399345,74.9987,74.32215
18.412682,75.13298,74.30014
18.42601,75.4284,74.44347
18.439346,76.016785,74.88899
18.452682,77.04219,75.789925
18.466011,78.6096,77.2649
18.479347,80.709236,79.32109
18.492676,83.194626,81.82864
18.506012,85.80698,84.540825
18.519348,88.224,87.13931
18.532677,90.17227,89.34459
18.546013,91.46868,90.958885
18.55935,92.05463,91.90323
18.572678,91.97894,92.204254
18.586014,91.3637,91.963356
18.599342,90.389565,91.34434
18.612679,89.23964,90.51909
18.626015,88.077515,89.645706
18.639343,87.027695,88.84831
18.65268,86.168304,88.208534
18.666016,85.50912,87.7421
18.679344,85.00374,87.40888
18.69268,84.58137,87.142876
18.706009,84.17609,86.88076
18.719345,83.76105,86.59622
18.732681,83.35088,86.30359
18.74601,82.99199,86.04941
18.759346,82.73319,85.88411
18.772682,82.59647,85.8328
18.78601,82.562294,85.87976
18.799347,82.579384,85.97692
18.812675,82.59159,86.06973
18.826012,82.53788,86.09701
18.839348,82.37919,86.017624
18.852676,82.09598,85.80876
18.866013,81.6907,85.46898
18.879349,81.18288,85.01399
18.892677,80.59693,84.46501
18.906013,79.96704,83.853775
18.91935,79.32006,83.205765
18.932678,78.68772,82.55218
18.946014,78.08713,81.910576
18.959343,77.5378,81.301476
18.97268,77.05684,80.74357
18.986015,76.65156,80.246315
18.999344,76.32197,79.81209
19.01268,76.07294,79.44812
19.026009,75.89227,79.14474
19.039345,75.7702,78.8943
19.052681,75.70428,78.6962
19.06601,75.68719,78.54487
19.079346,75.70916,78.43207
19.092682,75.75311,78.341934
19.10601,75.81659,78.2727
19.119347,75.88495,78.21033
19.132683,75.95819,78.154976
19.146011,76.02899,78.09947
19.159348,76.09979,78.04618
19.172676,76.16571,77.99022
19.186012,76.22186,77.92655
19.199348,76.25361,77.84023
19.212677,76.265816,77.73537
19.226013,76.25849,77.61135
19.239342,76.23407,77.47001
19.252678,76.192566,77.31082
19.266014,76.1413,77.14057
19.279343,76.07538,76.95407
19.292679,76.00214,76.75819
19.306015,75.92401,76.55513
19.319344,75.843445,76.34719
19.33268,75.76044,76.13429
19.346016,75.682304,75.923676
19.359344,75.6115,75.71795
19.37268,75.55047,75.519775
19.38601,75.51385,75.34411
19.399345,75.51873,75.2088
19.412682,75.57244,75.122475
19.42601,75.701836,75.11351
19.439346,75.95819,75.23555
19.452675,76.45136,75.60242
19.466011,77.32052,76.36068
19.479347,78.692604,77.64903
19.492676,80.604256,79.51983
19.506012,82.97246,81.90691
19.519348,85.58236,84.6097
19.532677,88.1239,87.32569
19.546013,90.28214,89.73781
19.55935,91.825134,91.60212
19.572678,92.647896,92.79442
19.586014,92.75777,93.29954
19.599342,92.26704,93.20749
19.612679,91.34905,92.67285
19.626015,90.194244,91.8727
19.639343,88.98573,90.982765
19.65268,87.85779,90.13562
19.666008,86.90074,89.42413
19.679344,86.14633,88.88537
19.69268,85.56527,88.496376
19.706009,85.08675,88.191765
19.719345,84.63752,87.9015
19.732681,84.173645,87.58254
19.74601,83.69268,87.232
19.759346,83.243454,86.89817
19.772682,82.882126,86.6382
19.78601,82.64774,86.49388
19.799347,82.53544,86.46432
19.812675,82.49882,86.50693
19.826012,82.48173,86.567924
19.839348,82.42069,86.58444
19.852676,82.28153,86.52093
19.866013,82.04471,86.3554
19.879341,81.69802,86.07261
19.892677,81.24147,85.66912
19.906013,80.69459,85.16103
19.919342,80.079346,84.5675
19.932678,79.4226,83.91323
19.946014,78.75365,83.226234
19.959343,78.10666,82.5403
19.97268,77.51339,81.88786
19.986015,76.98848,81.28525
19.999344,76.53681,80.73947
20.01268,76.175476,80.26991
20.026009,75.894714,79.86964
20.039345,75.68719,79.53382
20.052681,75.54803,79.25989
20.06601,75.47234,79.04508
20.079346,75.45037,78.88162
20.092674,75.4699,78.75898
20.10601,75.511406,78.65892
20.119347,75.56756,78.57481
20.132675,75.63348,78.50221
20.146011,75.69451,78.426796
20.159348,75.755554,78.353294
20.172676,75.81415,78.27925
20.186012,75.8703,78.2046
20.199348,75.91669,78.12193
20.212677,75.95331,78.03095
20.226013,75.97772,77.92891
20.239342,75.98505,77.81054
20.252678,75.97772,77.67775
20.266014,75.96307,77.53741
20.279343,75.93622,77.3844
20.292679,75.894714,77.215904
20.306007,75.841,77.033905
20.319344,75.77997,76.8429
20.33268,75.70672,76.63778
20.346008,75.62615,76.42305
20.359344,75.543144,76.20336
20.37268,75.46258,75.98352
20.38601,75.39178,75.77093
20.399345,75.335625,75.57077
20.412682,75.301445,75.39083
20.42601,75.299,75.24156
20.439346,75.338066,75.13372
20.452675,75.423515,75.07349
20.466011,75.57488,75.08184
20.479347,75.83856,75.20724
20.492676,76.32197,75.5606
20.506012,77.1667,76.2904
20.51934,78.51194,77.5471
20.532677,80.413826,79.40248
20.546013,82.79912,81.800705
20.559341,85.452965,84.54202
20.572678,88.060425,87.319885
20.586014,90.301674,89.81302
20.599342,91.932556,91.76583
20.612679,92.83345,93.03962
20.626015,93.01167,93.61889
20.639343,92.57465,93.588486
20.65268,91.69085,93.09764
20.666008,90.545815,92.31795
20.679344,89.32021,91.421906
20.69268,88.17029,90.56324
20.706009,87.19371,89.84198
20.719345,86.42954,89.30261
20.732674,85.85092,88.92491
20.74601,85.382164,88.63899
20.759346,84.93538,88.3604
20.772675,84.456856,88.0361
20.78601,83.946594,87.665115
20.799347,83.45342,87.29527
20.812675,83.04326,86.99303
20.826012,82.76494,86.80981
20.839348,82.62577,86.75704
20.852676,82.581825,86.79515
20.866013,82.5745,86.86851
20.879341,82.53788,86.91234
20.892677,82.42069,86.87446
20.906013,82.196075,86.72549
20.919342,81.85428,86.45232
20.932678,81.40261,86.05859
20.946007,80.85573,85.55554
20.959343,80.233154,84.95971
20.97268,79.56176,84.2956
20.986008,78.86595,83.5861
20.999344,78.18234,82.86705
21.01268,77.540245,82.16815
21.026009,76.96895,81.51999
21.039345,76.4831,80.93942
21.052681,76.09247,80.43889
21.06601,75.79706,80.02137
21.079346,75.58465,79.67762
21.092674,75.44549,79.40048
21.10601,75.36248,79.17515
21.119347,75.33074,78.99849
21.132675,75.335625,78.85746
21.146011,75.36736,78.74344
21.15934,75.41619,78.6475
21.172676,75.47967,78.56773
21.186012,75.55047,78.49728
21.19934,75.61883,78.42659
21.212677,75.684746,78.3556
21.226013,75.74578,78.281784
21.239342,75.789734,78.192795
21.252678,75.81415,78.08564
21.266014,75.82147,77.96216
21.279343,75.80682,77.81693
21.292679,75.77997,77.65904
21.306007,75.74822,77.49542
21.319344,75.718925,77.33326
21.33268,75.69207,77.17262
21.346008,75.66033,77.00626
21.359344,75.62371,76.83403
21.372673,75.577324,76.65089
21.38601,75.52361,76.45897
21.399345,75.46746,76.26293
21.412674,75.41619,76.07002
21.42601,75.37469,75.88528
21.439346,75.34295,75.709
21.452675,75.31609,75.53661
21.466011,75.299,75.37315
21.479347,75.301445,75.22869
21.492676,75.335625,75.11604
21.506012,75.403984,75.03864
21.51934,75.526054,75.01709
21.532677,75.71404,75.06527
21.546013,76.02411,75.2414
21.559341,76.57099,75.66404
21.572678,77.50851,76.4944
21.586006,78.96361,77.87164
21.599342,80.97536,79.851006
21.612679,83.44366,82.349785
21.626007,86.1268,85.14054
21.639343,88.70496,87.910164
21.65268,90.86565,90.34288
21.666008,92.38178,92.19857
21.679344,93.15816,93.36188
21.69268,93.221634,93.83655
21.706009,92.67719,93.705284
21.719345,91.69817,93.12243
21.732674,90.477455,92.26728
21.74601,89.18593,91.30318
21.759346,87.9823,90.38661
21.772675,86.96666,89.62042
21.78601,86.17319,89.044655
21.79934,85.56771,88.63209
21.812675,85.084305,88.32267
21.826012,84.627754,88.025
21.83934,84.137024,87.67889
21.852676,83.612114,87.28326
21.866013,83.104294,86.88831
21.879341,82.67948,86.56051
21.892677,82.38651,86.35127
21.906013,82.23758,86.27692
21.919342,82.19852,86.30778
21.932678,82.213165,86.39113
21.946007,82.2034,86.45052
21.959343,82.11063,86.426605
21.97268,81.898224,86.28016
21.986008,81.55398,85.99523
21.999344,81.08522,85.575035
22.012672,80.50416,85.027885
22.026009,79.84985,84.389336
22.039345,79.15648,83.69127
22.052673,78.45335,82.96178
22.06601,77.77219,82.232285
22.079346,77.13985,81.53033
22.092674,76.58564,80.88674
22.10601,76.12665,80.32105
22.119347,75.772644,79.84601
22.132675,75.53094,79.4722
22.146011,75.40887,79.21047
22.15934,75.3991,79.057236
22.172676,75.48211,78.99647
22.186012,75.63592,79.009094
22.19934,75.83368,79.07048
22.212677,76.04608,79.15269
22.226006,76.25605,79.2391
22.239342,76.44648,79.31253
22.252678,76.610054,79.36506
22.266006,76.749214,79.398285
22.279343,76.86153,79.40901
22.292679,76.94942,79.39883
22.306007,77.02022,79.3743
22.319344,77.07637,79.33733
22.33268,77.12276,79.29236
22.346008,77.15694,79.236626
22.359344,77.171585,79.16243
22.372673,77.16182,79.06428
22.38601,77.120316,78.93408
22.399345,77.03975,78.76353
22.412674,76.93477,78.56604
22.42601,76.824905,78.36039
22.439339,76.70527,78.14153
22.452675,76.58808,77.92139
22.466011,76.47578,77.70246
22.47934,76.36103,77.477585
22.492676,76.24872,77.25156
22.506012,76.18036,77.06597
22.51934,76.209656,76.97591
22.532677,76.351265,76.99907
22.546013,76.52216,77.05595
22.559341,76.456245,76.88135
22.572678,75.81903,76.13339
22.586006,74.32731,74.51102
22.599342,71.85657,71.86301
22.612679,68.45319,68.205154
22.626007,64.429695,63.820816
22.639343,60.359806,59.264355
22.652672,56.941788,55.232582
22.666008,54.805523,52.375748
22.679344,54.38804,51.170937
22.692673,55.806515,51.78904
22.706009,58.765545,53.992023
22.719345,62.59861,57.161514
22.732674,66.441444,60.460556
22.74601,69.52743,63.122833
22.759346,71.4342,64.70233
22.772675,72.09338,65.09384
22.78601,71.72228,64.47566
22.79934,70.72129,63.215992
22.812675,69.5494,61.754143
22.826012,68.58503,60.463192
22.83934,68.11627,59.63772
22.852676,68.367744,59.517822
22.866005,69.88632,60.67289
22.879341,73.1017,63.572216
22.892677,77.874725,68.12967
22.906006,83.45098,73.63951
22.919342,89.03212,79.32849
22.932678,94.432594,85.011215
22.946007,100.65827,91.68791
22.959343,109.03487,100.710075
22.97268,119.75281,112.33536
22.986008,126.57908,120.4039
22.999344,122.65324,117.933655
23.012672,106.32731,102.94064
23.026009,81.5906,79.026665
23.039345,53.958344,51.444115
23.052673,30.210423,26.882393
23.06601,16.765392,11.881439
23.079338,13.740444,6.880413
23.092674,15.810788,6.880146
23.10601,17.817656,6.8810997
23.119339,19.761044,6.8812866
23.132675,21.643396,6.8811684
23.146011,23.467155,6.8812866
23.15934,25.23476,6.8822403
23.172676,26.946213,6.8822784
23.186012,28.603952,6.882084
23.19934,30.207981,6.8799896
23.212677,31.765621,6.88163
23.226006,33.27199,6.8806763
23.239342,34.731976,6.8804092
23.252678,36.148014,6.8818207
23.266006,37.517662,6.881096
23.279343,38.845806,6.881668
23.292671,40.13245,6.882244
23.306007,41.377586,6.8815193
23.319344,42.583656,6.880638
23.332672,43.75311,6.880829
23.346008,44.88594,6.8809433
23.359344,45.98459,6.8822784
23.372673,47.046616,6.881325
23.38601,48.076904,6.8818207
23.399345,49.073013,6.880333
23.412674,50.039825,6.8806763
23.42601,50.97734,6.881935
23.439339,51.883118,6.8807545
23.452675,52.762035,6.8810196
23.466011,53.614098,6.881895
23.47934,54.436867,6.880104
23.492676,55.23766,6.8820496
23.506004,56.011597,6.882164
23.51934,56.76112,6.8820496
23.532677,57.48623,6.8809433
23.546005,58.189365,6.8805237
23.559341,58.870525,6.880102
23.572678,59.532158,6.881439
23.586006,60.171818,6.8814793
23.599342,60.791943,6.8819733
23.612679,61.39254,6.8823185
23.626007,61.973602,6.881897
23.639343,62.535133,6.880104
23.652672,63.082016,6.8812103
23.666008,63.61181,6.8823166
23.679344,64.12207,6.8804474
23.692673,64.620125,6.8823166
23.706009,65.09865,6.8802185
23.719337,65.564964,6.880867
23.732674,66.01663,6.88144
23.74601,66.45365,6.8814793
23.759338,66.87602,6.8805265
23.772675,67.28619,6.8805666
23.78601,67.684135,6.8812094
23.79934,68.069885,6.8820887
23.812675,68.44099,6.880374
23.826012,68.80232,6.8804903
23.83934,69.153885,6.882125
23.852676,69.49081,6.880105
23.866005,69.820404,6.8812904
23.879341,70.13779,6.880561
23.892677,70.44541,6.8799915
23.906006,70.745705,6.8817034
23.919342,71.0338,6.8806
23.93267,71.31457,6.881176
23.946007,71.58556,6.8807526
23.959343,71.84924,6.881481
23.972672,72.10315,6.8806763
23.986008,72.34974,6.8804893
23.999344,72.589,6.8806763
24.012672,72.82094,6.8810234
24.026009,73.04555,6.881287
24.039345,73.26284,6.8812532
24.052673,73.4728,6.880678
24.06601,73.67788,6.8817816
24.079338,73.87564,6.881977
24.092674,74.06607,6.8810205
24.10601,74.251625,6.8811398
24.119339,74.43229,6.882167
24.132675,74.60563,6.8815155
24.146004,74.77409,6.881406
24.15934,74.93767,6.8816705
24.172676,75.09636,6.882164
24.186005,75.24773,6.8802924
24.19934,75.39666,6.8807173
24.212677,75.5407,6.880906
24.226006,75.67986,6.8807135
24.239342,75.81415,6.8799944
24.252678,75.945984,6.8810225
24.266006,76.07294,6.8812876
24.279343,76.19501,6.880637
24.292671,76.314644,6.8813677
24.306007,76.42939,6.880946
24.319344,76.541695,6.881669
24.332672,76.64912,6.8810186
24.346008,76.754105,6.8812914
24.359337,76.8542,6.879955
24.372673,76.9543,6.8817463
24.38601,77.049515,6.881783
24.399338,77.16426,6.9043264
24.412674,77.39132,7.042768
24.42601,77.857635,7.4275627
24.439339,78.66331,8.1662855
24.452675,79.823,9.2842045
24.466011,81.28054,10.736216
24.47934,82.930954,12.426646
24.492676,84.61799,14.205273
24.506004,86.23422,15.965818
24.51934,87.73571,17.662125
24.532677,89.13222,19.300373
24.546005,90.4213,20.87484
24.559341,91.6054,22.384602
24.57267,92.6894,23.83127
24.586006,93.69039,25.228806
24.599342,94.6157,26.58194
24.61267,95.47021,27.893188
24.626007,96.2588,29.165222
24.639343,96.97658,30.39109
24.652672,97.61135,31.556381
24.666008,98.14603,32.64141
24.679344,98.58793,33.650375
24.692673,98.968796,34.612114
24.706009,99.303276,35.539368
24.719337,99.60113,36.440445
24.732674,99.8819,37.333748
24.74601,100.16022,38.233376
24.759338,100.43122,39.134384
24.772675,100.6778,40.01944
24.786003,100.892654,40.88047
24.79934,101.0782,41.71891
24.812675,101.21492,42.51432
24.826004,101.297935,43.2603
24.83934,101.32967,43.957596
24.852676,101.332115,44.626587
24.866005,101.312584,45.27368
24.879341,101.27596,45.903076
24.892677,101.2198,46.511787
24.906006,101.14412,47.09922
24.919342,101.048904,47.664757
24.93267,100.94148,48.21511
24.946007,100.81697,48.745018
24.959343,100.67536,49.253937
24.972672,100.52155,49.74623
24.986008,100.34821,50.214188
24.999336,100.16266,50.664513
25.012672,99.96246,51.0944
25.026009,99.754944,51.510704
25.039337,99.54009,51.913193
25.052673,99.32281,52.306534
25.06601,99.10063,52.688194
25.079338,98.87114,53.055595
25.092674,98.634315,53.408493
25.10601,98.39262,53.749115
25.119339,98.14847,54.079735
25.132675,97.89456,54.392967
25.146004,97.635765,54.693375
25.15934,97.37942,54.988144
25.172676,97.12062,55.272453
25.186005,96.86183,55.548683
25.19934,96.60548,55.81926
25.21267,96.35157,56.084274
25.226006,96.095215,56.338905
25.239342,95.836426,56.58309
25.25267,95.58007,56.821625
25.266006,95.31396,57.04239
25.279343,95.045395,57.252388
25.292671,94.7744,57.45156
25.306007,94.503395,57.642258
25.319344,94.239716,57.83181
25.332672,93.98093,58.018013
25.346008,93.729454,58.203445
25.359337,93.48043,58.38347
25.372673,93.23384,58.558144
25.38601,92.9897,58.727562
25.399338,92.74799,58.891785
25.412674,92.508736,59.050903
25.426003,92.26704,59.200104
25.439339,92.02533,59.341743
25.452675,91.78363,59.475838
25.466003,91.54681,59.607254
25.47934,91.30999,59.731277
25.492676,91.08049,59.855217
25.506004,90.85588,59.976875
25.51934,90.63859,60.09883
25.532677,90.426186,60.218884
25.546005,90.21622,60.334732
25.559341,90.006256,60.444027
25.57267,89.80118,60.551643
25.586006,89.59365,60.650402
25.599342,89.38857,60.745125
25.61267,89.18349,60.83343
25.626007,88.98329,60.92022
25.639336,88.7831,61.00075
25.652672,88.585335,61.07746
25.666008,88.40223,61.162647
25.679337,88.224,61.246986
25.692673,88.05554,61.33553
25.706009,87.887085,61.418808
25.719337,87.72106,61.499256
25.732674,87.552605,61.572083
25.74601,87.38171,61.637203
25.759338,87.21324,61.699417
25.772675,87.04967,61.761257
25.786003,86.89586,61.82775
25.79934,86.744484,61.891872
25.812675,86.59556,61.953712
25.826004,86.44663,62.0109
25.83934,86.30503,62.070755
25.852669,86.16342,62.12618
25.866005,86.0267,62.182068
25.879341,85.89487,62.238567
25.89267,85.76547,62.29339
25.906006,85.64095,62.34904
25.919342,85.51156,62.395927
25.93267,85.384605,62.44121
25.946007,85.25765,62.48253
25.959343,85.135574,62.524754
25.972672,85.01106,62.56073
25.986008,84.89143,62.5977
25.999336,84.771805,62.630928
26.012672,84.65949,62.667736
26.026009,84.54963,62.703484
26.039337,84.44709,62.74312
26.052673,84.34699,62.78199
26.066002,84.25422,62.825058
26.079338,84.16144,62.86522
26.092674,84.071106,62.90493
26.106003,83.983215,62.94426
26.119339,83.89288,62.9784
26.132675,83.80011,63.00728
26.146004,83.70489,63.030807
26.15934,83.612114,63.05381
26.172676,83.52178,63.076355
26.186005,83.43633,63.10096
26.19934,83.35577,63.127777
26.21267,83.2752,63.152077
26.226006,83.19707,63.176292
26.239342,83.1165,63.195633
26.25267,83.038376,63.214897
26.266006,82.96269,63.23416
26.279335,82.89189,63.255943
26.292671,82.82353,63.277954
26.306007,82.760056,63.30271
26.319336,82.701454,63.33036
26.332672,82.64286,63.356186
26.346008,82.58427,63.38018
26.359337,82.52567,63.402344
26.372673,82.47196,63.42756
26.38601,82.41581,63.448654
26.399338,82.3621,63.470436
26.412674,82.31083,63.49298
26.426003,82.25712,63.511482
26.439339,82.20096,63.525856
26.452675,82.13992,63.5336
26.466003,82.08621,63.54676
26.47934,82.037384,63.563126
26.492668,81.99588,63.58529
26.506004,81.95926,63.61104
26.51934,81.92264,63.635643
26.53267,81.881134,63.65422
26.546005,81.83719,63.66906
26.559341,81.78836,63.677643
26.57267,81.74197,63.687134
26.586006,81.69802,63.697624
26.599342,81.65652,63.709183
26.61267,81.61501,63.719444
26.626007,81.58083,63.735733
26.639336,81.54421,63.748512
26.652672,81.514915,63.76747
26.666008,81.478294,63.77819
26.679337,81.446556,63.79265
26.692673,81.41482,63.806114
26.706001,81.38064,63.816147
26.719337,81.34402,63.82267
26.732674,81.30984,63.83049
26.746002,81.27322,63.8348
26.759338,81.23903,63.8404
26.772675,81.20973,63.849823
26.786003,81.18288,63.86077
26.79934,81.160904,63.875763
26.812675,81.13893,63.890068
26.826004,81.11696,63.903687
26.83934,81.08766,63.909294
26.852669,81.058365,63.913986
26.866005,81.03395,63.922646
26.879341,81.01442,63.935425
26.892677,80.99489,63.947594
26.906013,80.97536,63.959152
26.919342,80.96071,63.974983
26.932678,80.94118,63.985474
26.946014,80.921646,63.995354
26.959343,80.902115,64.00462
26.97268,80.88747,64.018166
26.986015,80.86549,64.023926
26.999352,80.84596,64.03144
27.012688,80.831314,64.04323
27.026016,80.816666,64.05456
27.039352,80.80202,64.06543
27.052689,80.78737,64.07584
27.066017,80.77028,64.08336
27.079353,80.7483,64.08545
27.09269,80.726326,64.08686
27.106026,80.70191,64.085144
27.119362,80.68482,64.08999
27.13269,80.67017,64.09674
27.146027,80.65308,64.10059
27.159363,80.638435,64.10635
27.172691,80.621346,64.109215
27.186028,80.604256,64.11154
27.199364,80.59449,64.12066
27.2127,80.587166,64.13191
27.226036,80.584724,64.14782
27.239365,80.5774,64.15877
27.2527,80.570076,64.16949
27.266037,80.55543,64.17265
27.279366,80.53834,64.17292
27.292702,80.52369,64.175095
27.306038,80.51392,64.181694
27.319374,80.50416,64.18799
27.33271,80.499275,64.19886
27.346039,80.49439,64.20958
27.359375,80.48951,64.220146
27.372711,80.482185,64.22812
27.38604,80.47486,64.23586
27.399376,80.462654,64.238495
27.412712,80.45289,64.24319
27.426048,80.44068,64.24513
27.439384,80.430916,64.24914
27.452713,80.42359,64.25528
27.46605,80.411385,64.25631
27.479385,80.4065,64.26428
27.492714,80.40406,64.27454
27.50605,80.40162,64.28473
27.519386,80.394295,64.289955
27.532722,80.39185,64.299835
27.546059,80.38453,64.304756
27.559387,80.37476,64.30701
27.572723,80.36744,64.31139
27.58606,80.36256,64.31799
27.599388,80.35767,64.32444
27.612724,80.35523,64.333176
27.62606,80.34791,64.33695
27.639397,80.343025,64.34294
27.652733,80.33326,64.343895
27.666061,80.325935,64.346985
27.679398,80.31861,64.349846
27.692734,80.31129,64.35248
27.706062,80.30152,64.35244
27.719398,80.2942,64.35454
27.732735,80.28687,64.35641
27.74607,80.27955,64.35805
27.759407,80.27711,64.36434
27.772736,80.274666,64.37056
27.786072,80.27711,64.381584
27.799408,80.27955,64.392685
27.812737,80.28199,64.40386
27.826073,80.27955,64.41023
27.839409,80.274666,64.414085
27.852745,80.272224,64.42023
27.866081,80.2649,64.42141
27.87941,80.26246,64.427246
27.892746,80.26002,64.43301
27.906082,80.257576,64.43869
27.91941,80.255135,64.4443
27.932747,80.25269,64.44983
27.946083,80.25025,64.455284
27.95942,80.24536,64.45821
27.972755,80.24048,64.461
27.986084,80.233154,64.46119
27.99942,80.22339,64.45871
28.012756,80.216064,64.45837
28.026085,80.21118,64.460236
28.039421,80.21118,64.466835
28.052757,80.21118,64.473434
28.066093,80.21118,64.480034
28.07943,80.20874,64.48419
28.092758,80.201416,64.48339
28.106094,80.19409,64.48236
28.11943,80.18921,64.48354
28.13276,80.184326,64.48457
28.146095,80.18677,64.492775
28.159431,80.18921,64.50105
28.172768,80.18677,64.504524
28.186104,80.184326,64.50792
28.199432,80.184326,64.51368
28.212769,80.181885,64.517
28.226105,80.181885,64.52268
28.239433,80.18677,64.53325
28.25277,80.19165,64.54397
28.266106,80.19653,64.55484
28.279442,80.19409,64.55854
28.292778,80.19165,64.562164
28.306107,80.181885,64.55839
28.319443,80.17456,64.55675
28.332779,80.16968,64.55732
28.346107,80.16724,64.56018
28.359444,80.16724,64.56541
28.37278,80.17212,64.575516
28.386116,80.177,64.58578
28.399452,80.17456,64.58887
28.41278,80.16968,64.58944
28.426117,80.16235,64.58742
28.439453,80.16235,64.59249
28.452782,80.164795,64.600006
28.466118,80.17456,64.61492
28.479454,80.184326,64.63014
28.49279,80.18921,64.640785
28.506126,80.18677,64.64426
28.519455,80.17944,64.64277
28.532791,80.16968,64.63861
28.546127,80.164795,64.63903
28.559456,80.15991,64.6393
28.572792,80.15747,64.64185
28.586128,80.15503,64.64433
28.599464,80.15259,64.646736
28.6128,80.15015,64.64906
28.62613,80.15015,64.653755
28.639465,80.15015,64.65845
28.652802,80.15259,64.66558
28.66613,80.15259,64.67035
28.679466,80.15015,64.672676
28.692802,80.14526,64.672485
28.706139,80.14282,64.67458
28.719475,80.14038,64.676605
28.732803,80.13794,64.67855
28.74614,80.1355,64.68042
28.759476,80.13306,64.68221
28.772804,80.13306,64.68637
28.78614,80.12329,64.68076
28.799477,80.11597,64.67729
28.812813,80.11597,64.680916
28.826149,80.113525,64.6821
28.839478,80.11597,64.68809
28.852814,80.12085,64.696594
28.86615,80.12573,64.70525
28.879478,80.12573,64.70918
28.892815,80.128174,64.71555
28.90615,80.128174,64.71956
28.919487,80.12573,64.72112
28.932823,80.12573,64.72505
28.946152,80.12085,64.7241
28.959488,80.12085,64.727875
28.972824,80.11597,64.72677
28.986153,80.113525,64.72795
28.999489,80.10864,64.726616
29.012825,80.1062,64.72757
29.026161,80.09888,64.723564
29.039497,80.093994,64.72177
29.052826,80.08911,64.719826
29.066162,80.08667,64.72017
29.079498,80.09155,64.72776
29.092827,80.096436,64.735504
29.106163,80.096436,64.73852
29.1195,80.096436,64.74153
29.132835,80.093994,64.7421
29.146172,80.08667,64.73772
29.1595,80.079346,64.7331
29.172836,80.07446,64.7307
29.186172,80.079346,64.73791
29.199501,80.08423,64.74527
29.212837,80.08423,64.7479
29.226173,80.08423,64.750534
29.23951,80.08179,64.750725
29.252846,80.076904,64.7484
29.266174,80.07202,64.74592
29.27951,80.07202,64.74817
29.292847,80.07446,64.75286
29.306175,80.079346,64.76007
29.319511,80.08423,64.76743
29.332848,80.08667,64.77251
29.346184,80.08667,64.775215
29.35952,80.08911,64.780365
29.372849,80.09155,64.78559
29.386185,80.093994,64.79089
29.39952,80.096436,64.79627
29.41285,80.093994,64.796844
29.426186,80.09155,64.79734
29.439522,80.08667,64.79532
29.452858,80.079346,64.7907
29.466194,80.07202,64.78586
29.479523,80.06958,64.78567
29.492859,80.07202,64.79028
29.506195,80.076904,64.79742
29.519524,80.08423,64.807144
29.53286,80.08911,64.81466
29.546196,80.08911,64.817444
29.559532,80.08667,64.81779
29.572868,80.08423,64.818054
29.586197,80.08179,64.818245
29.599533,80.079346,64.81836
29.61287,80.079346,64.82084
29.626198,80.076904,64.82088
29.639534,80.076904,64.82328
29.65287,80.08179,64.83057
29.666206,80.08667,64.838005
29.679543,80.08667,64.84071
29.692871,80.09155,64.848305
29.706207,80.093994,64.85361
29.719543,80.09155,64.8541
29.732872,80.08667,64.85208
29.746208,80.08423,64.85235
29.759544,80.08179,64.85254
29.77288,80.079346,64.85265
29.786217,80.076904,64.85269
29.799545,80.079346,64.85754
29.812881,80.079346,64.860016
29.826218,80.076904,64.860054
29.839546,80.07446,64.860016
29.852882,80.07446,64.86234
29.866219,80.07446,64.86467
29.879555,80.07446,64.867
29.89289,80.076904,64.871765
29.90622,80.079346,64.87661
29.919556,80.08423,64.88397
29.932892,80.08667,64.889046
29.94622,80.09155,64.89664
29.959557,80.08911,64.89706
29.972893,80.08911,64.89984
29.986229,80.08423,64.89774
29.999565,80.079346,64.89549
30.012894,80.07446,64.89309
30.02623,80.07202,64.892975
30.039566,80.06714,64.89034
30.052895,80.062256,64.88756
30.06623,80.062256,64.8895
30.079567,80.06714,64.89633
30.092903,80.07202,64.90331
30.10624,80.076904,64.910446
30.119568,80.08179,64.91773
30.132904,80.08423,64.92273
30.14624,80.08423,64.92536
30.159569,80.08179,64.92555
30.172905,80.076904,64.923225
30.186241,80.07202,64.920746
30.199577,80.06714,64.91811
30.212914,80.062256,64.91533
30.226242,80.05737,64.91239
30.239578,80.05493,64.91174
30.252914,80.05493,64.91346
30.266243,80.05249,64.912735
30.27958,80.04761,64.90949
30.292915,80.045166,64.90854
30.306252,80.045166,64.90995
30.319588,80.05005,64.916245
30.332916,80.05493,64.92269
30.346252,80.0647,64.93417
30.359589,80.07446,64.94596
30.372917,80.079346,64.95317
30.386253,80.08179,64.95809
30.39959,80.08179,64.96065
30.412926,80.079346,64.96076
30.426262,80.076904,64.9608
30.43959,80.07446,64.96076
30.452927,80.07446,64.96309
30.466263,80.07202,64.962975
30.479591,80.06958,64.96278
30.492928,80.06714,64.96252
30.506264,80.06714,64.964615
30.5196,80.0647,64.96427
30.546265,80.059814,64.963356
30.5596,80.05737,64.96278
30.572937,80.059814,64.96702
30.586266,80.05737,64.966446
30.599602,80.05737,64.96824
30.612938,80.05737,64.97003
30.626274,80.059814,64.974266
30.63961,80.059814,64.976135
30.652939,80.059814,64.978004
30.666275,80.059814,64.97987
30.679611,80.05737,64.9793
30.69294,80.05005,64.97377
30.706276,80.042725,64.96801
30.719612,80.03784,64.96446
30.732948,80.03296,64.96076
30.746284,80.03052,64.95935
30.759613,80.03296,64.962746
30.77295,80.03296,64.963776
30.786285,80.03784,64.96969
30.799614,80.04028,64.97331
30.81295,80.04761,64.981895
30.826286,80.05005,64.985825
30.839622,80.05249,64.98983
30.852959,80.05493,64.99391
30.866287,80.05493,64.99563
30.879623,80.05249,64.9949
30.89296,80.05493,64.998985
30.906288,80.05737,65.00314
30.919624,80.05737,65.00494
30.93296,80.05737,65.00673
30.946297,80.05493,65.00608
30.959633,80.05249,65.005356
30.972961,80.04761,65.00211
30.986298,80.04761,65.0036
30.999634,80.045166,65.00265
31.012962,80.045166,65.00406
31.026299,80.03784,64.998146
31.039635,80.03296,64.994446
31.05297,80.03052,64.993034
31.066307,80.0354,64.99887
31.079636,80.04028,65.00486
31.092972,80.04761,65.01344
31.106308,80.05005,65.01737
31.119637,80.05005,65.018936
31.132973,80.045166,65.01562
31.146309,80.04028,65.012146
31.159645,80.042725,65.01585
31.172981,80.045166,65.01962
31.18631,80.04761,65.023476
31.199646,80.04761,65.02496
31.212982,80.045166,65.02401
31.22631,80.042725,65.02298
31.239647,80.03784,65.01943
31.252983,80.03784,65.020615
31.26632,80.0354,65.019356
31.279655,80.0354,65.02046
31.292984,80.0354,65.02157
31.30632,80.0354,65.022675
31.319656,80.03296,65.02134
31.332985,80.0354,65.02481
31.346321,80.04028,65.0308
31.359657,80.042725,65.0345
31.372993,80.05005,65.04316
31.38633,80.05493,65.04961
31.399658,80.05493,65.05132
31.412994,80.05005,65.04816
31.42633,80.04761,65.04728
31.43966,80.045166,65.046326
31.452995,80.04761,65.05018
31.466331,80.05005,65.05411
31.479668,80.05493,65.060555
31.493004,80.05737,65.06471
31.506332,80.05249,65.06162
31.519669,80.042725,65.0535
31.533005,80.0354,65.04751
31.546333,80.025635,65.03885
31.55967,80.02075,65.03477
31.573006,80.01831,65.032974
31.586342,80.01831,65.03355
31.599678,80.02319,65.039
31.613007,80.03052,65.04705
31.626343,80.03784,65.05533
31.639679,80.042725,65.06139
31.653008,80.045166,65.06517
31.666344,80.045166,65.06658
31.67968,80.03784,65.06067
31.693016,80.03052,65.05453
31.706352,80.02075,65.045715
31.71968,80.01343,65.03904
31.733017,80.008545,65.03458
31.746353,80.008545,65.03484
31.759682,80.01343,65.03999
31.773018,80.01831,65.045296
31.786354,80.01831,65.04587
31.79969,80.01831,65.04644
31.813026,80.01587,65.04457
31.826355,80.01343,65.042625
31.839691,80.01343,65.043045
31.853027,80.01587,65.045906
31.866356,80.02075,65.051285
31.879692,80.025635,65.056816
31.893028,80.028076,65.06006
31.906364,80.025635,65.058495
31.9197,80.025635,65.059296
31.93303,80.03052,65.06498
31.946365,80.03296,65.068375
31.959702,80.03296,65.069405
31.97303,80.028076,65.06555
31.986366,80.02075,65.059105
31.999702,80.01099,65.04999
32.01304,80.00366,65.04301
32.026375,80.0061,65.04556
32.039703,80.01099,65.05064
32.05304,80.02075,65.060745
32.066376,80.03052,65.07116
32.079704,80.0354,65.076996
32.09304,80.03296,65.07566
32.106377,80.028076,65.07181
32.119713,80.02075,65.06536
32.13305,80.01831,65.06357
32.146378,80.01831,65.06414
32.159714,80.01831,65.06471
32.17305,80.02075,65.067726
32.18638,80.028076,65.0757
32.199715,80.0354,65.0839
32.21305,80.04028,65.08989
32.226387,80.045166,65.09603
32.239723,80.042725,65.095
32.25305,80.03784,65.09145
32.266388,80.03052,65.08531
32.279724,80.028076,65.083824
32.293053,80.025635,65.08226
32.30639,80.025635,65.08306
32.319725,80.028076,65.0863
32.33306,80.025635,65.08474
32.346397,80.02319,65.0831
32.359726,80.02075,65.08138
32.373062,80.01831,65.07959
32.3864,80.01831,65.08016
32.399727,80.02075,65.083176
32.413063,80.02319,65.086266
32.4264,80.02319,65.08699
32.439735,80.02319,65.087715
32.45307,80.02319,65.08844
32.4664,80.02075,65.08672
32.479736,80.01587,65.08249
32.493073,80.01587,65.082985
32.5064,80.02319,65.090805
32.519737,80.03052,65.098854
32.533073,80.03784,65.10713
32.54641,80.045166,65.11564
32.559746,80.045166,65.11705
32.573074,80.04028,65.11358
32.58641,80.03296,65.10751
32.599747,80.025635,65.10122
32.613075,80.01831,65.094696
32.62641,80.01587,65.09283
32.639748,80.01831,65.095764
32.653084,80.025635,65.10366
32.66642,80.03052,65.109344
32.67975,80.03784,65.11762
32.693085,80.042725,65.12369
32.70642,80.05005,65.13235
32.71975,80.04761,65.13147
32.733086,80.04761,65.13296
32.74642,80.042725,65.12956
32.759758,80.0354,65.12357
32.773094,80.028076,65.117355
32.786423,80.02075,65.11091
32.79976,80.01343,65.10423
32.813095,80.01099,65.10221
32.826424,80.01343,65.104996
32.83976,80.01587,65.10786
32.853096,80.02075,65.113235
32.866432,80.01831,65.11144
32.87977,80.01831,65.112015
32.893097,80.01587,65.110146
32.906433,80.01587,65.11064
32.91977,80.01831,65.11358
32.933098,80.02319,65.11903
32.946434,80.03296,65.129524
32.95977,80.042725,65.14032
32.973106,80.045166,65.1441
32.986443,80.04028,65.140625
32.99977,80.0354,65.137
33.013107,80.028076,65.13078
33.026443,80.025635,65.12922
33.039772,80.025635,65.13002
33.05311,80.028076,65.13326
33.066444,80.03296,65.13902
33.07978,80.0354,65.142494
33.093117,80.03296,65.14116
33.106445,80.028076,65.13731
33.11978,80.01831,65.12842
33.133118,80.01343,65.12411
33.146446,80.01099,65.122086
33.159782,80.01099,65.12243
33.17312,80.01343,65.12521
33.186455,80.01831,65.130516
33.19979,80.02075,65.13353
33.21312,80.025635,65.13906
33.226456,80.028076,65.1423
33.23979,80.03052,65.14562
33.25312,80.03296,65.14902
33.266457,80.03296,65.15005
33.279793,80.03052,65.148636
33.29313,80.03052,65.14959
33.306465,80.025635,65.14566
33.319794,80.025635,65.14646
33.33313,80.025635,65.14726
33.346466,80.02319,65.14562
33.359795,80.02319,65.14635
33.37313,80.025635,65.14951
33.386467,80.025635,65.150314
33.399803,80.02319,65.148674
33.41314,80.01831,65.144516
33.426468,80.01587,65.14265
33.439804,80.01343,65.1407
33.45314,80.01343,65.14112
33.46647,80.01831,65.14642
33.479805,80.02319,65.15188
33.49314,80.02319,65.1526
33.506477,80.02319,65.15333
33.519814,80.025635,65.156494
33.533142,80.025635,65.157295
33.54648,80.025635,65.1581
33.559814,80.02319,65.156456
33.573143,80.01831,65.1523
33.58648,80.01343,65.14799
33.599815,80.01099,65.145966
33.61315,80.01099,65.14631
33.626488,80.01343,65.14909
33.639816,80.01343,65.14951
33.653152,80.01343,65.14993
33.66649,80.008545,65.14547
33.679817,80.00366,65.140854
33.693153,80.00122,65.13853
33.70649,79.99878,65.13612
33.719826,79.99878,65.136086
33.733162,80.00122,65.13849
33.74649,80.0061,65.14341
33.759827,80.01343,65.150925
33.773163,80.02075,65.15867
33.78649,80.02319,65.16176
33.799828,80.025635,65.164925
33.813164,80.028076,65.16817
33.8265,80.02319,65.16416
33.839836,80.02075,65.162445
33.853165,80.01831,65.16065
33.8665,80.01831,65.161224
33.879837,80.01343,65.15691
33.893166,80.01343,65.15733
33.9065,80.01587,65.160194
33.919838,80.02075,65.16557
33.933174,80.025635,65.171104
33.94651,80.028076,65.17435
33.95984,80.03052,65.177666
33.973175,80.028076,65.17618
33.98651,80.028076,65.177055
33.99984,80.028076,65.17793
34.013176,80.025635,65.17637
34.026512,80.025635,65.17717
34.03985,80.028076,65.18041
34.053185,80.028076,65.18129
34.066513,80.03052,65.18461
34.07985,80.03296,65.188
34.093185,80.03296,65.18903
34.106514,80.03052,65.18762
34.11985,80.02319,65.18125
34.133186,80.02075,65.179535
34.146523,80.02075,65.18018
34.15986,80.02075,65.18083
34.173187,80.028076,65.188805
34.186523,80.03296,65.194565
34.19986,80.03296,65.195595
34.21319,80.0354,65.199066
34.226524,80.03784,65.202614
34.23986,80.04028,65.20624
34.253197,80.03784,65.205055
34.266533,80.0354,65.2038
34.27986,80.03052,65.20002
34.293198,80.02319,65.19365
34.306534,80.01831,65.18949
34.319862,80.01587,65.18762
34.3332,80.02075,65.193
34.346535,80.02319,65.19609
34.35987,80.028076,65.2017
34.373207,80.025635,65.200134
34.386536,80.02319,65.198494
34.39987,80.01831,65.194336
34.413208,80.01099,65.187584
34.426537,80.008545,65.185486
34.439873,80.01099,65.188194
34.45321,80.01587,65.19342
34.466545,80.02319,65.20124
34.47988,80.03296,65.21173
34.49321,80.0354,65.2152
34.506546,80.0354,65.21631
34.519882,80.028076,65.21009
34.53321,80.02075,65.20364
34.546547,80.01343,65.19697
34.559883,80.00366,65.18762
34.57322,79.99878,65.18285
34.586555,79.99634,65.180374
34.59989,79.99634,65.18026
34.613213,79.99634,65.180145
34.62655,80.00122,65.18491
34.639885,80.00366,65.18739
34.65322,80.0061,65.18995
34.666557,80.008545,65.19258
34.679893,80.01099,65.19529
34.69323,80.01343,65.198074
34.706566,80.01587,65.200935
34.719902,80.01587,65.20143
34.733223,80.01343,65.199486
34.74656,80.01587,65.20235
34.759895,80.01831,65.205284
34.77323,80.02319,65.21074
34.786568,80.028076,65.21635
34.799904,80.025635,65.21478
34.81324,80.02075,65.2107
34.82656,80.01587,65.20647
34.839897,80.01343,65.20452
34.853233,80.01831,65.20982
34.86657,80.025635,65.21772
34.879906,80.03296,65.225845
34.89324,80.03296,65.226875
34.906578,80.03296,65.227905
34.919914,80.03296,65.228935
34.93325,80.0354,65.23241
34.94657,80.0354,65.23351
34.959908,80.0354,65.23462
34.973244,80.03296,65.233284
34.98658,80.025635,65.22699
34.999916,80.01831,65.22047
35.013252,80.01343,65.216156
35.02659,80.01099,65.214134
35.03991,80.01343,65.21692
35.053246,80.01343,65.21734
35.06658,80.01587,65.2202
35.079918,80.01831,65.22314
35.093254,80.01831,65.22371
35.10659,80.01831,65.22428
35.119926,80.01831,65.22485
35.133263,80.01831,65.225426
35.1466,80.01343,65.221115
35.15992,80.008545,65.21665
35.173256,80.00366,65.212036
35.186592,79.99878,65.20727
35.19993,79.99634,65.20479
35.213264,80.00122,65.20956
35.2266,80.01099,65.21936
35.239937,80.02075,65.22947
35.253258,80.03052,65.23988
35.266594,80.03052,65.24084
35.27993,80.025635,65.23691
35.293266,80.01831,65.230385
35.306602,80.01587,65.228516
35.31994,80.01587,65.22901
35.333275,80.02075,65.23439
35.34661,80.025635,65.23992
35.359947,80.025635,65.24072
35.37327,80.025635,65.24152
35.386604,80.02319,65.23988
35.39994,80.02075,65.23817
35.413277,80.02319,65.24126
35.426613,80.025635,65.24442
35.43995,80.028076,65.247665
35.453285,80.0354,65.25587
35.466606,80.04028,65.261856
35.479942,80.042725,65.26556
35.49328,80.04761,65.271774
35.506615,80.04761,65.27326
35.51995,80.042725,65.26987
35.533287,80.04028,65.26876
35.546623,80.0354,65.26514
35.55996,80.03296,65.2638
35.573296,80.028076,65.25995
35.586617,80.025635,65.258385
35.599953,80.02319,65.256744
35.61329,80.01831,65.25259
35.626625,80.01831,65.25316
35.63996,80.02075,65.25617
35.653297,80.02075,65.25682
35.666634,80.01587,65.25259
35.679955,80.01343,65.25064
35.69329,80.01099,65.24862
35.706627,80.0061,65.24408
35.719963,80.0061,65.24427
35.7333,80.008545,65.2469
35.746635,80.01343,65.25205
35.75997,80.01343,65.25247
35.773308,80.01587,65.25533
35.786644,80.02075,65.26071
35.799965,80.025635,65.26624
35.8133,80.028076,65.269485
35.826637,80.03296,65.275246
35.839973,80.0354,65.27872
35.85331,80.028076,65.2725
35.866646,80.02319,65.26849
35.879982,80.01831,65.264336
35.893303,80.01099,65.25758
35.90664,80.01099,65.25793
35.919975,80.01587,65.26315
35.93331,80.01831,65.26609
35.946648,80.01831,65.26666
35.959984,80.01587,65.26479
35.97332,80.01099,65.26041
35.986656,80.0061,65.25587
35.999992,80.0061,65.25606
36.013313,80.0061,65.25625
36.02665,80.0061,65.25644
36.039986,80.008545,65.25907
36.05332,80.008545,65.25934
36.066658,80.00366,65.25472
36.079994,80.00122,65.252396
36.09333,79.99878,65.24999
36.10665,79.99634,65.24751
36.119987,79.99634,65.2474
36.133324,80.00122,65.25217
36.14666,80.008545,65.25953
36.159996,80.01831,65.26956
36.173332,80.03052,65.28234
36.18667,80.04028,65.29306
36.200005,80.03784,65.29188
36.21334,80.03296,65.28818
36.22666,80.02319,65.27944
36.239998,80.01343,65.2704
36.253334,80.008545,65.26594
36.26667,80.01099,65.26865
36.280006,80.01343,65.27143
36.293343,80.01099,65.26941
36.30668,80.01099,65.26975
36.32,80.008545,65.267654
36.333336,80.0061,65.26548
36.346672,80.008545,65.26811
36.36001,80.01587,65.2757
36.373344,80.025635,65.285965
36.38668,80.03052,65.29165
36.400017,80.03052,65.2926
36.413353,80.025635,65.28867
36.42669,80.02075,65.28459
36.44001,80.01587,65.28036
36.453346,80.01343,65.27841
36.466682,80.01343,65.27883
36.48002,80.01587,65.28169
36.493355,80.01831,65.28463
36.50669,80.01831,65.2852
36.520027,80.01587,65.28333
36.533348,80.008545,65.276505
36.546684,80.00122,65.26945
36.56002,79.99634,65.2646
36.573357,79.991455,65.259605
36.586693,79.991455,65.25934
36.60003,79.99634,65.263954
36.613365,80.008545,65.27605
36.6267,80.01343,65.2812
36.640038,80.02075,65.28894
36.65336,80.02319,65.29203
36.666695,80.01831,65.28787
36.68003,80.008545,65.27868
36.693367,80.00122,65.27162
36.706703,79.9939,65.264336
36.72004,79.98901,65.25926
36.733376,79.991455,65.26136
36.746696,79.99878,65.26842
36.760033,80.00366,65.27326
36.77337,80.008545,65.27826
36.786705,80.01099,65.28097
36.80004,80.01587,65.286194
36.813377,80.02075,65.29157
36.826714,80.02319,65.29466
36.84005,80.02319,65.29539
36.853386,80.02075,65.29367
36.866707,80.01831,65.29188
36.880043,80.01343,65.28757
36.89338,80.008545,65.283104
36.906715,80.00366,65.27849
36.92005,79.99878,65.27372
36.933388,79.99634,65.27124
36.946724,79.99634,65.271126
36.960045,80.00122,65.275894
36.97338,80.0061,65.280815
36.986717,80.01099,65.28589
37.000053,80.01099,65.28623
37.01339,80.008545,65.284134
37.026726,80.0061,65.28196
37.040062,80.00366,65.27971
37.0534,80.00366,65.27982
37.066734,80.0061,65.28238
37.080055,80.008545,65.28501
37.09339,80.008545,65.28528
37.106728,80.008545,65.285545
37.120064,80.008545,65.28581
37.1334,80.01099,65.28852
37.146736,80.01099,65.288864
37.160072,80.008545,65.286766
37.173393,80.0061,65.28459
37.18673,80.00122,65.2799
37.200066,79.99878,65.2775
37.2134,79.99878,65.27746
37.226738,80.00122,65.27986
37.240074,80.00366,65.28234
37.25341,80.0061,65.2849
37.266747,80.0061,65.28509
37.280083,80.01099,65.29016
37.293404,80.01343,65.292946
37.30674,80.01831,65.29825
37.320076,80.02319,65.3037
37.333412,80.028076,65.30931
37.34675,80.02075,65.302864
37.360085,80.01587,65.29863
37.37342,80.01099,65.29424
37.38674,80.008545,65.292145
37.400078,80.0061,65.28997
37.413414,80.0061,65.29016
37.42675,80.00366,65.28791
37.440086,79.99634,65.2807
37.453423,79.99634,65.28059
37.46676,79.99634,65.28047
37.480095,80.00122,65.28524
37.49343,80.0061,65.29016
37.506752,80.01343,65.297676
37.52009,80.01343,65.298096
37.533424,80.01343,65.298515
37.54676,80.008545,65.29405
37.560097,80.00366,65.28944
37.573433,79.99878,65.28467
37.58677,79.99634,65.28219
37.60009,79.9939,65.27963
37.613426,79.9939,65.27944
37.626762,79.99634,65.28169
37.6401,79.99878,65.28402
37.653435,80.00366,65.288864
37.66677,80.008545,65.29386
37.680107,80.01343,65.29901
37.693443,80.01831,65.30431
37.70678,80.02075,65.30733
37.7201,80.01587,65.30309
37.733437,80.01587,65.30359
37.746773,80.01831,65.306526
37.76011,80.02075,65.30954
37.773445,80.02075,65.31019
37.78678,80.02319,65.31328
37.800117,80.02319,65.314
37.81344,80.01831,65.309845
37.826775,80.01099,65.30309
37.84011,80.01099,65.30344
37.853447,80.01343,65.30622
37.866783,80.01587,65.30908
37.88012,80.01831,65.31202
37.893456,80.01831,65.31259
37.90679,80.01831,65.31316
37.920128,80.01587,65.311295
37.93345,80.01099,65.30691
37.946785,80.008545,65.30481
37.96012,80.00366,65.30019
37.973457,80.00366,65.30031
37.986794,80.00366,65.30042
38.00013,80.0061,65.30298
38.013466,80.01099,65.30805
38.026787,80.01831,65.31572
38.040123,80.02319,65.321175
38.05346,80.025635,65.32434
38.066795,80.025635,65.32514
38.08013,80.025635,65.32594
38.093468,80.02075,65.32186
38.106804,80.008545,65.3103
38.12014,79.99878,65.300804
38.133476,79.98901,65.291
38.146797,79.98169,65.28333
38.160133,79.98169,65.28276
38.17347,79.98657,65.28707
38.186806,79.9939,65.293976
38.20014,80.00122,65.30111
38.213478,80.0061,65.30603
38.226814,80.008545,65.30866
38.240135,80.0061,65.30649
38.25347,80.00366,65.30424
38.266808,80.00122,65.30191
38.280144,80.00122,65.30195
38.29348,80.00122,65.30199
38.306816,80.00366,65.30447
38.320152,80.0061,65.30702
38.33349,80.01099,65.312096
38.346825,80.01099,65.31244
38.360146,80.008545,65.31034
38.37348,80.00366,65.305725
38.386818,79.99878,65.30096
38.400154,79.9939,65.296036
38.41349,79.991455,65.2934
38.426826,79.99634,65.29802
38.440163,80.00366,65.30523
38.453484,80.01099,65.31267
38.46682,80.01343,65.31545
38.480156,80.01587,65.31831
38.493492,80.01587,65.31881
38.50683,80.01343,65.316864
38.520164,80.008545,65.3124
38.5335,80.008545,65.31267
38.546837,80.008545,65.312935
38.560173,80.01099,65.31564
38.573494,80.01831,65.32331
38.58683,80.025635,65.33121
38.600166,80.028076,65.33445
38.613503,80.03052,65.33777
38.62684,80.03052,65.33872
38.640175,80.025635,65.33479
38.65351,80.01831,65.32827
38.666832,80.01343,65.32396
38.68017,80.0061,65.317055
38.693504,80.00366,65.314804
38.70684,80.00366,65.31492
38.720177,80.008545,65.319916
38.733513,80.01343,65.325066
38.74685,80.01831,65.33037
38.760185,80.02319,65.33582
38.77352,80.02075,65.33411
38.786842,80.01831,65.33231
38.80018,80.01343,65.328
38.813515,80.01099,65.32598
38.82685,80.008545,65.32388
38.840187,80.0061,65.32171
38.853523,80.00122,65.31702
38.86686,80.00122,65.317055
38.88018,80.00366,65.319534
38.893517,80.0061,65.32209
38.906853,80.01343,65.329605
38.92019,80.02319,65.33979
38.933525,80.03052,65.34784
38.94686,80.028076,65.34635
38.960197,80.02075,65.339905
38.973534,80.01343,65.33323
38.98687,80.0061,65.326324
39.00019,80.00122,65.32163
39.013527,79.99878,65.31923
39.026863,80.00122,65.32163
39.0402,80.0061,65.32655
39.053535,80.01099,65.33163
39.06687,80.01099,65.33197
39.080208,80.01099,65.33231
39.09353,80.01099,65.33266
39.106865,80.0061,65.32812
39.1202,80.00122,65.323425
39.133537,79.99878,65.32102
39.146873,80.00122,65.323425
39.16021,80.00366,65.325905
39.173546,80.0061,65.32846
39.186882,80.0061,65.32865
39.20022,80.0061,65.32884
39.21354,80.00122,65.32415
39.226875,80.00122,65.32419
39.24021,80.00122,65.32423
39.253548,80.00366,65.326706
39.266884,80.00122,65.32438
39.28022,79.99878,65.321976
39.293556,79.99878,65.32194
39.306877,79.99878,65.3219
39.320213,80.00122,65.3243
39.33355,80.0061,65.32922
39.346886,80.01343,65.33674
39.36022,80.01587,65.3396
39.373558,80.01587,65.340096
39.386894,80.01587,65.34059
39.40023,80.01587,65.34109
39.413567,80.01587,65.34158
39.426888,80.01587,65.34208
39.440224,80.01343,65.34013
39.45356,80.01099,65.33811
39.466896,80.01099,65.338455
39.480232,80.008545,65.33636
39.49357,80.0061,65.33418
39.506905,80.00122,65.32949
39.520226,79.9939,65.322205
39.53356,79.98901,65.31713
39.546898,79.98901,65.31679
39.560234,79.9939,65.32133
39.57357,80.00122,65.32846
39.586906,80.008545,65.33582
39.600243,80.01099,65.33853
39.61358,80.01099,65.338875
39.626915,80.0061,65.334335
39.640236,80.00122,65.32964
39.653572,79.99878,65.32724
39.66691,79.99878,65.3272
39.680244,79.99878,65.32716
39.69358,80.00122,65.32957
39.706917,80.0061,65.33449
39.720253,80.01099,65.33956
39.733574,80.01831,65.34723
39.74691,80.02319,65.352684
39.760246,80.03052,65.36073
39.773582,80.03296,65.36413
39.78692,80.03052,65.36272
39.800255,80.028076,65.36123
39.81359,80.028076,65.36211
39.826927,80.02319,65.3581
39.840263,80.02075,65.356384
39.853584,80.01831,65.35459
39.86692,80.01587,65.35272
39.880257,80.01343,65.35078
39.893593,80.01343,65.3512
39.90693,80.01831,65.3565
39.920265,80.02319,65.36195
39.9336,80.02319,65.36268
39.946922,80.02075,65.36096
39.96026,80.01831,65.35917
39.973595,80.01099,65.35242
39.98693,80.008545,65.35032
40.000267,80.008545,65.350586
40.013603,80.01099,65.353294
40.02694,80.01343,65.35608
40.040276,80.01587,65.35894
40.05361,80.01831,65.36188
40.066933,80.01831,65.36245
40.08027,80.02075,65.36546
40.093605,80.02075,65.36611
40.10694,80.01831,65.36432
40.120277,80.01099,65.35757
40.133614,80.00366,65.350586
40.14695,80.00122,65.34826
40.16027,80.00366,65.35074
40.173607,80.008545,65.355736
40.186943,80.01099,65.358444
40.20028,80.01343,65.36123
40.213615,80.01343,65.36165
40.22695,80.008545,65.357185
40.240288,80.00366,65.35257
40.253624,79.99878,65.3478
40.26696,79.99634,65.34532
40.28028,79.99634,65.34521
40.293617,79.99878,65.347534
40.306953,80.0061,65.35482
40.32029,80.01343,65.362335
40.333626,80.01587,65.3652
40.346962,80.01587,65.36569
40.3603,80.01343,65.36375
40.37362,80.008545,65.35928
40.386955,80.00122,65.35223
40.40029,79.99634,65.34738
40.413628,79.99634,65.34727
40.426964,79.99878,65.349594
40.4403,80.00366,65.35444
40.453636,80.008545,65.359436
40.466972,80.01099,65.362144
40.48031,80.0061,65.357605
40.49363,79.99878,65.35047
40.506966,79.9939,65.34555
40.5203,79.991455,65.34292
40.533638,79.991455,65.34265
40.546974,79.9939,65.344826
40.56031,79.99878,65.34952
40.573647,80.00122,65.35192
40.586967,80.0061,65.35684
40.600304,80.01099,65.361916
40.61364,80.01587,65.36714
40.626976,80.01587,65.36764
40.640312,80.01343,65.36569
40.65365,80.008545,65.36123
40.666985,80.00366,65.35661
40.68032,80.00122,65.35429
40.693657,80.00366,65.356766
40.706978,80.0061,65.35932
40.720314,80.01099,65.364395
40.73365,80.01343,65.36718
40.746986,80.01587,65.37004
40.760323,80.01343,65.368095
40.77366,80.01099,65.36607
40.786995,80.00366,65.35909
40.800316,80.00366,65.35921
40.813652,80.00366,65.35932
40.82699,80.00366,65.359436
40.840324,80.00122,65.35711
40.85366,79.99878,65.354706
40.866997,79.99634,65.35223
40.880333,79.9939,65.34967
40.89367,79.9939,65.34948
40.907005,79.99634,65.35173
40.920326,79.99878,65.35406
40.933662,80.00122,65.35646
40.947,80.00366,65.35894
40.960335,80.0061,65.361496
40.97367,80.008545,65.36413
40.987007,80.01099,65.36684
41.000343,80.01343,65.36962
41.013664,80.01831,65.37492
41.027,80.02319,65.38038
41.040337,80.02319,65.3811
41.053673,80.025635,65.38427
41.06701,80.02319,65.38263
41.080345,80.01343,65.37359
41.09368,80.0061,65.366684
41.107018,80.00366,65.36443
41.120354,80.00122,65.36211
41.133675,79.99878,65.3597
41.14701,79.99878,65.359665
41.160347,80.00122,65.36207
41.173683,80.00122,65.36211
41.18702,80.00122,65.362144
41.200356,80.00122,65.36218
41.21369,80.00122,65.36222
41.227013,80.00366,65.3647
41.24035,80.008545,65.3697
41.253685,80.01343,65.37485
41.26702,80.01587,65.37771
41.280357,80.01343,65.37576
41.293694,80.01587,65.378624
41.30703,80.01587,65.37912
41.320366,80.01587,65.379616
41.333702,80.01343,65.37767
41.347023,80.0061,65.370766
41.36036,79.99878,65.36363
41.373695,79.9939,65.35871
41.38703,79.9939,65.35852
41.400368,79.99878,65.36321
41.413704,80.00366,65.36806
41.42704,80.0061,65.37061
41.44036,80.0061,65.370804
41.453697,80.0061,65.370995
41.467033,80.0061,65.371185
41.48037,80.008545,65.37382
41.493706,80.01099,65.376526
41.507042,80.01343,65.37931
41.52038,80.01343,65.37973
41.533714,80.01099,65.37771
41.54705,80.01343,65.38049
41.56037,80.01587,65.383354
41.573708,80.01831,65.38629
41.587044,80.01587,65.38442
41.60038,80.01343,65.38248
41.613716,80.01587,65.38534
41.627052,80.02075,65.39072
41.64039,80.025635,65.39625
41.65371,80.03052,65.40193
41.667046,80.03296,65.40533
41.68038,80.028076,65.401474
41.693718,80.01831,65.392586
41.707054,80.01099,65.38583
41.72039,80.0061,65.381294
41.733727,80.0061,65.381485
41.747063,80.008545,65.38412
41.7604,80.008545,65.384384
41.77372,80.008545,65.38465
41.787056,80.00122,65.377594
41.800392,79.991455,65.36787
41.81373,79.98657,65.36272
41.827065,79.98413,65.359856
41.8404,79.98413,65.35936
41.853737,79.991455,65.36619
41.867058,80.00366,65.37813
41.880394,80.01343,65.38801
41.89373,80.01831,65.39331
41.907066,80.02075,65.396324
41.920403,80.01831,65.39453
41.93374,80.01587,65.39266
41.947075,80.01099,65.388275
41.96041,80.008545,65.38618
41.973747,80.0061,65.384
41.98707,80.00366,65.38175
42.000404,80.00122,65.379425
42.01374,80.00122,65.37946
42.027077,80.00366,65.38194
42.040413,80.0061,65.3845
42.05375,80.008545,65.38713
42.067085,80.0061,65.38496
42.080406,80.0061,65.38515
42.093742,80.00366,65.3829
42.10708,80.00122,65.38057
42.120415,79.99634,65.375725
42.13375,79.99634,65.37561
42.147087,80.00122,65.38038
42.160423,80.0061,65.3853
42.17376,80.01099,65.39037
42.187096,80.01587,65.3956
42.200417,80.01587,65.396095
42.213753,80.01343,65.39415
42.22709,80.01099,65.39213
42.240425,80.01099,65.39247
42.25376,80.01343,65.395256
42.267097,80.01587,65.39812
42.280434,80.01587,65.39861
42.293755,80.01343,65.39667
42.30709,80.008545,65.392204
42.320427,80.008545,65.39247
42.333763,80.01099,65.39518
42.3471,80.01343,65.397964
42.360435,80.01343,65.398384
42.37377,80.01099,65.39636
42.387108,80.00366,65.38938
42.400444,79.9939,65.37973
42.413765,79.9939,65.37954
42.4271,79.9939,65.37935
42.440437,79.99634,65.3816
42.453773,80.00122,65.38637
42.46711,80.0061,65.39129
42.480446,80.00366,65.38904
42.493782,80.00366,65.38915
42.507103,80.0061,65.39171
42.52044,80.008545,65.39434
42.533775,80.008545,65.39461
42.54711,80.01099,65.397316
42.560448,80.008545,65.39522
42.573784,80.00366,65.3906
42.58712,79.99878,65.38583
42.600456,79.9939,65.38091
42.613792,79.9939,65.38072
42.627113,79.99878,65.385414
42.64045,80.00366,65.39026
42.653786,80.00366,65.39037
42.66712,80.00366,65.39049
42.680458,80.00122,65.38816
42.693794,79.99878,65.38576
42.70713,79.99634,65.38328
42.72045,79.99878,65.385605
42.733788,80.00122,65.38801
42.747124,80.00366,65.39049
42.76046,80.00366,65.3906
42.773796,80.00122,65.388275
42.787132,79.99878,65.38587
42.80047,80.00122,65.388275
42.813805,80.00366,65.390755
42.82714,80.0061,65.39331
42.84046,80.008545,65.39594
42.853798,80.01099,65.39865
42.867134,80.01099,65.398994
42.880455,80.008545,65.3969
42.89379,80.0061,65.39472
42.907127,80.0061,65.39491
42.920464,80.00366,65.39266
42.9338,79.99878,65.38789
42.94712,79.99634,65.385414
42.960457,79.99878,65.38774
42.973793,80.00122,65.390144
42.987114,80.00366,65.392624
43.00045,80.0061,65.39518
43.013786,80.0061,65.39537
43.027122,80.00366,65.39312
43.04046,79.99878,65.38835
43.05378,79.9939,65.38343
43.067116,79.98901,65.37836
43.080452,79.98657,65.37557
43.093773,79.98413,65.37271
43.10711,79.98901,65.3771
43.120445,80.0061,65.393845
43.13378,80.02319,65.411125
43.147118,80.0354,65.42406
43.16044,80.042725,65.43249
43.173775,80.03784,65.42894
43.18711,80.02319,65.415474
43.20043,80.00366,65.39667
43.213768,79.98901,65.38213
43.227104,79.98413,65.37691
43.24044,79.98413,65.37641
43.253777,79.98901,65.3808
43.267097,79.99634,65.38778
43.280434,80.00122,65.39255
43.29377,80.0061,65.39747
43.30709,80.01099,65.40254
43.320427,80.01587,65.40777
43.333763,80.01831,65.410706
43.3471,80.01587,65.40884
43.360435,80.01343,65.40689
43.373756,80.008545,65.40243
43.387093,80.008545,65.402695
43.40043,80.008545,65.40296
43.41375,80.008545,65.40323
43.427086,80.01099,65.40594
43.440422,80.01343,65.40872
43.45376,80.01343,65.40914
43.467094,80.01099,65.40712
43.480415,80.01099,65.40746
43.49375,80.01343,65.41025
43.507088,80.01343,65.41067
43.52041,80.01099,65.408646
43.533745,80.008545,65.40655
43.54708,80.00366,65.40193
43.560417,80.00122,65.399605
43.573753,80.00122,65.39964
43.587074,80.00122,65.39968
43.60041,80.00366,65.40216
43.613747,80.0061,65.40472
43.627068,80.0061,65.40491
43.640404,80.00122,65.400215
43.65374,79.99634,65.39537
43.667076,79.98901,65.38793
43.680412,79.98413,65.382706
43.693733,79.98169,65.37977
43.70707,79.98413,65.38164
43.720406,79.991455,65.388466
43.733727,80.00122,65.397964
43.747063,80.008545,65.40533
43.7604,80.01099,65.408035
43.773735,80.0061,65.403496
43.78707,80.00122,65.3988
43.800392,79.9939,65.39152
43.81373,79.98901,65.386444
43.827065,79.9939,65.39098
43.840385,80.00122,65.39812
43.85372,80.01099,65.40792
43.867058,80.01587,65.41315
43.880394,80.01831,65.416084
43.89373,80.01587,65.414215
43.90705,80.01099,65.40983
43.920387,80.00366,65.40285
43.933723,79.99878,65.39808
43.947044,79.99634,65.3956
43.96038,79.9939,65.39304
43.973717,79.9939,65.39285
43.987053,79.99878,65.397545
44.00039,80.0061,65.40483
44.01371,80.01343,65.412346
44.027046,80.02075,65.42009
44.040382,80.02319,65.42318
44.053703,80.025635,65.426346
44.06704,80.02075,65.422264
44.080376,80.01343,65.41559
44.09371,80.01099,65.41357
44.107048,80.008545,65.41147
44.12037,80.008545,65.411736
44.133705,80.01343,65.416885
44.14704,80.01831,65.42219
44.160362,80.02075,65.4252
44.1737,80.01831,65.42341
44.187035,80.01587,65.42154
44.20037,80.01099,65.41715
44.213707,80.008545,65.415054
44.227028,80.00366,65.41044
44.240364,80.00122,65.40811
44.2537,79.99878,65.40571
44.26702,80.00122,65.40811
44.280357,80.00366,65.41059
44.293694,80.0061,65.41315
44.30703,80.00366,65.4109
44.320366,80.00122,65.40857
44.333687,79.99878,65.406166
44.347023,79.99634,65.40369
44.36036,79.99878,65.40601
44.37368,80.00366,65.41086
44.387016,80.01099,65.4183
44.400352,80.01587,65.42352
44.41369,80.01831,65.42646
44.427025,80.01831,65.42703
44.440346,80.01831,65.427605
44.453682,80.01343,65.423294
44.46702,80.008545,65.41883
44.48034,80.0061,65.41666
44.493675,80.0061,65.41685
44.50701,80.008545,65.41948
44.520348,80.01099,65.42219
44.533684,80.01587,65.427414
44.547005,80.01343,65.42547
44.56034,80.01099,65.42345
44.573677,80.0061,65.41891
44.586998,80.0061,65.4191
44.600334,80.0061,65.41929
44.61367,80.0061,65.41948
44.627007,80.0061,65.41967
44.640343,80.00366,65.41742
44.653664,80.00122,65.41509
44.667,80.00122,65.41513
44.680336,80.00122,65.41517
44.693657,80.00366,65.41765
44.706993,80.0061,65.420204
44.72033,80.0061,65.420395
44.733665,80.01099,65.42547
44.747,80.01587,65.430695
44.760323,80.01587,65.43119
44.77366,80.01587,65.43169
44.786995,80.01587,65.43218
44.800316,80.01099,65.427795
44.813652,80.01099,65.42814
44.82699,80.01343,65.43092
44.840324,80.01587,65.433784
44.85366,80.01587,65.43428
44.86698,80.01343,65.432335
44.880318,80.00366,65.42299
44.893654,79.9939,65.41334
44.906975,79.98413,65.40338
44.92031,79.98169,65.400444
44.933647,79.98169,65.39987
44.946983,79.98413,65.40174
44.96032,79.991455,65.40857
44.97364,79.99878,65.41563
44.986977,80.00366,65.42047
45.000313,80.0061,65.42303
45.013634,80.01099,65.4281
45.02697,80.01343,65.430885
45.040306,80.01587,65.43375
45.053642,80.01343,65.4318
45.06698,80.008545,65.42734
45.0803,79.99878,65.41784
45.093636,79.9939,65.41292
45.10697,79.98901,65.407845
45.120293,79.991455,65.40994
45.13363,79.9939,65.41212
45.146965,79.99634,65.41437
45.1603,79.99634,65.41425
45.173637,79.99634,65.41414
45.18696,79.99878,65.416466
45.200294,80.00122,65.41887
45.21363,80.00122,65.41891
45.22695,79.99634,65.41406
45.240288,79.98901,65.406624
45.253624,79.97925,65.396515
45.26696,79.974365,65.39098
45.280296,79.97681,65.392624
45.293617,79.98413,65.39922
45.306953,79.9939,65.40849
45.32029,80.00366,65.41807
45.33361,80.00366,65.41818
45.346947,79.99878,65.413414
45.360283,79.991455,65.40605
45.37362,79.98901,65.40334
45.386955,79.98901,65.403
45.400276,79.99634,65.40998
45.413612,80.00366,65.41719
45.42695,80.01099,65.42463
45.44027,80.01099,65.42497
45.453606,80.01099,65.425316
45.46694,80.01099,65.42566
45.480278,80.01099,65.426
45.493614,80.01343,65.42879
45.506935,80.01831,65.43409
45.52027,80.02075,65.4371
45.533607,80.025635,65.442635
45.54693,80.03052,65.44832
45.560265,80.028076,65.44683
45.5736,80.02319,65.442825
45.586937,80.01831,65.43867
45.600273,80.01099,65.431915
45.613594,80.008545,65.42982
45.62693,80.0061,65.42764
45.640266,80.0061,65.42783
45.653587,80.00366,65.42558
45.666924,80.00366,65.4257
45.68026,79.99878,65.42093
45.693596,79.99634,65.41845
45.706932,79.9939,65.41589
45.720253,79.99634,65.418144
45.73359,79.99878,65.42047
45.746925,80.00122,65.422874
45.760246,80.00122,65.42291
45.773582,80.00122,65.42295
45.78692,79.99878,65.42055
45.800255,79.99634,65.41807
45.81359,79.99634,65.41795
45.826912,79.99878,65.42028
45.84025,80.00122,65.42268
45.853584,80.0061,65.427605
45.866905,80.008545,65.43024
45.88024,80.01099,65.432945
45.893578,80.01587,65.43817
45.906914,80.02075,65.44355
45.92025,80.02075,65.4442
45.93357,80.02075,65.44485
45.946907,80.01587,65.44061
45.960243,80.008545,65.433784
45.973564,80.00366,65.42917
45.9869,80.0061,65.431725
46.000237,80.01099,65.4368
46.013573,80.01587,65.442024
46.02691,80.02075,65.4474
46.04023,80.02075,65.44805
46.053566,80.01343,65.441376
46.066902,80.008545,65.43691
46.080223,80.008545,65.43718
46.09356,80.008545,65.43745
46.106895,80.008545,65.43771
46.12023,80.008545,65.43798
46.133568,80.008545,65.43825
46.14689,80.0061,65.43607
46.160225,80.0061,65.436264
46.17356,80.0061,65.436455
46.186882,80.00366,65.434204
46.20022,80.00122,65.43188
46.213554,80.00122,65.431915
46.22689,79.99878,65.42951
46.240227,79.9939,65.42459
46.253548,79.9939,65.4244
46.266884,79.9939,65.42421
46.28022,79.9939,65.42402
46.29354,79.99634,65.42627
46.306877,80.00122,65.43104
46.320213,80.00366,65.43352
46.33355,80.00366,65.43363
46.346886,80.00366,65.43375
46.360207,80.00122,65.43142
46.373543,79.99878,65.429016
46.38688,79.99878,65.42898
46.4002,79.99878,65.42894
46.413536,79.99878,65.4289
46.426872,80.00122,65.431305
46.44021,80.00122,65.43134
46.453545,80.00122,65.43138
46.466866,79.99878,65.42898
46.4802,79.99634,65.4265
46.493538,79.99634,65.426384
46.50686,80.00122,65.43115
46.520195,80.008545,65.438515
46.53353,80.01587,65.446106
46.546867,80.01831,65.44904
46.560204,80.01831,65.449615
46.573524,80.01099,65.44286
46.58686,80.00122,65.43344
46.600197,79.9939,65.426155
46.613518,79.991455,65.42352
46.626854,79.991455,65.423256
46.64019,79.9939,65.42543
46.653526,79.99878,65.43012
46.666862,79.99878,65.430084
46.680183,79.99634,65.427605
46.69352,79.991455,65.42261
46.706856,79.98901,65.4199
46.720177,79.98901,65.419556
46.733513,79.98901,65.41921
46.74685,79.991455,65.42131
46.760185,79.9939,65.423485
46.77352,79.991455,65.42085
46.786842,79.991455,65.420586
46.80018,79.99634,65.4252
46.813515,80.00122,65.42997
46.826836,80.0061,65.43489
46.84017,80.01343,65.442406
46.853508,80.01587,65.44527
46.866844,80.01587,65.44576
46.88018,80.01099,65.441376
46.8935,80.0061,65.43684
46.906837,80.00122,65.432144
46.920174,79.99878,65.42974
46.933495,80.00122,65.432144
46.94683,80.008545,65.43951
46.960167,80.01343,65.44466
46.973503,80.01587,65.44752
46.98684,80.02075,65.452896
47.00016,80.02075,65.453545
47.013496,80.01587,65.44931
47.026833,80.01099,65.44492
47.040154,80.00366,65.43794
47.05349,79.99634,65.43073
47.066826,79.991455,65.425735
47.080162,79.9939,65.42791
47.0935,80.00122,65.43504
47.10682,80.0061,65.439964
47.120155,80.0061,65.440155
47.13349,80.008545,65.44279
47.146812,80.008545,65.443054
47.16015,80.008545,65.44332
47.173485,80.0061,65.44115
47.18682,80.00366,65.438896
47.200157,80.00122,65.43657
47.213478,79.99634,65.431725
47.226814,79.9939,65.42917
47.24015,79.99634,65.43142
47.25347,80.00122,65.43619
47.266808,80.0061,65.44111
47.280144,80.01099,65.44618
47.29348,80.01099,65.446526
47.306816,80.0061,65.441986
47.320137,80.00122,65.437294
47.333473,79.99878,65.43489
47.34681,79.99878,65.43485
47.36013,80.00366,65.4397
47.373466,80.01099,65.447136
47.386803,80.01343,65.44992
47.40014,80.01587,65.45278
47.413475,80.01587,65.45328
47.426796,80.01343,65.45133
47.440132,80.008545,65.44687
47.45347,80.00366,65.44225
47.46679,79.99878,65.437485
47.480125,79.9939,65.43256
47.49346,79.991455,65.42993
47.506798,79.991455,65.429665
47.520134,79.9939,65.43184
47.533455,79.99634,65.43409
47.54679,79.99878,65.43642
47.560127,80.00122,65.43882
47.57345,80.00122,65.43886
47.586784,80.00122,65.438896
47.60012,79.99878,65.43649
47.613457,79.99634,65.43401
47.626793,79.9939,65.43146
47.640114,79.9939,65.43127
47.65345,79.99634,65.43352
47.666786,80.00122,65.438286
47.680107,80.008545,65.44565
47.693443,80.01343,65.4508
47.70678,80.01831,65.4561
47.720116,80.01831,65.45667
47.73345,80.01343,65.45236
47.746773,80.0061,65.44546
47.76011,79.99878,65.438324
47.773445,79.991455,65.43096
47.786766,79.98901,65.42825
47.800102,79.991455,65.43035
47.81344,79.99878,65.43741
47.826775,80.00366,65.44225
47.84011,80.008545,65.44725
47.85343,80.008545,65.44752
47.866768,80.008545,65.447784
47.880104,80.008545,65.44805
47.893425,80.008545,65.44832
47.90676,80.0061,65.446144
47.920097,80.00366,65.44389
47.933434,80.00122,65.44157
47.94677,80.00122,65.441605
47.96009,80.00366,65.444084
47.973427,80.0061,65.44664
47.986763,80.01099,65.45171
48.000084,80.01343,65.4545
48.01342,80.01343,65.45492
48.026756,80.01343,65.45534
48.040092,80.01343,65.45576
48.05343,80.01099,65.453735
48.06675,80.008545,65.45164
48.080086,80.0061,65.44946
48.093422,80.00366,65.44721
48.106743,79.99878,65.442444
48.12008,79.99634,65.439964
48.133415,79.99634,65.43985
48.14675,79.9939,65.437294
48.160088,79.9939,65.4371
48.17341,79.99634,65.439354
48.186745,80.00122,65.44412
48.20008,80.0061,65.44904
48.2134,80.008545,65.451675
48.226738,80.008545,65.45194
48.240074,80.00366,65.44733
48.25341,79.99634,65.44012
48.266747,79.9939,65.43756
48.280067,79.991455,65.43493
48.293404,79.991455,65.43466
48.30674,79.99634,65.43928
48.32006,79.99878,65.441605
48.333397,80.00122,65.44401
48.346733,80.00366,65.44649
48.36007,80.0061,65.44904
48.373405,80.0061,65.449234
48.386726,80.0061,65.449425
48.400063,80.00366,65.447174
48.4134,80.00366,65.44729
48.42672,80.0061,65.449844
48.440056,80.008545,65.45248
48.453392,80.01099,65.455185
48.46673,80.01587,65.46041
48.480064,80.01587,65.46091
48.493385,80.01343,65.45896
48.50672,80.0061,65.45206
48.520058,80.00122,65.447365
48.53338,79.99878,65.44496
48.546715,80.00122,65.447365
48.56005,80.00122,65.4474
48.573387,80.00122,65.44744
48.586723,80.00122,65.44748
48.600044,80.00122,65.44752
48.61338,80.00366,65.45
48.626717,80.008545,65.454994
48.640038,80.01099,65.4577
48.653374,80.01099,65.458046
48.66671,80.008545,65.45595
48.680046,80.0061,65.45377
48.693382,80.00366,65.45152
48.706703,80.00122,65.449196
48.72004,80.00122,65.449234
48.733376,80.00122,65.44927
48.746696,80.00366,65.45175
48.760033,80.008545,65.45675
48.77337,80.01343,65.4619
48.786705,80.01831,65.4672
48.80004,80.02075,65.470215
48.813362,80.02075,65.47086
48.8267,80.01831,65.46907
48.840034,80.01587,65.4672
48.853355,80.01099,65.462814
48.86669,80.01099,65.46316
48.880028,80.01343,65.46594
48.893364,80.01099,65.46392
48.9067,80.0061,65.45938
48.92002,80.00366,65.45713
48.933357,80.00366,65.457245
48.946693,80.0061,65.4598
48.960014,80.01099,65.464874
48.97335,80.01099,65.46522
48.986687,80.008545,65.46312
49.000023,80.00122,65.45606
49.01336,79.991455,65.446335
49.02668,79.98413,65.43874
49.040016,79.98413,65.43825
49.053352,79.991455,65.445076
49.066673,79.99878,65.45213
49.08001,80.0061,65.45942
49.093346,80.01343,65.466934
49.10668,80.01587,65.469795
49.120018,80.01831,65.47273
49.13334,80.01587,65.47086
49.146675,80.01343,65.46892
49.16001,80.01099,65.466896
49.173332,80.0061,65.46236
49.18667,80.00122,65.457664
49.200005,80.00366,65.460144
49.21334,80.0061,65.4627
49.226677,80.00366,65.46045
49.239998,80.00366,65.46056
49.253334,80.00366,65.46068
49.26667,80.00366,65.46079
49.27999,80.00366,65.46091
49.293327,80.008545,65.465904
49.306664,80.01343,65.471054
49.32,80.01343,65.47147
49.333336,80.01099,65.46945
49.346657,80.0061,65.46491
49.359993,80.00366,65.46266
49.37333,79.99634,65.45545
49.38665,79.98901,65.44801
49.399986,79.98169,65.440346
49.413322,79.97681,65.43489
49.42666,79.96948,65.42684
49.439995,79.96948,65.42589
49.453316,79.97681,65.43226
49.466652,79.98169,65.43642
49.47999,79.98657,65.44073
49.49331,79.991455,65.44519
49.506645,79.99878,65.45225
49.51998,80.00122,65.45465
49.533318,80.00366,65.45713
49.546654,80.0061,65.45969
49.559975,80.0061,65.45988
49.57331,80.0061,65.46007
49.586647,80.00366,65.45782
49.599968,80.00366,65.45793
49.613304,80.00366,65.458046
49.62664,80.00122,65.45572
49.639977,79.99878,65.453316
49.653313,80.00122,65.45572
49.666634,80.00366,65.4582
49.67997,80.0061,65.460754
49.693306,80.01099,65.46583
49.706627,80.01587,65.471054
49.719963,80.01587,65.47155
49.7333,80.008545,65.46472
49.746635,80.00366,65.460106
49.75997,80.00122,65.45778
49.773293,80.00122,65.45782
49.78663,80.00366,65.4603
49.799965,80.0061,65.46285
49.813286,80.0061,65.46304
49.826622,80.0061,65.463234
49.83996,80.00366,65.46098
49.853294,80.00122,65.45866
49.86663,79.99878,65.45625
49.87995,79.99634,65.45377
49.893288,79.9939,65.45122
49.906624,79.99634,65.45347
49.919945,80.00122,65.45824
49.93328,80.008545,65.4656
49.946617,80.01587,65.47319
49.959953,80.02075,65.47857
49.97329,80.01587,65.474335
49.98661,80.008545,65.46751
49.999947,80.00122,65.46045
50.013283,79.99878,65.458046
50.026604,79.99634,65.45557
50.03994,79.99634,65.45545
50.053276,79.99878,65.45778
50.066612,79.99878,65.45774
50.07995,79.99634,65.45526
50.09327,79.9939,65.452705
50.106606,79.9939,65.452515
50.11994,79.99634,65.454765
50.133263,80.00122,65.45953
50.1466,80.0061,65.464455
50.159935,80.01099,65.46953
50.17327,80.01099,65.46987
50.186607,80.01099,65.470215
50.19993,80.01343,65.473
50.213264,80.01587,65.47586
50.2266,80.01343,65.473915
50.23992,80.01587,65.476776
50.253258,80.01343,65.47483
50.266594,80.008545,65.47037
50.27993,80.00366,65.46575
50.293266,79.99878,65.46098
50.306587,79.9939,65.45606
50.319923,79.991455,65.45343
50.33326,79.991455,65.45316
50.34658,79.9939,65.45534
50.359917,80.00122,65.46247
50.373253,80.008545,65.46983
50.38659,80.01587,65.477425
50.399925,80.02075,65.4828
50.413246,80.02319,65.48589
50.426582,80.01831,65.481735
50.43992,80.01343,65.477425
50.45324,80.008545,65.47296
50.466576,80.0061,65.47079
50.47991,80.00366,65.46854
50.493248,80.00366,65.46865
50.506584,80.008545,65.47365
50.519905,80.01099,65.47636
50.53324,80.01343,65.47914
50.546577,80.01587,65.482
50.5599,80.01831,65.48494
50.573235,80.01587,65.48307
50.58657,80.01099,65.47868
50.599907,80.0061,65.474144
50.613243,80.00366,65.47189
50.626564,80.00122,65.46957
50.6399,80.00122,65.469604
50.653236,80.00122,65.46964
50.666557,79.99878,65.46724
50.679893,79.99878,65.4672
50.69323,80.00122,65.469604
50.706566,80.00366,65.472084
50.719902,80.0061,65.47464
50.733223,80.0061,65.47483
50.74656,80.00366,65.47258
50.759895,79.99878,65.46781
50.773216,79.99878,65.46777
50.786552,80.00122,65.47018
50.79989,80.00366,65.47266
50.813225,80.00366,65.47277
50.82656,80.00366,65.472885
50.83988,80.00122,65.47056
50.853218,79.99878,65.468155
50.866554,80.00122,65.47056
50.879875,80.0061,65.47548
50.89321,80.008545,65.47811
50.906548,80.0061,65.47594
50.919884,80.0061,65.47613
50.93322,80.00366,65.47388
50.94654,80.00366,65.47399
50.959877,80.0061,65.47655
50.973213,80.008545,65.47918
50.986534,80.008545,65.47945
50.99987,80.00366,65.47483
51.013206,80.00122,65.4725
51.026543,80.00122,65.47254
51.03988,80.0061,65.47746
51.0532,80.008545,65.480095
51.066536,80.01099,65.4828
51.079872,80.01099,65.48315
51.093193,80.0061,65.47861
51.10653,80.00122,65.473915
51.119865,79.99634,65.46907
51.1332,79.9939,65.466515
51.146538,79.991455,65.46388
51.15986,79.991455,65.463615
51.173195,79.98901,65.46091
51.18653,79.98901,65.46056
51.199852,79.98901,65.46022
51.21319,79.98657,65.457436
51.226524,79.98657,65.457016
51.23986,79.98657,65.4566
51.253197,79.98901,65.45862
51.266518,79.98901,65.458275
51.279854,79.98413,65.45305
51.29319,79.97925,65.44767
51.30651,79.97681,65.44458
51.319847,79.97681,65.443855
51.333183,79.97925,65.44557
51.34652,79.98413,65.44981
51.359856,79.9939,65.459076
51.373177,79.99878,65.46377
51.386513,80.00366,65.46861
51.39985,80.008545,65.47361
51.41317,80.008545,65.47388
51.426506,80.008545,65.474144
51.439842,80.008545,65.47441
51.45318,80.01099,65.47712
51.466515,80.01099,65.47746
51.479836,80.01343,65.48025
51.49317,80.01343,65.48067
51.506508,80.01099,65.478645
51.51983,80.00122,65.46922
51.533165,79.9939,65.46194
51.5465,79.98901,65.45686
51.559837,79.9939,65.4614
51.573174,80.00122,65.46854
51.586494,80.01099,65.47834
51.613167,80.02319,65.49146
51.626488,80.02075,65.489746
51.639824,80.01587,65.48551
51.65316,80.008545,65.47868
51.666496,80.0061,65.47651
51.679832,80.00366,65.47426
51.693153,80.00122,65.47193
51.70649,79.99878,65.46953
51.719826,79.99634,65.46705
51.733147,79.9939,65.46449
51.746483,79.99634,65.46674
51.75982,80.00122,65.47151
51.773155,80.0061,65.47643
51.78649,80.01099,65.48151
51.799812,80.01343,65.48429
51.81315,80.01099,65.48227
51.826485,80.008545,65.48017
51.839806,80.0061,65.478
51.85314,80.00366,65.475746
51.866478,79.99878,65.47098
51.879814,79.99634,65.4685
51.89315,79.99634,65.46838
51.90647,79.99878,65.47071
51.919807,80.00366,65.475555
51.933144,80.01099,65.482994
51.946465,80.01587,65.48822
51.9598,80.01343,65.486275
51.973137,80.008545,65.48181
51.986473,80.00122,65.474754
51.99981,79.99634,65.46991
52.01313,79.9939,65.467354
52.026466,79.99634,65.469604
52.039803,80.00366,65.476814
52.053123,80.01099,65.48425
52.06646,80.01831,65.49192
52.079796,80.02319,65.497375
52.093132,80.02319,65.4981
52.10647,80.02075,65.49638
52.11979,80.01587,65.49215
52.133125,80.0061,65.48288
52.14646,79.99878,65.475746
52.159782,79.9939,65.470825
52.17312,79.9939,65.470634
52.186455,79.99878,65.47533
52.19979,80.008545,65.485054
52.213127,80.01831,65.49509
52.226448,80.02075,65.4981
52.239784,80.02075,65.49875
52.25312,80.01587,65.494514
52.26644,80.008545,65.487686
52.279778,80.00366,65.48307
52.293114,80.00122,65.48074
52.30645,80.00366,65.48322
52.319786,80.008545,65.48822
52.333107,80.01099,65.49093
52.346443,80.01099,65.49127
52.35978,80.0061,65.48673
52.3731,79.99878,65.4796
52.386436,79.9939,65.47468
52.399773,79.98901,65.469604
52.41311,79.98657,65.46682
52.426445,79.98901,65.46884
52.439766,79.9939,65.47338
52.453102,79.9939,65.47319
52.46644,79.9939,65.473
52.47976,79.99634,65.47525
52.493095,79.99878,65.47758
52.50643,80.00122,65.47998
52.519768,80.00366,65.48246
52.533104,80.008545,65.48746
52.546425,80.01099,65.490166
52.55976,80.01343,65.49295
52.573097,80.01343,65.49337
52.58642,80.01343,65.49379
52.599754,80.008545,65.48933
52.61309,80.00366,65.48471
52.626427,80.00122,65.48238
52.639763,79.99634,65.47754
52.653084,79.991455,65.47254
52.66642,79.98901,65.46983
52.679756,79.98657,65.46705
52.693077,79.98169,65.46175
52.706413,79.98169,65.461174
52.71975,79.98413,65.46304
52.733086,79.98657,65.46499
52.74642,79.991455,65.46945
52.759743,79.99634,65.47407
52.77308,79.99878,65.476395
52.786415,80.00122,65.4788
52.799736,80.0061,65.48372
52.813072,80.008545,65.48635
52.82641,80.01099,65.48906
52.839745,80.01587,65.494286
52.85308,80.01831,65.49722
52.8664,80.01831,65.497795
52.879738,80.01831,65.49837
52.893074,80.01831,65.49894
52.906395,80.01831,65.49951
52.91973,80.01343,65.4952
52.933067,80.008545,65.49074
52.946404,80.0061,65.48856
52.95974,80.0061,65.488754
52.97306,80.008545,65.49139
52.986397,80.01343,65.49654
52.999733,80.01587,65.4994
53.013054,80.01587,65.49989
53.02639,80.01587,65.50039
53.039726,80.01343,65.49844
53.053062,80.01099,65.49642
53.0664,80.01099,65.496765
53.07972,80.01099,65.49711
53.093056,80.0061,65.49257
53.10639,80.00122,65.48788
53.119713,79.99878,65.48547
53.13305,79.99878,65.485435
53.146385,79.99878,65.4854
53.15972,80.00122,65.4878
53.173058,80.0061,65.49272
53.18638,80.0061,65.49291
53.199715,80.00122,65.48822
53.21305,79.9939,65.480934
53.22637,79.98657,65.47342
53.239708,79.98169,65.46812
53.253044,79.98413,65.469986
53.26638,79.98901,65.47437
53.279716,79.99634,65.48135
53.293037,80.00366,65.48856
53.306374,80.008545,65.49356
53.31971,80.01099,65.49627
53.33303,80.01099,65.49661
53.346367,80.01099,65.496956
53.359703,80.0061,65.49242
53.37304,80.00122,65.487724
53.386375,79.99634,65.48288
53.399696,79.9939,65.48032
53.413033,79.9939,65.48013
53.42637,79.9939,65.47994
53.43969,79.99878,65.484634
53.453026,79.99878,65.4846
53.466362,79.99634,65.48212
53.4797,79.9939,65.47956
53.493034,79.99634,65.48181
53.506355,79.99878,65.48414
53.51969,80.00122,65.48654
53.533028,80.00122,65.48658
53.54635,79.99878,65.48418
53.559685,79.9939,65.479256
53.57302,79.991455,65.47662
53.586357,79.991455,65.47636
53.599693,79.991455,65.47609
53.613014,79.9939,65.478264
53.62635,79.99878,65.482956
53.639687,80.00366,65.4878
53.653008,80.008545,65.4928
53.666344,80.01343,65.49795
53.67968,80.01343,65.49837
53.693016,80.01099,65.496346
53.706352,80.0061,65.491806
53.719673,80.0061,65.492
53.73301,80.008545,65.49463
53.746346,80.01099,65.49734
53.759666,80.008545,65.49524
53.773003,80.0061,65.493065
53.78634,80.00122,65.48837
53.799675,79.99634,65.48353
53.81301,79.99634,65.48341
53.826332,79.99878,65.48574
53.83967,79.99878,65.4857
53.853004,79.9939,65.48078
53.866325,79.98657,65.47327
53.87966,79.98169,65.467964
53.892998,79.98413,65.46983
53.906334,79.98657,65.47178
53.91967,79.991455,65.47624
53.93299,79.99634,65.48086
53.946327,79.99878,65.483185
53.959663,79.99878,65.48315
53.972984,79.99878,65.48311
53.98632,79.99878,65.48307
53.999657,79.99634,65.48059
54.012993,79.9939,65.478035
54.02633,79.9939,65.477844
54.03965,79.9939,65.47765
54.052986,79.991455,65.47502
54.066322,79.991455,65.474754
54.079643,79.9939,65.47693
54.09298,79.991455,65.4743
54.106316,79.98901,65.47159
54.11965,79.98901,65.471245
54.132988,79.98901,65.4709
54.14631,79.991455,65.473
54.159645,79.99878,65.48006
54.17298,80.0061,65.48734
54.186302,80.01343,65.49486
54.19964,80.01831,65.50016
54.212975,80.02075,65.503174
54.22631,80.01587,65.49894
54.239647,80.0061,65.48967
54.252968,79.99878,65.48254
54.266304,79.9939,65.477615
54.27964,79.991455,65.47498
54.29296,79.9939,65.47716
54.306297,80.00122,65.48429
54.319633,80.008545,65.49165
54.33297,80.01343,65.4968
54.346306,80.01343,65.49722
54.359627,80.01099,65.4952
54.372963,80.008545,65.4931
54.3863,80.0061,65.49093
54.39962,80.00366,65.48868
54.412956,80.0061,65.491234
54.426292,80.008545,65.493866
54.43963,80.0061,65.49169
54.452965,80.0061,65.49188
54.466286,80.008545,65.494514
54.47962,80.008545,65.49478
54.492958,80.008545,65.49505
54.50628,80.008545,65.495316
54.519615,80.008545,65.49558
54.53295,80.008545,65.49585
54.546288,80.0061,65.493675
54.559624,79.99878,65.48654
54.572945,79.991455,65.47918
54.58628,79.98901,65.47647
54.599617,79.98657,65.47369
54.612938,79.98657,65.47327
54.626274,79.98901,65.47529
54.63961,79.9939,65.47983
54.652946,79.9939,65.47964
54.666283,79.98901,65.47456
54.679604,79.98413,65.46934
54.69294,79.98657,65.47128
54.706276,79.98901,65.473305
54.719597,79.9939,65.477844
54.732933,79.99878,65.48254
54.74627,80.00366,65.48738
54.759605,80.0061,65.48994
54.77294,80.008545,65.49257
54.786263,80.01587,65.50016
54.7996,80.025635,65.51042
54.812935,80.03296,65.51855
54.826256,80.03784,65.52446
54.839592,80.0354,65.5232
54.85293,80.028076,65.51698
54.866264,80.01831,65.508095
54.8796,80.0061,65.49646
54.89292,79.99634,65.486885
54.906258,79.98901,65.47945
54.919594,79.98413,65.47422
54.932915,79.98413,65.473724
54.94625,79.98657,65.47567
54.959587,79.991455,65.48013
54.972923,79.99878,65.48719
54.98626,80.01099,65.49936
54.99958,80.02319,65.51191
55.012917,80.028076,65.51752
55.026253,80.03052,65.520836
55.039574,80.03052,65.52179
55.05291,80.025635,65.51786
55.066246,80.01587,65.508896
55.079582,80.01099,65.50451
55.09292,80.0061,65.49997
55.10624,80.00122,65.49528
55.119576,79.99634,65.49043
55.13291,79.9939,65.48788
55.146233,79.9939,65.487686
55.15957,79.99634,65.48994
55.172905,80.00122,65.494705
55.18624,80.0061,65.499626
55.199577,80.01099,65.5047
55.2129,80.01099,65.50504
55.226234,80.0061,65.5005
55.23957,79.99878,65.49337
55.25289,79.991455,65.48601
55.266228,79.98657,65.48086
55.279564,79.98657,65.48044
55.2929,79.98657,65.48002
55.306236,79.98901,65.48204
55.319557,79.9939,65.48658
55.332893,79.99634,65.48883
55.34623,79.99634,65.488716
55.35955,80.00122,65.493484
55.372887,80.00122,65.49352
55.386223,80.00366,65.496
55.39956,80.0061,65.49856
55.412895,80.008545,65.50119
55.426216,80.008545,65.50146
55.439552,80.00366,65.49684
55.45289,79.99634,65.48963
55.46621,79.98901,65.48219
55.479546,79.98413,65.47697
55.49288,79.98413,65.47647
55.506218,79.9939,65.48574
55.519554,79.99878,65.49043
55.532875,80.00366,65.49528
55.54621,80.0061,65.49783
55.559547,80.0061,65.498024
55.57287,80.00366,65.49577
55.586205,80.00366,65.49589
55.59954,80.008545,65.500885
55.612877,80.01343,65.506035
55.626213,80.01831,65.51134
55.639534,80.02075,65.51435
55.65287,80.02075,65.515
55.666206,80.01343,65.50832
55.679527,80.0061,65.50142
55.692863,80.00122,65.49673
55.7062,80.00122,65.496765
55.719536,80.00122,65.4968
55.732872,80.00366,65.49928
55.746193,80.0061,65.50184
55.75953,80.0061,65.50203
55.772865,80.00122,65.49734
55.786186,79.9939,65.49005
55.799522,79.98657,65.48254
55.81286,79.98413,65.479675
55.826195,79.98169,65.47674
55.83953,79.98169,65.476166
55.85285,79.98657,65.48048
55.866188,79.98901,65.4825
55.879524,79.991455,65.4846
55.892845,79.9939,65.48677
55.90618,79.99634,65.48902
55.919518,79.99878,65.49135
55.932854,80.00366,65.49619
55.94619,80.008545,65.50119
55.95951,80.01587,65.50878
55.972847,80.01831,65.51172
55.986183,80.01587,65.50985
55.999504,80.008545,65.50302
56.01284,80.00366,65.498405
56.026176,80.00122,65.49608
56.039513,80.00366,65.49856
56.05285,80.008545,65.503555
56.06617,80.01099,65.50626
56.079506,80.01099,65.50661
56.092842,80.0061,65.50207
56.106163,80.00122,65.497375
56.1195,79.99634,65.49253
56.132835,79.9939,65.489975
56.14617,79.9939,65.489784
56.159508,79.99878,65.49448
56.17283,80.008545,65.5042
56.186165,80.02075,65.51668
56.1995,80.03052,65.52709
56.212822,80.028076,65.525604
56.22616,80.02075,65.51916
56.239494,80.008545,65.5076
56.25283,79.99634,65.49566
56.266167,79.98901,65.48822
56.279488,79.991455,65.49032
56.292824,79.9939,65.49249
56.30616,79.99634,65.49474
56.31948,79.99634,65.49463
56.332817,79.99878,65.496956
56.346153,80.00122,65.49936
56.35949,80.00122,65.4994
56.372826,80.00122,65.499435
56.386147,80.00122,65.49947
56.399483,79.99878,65.49707
56.41282,79.99634,65.49459
56.42614,79.99634,65.49448
56.439476,79.99634,65.49436
56.452812,79.99634,65.49425
56.46615,79.99878,65.496574
56.479485,80.00122,65.49898
56.492805,80.0061,65.5039
56.519478,80.01099,65.50924
56.5328,80.01099,65.50958
56.546135,80.01099,65.509926
56.55947,80.01099,65.51027
56.572807,80.008545,65.50817
56.586143,80.008545,65.50844
56.599464,80.0061,65.50626
56.6128,80.00366,65.50401
56.626137,80.00122,65.501686
56.639458,80.00122,65.501724
56.652794,80.00122,65.50176
56.66613,80.0061,65.50668
56.679466,80.01099,65.51176
56.692802,80.01587,65.51698
56.706123,80.01831,65.51992
56.71946,80.01587,65.51805
56.732796,80.01343,65.516106
56.746117,80.01099,65.514084
56.759453,80.008545,65.511986
56.77279,80.0061,65.50981
56.786125,80.00366,65.50756
56.79946,80.00366,65.507675
56.812782,80.0061,65.51023
56.82612,80.00366,65.50798
56.839455,80.00366,65.508095
56.852776,80.00366,65.50821
56.86611,80.00122,65.50588
56.879448,79.9939,65.4986
56.892784,79.98657,65.49108
56.90612,79.98413,65.48822
56.91944,79.98657,65.490166
56.932777,79.98901,65.49219
56.946114,79.991455,65.494286
56.959435,79.9939,65.49646
56.97277,79.99634,65.49871
56.986107,80.00122,65.50348
56.999443,80.00122,65.50352
57.01278,80.00122,65.503555
57.0261,79.99878,65.50115
57.039436,79.99634,65.49867
57.052773,79.9939,65.49612
57.066093,79.9939,65.495926
57.07943,79.9939,65.495735
57.092766,79.99634,65.497986
57.106102,79.99634,65.49787
57.11944,79.9939,65.495316
57.13276,79.99634,65.49757
57.146095,79.99878,65.49989
57.15943,80.00122,65.5023
57.172752,80.00366,65.504776
57.18609,80.0061,65.50733
57.199425,80.0061,65.50752
57.21276,80.00366,65.50527
57.226097,80.0061,65.50783
57.239418,80.008545,65.51046
57.252754,80.01099,65.51317
57.26609,80.008545,65.51107
57.27941,80.0061,65.508896
57.292747,80.00122,65.5042
57.306084,79.99634,65.49936
57.31942,79.9939,65.4968
57.332756,79.99878,65.501495
57.346077,80.00366,65.50634
57.359413,80.0061,65.508896
57.37275,80.0061,65.50909
57.38607,80.00366,65.506836
57.399406,79.99878,65.50207
57.412743,79.9939,65.49715
57.42608,79.991455,65.494514
57.439415,79.991455,65.49425
57.452736,79.991455,65.49398
57.466072,79.991455,65.49371
57.47941,79.9939,65.49589
57.49273,79.99878,65.50058
57.506065,80.0061,65.507866
57.5194,80.01343,65.51538
57.532738,80.01831,65.52068
57.546074,80.02075,65.5237
57.559395,80.02075,65.524345
57.57273,80.01587,65.52011
57.586067,80.01099,65.515724
57.59939,80.0061,65.511185
57.612724,80.00366,65.508934
57.62606,80.00366,65.50905
57.639397,80.00366,65.50916
57.652733,80.00366,65.50928
57.666054,80.008545,65.514275
57.67939,80.01343,65.519424
57.692726,80.01343,65.519844
57.706047,80.01587,65.522705
57.719383,80.02075,65.52808
57.73272,80.02075,65.52873
57.746056,80.01831,65.52694
57.75939,80.01099,65.52019
57.772713,80.0061,65.51565
57.78605,80.00366,65.5134
57.799385,80.00366,65.51351
57.812706,80.00366,65.513626
57.826042,80.0061,65.51618
57.83938,80.00366,65.51393
57.852715,79.99878,65.50916
57.86605,79.99634,65.50668
57.87937,79.99634,65.50657
57.892708,79.99878,65.508896
57.906044,80.00122,65.5113
57.919365,80.00366,65.51378
57.9327,80.00366,65.51389
57.946037,79.99878,65.509125
57.959373,79.9939,65.5042
57.97271,79.98901,65.49913
57.98603,79.98901,65.49879
57.999367,79.98901,65.49844
58.012703,79.991455,65.50054
58.026024,79.991455,65.500275
58.03936,79.991455,65.50001
58.052696,79.98901,65.4973
58.066032,79.98901,65.496956
58.07937,79.99634,65.50394
58.09269,80.00366,65.51115
58.106026,80.01099,65.518585
58.11936,80.01831,65.52625
58.132683,80.02319,65.53171
58.14602,80.01831,65.52755
58.159355,80.01587,65.52568
58.17269,80.01343,65.523735
58.186028,80.01099,65.52171
58.19935,80.0061,65.51717
58.212685,80.00122,65.51248
58.22602,79.99878,65.51008
58.23934,79.99878,65.51004
58.252678,80.00366,65.514885
58.266014,80.008545,65.51988
58.27935,80.01099,65.52259
58.292686,80.01099,65.522934
58.306007,80.01099,65.52328
58.319344,80.0061,65.51874
58.33268,80.00122,65.514046
58.346,79.99634,65.5092
58.359337,79.991455,65.5042
58.372673,79.98657,65.499054
58.38601,79.98413,65.49619
58.399345,79.98901,65.50058
58.412666,79.99634,65.50756
58.426003,80.0061,65.51721
58.43934,80.01587,65.52717
58.45266,80.02319,65.53499
58.465996,80.025635,65.538155
58.479332,80.02319,65.536514
58.49267,80.01587,65.529915
58.506004,80.008545,65.52309
58.519325,80.00122,65.51603
58.53266,79.99634,65.511185
58.545998,79.99634,65.51107
58.55932,80.00122,65.51584
58.572655,80.0061,65.52076
58.58599,80.01343,65.528275
58.599327,80.01831,65.53358
58.612663,80.01831,65.53415
58.625984,80.01587,65.53228
58.63932,80.01099,65.52789
58.652657,80.00366,65.52091
58.665977,79.9939,65.51126
58.679314,79.98901,65.50619
58.69265,79.98657,65.5034
58.705986,79.98901,65.505424
58.719322,79.991455,65.50752
58.732643,79.9939,65.5097
58.74598,79.99634,65.51195
58.759315,79.99878,65.514275
58.772636,79.99878,65.51424
58.785973,79.99634,65.51176
58.79931,79.99878,65.514084
58.812645,80.00122,65.51649
58.82598,80.0061,65.52141
58.839302,80.01099,65.52648
58.85264,80.01587,65.53171
58.865974,80.01831,65.534645
58.879295,80.01831,65.53522
58.89263,80.01343,65.53091
58.905968,80.01099,65.528885
58.919304,80.0061,65.524345
58.93264,80.00366,65.522095
58.94596,80.00366,65.52221
58.959297,80.00366,65.52232
58.972633,79.99878,65.517555
58.985954,79.991455,65.51019
58.99929,79.98657,65.50504
59.012627,79.98169,65.49974
59.025963,79.97925,65.49673
59.0393,79.97681,65.49364
59.05262,79.97681,65.49291
59.065956,79.97925,65.49463
59.079292,79.97681,65.49154
59.092613,79.974365,65.48837
59.10595,79.974365,65.48757
59.119286,79.97925,65.49165
59.13262,79.98413,65.49589
59.145958,79.991455,65.502716
59.15928,79.99878,65.50977
59.172615,80.00122,65.51218
59.18595,80.00122,65.512215
59.199272,79.99878,65.50981
59.21261,79.99878,65.50977
59.225945,80.00122,65.51218
59.23928,80.0061,65.5171
59.252617,80.008545,65.51973
59.265938,80.01099,65.52244
59.279274,80.01099,65.52278
59.29261,80.008545,65.52068
59.30593,80.00366,65.51607
59.319267,80.00366,65.51618
59.332603,80.00366,65.5163
59.34594,80.0061,65.51885
59.359276,80.0061,65.51904
59.372597,80.008545,65.521675
59.385933,80.008545,65.52194
59.39927,80.0061,65.51977
59.41259,80.00122,65.515076
59.425926,79.99634,65.51023
59.439262,79.991455,65.50523
59.4526,79.98901,65.502525
59.465935,79.98901,65.50218
59.479256,79.991455,65.50428
59.49259,79.99634,65.508896
59.505928,80.00122,65.513664
59.51925,80.00366,65.51614
59.532585,80.008545,65.52114
59.54592,80.008545,65.52141
59.559258,80.008545,65.521675
59.572594,80.008545,65.52194
59.585915,80.0061,65.51977
59.59925,80.00122,65.515076
59.612587,79.9939,65.50779
59.625908,79.98901,65.502716
59.639244,79.98413,65.49749
59.65258,79.98413,65.496994
59.665916,79.98901,65.50138
59.679253,79.9939,65.50592
59.692574,79.99878,65.51061
59.70591,80.00366,65.51546
59.719246,80.0061,65.51801
59.732567,80.0061,65.5182
59.745903,80.0061,65.518394
59.75924,80.0061,65.518585
59.772575,80.008545,65.52122
59.78591,80.01099,65.523926
59.799232,80.01587,65.52915
59.81257,80.01831,65.53209
59.825905,80.01831,65.53266
59.839226,80.01343,65.52835
59.852562,80.00366,65.519005
59.8659,79.99634,65.511795
59.879234,79.991455,65.5068
59.89257,79.9939,65.50897
59.90589,79.99634,65.51122
59.919228,80.00122,65.51599
59.932564,80.008545,65.52335
59.945885,80.01587,65.530945
59.95922,80.01831,65.53388
59.972557,80.02319,65.53934
59.985893,80.02075,65.53762
59.99923,80.01587,65.53339
60.01255,80.008545,65.52656
60.025887,80.00366,65.52194
60.039223,79.99878,65.51717
60.052544,79.99878,65.517136
60.06588,80.00122,65.51954
60.079216,80.00366,65.52202
60.092552,80.0061,65.524574
60.10589,80.01099,65.52965
60.11921,80.01587,65.534874
60.132545,80.01831,65.53781
60.14588,80.01831,65.53838
60.159203,80.01831,65.538956
60.17254,80.01587,65.53709
60.185875,80.01099,65.5327
60.19921,80.0061,65.52816
60.212547,80.00122,65.52347
60.22587,79.99634,65.51862
60.239204,79.98901,65.511185
60.25254,79.98413,65.50596
60.26586,79.98413,65.50546
60.279198,79.98657,65.50741
60.292534,79.991455,65.51187
60.30587,79.99878,65.51893
60.319206,80.0061,65.526215
60.332527,80.008545,65.52885
60.345863,80.008545,65.52911
60.3592,80.008545,65.52938
60.37252,80.01099,65.53209
60.385857,80.01343,65.534874
60.399193,80.01343,65.53529
60.41253,80.01099,65.53327
60.425865,80.0061,65.52873
60.439186,80.00122,65.52404
60.452522,79.99634,65.519196
60.46586,79.99634,65.51908
60.47918,80.00122,65.52385
60.492516,80.00366,65.52633
60.50585,80.00366,65.52644
60.519188,80.00122,65.52412
60.532524,79.99878,65.52171
60.545845,79.99634,65.51923
60.55918,79.99634,65.51912
60.572517,79.99878,65.52145
60.58584,80.00122,65.52385
60.599174,80.00122,65.52389
60.61251,79.99878,65.521484
60.625847,79.99634,65.519005
60.639183,79.991455,65.51401
60.652504,79.98901,65.5113
60.66584,79.98657,65.508514
60.679176,79.98901,65.51054
60.692497,79.98901,65.51019
60.705833,79.9939,65.51473
60.71917,80.00122,65.521866
60.732506,80.0061,65.52679
60.745842,80.008545,65.52942
60.759163,80.01099,65.53213
60.7725,80.01099,65.53247
60.785835,80.0061,65.52793
60.799156,80.00122,65.52324
60.812492,79.99878,65.520836
60.82583,79.99634,65.51836
60.839165,79.9939,65.5158
60.8525,79.99634,65.51805
60.86582,79.99878,65.52038
60.879158,80.00122,65.52278
60.892494,80.00122,65.52282
60.905815,79.99878,65.52042
60.91915,79.9939,65.515495
60.932487,79.98657,65.50798
60.945824,79.98169,65.50268
60.95916,79.97925,65.499664
60.97248,79.98169,65.50146
60.985817,79.98901,65.50821
60.999153,79.9939,65.51275
61.012474,79.9939,65.51256
61.02581,79.991455,65.509926
61.039146,79.98657,65.504776
61.052483,79.98413,65.501915
61.06582,79.98169,65.49898
61.07914,79.98657,65.50329
61.092476,79.991455,65.50775
61.105812,79.99878,65.51481
61.119133,80.00366,65.51965
61.13247,80.0061,65.52221
61.145805,80.00366,65.51996
61.15914,80.00122,65.51763
61.172478,79.99878,65.51523
61.1858,80.00122,65.51763
61.199135,80.0061,65.52255
61.21247,80.01343,65.53007
61.225792,80.02075,65.53781
61.23913,80.02075,65.53846
61.252464,80.01831,65.53667
61.2658,80.01587,65.5348
61.279137,80.01099,65.53041
61.292458,80.00122,65.52099
61.305794,79.9939,65.5137
61.31913,79.98901,65.50863
61.33245,79.98901,65.508286
61.345787,79.991455,65.51038
61.359123,79.9939,65.51256
61.37246,79.99878,65.51725
61.385796,80.00122,65.51965
61.399117,80.00122,65.51969
61.412453,80.00122,65.51973
61.42579,80.00366,65.52221
61.43911,80.0061,65.524765
61.452446,80.0061,65.524956
61.465782,80.0061,65.52515
61.47912,80.00122,65.520454
61.492455,79.99634,65.51561
61.505775,79.9939,65.513054
61.51911,79.9939,65.51286
61.532448,79.99634,65.515114
61.54577,80.00122,65.51988
61.559105,80.0061,65.5248
61.57244,80.008545,65.527435
61.585777,80.01099,65.53014
61.599113,80.01099,65.53049
61.612434,80.0061,65.52595
61.62577,80.00366,65.5237
61.639107,80.00366,65.52381
61.652428,80.00366,65.523926
61.665764,80.00122,65.5216
61.6791,80.00122,65.52164
61.692436,80.00366,65.52412
61.705772,80.00366,65.52423
61.719093,80.00122,65.521904
61.73243,80.00122,65.52194
61.745766,80.00122,65.52198
61.759087,80.00366,65.52446
61.772423,80.008545,65.52946
61.78576,80.01343,65.53461
61.799095,80.01831,65.53991
61.81243,80.01831,65.54048
61.825752,80.01587,65.53861
61.83909,80.01099,65.534225
61.852425,80.0061,65.529686
61.865746,80.00122,65.524994
61.87908,79.99634,65.52015
61.892418,79.991455,65.51515
61.905754,79.98901,65.51244
61.91909,79.98901,65.5121
61.93241,79.991455,65.5142
61.945747,79.99634,65.518814
61.959084,80.0061,65.528465
61.972404,80.01587,65.53842
61.98574,80.01831,65.54136
61.999077,80.01831,65.54193
62.012413,80.01831,65.5425
62.02575,80.01587,65.540634
62.03907,80.01587,65.54113
62.052406,80.01831,65.54407
62.065742,80.02075,65.54708
62.079063,80.01831,65.54529
62.0924,80.01587,65.54342
62.105736,80.01343,65.54147
62.119072,80.01343,65.54189
62.13241,80.01099,65.53987
62.14573,80.0061,65.53533
62.159065,80.00122,65.53064
62.1724,79.9939,65.52335
62.185722,79.98657,65.51584
62.19906,79.98413,65.51298
62.212395,79.98169,65.51004
62.22573,79.98413,65.51191
62.239067,79.991455,65.51874
62.252388,79.99878,65.525795
62.265724,80.00366,65.53064
62.27906,80.0061,65.533195
62.29238,80.0061,65.53339
62.305717,80.00122,65.528694
62.319054,79.99634,65.52385
62.33239,79.991455,65.51885
62.345726,79.98901,65.51614
62.359047,79.991455,65.51824
62.372383,79.99878,65.5253
62.38572,80.00366,65.53014
62.39904,80.008545,65.53514
62.412376,80.008545,65.53541
62.425713,80.00366,65.53079
62.43905,79.99634,65.52358
62.452385,79.9939,65.52103
62.465706,79.9939,65.520836
62.479042,79.99634,65.52309
62.49238,79.99634,65.52297
62.5057,79.9939,65.52042
62.519035,79.991455,65.517784
62.53237,79.991455,65.51752
62.545708,79.98657,65.51237
62.559044,79.98413,65.50951
62.572365,79.98413,65.50901
62.5857,79.98413,65.508514
62.599037,79.98657,65.51046
62.61236,79.991455,65.51492
62.625694,79.991455,65.514656
62.63903,79.991455,65.51439
62.652367,79.9939,65.51656
62.665703,79.99634,65.518814
62.679024,79.99878,65.52114
62.69236,80.00122,65.523544
62.705696,80.00366,65.526024
62.719017,80.00122,65.5237
62.732353,79.99634,65.51885
62.74569,79.9939,65.5163
62.759026,79.99634,65.51855
62.77236,80.00122,65.523315
62.785683,80.0061,65.52824
62.79902,80.01099,65.53331
62.812355,80.01831,65.54098
62.825676,80.02319,65.54643
62.839012,80.01831,65.542274
62.85235,80.01587,65.540405
62.865685,80.01343,65.53846
62.87902,80.01099,65.53644
62.89234,80.0061,65.5319
62.905678,80.0061,65.53209
62.919014,80.00366,65.52984
62.932335,80.00366,65.52995
62.94567,80.00122,65.527626
62.959007,80.00122,65.527664
62.972343,80.00122,65.5277
62.98568,80.00366,65.53018
62.999,80.0061,65.53274
63.012337,80.008545,65.53537
63.025673,80.01099,65.53808
63.038994,80.01343,65.54086
63.05233,80.01099,65.53884
63.065666,80.008545,65.53674
63.079002,80.00366,65.53213
63.09234,79.99878,65.52736
63.10566,79.9939,65.52244
63.118996,79.98901,65.517365
63.13233,79.98413,65.51214
63.145653,79.97681,65.50432
63.15899,79.96948,65.49627
63.172325,79.96704,65.492874
63.18566,79.971924,65.49673
63.198997,79.97925,65.503174
63.21232,79.98901,65.51229
63.225655,79.99878,65.52171
63.23899,80.0061,65.529
63.25231,80.01099,65.53407
63.265648,80.01099,65.53442
63.278984,80.01099,65.53476
63.29232,80.008545,65.53266
63.305656,80.00366,65.528046
63.318977,79.99878,65.52328
63.332314,79.9939,65.51836
63.34565,79.9939,65.518166
63.35897,79.99634,65.52042
63.372307,79.99878,65.52274
63.385643,80.00122,65.52515
63.39898,80.0061,65.53007
63.412315,80.0061,65.53026
63.425636,80.0061,65.53045
63.438972,80.0061,65.53064
63.45231,80.008545,65.53327
63.46563,80.008545,65.53354
63.478966,80.008545,65.533806
63.492302,80.0061,65.53163
63.50564,80.00366,65.52938
63.518974,80.00366,65.529495
63.532295,80.0061,65.53205
63.54563,80.0061,65.53224
63.558968,80.0061,65.53243
63.57229,80.0061,65.53262
63.585625,80.00366,65.53037
63.59896,80.00122,65.528046
63.612297,80.00366,65.530525
63.625633,80.0061,65.53308
63.638954,80.008545,65.53571
63.65229,80.008545,65.53598
63.665627,80.0061,65.533806
63.678947,79.99878,65.52667
63.692284,79.99634,65.52419
63.70562,79.99634,65.52408
63.718956,80.00122,65.52885
63.732292,80.0061,65.53377
63.745613,80.008545,65.5364
63.75895,80.01099,65.53911
63.772285,80.01099,65.53945
63.785606,80.008545,65.53735
63.798943,80.0061,65.53518
63.81228,80.00366,65.53293
63.825615,80.00122,65.5306
63.83895,79.99878,65.5282
63.852272,79.99634,65.52572
63.86561,79.9939,65.52316
63.878944,79.9939,65.52297
63.892265,79.9939,65.52278
63.9056,79.99634,65.52503
63.918938,80.00366,65.53224
63.932274,80.01099,65.53968
63.94561,80.01343,65.542465
63.95893,80.01343,65.542885
63.972267,80.01099,65.54086
63.985603,80.00366,65.53388
63.998924,79.99878,65.52911
64.01226,79.99878,65.529076
64.0256,80.00122,65.53148
64.03893,80.00366,65.53396
64.05227,80.0061,65.536514
64.06559,80.008545,65.53915
64.078926,80.0061,65.53697
64.09226,80.00122,65.53228
64.10558,79.99634,65.527435
64.11892,79.991455,65.52244
64.132256,79.98901,65.51973
64.14559,79.98901,65.51939
64.15893,79.991455,65.521484
64.17225,79.99634,65.5261
64.185585,79.99878,65.52843
64.19892,79.99878,65.52839
64.21224,79.99634,65.52591
64.22558,79.9939,65.52335
64.238914,79.991455,65.52072
64.25225,79.98901,65.51801
64.26559,79.98657,65.51523
64.27891,79.98657,65.51481
64.292244,79.991455,65.51927
64.30558,79.99634,65.52389
64.3189,80.00122,65.528656
64.33224,80.0061,65.53358
64.34557,80.01099,65.53865
64.35891,80.01099,65.538994
64.372246,80.01099,65.53934
64.38557,80.01099,65.53968
64.3989,80.01099,65.54002
64.41224,80.0061,65.535484
64.42556,80.00122,65.53079
64.438896,79.99634,65.52595
64.45223,79.991455,65.52095
64.46557,79.98901,65.51824
64.478905,79.98901,65.5179
64.492226,79.991455,65.52
64.50556,79.9939,65.52217
64.5189,79.9939,65.52198
64.53222,79.9939,65.52179
64.545555,79.9939,65.5216
64.55889,79.99634,65.52385
64.57223,79.99878,65.52618
64.58556,80.00366,65.53102
64.598885,80.0061,65.53358
64.61222,80.0061,65.53377
64.62556,80.0061,65.53396
64.63888,80.0061,65.53415
64.652214,80.00366,65.5319
64.66555,80.00366,65.53201
64.67889,80.00122,65.529686
64.69222,79.99634,65.52484
64.70554,79.9939,65.522285
64.71888,79.9939,65.522095
64.732216,79.99634,65.524345
64.74554,80.00122,65.52911
64.75887,80.00366,65.53159
64.77221,80.00366,65.53171
64.785545,80.00366,65.53182
64.79888,80.00366,65.53194
64.8122,80.00122,65.52961
64.82554,79.99878,65.52721
64.838875,79.99878,65.52717
64.852196,79.99878,65.52713
64.86553,80.00122,65.52953
64.87887,80.00366,65.53201
64.892204,80.0061,65.53457
64.90554,80.01099,65.53964
64.91886,80.01343,65.54243
64.9322,80.008545,65.537964
64.94553,80.0061,65.53579
64.958855,80.00366,65.53354
64.97219,79.99878,65.52877
64.98553,79.99634,65.52629
64.99886,79.99634,65.52618
65.0122,79.991455,65.52118
65.02552,79.98413,65.51359
65.03886,79.97925,65.50821
65.05219,79.97681,65.50512
65.06551,79.97925,65.506836
65.07885,79.98413,65.51107
65.092186,79.991455,65.5179
65.10552,79.99634,65.522514
65.11886,79.99634,65.5224
65.13218,79.9939,65.519844
65.145515,79.9939,65.51965
65.15885,79.99634,65.521904
65.17217,79.99878,65.52423
65.18551,80.00366,65.529076
65.198845,80.0061,65.53163
65.21218,80.008545,65.53426
65.22552,80.008545,65.53453
65.23884,80.0061,65.53236
65.252174,80.00122,65.527664
65.26551,79.99634,65.52282
65.27883,79.9939,65.52026
65.29217,79.991455,65.51763
65.305504,79.991455,65.517365
65.31884,79.9939,65.51954
65.33218,79.99878,65.52423
65.3455,80.00122,65.526634
65.35883,80.0061,65.531555
65.37217,80.008545,65.53419
65.38549,80.01099,65.536896
65.39883,80.01343,65.53968
65.41216,80.01587,65.54254
65.4255,80.01099,65.538155
65.438835,80.008545,65.53606
65.452156,80.00366,65.53144
65.46549,79.99878,65.52667
65.47883,79.9939,65.52175
65.49215,79.9939,65.52156
65.505486,79.99634,65.52381
65.51882,79.99878,65.52614
65.53216,79.99878,65.5261
65.545494,80.00122,65.5285
65.558815,80.00122,65.52854
65.57215,79.99878,65.52614
65.58549,79.99634,65.52366
65.59881,79.9939,65.5211
65.612144,79.98901,65.51603
65.62548,79.98901,65.515686
65.63882,79.99634,65.52267
65.65215,80.00122,65.527435
65.665474,80.00366,65.529915
65.67881,80.008545,65.53491
65.69215,80.01099,65.53762
65.70547,80.01343,65.540405
65.7188,80.01587,65.54327
65.73214,80.01831,65.5462
65.745476,80.01831,65.546776
65.75881,80.01343,65.542465
65.77213,80.008545,65.538
65.78547,80.00122,65.530945
65.798805,79.99634,65.5261
65.812126,79.991455,65.5211
65.82546,79.98657,65.51595
65.8388,79.98413,65.51309
65.852135,79.98901,65.51748
65.86547,79.9939,65.52202
65.87879,80.00122,65.52915
65.89213,80.008545,65.536514
65.905464,80.01343,65.541664
65.918785,80.01831,65.54697
65.93212,80.01831,65.54754
65.94546,80.01831,65.54811
65.95879,80.01587,65.54624
65.97213,80.01587,65.54674
65.98545,80.008545,65.53991
65.99879,80.00366,65.53529
66.01212,79.99878,65.530525
66.025444,79.99634,65.528046
66.03878,79.9939,65.52549
66.05212,79.99634,65.52774
66.06545,79.99878,65.53007
66.07879,80.00122,65.53247
66.09211,80.00122,65.53251
66.105446,80.00122,65.53255
66.11878,80.00122,65.532585
66.1321,79.99878,65.53018
66.14544,79.9939,65.52526
66.158775,79.991455,65.52263
66.17211,79.98901,65.51992
66.18545,79.98657,65.517136
66.19877,79.98413,65.514275
66.212105,79.98657,65.51622
66.22544,79.991455,65.52068
66.23876,79.99634,65.5253
66.2521,80.00122,65.53007
66.265434,80.00366,65.53255
66.27877,80.00366,65.53266
66.29211,80.0061,65.53522
66.30543,80.008545,65.53785
66.31876,80.01099,65.54056
66.3321,80.01587,65.545784
66.34542,80.02075,65.55116
66.35876,80.01831,65.54937
66.37209,80.01587,65.5475
66.38543,80.01099,65.54311
66.398766,80.0061,65.538574
66.41209,80.00366,65.53632
66.42542,79.99878,65.531555
66.43876,79.9939,65.526634
66.45208,79.991455,65.524
66.465416,79.9939,65.52618
66.47875,79.99634,65.52843
66.49209,80.00122,65.533195
66.505424,80.00366,65.535675
66.518745,80.0061,65.53823
66.53208,80.00366,65.53598
66.54542,79.99878,65.53121
66.55874,79.9939,65.52629
66.572075,79.99634,65.52854
66.58541,80.00122,65.53331
66.59875,80.0061,65.53823
66.61208,80.01099,65.543304
66.625404,80.01587,65.54853
66.63874,80.01831,65.55147
66.65208,80.01099,65.544716
66.6654,80.0061,65.54018
66.678734,80.00122,65.535484
66.69207,80.00122,65.53552
66.70541,80.00366,65.538
66.71874,80.01099,65.54544
66.73206,80.01831,65.55311
66.7454,80.025635,65.561005
66.758736,80.028076,65.56425
66.77206,80.03052,65.567566
66.78539,80.03052,65.56852
66.79873,80.028076,65.56703
66.812065,80.028076,65.56791
66.8254,80.02319,65.5639
66.83872,80.01831,65.559746
66.85206,80.01587,65.55788
66.865395,80.01343,65.55593
66.878716,80.01099,65.55391
66.89205,80.0061,65.54937
66.90539,80.0061,65.54956
66.918724,80.0061,65.54975
66.93206,80.0061,65.54994
66.94538,80.00366,65.54769
66.95872,80.00122,65.545364
66.97205,79.99634,65.54052
66.985374,79.9939,65.537964
66.99871,79.9939,65.53777
67.01205,79.99634,65.54002
67.02538,79.99878,65.54235
67.03872,79.97925,65.52278
67.05204,79.89624,65.439125
67.06538,79.71557,65.25521
67.07871,79.45922,64.989975
67.09203,79.23216,64.74602
67.10537,79.132065,64.621925
67.118706,79.200424,64.66316
67.13204,79.40795,64.8457
67.14538,79.68871,65.10796
67.1587,79.923096,65.33262
67.172035,80.028076,65.435196
67.18537,80.00122,65.40922
67.19869,79.92798,65.33601
67.21203,79.86694,65.27273
67.225365,79.83276,65.23439
67.2387,79.83276,65.229164
67.25204,79.86206,65.253235
67.26536,79.90112,65.28799
67.278694,79.94751,65.33128
67.29203,79.991455,65.37359
67.30535,80.04028,65.42215
67.31869,80.09155,65.47468
67.33202,80.130615,65.5166
67.34536,80.15015,65.540215
67.358696,80.15259,65.54735
67.37202,80.12573,65.52526
67.38535,80.059814,65.46327
67.39869,79.9646,65.36993
67.41201,79.84741,65.25163
67.42535,79.73022,65.12967
67.43868,79.64721,65.03823
67.45202,79.62524,65.00523
67.465355,79.67162,65.03991
67.478676,79.766846,65.12487
67.49201,79.869385,65.22012
67.50535,79.937744,65.2844
67.51867,79.94995,65.29466
67.532005,79.91089,65.254036
67.54534,79.84741,65.187775
67.55868,79.79614,65.13174
67.572014,79.7937,65.122925
67.585335,79.85474,65.17751
67.59867,79.9646,65.28284
67.61201,80.06714,65.38427
67.62533,80.08179,65.40102
67.638664,79.95239,65.27418
67.652,79.67162,64.99192
67.66534,79.26635,64.576385
67.67867,78.80736,64.09447
67.69199,78.38987,63.63971
67.70533,78.08957,63.289093
67.718666,77.925995,63.06582
67.73199,77.88449,62.959503
67.74532,77.93088,62.93978
67.75866,78.030975,62.97522
67.771996,78.15793,63.04064
67.78533,78.3093,63.134453
67.79865,78.49485,63.267166
67.81199,78.729225,63.454506
67.825325,79.05394,63.73951
67.838646,79.500725,64.15673
67.85198,80.03784,64.678246
67.86532,80.601814,65.2434
67.878654,81.11452,65.77491
67.89199,81.50271,66.19793
67.90531,81.71999,66.46217
67.91865,81.77615,66.57208
67.931984,81.72732,66.57875
67.945305,81.64675,66.55216
67.95864,81.58572,66.54259
67.97198,81.549095,66.55552
67.98531,81.532005,66.58684
67.99865,81.529564,66.63227
68.01197,81.52468,66.675186
68.02531,81.50271,66.70086
68.03864,81.45632,66.70143
68.05196,81.375755,66.666374
68.0653,81.26345,66.59706
68.078636,81.12184,66.494934
68.09197,80.94362,66.35177
68.10531,80.72877,66.166405
68.11863,80.49195,65.95236
68.131966,80.24048,65.71626
68.1453,79.99878,65.48208
68.15862,79.80347,65.28673
68.17196,79.68139,65.15851
68.185295,79.63256,65.099724
68.19863,79.639885,65.095566
68.21197,79.68383,65.12826
