"","Time..s.","PPG.trace","Preprocessed.PPG"
"64090",865.2085,79.293205,131.2472
"64091",865.2218,79.31274,131.24463
"64092",865.2351,79.33959,131.25
"64093",865.2484,79.37133,131.2611
"64094",865.2617,79.40307,131.27318
"64095",865.275,79.429924,131.28137
"64096",865.2883,79.449455,131.28308
"64097",865.30164,79.4641,131.28052
"64098",865.31494,79.46899,131.26865
"64099",865.32825,79.46899,131.25204
"64100",865.34155,79.466545,131.233
"64101",865.35486,79.46166,131.21144
"64102",865.36816,79.45678,131.18973
"64103",865.3815,79.45434,131.1703
"64104",865.3948,79.45434,131.15324
"64105",865.4081,79.45678,131.13863
"64106",865.4214,79.46166,131.12653
"64107",865.4347,79.4641,131.11214
"64108",865.448,79.466545,131.09782
"64109",865.4613,79.466545,131.08115
"64110",865.4746,79.46166,131.05959
"64111",865.4879,79.449455,131.03055
"64112",865.5012,79.429924,130.9938
"64113",865.5145,79.41039,130.95645
"64114",865.52783,79.3933,130.92093
"64115",865.54114,79.381096,130.88976
"64116",865.55444,79.381096,130.8704
"64117",865.56775,79.38842,130.85838
"64118",865.58105,79.398186,130.84903
"64119",865.59436,79.412834,130.84486
"64120",865.60767,79.429924,130.8436
"64121",865.621,79.4519,130.84775
"64122",865.6343,79.47387,130.85258
"64123",865.6476,79.49584,130.85811
"64124",865.6609,79.5227,130.8692
"64125",865.6742,79.55932,130.8909
"64126",865.6875,79.64233,130.96013
"64127",865.7008,79.81079,131.11742
"64128",865.7141,80.10864,131.40936
"64129",865.7274,80.53101,131.83513
"64130",865.7407,81.04616,132.36687
"64131",865.754,81.57351,132.92691
"64132",865.76733,82.01785,133.42043
"64133",865.78064,82.29374,133.75937
"64134",865.79395,82.36698,133.9043
"64135",865.80725,82.24002,133.8513
"64136",865.82056,81.969025,133.65031
"64137",865.83386,81.61013,133.35295
"64138",865.84717,81.234146,133.02728
"64139",865.8605,80.89235,132.72406
"64140",865.8738,80.62623,132.48582
"64141",865.8871,80.45045,132.32962
"64142",865.9004,80.365,132.25826
"64143",865.9137,80.35279,132.25746
"64144",865.927,80.37965,132.29535
"64145",865.9403,80.396736,132.32431
"64146",865.9536,80.38209,132.32207
"64147",865.9669,80.32838,132.2803
"64148",865.9802,80.255135,132.21733
"64149",865.9935,80.18921,132.15938
"64150",866.00684,80.15991,132.13599
"64151",866.02014,80.16724,132.14832
"64152",866.03345,80.20386,132.19016
"64153",866.04675,80.2478,132.24048
"64154",866.06006,80.27955,132.27997
"64155",866.07336,80.28687,132.29604
"64156",866.0867,80.26734,132.28548
"64157",866.1,80.218506,132.245
"64158",866.1133,80.15015,132.18347
"64159",866.1266,80.059814,132.09784
"64160",866.1399,79.95239,131.99228
"64161",866.1532,79.83765,131.87604
"64162",866.1665,79.727776,131.7611
"64163",866.1798,79.622795,131.6476
"64164",866.1931,79.534904,131.54791
"64165",866.2064,79.46899,131.46745
"64166",866.2197,79.42748,131.40935
"64167",866.23303,79.40307,131.36703
"64168",866.24634,79.3933,131.33861
"64169",866.25964,79.3933,131.31964
"64170",866.27295,79.40551,131.31288
"64171",866.28625,79.42504,131.31383
"64172",866.29956,79.449455,131.32027
"64173",866.31287,79.47631,131.32991
"64174",866.3262,79.49828,131.33551
"64175",866.3395,79.51537,131.33691
"64176",866.3528,79.52514,131.33153
"64177",866.3661,79.53246,131.324
"64178",866.3794,79.534904,131.31183
"64179",866.3927,79.53246,131.29485
"64180",866.406,79.53246,131.28023
"64181",866.4193,79.534904,131.26805
"64182",866.4326,79.53979,131.25839
"64183",866.4459,79.54711,131.25133
"64184",866.4592,79.554436,131.24449
"64185",866.47253,79.554436,131.23056
"64186",866.48584,79.54711,131.2093
"64187",866.49915,79.53246,131.1805
"64188",866.51245,79.50805,131.14146
"64189",866.52576,79.47875,131.09679
"64190",866.53906,79.45434,131.05608
"64191",866.55237,79.43481,131.01949
"64192",866.5657,79.41772,130.98473
"64193",866.579,79.40551,130.95432
"64194",866.5923,79.39086,130.92108
"64195",866.6056,79.378654,130.88983
"64196",866.6189,79.36889,130.86064
"64197",866.6322,79.36645,130.83847
"64198",866.6455,79.37133,130.82355
"64199",866.6588,79.38842,130.82098
"64200",866.6721,79.42016,130.8336
"64201",866.6854,79.483635,130.87895
"64202",866.6987,79.61791,130.99709
"64203",866.71204,79.869385,131.23662
"64204",866.72534,80.25269,131.61584
"64205",866.73865,80.74586,132.11691
"64206",866.75195,81.287865,132.68224
"64207",866.76526,81.7908,133.22542
"64208",866.77856,82.16922,133.6598
"64209",866.7919,82.354774,133.91315
"64210",866.8052,82.34501,133.97697
"64211",866.8185,82.16434,133.86958
"64212",866.8318,81.8616,133.63449
"64213",866.8451,81.50027,133.33133
"64214",866.8584,81.143814,133.02176
"64215",866.8717,80.833755,132.74745
"64216",866.885,80.604256,132.544
"64217",866.8983,80.46021,132.41885
"64218",866.9116,80.40162,132.37465
"64219",866.9249,80.40406,132.38965
"64220",866.93823,80.428474,132.4267
"64221",866.95154,80.43824,132.44986
"64222",866.96484,80.41627,132.44159
"64223",866.97815,80.35279,132.39113
"64224",866.99146,80.272224,132.3216
"64225",867.00476,80.19653,132.25441
"64226",867.01807,80.15991,132.22394
"64227",867.0314,80.16724,132.23627
"64228",867.0447,80.2063,132.28055
"64229",867.058,80.255135,132.33583
"64230",867.0713,80.291756,132.38043
"64231",867.0846,80.29664,132.39444
"64232",867.0979,80.2649,132.37198
"64233",867.1112,80.20386,132.31921
"64234",867.1245,80.11841,132.24014
"64235",867.1378,80.02319,132.14862
"64236",867.1511,79.91333,132.03949
"64237",867.1644,79.80591,131.92935
"64238",867.17773,79.70092,131.8183
"64239",867.19104,79.603264,131.71129
"64240",867.20435,79.517815,131.61343
"64241",867.21765,79.4519,131.53244
"64242",867.23096,79.40063,131.46404
"64243",867.24426,79.36645,131.41112
"64244",867.25757,79.34203,131.3669
"64245",867.2709,79.327385,131.33168
"64246",867.2842,79.3225,131.30577
"64247",867.2975,79.327385,131.28947
"64248",867.3108,79.34203,131.2831
"64249",867.3241,79.364006,131.2845
"64250",867.3374,79.39086,131.29147
"64251",867.3507,79.42016,131.30173
"64252",867.364,79.449455,131.3129
"64253",867.3773,79.47387,131.3201
"64254",867.3906,79.49096,131.32074
"64255",867.40393,79.49584,131.30971
"64256",867.41724,79.4934,131.2915
"64257",867.43054,79.48119,131.26346
"64258",867.44385,79.466545,131.23259
"64259",867.45715,79.4519,131.20126
"64260",867.47046,79.43725,131.16948
"64261",867.48376,79.42748,131.14212
"64262",867.4971,79.42016,131.1169
"64263",867.5104,79.415276,131.09389
"64264",867.5237,79.40307,131.0634
"64265",867.537,79.38842,131.03009
"64266",867.5503,79.37133,130.99388
"64267",867.5636,79.3518,130.9547
"64268",867.5769,79.33227,130.9149
"64269",867.5902,79.31762,130.87938
"64270",867.6035,79.310295,130.85072
"64271",867.6168,79.30785,130.82672
"64272",867.6301,79.31274,130.80997
"64273",867.64343,79.3225,130.79825
"64274",867.65674,79.33471,130.78928
"64275",867.67004,79.3518,130.78557
"64276",867.68335,79.36645,130.77995
"64277",867.69666,79.381096,130.7748
"64278",867.70996,79.3933,130.76765
"64279",867.72327,79.40063,130.75601
"64280",867.7366,79.412834,130.74948
"64281",867.7499,79.447014,130.7653
"64282",867.7632,79.53979,130.84079
"64283",867.7765,79.73998,131.0266
"64284",867.7898,80.079346,131.35783
"64285",867.8031,80.55543,131.8364
"64286",867.8164,81.11452,132.41284
"64287",867.8297,81.671165,133.00432
"64288",867.843,82.127716,133.51309
"64289",867.8563,82.4036,133.85547
"64290",867.8696,82.476845,134.00383
"64291",867.88293,82.354774,133.95917
"64292",867.89624,82.091095,133.76907
"64293",867.90955,81.74197,133.48529
"64294",867.92285,81.373314,133.17108
"64295",867.93616,81.03151,132.8722
"64296",867.94946,80.75807,132.631
"64297",867.96277,80.570076,132.46669
"64298",867.9761,80.4773,132.39174
"64299",867.9894,80.45777,132.38713
"64300",868.0027,80.479744,132.42342
"64301",868.016,80.51392,132.4726
"64302",868.0293,80.52369,132.49843
"64303",868.0426,80.499275,132.49039
"64304",868.0559,80.4358,132.44252
"64305",868.0692,80.35279,132.37314
"64306",868.0825,80.26246,132.29384
"64307",868.0958,80.19653,132.23611
"64308",868.10913,80.15747,132.20319
"64309",868.12244,80.14526,132.19589
"64310",868.13574,80.14526,132.20044
"64311",868.14905,80.14526,132.20499
"64312",868.16235,80.14038,132.20465
"64313",868.17566,80.11597,132.18463
"64314",868.18896,80.07202,132.14432
"64315",868.2023,80.01587,132.09042
"64316",868.2156,79.94995,132.025
"64317",868.2289,79.87427,131.94775
"64318",868.2422,79.78882,131.85837
"64319",868.2555,79.7058,131.76875
"64320",868.2688,79.62035,131.6741
"64321",868.2821,79.53246,131.57434
"64322",868.2954,79.447014,131.47427
"64323",868.3087,79.36889,131.37886
"64324",868.322,79.30053,131.29077
"64325",868.3353,79.2517,131.22008
"64326",868.34863,79.22972,131.17471
"64327",868.36194,79.234604,131.15552
"64328",868.37524,79.26879,131.16579
"64329",868.38855,79.3225,131.19664
"64330",868.40186,79.39086,131.24382
"64331",868.41516,79.45678,131.2907
"64332",868.42847,79.51049,131.32742
"64333",868.4418,79.54467,131.3463
"64334",868.4551,79.56176,131.34915
"64335",868.4684,79.55932,131.33301
"64336",868.4817,79.54955,131.30946
"64337",868.495,79.53246,131.27829
"64338",868.5083,79.51049,131.2417
"64339",868.5216,79.48852,131.20442
"64340",868.5349,79.47387,131.17378
"64341",868.5482,79.4641,131.14757
"64342",868.5615,79.466545,131.13326
"64343",868.5748,79.47387,131.1239
"64344",868.58813,79.483635,131.11722
"64345",868.60144,79.49096,131.1084
"64346",868.61475,79.49828,131.09981
"64347",868.62805,79.50317,131.089
"64348",868.64136,79.51049,131.0808
"64349",868.65466,79.51049,131.06549
"64350",868.66797,79.50561,131.0453
"64351",868.6813,79.49584,131.02008
"64352",868.6946,79.47143,130.9799
"64353",868.7079,79.43725,130.9292
"64354",868.7212,79.395744,130.8701
"64355",868.7345,79.35424,130.80971
"64356",868.7478,79.31762,130.7529
"64357",868.7611,79.30053,130.71448
"64358",868.7744,79.30541,130.6975
"64359",868.7877,79.33227,130.70264
"64360",868.801,79.36889,130.71838
"64361",868.81433,79.412834,130.7426
"64362",868.82764,79.45922,130.77063
"64363",868.84094,79.5227,130.8172
"64364",868.85425,79.639885,130.91946
"64365",868.86755,79.85718,131.1255
"64366",868.88086,80.198975,131.46283
"64367",868.89417,80.65308,131.92316
"64368",868.9075,81.15846,132.44894
"64369",868.9208,81.634544,132.96123
"64370",868.9341,81.991,133.36876
"64371",868.9474,82.17166,133.61165
"64372",868.9607,82.16922,133.67708
"64373",868.974,82.01541,133.59106
"64374",868.9873,81.75906,133.3977
"64375",869.0006,81.449,133.14261
"64376",869.0139,81.13161,132.8705
"64377",869.0272,80.8362,132.61046
"64378",869.0405,80.58961,132.39
"64379",869.05383,80.411385,132.23021
"64380",869.06714,80.2942,132.12589
"64381",869.08044,80.22583,132.06671
"64382",869.09375,80.184326,132.03226
"64383",869.10706,80.15015,132.00385
"64384",869.12036,80.10864,131.96704
"64385",869.13367,80.07202,131.9338
"64386",869.147,80.059814,131.92386
"64387",869.1603,80.08667,131.95258
"64388",869.1736,80.14526,132.01389
"64389",869.1869,80.23804,132.1112
"64390",869.2002,80.34058,132.22119
"64391",869.2135,80.42359,132.31485
"64392",869.2268,80.47242,132.37692
"64393",869.2401,80.47242,132.3917
"64394",869.2534,80.42359,132.35764
"64395",869.2667,80.32838,132.27567
"64396",869.28,80.20874,132.16629
"64397",869.29333,80.06958,132.03366
"64398",869.30664,79.93042,131.89667
"64399",869.31995,79.80347,131.76755
"64400",869.33325,79.70336,131.6613
"64401",869.34656,79.63012,131.57878
"64402",869.35986,79.588615,131.52571
"64403",869.37317,79.57885,131.50308
"64404",869.3865,79.58373,131.4948
"64405",869.3998,79.588615,131.48666
"64406",869.4131,79.586174,131.47136
"64407",869.4264,79.569084,131.44133
"64408",869.4397,79.54955,131.40833
"64409",869.453,79.53246,131.37715
"64410",869.4663,79.5227,131.35277
"64411",869.4796,79.5227,131.33784
"64412",869.4929,79.537346,131.33757
"64413",869.5062,79.55932,131.34508
"64414",869.51953,79.586174,131.35815
"64415",869.53284,79.61059,131.36963
"64416",869.54614,79.635,131.38187
"64417",869.55945,79.65209,131.38754
"64418",869.57275,79.65453,131.3791
"64419",869.58606,79.64965,131.36342
"64420",869.59937,79.63744,131.34026
"64421",869.6127,79.61791,131.30939
"64422",869.626,79.5935,131.27303
"64423",869.6393,79.571526,131.23834
"64424",869.6526,79.551994,131.20541
"64425",869.6659,79.534904,131.17432
"64426",869.6792,79.52758,131.15245
"64427",869.6925,79.52514,131.13524
"64428",869.7058,79.5227,131.11795
"64429",869.7191,79.517815,131.09814
"64430",869.7324,79.51049,131.07574
"64431",869.7457,79.50317,131.05312
"64432",869.75903,79.49584,131.03026
"64433",869.77234,79.49828,131.01694
"64434",869.78564,79.53246,131.03543
"64435",869.79895,79.64721,131.13556
"64436",869.81226,79.88159,131.35892
"64437",869.82556,80.25269,131.72632
"64438",869.83887,80.740974,132.2225
"64439",869.8522,81.2781,132.78279
"64440",869.8655,81.77371,133.31834
"64441",869.8788,82.13504,133.7351
"64442",869.8921,82.31571,133.9825
"64443",869.9054,82.30595,134.0451
"64444",869.9187,82.13992,133.95114
"64445",869.932,81.8616,133.7397
"64446",869.9453,81.52468,133.46095
"64447",869.9586,81.180435,133.16435
"64448",869.9719,80.867935,132.88875
"64449",869.9852,80.621346,132.66928
"64450",869.99854,80.45289,132.52025
"64451",870.01184,80.35523,132.43675
"64452",870.02515,80.306404,132.39903
"64453",870.03845,80.27955,132.38176
"64454",870.05176,80.24292,132.35387
"64455",870.06506,80.19409,132.31262
"64456",870.07837,80.14282,132.26743
"64457",870.0917,80.10864,132.2377
"64458",870.105,80.09888,132.23132
"64459",870.1183,80.128174,132.2637
"64460",870.1316,80.18921,132.32874
"64461",870.1449,80.26978,132.41522
"64462",870.1582,80.343025,132.4969
"64463",870.1715,80.396736,132.56134
"64464",870.1848,80.413826,132.59084
"64465",870.1981,80.38697,132.57692
"64466",870.2114,80.308846,132.5109
"64467",870.22473,80.19409,132.40579
"64468",870.23804,80.05493,132.2727
"64469",870.25134,79.903564,132.12305
"64470",870.26465,79.75952,131.97598
"64471",870.27795,79.63744,131.84639
"64472",870.29126,79.54955,131.74716
"64473",870.30457,79.500725,131.68425
"64474",870.3179,79.4934,131.66132
"64475",870.3312,79.51049,131.66257
"64476",870.3445,79.537346,131.67412
"64477",870.3578,79.55932,131.68163
"64478",870.3711,79.56664,131.67517
"64479",870.3844,79.551994,131.64697
"64480",870.3977,79.52514,131.60611
"64481",870.411,79.4934,131.55952
"64482",870.4243,79.466545,131.51683
"64483",870.4376,79.447014,131.48062
"64484",870.4509,79.43481,131.45113
"64485",870.46423,79.42748,131.42613
"64486",870.47754,79.4226,131.40335
"64487",870.49084,79.42504,131.38774
"64488",870.50415,79.432365,131.37709
"64489",870.51746,79.447014,131.374
"64490",870.53076,79.46899,131.37868
"64491",870.54407,79.500725,131.39381
"64492",870.5574,79.52514,131.40262
"64493",870.5707,79.53979,131.40242
"64494",870.584,79.53246,131.3807
"64495",870.5973,79.50805,131.34167
"64496",870.6106,79.466545,131.28479
"64497",870.6239,79.412834,131.2144
"64498",870.6372,79.3518,131.13501
"64499",870.6505,79.28832,131.05127
"64500",870.6638,79.2224,130.9631
"64501",870.6771,79.15648,130.87288
"64502",870.6904,79.10277,130.7928
"64503",870.70374,79.07103,130.73302
"64504",870.71704,79.06615,130.6991
"64505",870.73035,79.11009,130.71385
"64506",870.74365,79.24681,130.82275
"64507",870.75696,79.50561,131.05801
"64508",870.77026,79.91089,131.44785
"64509",870.78357,80.45289,131.98706
"64510",870.7969,81.06813,132.61646
"64511",870.8102,81.6614,133.2431
"64512",870.8235,82.127716,133.76134
"64513",870.8368,82.39872,134.09883
"64514",870.8501,82.44999,134.22507
"64515",870.8634,82.30595,134.1576
"64516",870.8767,82.01541,133.93912
"64517",870.89,81.64431,133.631
"64518",870.9033,81.24635,133.28442
"64519",870.9166,80.87526,132.95229
"64520",870.92993,80.57252,132.6769
"64521",870.94324,80.365,132.48727
"64522",870.95654,80.25269,132.38638
"64523",870.96985,80.22339,132.36497
"64524",870.98315,80.24536,132.39392
"64525",870.99646,80.28443,132.44066
"64526",871.00977,80.306404,132.47153
"64527",871.0231,80.291756,132.46646
"64528",871.0364,80.2478,132.43163
"64529",871.0497,80.18677,132.37833
"64530",871.063,80.130615,132.328
"64531",871.0763,80.10376,132.30524
"64532",871.0896,80.1062,132.31091
"64533",871.1029,80.1355,132.34354
"64534",871.1162,80.17456,132.38684
"64535",871.1295,80.198975,132.41672
"64536",871.1428,80.19409,132.41806
"64537",871.1561,80.15991,132.38995
"64538",871.16943,80.096436,132.33148
"64539",871.18274,80.01343,132.2515
"64540",871.19604,79.92798,132.16647
"64541",871.20935,79.852295,132.08853
"64542",871.22266,79.78638,132.018
"64543",871.23596,79.727776,131.95273
"64544",871.24927,79.674065,131.8905
"64545",871.2626,79.622795,131.82904
"64546",871.2759,79.571526,131.76598
"64547",871.2892,79.52758,131.70863
"64548",871.3025,79.48852,131.6548
"64549",871.3158,79.46166,131.61195
"64550",871.3291,79.447014,131.58047
"64551",871.3424,79.44457,131.56075
"64552",871.3557,79.45434,131.55315
"64553",871.369,79.46899,131.55074
"64554",871.3823,79.483635,131.54878
"64555",871.3956,79.49828,131.54729
"64556",871.40894,79.50805,131.54137
"64557",871.42224,79.5227,131.54063
"64558",871.43555,79.54223,131.54524
"64559",871.44885,79.569084,131.55779
"64560",871.46216,79.59838,131.57361
"64561",871.47546,79.62524,131.5879
"64562",871.4888,79.64477,131.59572
"64563",871.5021,79.64965,131.5895
"64564",871.5154,79.635,131.56389
"64565",871.5287,79.605705,131.52318
"64566",871.542,79.5642,131.46935
"64567",871.5553,79.51049,131.40201
"64568",871.5686,79.45434,131.33055
"64569",871.5819,79.39086,131.25002
"64570",871.5952,79.327385,131.1675
"64571",871.6085,79.276115,131.0952
"64572",871.6218,79.24193,131.03839
"64573",871.63513,79.22972,131.00249
"64574",871.64844,79.24193,130.99062
"64575",871.66174,79.276115,131.00111
"64576",871.67505,79.33715,131.03952
"64577",871.68835,79.449455,131.1311
"64578",871.70166,79.656975,131.32141
"64579",871.71497,79.98901,131.64273
"64580",871.7283,80.44068,132.09406
"64581",871.7416,80.96803,132.63518
"64582",871.7549,81.495384,133.19278
"64583",871.7682,81.92752,133.67165
"64584",871.7815,82.19119,133.99556
"64585",871.7948,82.26444,134.13728
"64586",871.8081,82.161896,134.1055
"64587",871.8214,81.92508,133.93625
"64588",871.8347,81.61013,133.68146
"64589",871.848,81.27322,133.39487
"64590",871.8613,80.95827,133.1197
"64591",871.87463,80.69703,132.88841
"64592",871.88794,80.5066,132.71977
"64593",871.90125,80.39185,132.62086
"64594",871.91455,80.33814,132.5794
"64595",871.92786,80.32105,132.57289
"64596",871.94116,80.306404,132.56828
"64597",871.95447,80.274666,132.54613
"64598",871.9678,80.22095,132.50099
"64599",871.9811,80.15747,132.44443
"64600",871.9944,80.1062,132.39807
"64601",872.0077,80.08911,132.38431
"64602",872.021,80.111084,132.40906
"64603",872.0343,80.16235,132.4638
"64604",872.0476,80.22827,132.53479
"64605",872.0609,80.28687,132.60052
"64606",872.0742,80.325935,132.64856
"64607",872.0875,80.33082,132.66364
"64608",872.1008,80.2942,132.63736
"64609",872.11414,80.22339,132.57574
"64610",872.12744,80.11841,132.47775
"64611",872.14075,79.991455,132.35449
"64612",872.15405,79.85474,132.2175
"64613",872.16736,79.71801,132.07623
"64614",872.18066,79.59594,131.94534
"64615",872.194,79.4934,131.83017
"64616",872.2073,79.415276,131.7362
"64617",872.2206,79.37133,131.67398
"64618",872.2339,79.35668,131.63968
"64619",872.2472,79.364006,131.62689
"64620",872.2605,79.38842,131.63142
"64621",872.2738,79.42748,131.65137
"64622",872.2871,79.47143,131.67741
"64623",872.3004,79.51537,131.70483
"64624",872.3137,79.554436,131.72874
"64625",872.327,79.586174,131.74655
"64626",872.34033,79.603264,131.7507
"64627",872.35364,79.605705,131.74074
"64628",872.36694,79.59594,131.71864
"64629",872.38025,79.571526,131.6816
"64630",872.39355,79.53246,131.62914
"64631",872.40686,79.48852,131.57057
"64632",872.42017,79.44457,131.51064
"64633",872.4335,79.40307,131.45177
"64634",872.4468,79.36645,131.39648
"64635",872.4601,79.33715,131.34738
"64636",872.4734,79.31518,131.30469
"64637",872.4867,79.29565,131.26375
"64638",872.5,79.27856,131.22464
"64639",872.5133,79.26391,131.18744
"64640",872.5266,79.256584,131.1571
"64641",872.5399,79.25414,131.13142
"64642",872.5532,79.256584,131.11055
"64643",872.5665,79.27123,131.10196
"64644",872.57983,79.30541,131.11336
"64645",872.59314,79.395744,131.18198
"64646",872.60645,79.59106,131.3584
"64647",872.61975,79.923096,131.67766
"64648",872.63306,80.38941,132.14157
"64649",872.64636,80.938736,132.70306
"64650",872.65967,81.48562,133.27928
"64651",872.673,81.9324,133.77249
"64652",872.6863,82.20584,134.10632
"64653",872.6996,82.28153,134.25095
"64654",872.7129,82.18143,134.22214
"64655",872.7262,81.94949,134.05838
"64656",872.7395,81.64187,133.81168
"64657",872.7528,81.307396,133.52852
"64658",872.7661,80.99245,133.25443
"64659",872.7794,80.73609,133.02908
"64660",872.7927,80.550545,132.86655
"64661",872.806,80.445564,132.77878
"64662",872.81934,80.4065,132.75365
"64663",872.83264,80.40406,132.76392
"64664",872.84595,80.40406,132.77655
"64665",872.85925,80.37965,132.76477
"64666",872.87256,80.32105,132.71805
"64667",872.88586,80.235596,132.64262
"64668",872.8992,80.14526,132.55966
"64669",872.9125,80.07446,132.49341
"64670",872.9258,80.04761,132.46887
"64671",872.9391,80.0647,132.48746
"64672",872.9524,80.11597,132.54074
"64673",872.9657,80.16968,132.59808
"64674",872.979,80.20874,132.64246
"64675",872.9923,80.21362,132.65387
"64676",873.0056,80.181885,132.62881
"64677",873.0189,80.11597,132.56857
"64678",873.0322,80.03296,132.4892
"64679",873.04553,79.940186,132.39746
"64680",873.05884,79.84497,132.30038
"64681",873.07214,79.74975,132.20032
"64682",873.08545,79.65209,132.09483
"64683",873.09875,79.56176,131.99362
"64684",873.11206,79.47631,131.89447
"64685",873.12537,79.40795,131.80974
"64686",873.1387,79.35668,131.73996
"64687",873.152,79.3225,131.68567
"64688",873.1653,79.29809,131.64008
"64689",873.1786,79.28588,131.60593
"64690",873.1919,79.28344,131.58116
"64691",873.2052,79.28344,131.55876
"64692",873.2185,79.28588,131.5388
"64693",873.2318,79.29565,131.52625
"64694",873.2451,79.30785,131.51643
"64695",873.2584,79.31762,131.50456
"64696",873.2717,79.327385,131.493
"64697",873.28503,79.33471,131.4793
"64698",873.29834,79.33715,131.46094
"64699",873.31165,79.33471,131.43777
"64700",873.32495,79.33471,131.41698
"64701",873.33826,79.33471,131.39618
"64702",873.35156,79.33471,131.37538
"64703",873.36487,79.33471,131.35458
"64704",873.3782,79.33471,131.33379
"64705",873.3915,79.33959,131.31787
"64706",873.4048,79.3518,131.30943
"64707",873.4181,79.36889,131.30626
"64708",873.4314,79.381096,131.29874
"64709",873.4447,79.378654,131.27695
"64710",873.458,79.35668,131.23555
"64711",873.4713,79.32006,131.17882
"64712",873.4846,79.281,131.1185
"64713",873.4979,79.24925,131.06429
"64714",873.5112,79.237045,131.02861
"64715",873.52454,79.25414,131.02187
"64716",873.53784,79.30541,131.04982
"64717",873.55115,79.42504,131.14774
"64718",873.56445,79.656975,131.3617
"64719",873.57776,80.03296,131.72696
"64720",873.59106,80.5481,132.24313
"64721",873.6044,81.146255,132.85841
"64722",873.6177,81.73708,133.48506
"64723",873.631,82.22293,134.02519
"64724",873.6443,82.51835,134.39008
"64725",873.6576,82.58915,134.53958
"64726",873.6709,82.46708,134.49843
"64727",873.6842,82.20096,134.3094
"64728",873.6975,81.846954,134.02419
"64729",873.7108,81.478294,133.71324
"64730",873.7241,81.14137,133.42252
"64731",873.7374,80.867935,133.18475
"64732",873.75073,80.67506,133.019
"64733",873.76404,80.56275,132.9278
"64734",873.77734,80.52125,132.90388
"64735",873.79065,80.52125,132.92018
"64736",873.80396,80.52613,132.94136
"64737",873.81726,80.50904,132.94072
"64738",873.83057,80.45289,132.90048
"64739",873.8439,80.35767,132.81943
"64740",873.8572,80.24536,132.71829
"64741",873.8705,80.147705,132.6283
"64742",873.8838,80.08423,132.56943
"64743",873.8971,80.059814,132.54764
"64744",873.9104,80.062256,132.55194
"64745",873.9237,80.076904,132.56854
"64746",873.937,80.079346,132.5734
"64747",873.9503,80.0647,132.56122
"64748",873.9636,80.03296,132.5315
"64749",873.9769,79.97925,132.47882
"64750",873.99023,79.91089,132.40982
"64751",874.00354,79.82788,132.32404
"64752",874.01685,79.73266,132.22343
"64753",874.03015,79.63012,132.11253
"64754",874.04346,79.53246,132.00331
"64755",874.05676,79.44457,131.9008
"64756",874.07007,79.36645,131.80531
"64757",874.0834,79.30297,131.72203
"64758",874.0967,79.24925,131.64653
"64759",874.11,79.20531,131.57912
"64760",874.1233,79.166245,131.51521
"64761",874.1366,79.13451,131.45741
"64762",874.1499,79.10765,131.4035
"64763",874.1632,79.08568,131.35364
"64764",874.1765,79.06859,131.30797
"64765",874.1898,79.05394,131.2642
"64766",874.2031,79.046616,131.22731
"64767",874.21643,79.04906,131.19995
"64768",874.22974,79.06615,131.18732
"64769",874.24304,79.10033,131.1923
"64770",874.25635,79.14671,131.21057
"64771",874.26965,79.1931,131.23029
"64772",874.28296,79.234604,131.24657
"64773",874.29626,79.26879,131.25684
"64774",874.3096,79.28832,131.25351
"64775",874.3229,79.29565,131.23859
"64776",874.3362,79.29809,131.21901
"64777",874.3495,79.29809,131.19707
"64778",874.3628,79.29809,131.17513
"64779",874.3761,79.29809,131.15318
"64780",874.3894,79.29809,131.13124
"64781",874.4027,79.293205,131.10442
"64782",874.416,79.28588,131.075
"64783",874.4293,79.27856,131.04535
"64784",874.4426,79.273674,131.01791
"64785",874.45593,79.26635,130.98788
"64786",874.46924,79.26147,130.96007
"64787",874.48254,79.26147,130.93698
"64788",874.49585,79.26147,130.9139
"64789",874.50916,79.26147,130.89081
"64790",874.52246,79.259026,130.86528
"64791",874.53577,79.26879,130.85188
"64792",874.5491,79.30541,130.86565
"64793",874.5624,79.41039,130.94891
"64794",874.5757,79.635,131.15509
"64795",874.589,80.01343,131.52211
"64796",874.6023,80.52857,132.03767
"64797",874.6156,81.12184,132.64746
"64798",874.6289,81.705345,133.26602
"64799",874.6422,82.18143,133.7954
"64800",874.6555,82.4744,134.15654
"64801",874.6688,82.55741,134.31688
"64802",874.6821,82.45487,134.29427
"64803",874.69543,82.20584,134.12195
"64804",874.70874,81.87625,133.8613
"64805",874.72205,81.5198,133.56348
"64806",874.73535,81.18776,133.27893
"64807",874.74866,80.91432,133.04262
"64808",874.76196,80.719,132.87587
"64809",874.77527,80.601814,132.78116
"64810",874.7886,80.5481,132.74626
"64811",874.8019,80.52125,132.73654
"64812",874.8152,80.49683,132.72842
"64813",874.8285,80.46021,132.70734
"64814",874.8418,80.40162,132.66313
"64815",874.8551,80.33814,132.61221
"64816",874.8684,80.289314,132.57396
"64817",874.8817,80.27955,132.57324
"64818",874.895,80.31373,132.61617
"64819",874.9083,80.37965,132.6919
"64820",874.92163,80.45045,132.77457
"64821",874.93494,80.50904,132.84724
"64822",874.94824,80.54078,132.8949
"64823",874.96155,80.533455,132.90448
"64824",874.97485,80.48951,132.87721
"64825",874.98816,80.41871,132.82172
"64826",875.00146,80.325935,132.74203
"64827",875.0148,80.218506,132.64479
"64828",875.0281,80.10132,132.53442
"64829",875.0414,79.98169,132.41797
"64830",875.0547,79.8645,132.3002
"64831",875.068,79.75708,132.18854
"64832",875.0813,79.66674,132.0906
"64833",875.0946,79.5935,132.00694
"64834",875.1079,79.54467,131.9454
"64835",875.1212,79.50805,131.89455
"64836",875.1345,79.48852,131.85963
"64837",875.1478,79.47143,131.82655
"64838",875.16113,79.466545,131.80515
"64839",875.17444,79.46899,131.79091
"64840",875.18774,79.47631,131.78163
"64841",875.20105,79.48608,131.77502
"64842",875.21436,79.500725,131.7736
"64843",875.22766,79.51537,131.77264
"64844",875.24097,79.53002,131.77214
"64845",875.2543,79.54955,131.77698
"64846",875.2676,79.56664,131.77998
"64847",875.2809,79.586174,131.78596
"64848",875.2942,79.59594,131.78279
"64849",875.3075,79.59594,131.77016
"64850",875.3208,79.586174,131.74776
"64851",875.3341,79.57641,131.72505
"64852",875.3474,79.55932,131.69472
"64853",875.3607,79.54467,131.66629
"64854",875.374,79.52758,131.63496
"64855",875.3873,79.50805,131.60066
"64856",875.40063,79.48119,131.55843
"64857",875.41394,79.4519,131.51291
"64858",875.42725,79.41772,131.4616
"64859",875.44055,79.381096,131.40677
"64860",875.45386,79.34692,131.35324
"64861",875.46716,79.31518,131.30109
"64862",875.48047,79.28588,131.25038
"64863",875.4938,79.25414,131.19632
"64864",875.5071,79.22972,131.14859
"64865",875.5204,79.21263,131.10742
"64866",875.5337,79.20775,131.07793
"64867",875.547,79.21507,131.06049
"64868",875.5603,79.24193,131.0628
"64869",875.5736,79.30297,131.10016
"64870",875.5869,79.43725,131.21265
"64871",875.6002,79.68627,131.44408
"64872",875.6135,80.076904,131.8249
"64873",875.62683,80.587166,132.33757
"64874",875.64014,81.15358,132.92233
"64875",875.65344,81.68337,133.48817
"64876",875.66675,82.074005,133.93141
"64877",875.68005,82.27177,134.19398
"64878",875.69336,82.27177,134.26498
"64879",875.70667,82.1033,134.16751
"64880",875.72,81.8201,133.95004
"64881",875.7333,81.48562,133.67244
"64882",875.7466,81.1487,133.38194
"64883",875.7599,80.84596,133.11511
"64884",875.7732,80.604256,132.89984
"64885",875.7865,80.43336,132.74783
"64886",875.7998,80.32105,132.64908
"64887",875.8131,80.25025,132.58832
"64888",875.8264,80.201416,132.5473
"64889",875.8397,80.15503,132.5072
"64890",875.853,80.111084,132.46811
"64891",875.86633,80.07446,132.43497
"64892",875.87964,80.05737,132.4202
"64893",875.89294,80.07446,132.43909
"64894",875.90625,80.13794,132.50488
"64895",875.91956,80.235596,132.60684
"64896",875.93286,80.35035,132.72896
"64897",875.94617,80.45533,132.8449
"64898",875.9595,80.52857,132.93237
"64899",875.9728,80.552986,132.97331
"64900",875.9861,80.52857,132.96619
"64901",875.9994,80.46021,132.91435
"64902",876.0127,80.36256,132.83109
"64903",876.026,80.24048,132.72034
"64904",876.0393,80.113525,132.60089
"64905",876.0526,79.98413,132.47504
"64906",876.0659,79.86694,132.35736
"64907",876.0792,79.764404,132.25067
"64908",876.0925,79.68383,132.16273
"64909",876.10583,79.62035,132.08937
"64910",876.11914,79.57397,132.03111
"64911",876.13245,79.54223,131.98605
"64912",876.14575,79.517815,131.94733
"64913",876.15906,79.50317,131.9176
"64914",876.17236,79.49096,131.88986
"64915",876.18567,79.48852,131.8715
"64916",876.199,79.48852,131.85551
"64917",876.2123,79.4934,131.8444
"64918",876.2256,79.500725,131.83589
"64919",876.2389,79.51293,131.83249
"64920",876.2522,79.53246,131.83679
"64921",876.2655,79.54955,131.83926
"64922",876.2788,79.5642,131.83983
"64923",876.2921,79.58129,131.84329
"64924",876.3054,79.59594,131.84485
"64925",876.3187,79.61059,131.84686
"64926",876.33203,79.61791,131.84201
"64927",876.34534,79.61303,131.82518
"64928",876.35864,79.603264,131.80331
"64929",876.37195,79.588615,131.77626
"64930",876.38525,79.569084,131.74387
"64931",876.39856,79.54223,131.70354
"64932",876.41187,79.517815,131.66481
"64933",876.4252,79.4934,131.62532
"64934",876.4385,79.47143,131.58751
"64935",876.4518,79.449455,131.54901
"64936",876.4651,79.43725,131.51959
"64937",876.4784,79.42748,131.49223
"64938",876.4917,79.42016,131.46701
"64939",876.505,79.42504,131.45377
"64940",876.5183,79.47631,131.48706
"64941",876.5316,79.62035,131.61473
"64942",876.5449,79.89624,131.87875
"64943",876.5582,80.32105,132.30032
"64944",876.57153,80.848404,132.8377
"64945",876.58484,81.40017,133.41599
"64946",876.59814,81.883575,133.94315
"64947",876.61145,82.210724,134.32916
"64948",876.62476,82.337685,134.5252
"64949",876.63806,82.27665,134.53723
"64950",876.65137,82.0618,134.39352
"64951",876.6647,81.74929,134.14545
"64952",876.678,81.392845,133.84367
"64953",876.6913,81.03639,133.53075
"64954",876.7046,80.723885,133.25063
"64955",876.7179,80.46754,133.0169
"64956",876.7312,80.27955,132.84354
"64957",876.7445,80.15503,132.72775
"64958",876.7578,80.07202,132.6496
"64959",876.7711,80.01099,132.59082
"64960",876.7844,79.96216,132.54233
"64961",876.7977,79.923096,132.50208
"64962",876.81104,79.90112,132.47769
"64963",876.82434,79.90845,132.48193
"64964",876.83765,79.957275,132.5279
"64965",876.85095,80.042725,132.612
"64966",876.86426,80.15259,132.7232
"64967",876.87756,80.26246,132.83784
"64968",876.89087,80.34791,132.9315
"64969",876.9042,80.394295,132.98877
"64970",876.9175,80.38941,132.99622
"64971",876.9308,80.3357,132.95468
"64972",876.9441,80.24048,132.86995
"64973",876.9574,80.11597,132.75296
"64974",876.9707,79.97681,132.61743
"64975",876.984,79.83276,132.47266
"64976",876.9973,79.69604,132.3307
"64977",877.0106,79.57397,132.19913
"64978",877.0239,79.47631,132.08815
"64979",877.03723,79.398186,131.99365
"64980",877.05054,79.33715,131.9138
"64981",877.06384,79.28832,131.84425
"64982",877.07715,79.24925,131.78294
"64983",877.09045,79.22484,131.73506
"64984",877.10376,79.21507,131.70107
"64985",877.11707,79.219955,131.68141
"64986",877.1304,79.234604,131.67168
"64987",877.1437,79.256584,131.66974
"64988",877.157,79.273674,131.66359
"64989",877.1703,79.293205,131.66042
"64990",877.1836,79.30785,131.65297
"64991",877.1969,79.32494,131.64842
"64992",877.2102,79.33715,131.63953
"64993",877.2235,79.35424,131.6359
"64994",877.2368,79.36645,131.62791
"64995",877.2501,79.381096,131.62276
"64996",877.2634,79.3933,131.61562
"64997",877.27673,79.40307,131.60641
"64998",877.29004,79.40795,131.59264
"64999",877.30334,79.40307,131.56924
"65000",877.31665,79.39086,131.53838
"65001",877.32996,79.37133,131.4998
"65002",877.34326,79.34692,131.45573
"65003",877.35657,79.32006,131.40846
"65004",877.3699,79.29565,131.3628
"65005",877.3832,79.27123,131.31636
"65006",877.3965,79.24925,131.2716
"65007",877.4098,79.24437,131.24326
"65008",877.4231,79.28588,131.26115
"65009",877.4364,79.429924,131.38287
"65010",877.4497,79.71801,131.65314
"65011",877.463,80.15503,132.08134
"65012",877.4763,80.70191,132.63307
"65013",877.4896,81.27566,133.22876
"65014",877.5029,81.778595,133.77156
"65015",877.51624,82.125275,134.17383
"65016",877.52954,82.269325,134.3843
"65017",877.54285,82.22049,134.40637
"65018",877.55615,82.01785,134.27313
"65019",877.56946,81.71511,134.03345
"65020",877.58276,81.36355,133.73549
"65021",877.59607,81.01442,133.42897
"65022",877.6094,80.709236,133.15549
"65023",877.6227,80.47242,132.94084
"65024",877.636,80.306404,132.7896
"65025",877.6493,80.2063,132.69907
"65026",877.6626,80.15259,132.6518
"65027",877.6759,80.11597,132.61993
"65028",877.6892,80.079346,132.58694
"65029",877.7025,80.03784,132.54791
"65030",877.7158,80.00122,132.51248
"65031",877.7291,79.98657,132.49786
"65032",877.74243,80.008545,132.51941
"65033",877.75574,80.06714,132.57828
"65034",877.76904,80.15259,132.66583
"65035",877.78235,80.24292,132.76093
"65036",877.79565,80.31617,132.84177
"65037",877.80896,80.35523,132.89072
"65038",877.82227,80.35035,132.89694
"65039",877.8356,80.30396,132.86151
"65040",877.8489,80.218506,132.78555
"65041",877.8622,80.1062,132.68008
"65042",877.8755,79.98413,132.56134
"65043",877.8888,79.85962,132.43634
"65044",877.9021,79.73998,132.31232
"65045",877.9154,79.63256,132.19676
"65046",877.9287,79.53979,132.0925
"65047",877.942,79.46166,131.99998
"65048",877.9553,79.395744,131.91724
"65049",877.9686,79.34203,131.84464
"65050",877.98193,79.30053,131.78256
"65051",877.99524,79.26879,131.72896
"65052",878.00854,79.23949,131.6768
"65053",878.02185,79.21507,131.62862
"65054",878.03516,79.19554,131.58455
"65055",878.04846,79.185776,131.54964
"65056",878.06177,79.19066,131.52907
"65057",878.0751,79.202866,131.51598
"65058",878.0884,79.22728,131.51547
"65059",878.1017,79.26147,131.52551
"65060",878.115,79.29809,131.53905
"65061",878.1283,79.33227,131.55128
"65062",878.1416,79.364006,131.56215
"65063",878.1549,79.38842,131.56668
"65064",878.1682,79.40307,131.56221
"65065",878.1815,79.40795,131.54843
"65066",878.1948,79.398186,131.52016
"65067",878.2081,79.38354,131.4867
"65068",878.22144,79.361565,131.44545
"65069",878.23474,79.33959,131.40352
"65070",878.24805,79.32006,131.36334
"65071",878.26135,79.30541,131.32744
"65072",878.27466,79.290764,131.29108
"65073",878.28796,79.28832,131.26646
"65074",878.3013,79.327385,131.28328
"65075",878.3146,79.45922,131.39409
"65076",878.3279,79.727776,131.64574
"65077",878.3412,80.14038,132.04984
"65078",878.3545,80.66529,132.57913
"65079",878.3678,81.22926,133.1639
"65080",878.3811,81.72976,133.7028
"65081",878.3944,82.07889,134.10599
"65082",878.4077,82.2327,134.32477
"65083",878.421,82.20096,134.36281
"65084",878.4343,82.01785,134.24849
"65085",878.44763,81.7322,134.0259
"65086",878.46094,81.39773,133.74556
"65087",878.47424,81.06325,133.45476
"65088",878.48755,80.76784,133.19258
"65089",878.50085,80.53101,132.97975
"65090",878.51416,80.360115,132.82545
"65091",878.52747,80.255135,132.73174
"65092",878.5408,80.19409,132.67867
"65093",878.5541,80.15015,132.64078
"65094",878.5674,80.10864,132.60397
"65095",878.5807,80.0647,132.56342
"65096",878.594,80.02075,132.52148
"65097",878.6073,79.99634,132.49771
"65098",878.6206,79.99878,132.50003
"65099",878.6339,80.0354,132.53662
"65100",878.6472,80.096436,132.59875
"65101",878.6605,80.16724,132.67258
"65102",878.6738,80.22095,132.7315
"65103",878.68713,80.24292,132.76038
"65104",878.70044,80.22339,132.74844
"65105",878.71375,80.164795,132.69684
"65106",878.72705,80.079346,132.61655
"65107",878.74036,79.971924,132.5116
"65108",878.75366,79.85474,132.39352
"65109",878.76697,79.744865,132.27911
"65110",878.7803,79.64477,132.17104
"65111",878.7936,79.55688,132.07204
"65112",878.8069,79.48119,131.9825
"65113",878.8202,79.415276,131.90036
"65114",878.8335,79.35912,131.82593
"65115",878.8468,79.30541,131.75218
"65116",878.8601,79.259026,131.68408
"65117",878.8734,79.2224,131.6243
"65118",878.8867,79.19554,131.57314
"65119",878.9,79.17601,131.52846
"65120",878.9133,79.15648,131.48317
"65121",878.92664,79.14427,131.4446
"65122",878.93994,79.14183,131.4154
"65123",878.95325,79.15404,131.40079
"65124",878.96655,79.18089,131.4012
"65125",878.97986,79.217514,131.41222
"65126",878.99316,79.259026,131.42928
"65127",879.0065,79.29565,131.44273
"65128",879.0198,79.32006,131.44513
"65129",879.0331,79.33227,131.43608
"65130",879.0464,79.33959,131.42253
"65131",879.0597,79.33715,131.39944
"65132",879.073,79.33227,131.37384
"65133",879.0863,79.31762,131.33832
"65134",879.0996,79.29809,131.29745
"65135",879.1129,79.273674,131.2511
"65136",879.1262,79.24681,131.20154
"65137",879.1395,79.219955,131.15114
"65138",879.15283,79.19554,131.10234
"65139",879.16614,79.1931,131.07475
"65140",879.17944,79.24437,131.1008
"65141",879.19275,79.39086,131.22368
"65142",879.20605,79.676506,131.49028
"65143",879.21936,80.10376,131.90742
"65144",879.23267,80.635994,132.4429
"65145",879.246,81.19508,133.02187
"65146",879.2593,81.67849,133.54262
"65147",879.2726,82.01053,133.92711
"65148",879.2859,82.14725,134.12666
"65149",879.2992,82.09598,134.1425
"65150",879.3125,81.89334,134.00537
"65151",879.3258,81.600365,133.77156
"65152",879.3391,81.26589,133.4871
"65153",879.3524,80.94118,133.20195
"65154",879.3657,80.66285,132.95303
"65155",879.379,80.45045,132.76135
"65156",879.39233,80.31373,132.63872
"65157",879.40564,80.235596,132.57039
"65158",879.41895,80.19653,132.5387
"65159",879.43225,80.164795,132.51309
"65160",879.44556,80.12085,132.4743
"65161",879.45886,80.05737,132.41461
"65162",879.47217,79.99634,132.35538
"65163",879.4855,79.94995,132.30887
"65164",879.4988,79.940186,132.29755
"65165",879.5121,79.97681,132.3323
"65166",879.5254,80.045166,132.39993
"65167",879.5387,80.12329,132.47946
"65168",879.552,80.184326,132.54434
"65169",879.5653,80.21362,132.5794
"65170",879.5786,80.20386,132.57632
"65171",879.5919,80.15747,132.53632
"65172",879.6052,80.08179,132.46555
"65173",879.6185,79.98657,132.3729
"65174",879.63184,79.886475,132.27237
"65175",879.64514,79.78638,132.16873
"65176",879.65845,79.70092,132.0766
"65177",879.67175,79.62524,131.99156
"65178",879.68506,79.56176,131.91637
"65179",879.69836,79.500725,131.84163
"65180",879.7117,79.449455,131.77475
"65181",879.725,79.40063,131.70871
"65182",879.7383,79.35668,131.64603
"65183",879.7516,79.327385,131.59662
"65184",879.7649,79.30053,131.54874
"65185",879.7782,79.27856,131.5049
"65186",879.7915,79.259026,131.46281
"65187",879.8048,79.24681,131.42744
"65188",879.8181,79.234604,131.3917
"65189",879.8314,79.234604,131.36777
"65190",879.8447,79.24437,131.3536
"65191",879.85803,79.259026,131.34465
"65192",879.87134,79.27123,131.3337
"65193",879.88464,79.28344,131.32312
"65194",879.89795,79.29809,131.31537
"65195",879.91125,79.31274,131.30807
"65196",879.92456,79.32983,131.30368
"65197",879.93787,79.3518,131.3047
"65198",879.9512,79.36889,131.30153
"65199",879.9645,79.378654,131.29156
"65200",879.9778,79.37621,131.2697
"65201",879.9911,79.361565,131.23555
"65202",880.0044,79.33471,131.18874
"65203",880.0177,79.30541,131.13864
"65204",880.031,79.27856,131.09007
"65205",880.0443,79.26147,131.05043
"65206",880.0576,79.26635,131.03223
"65207",880.0709,79.32494,131.06789
"65208",880.0842,79.48852,131.21036
"65209",880.09753,79.79614,131.502
"65210",880.11084,80.257576,131.95706
"65211",880.12415,80.831314,132.53885
"65212",880.13745,81.43679,133.1703
"65213",880.15076,81.9617,133.74011
"65214",880.16406,82.32304,134.16275
"65215",880.17737,82.476845,134.38916
"65216",880.1907,82.425575,134.4153
"65217",880.204,82.22049,134.28601
"65218",880.2173,81.92264,134.05756
"65219",880.2306,81.5906,133.7856
"65220",880.2439,81.26833,133.51305
"65221",880.2572,80.99977,133.28412
"65222",880.2705,80.8069,133.1225
"65223",880.2838,80.689705,133.03052
"65224",880.2971,80.638435,133.00081
"65225",880.3104,80.63111,133.01344
"65226",880.3237,80.638435,133.0405
"65227",880.33704,80.621346,133.04337
"65228",880.35034,80.56275,133.0042
"65229",880.36365,80.462654,132.92169
"65230",880.37695,80.34058,132.81409
"65231",880.39026,80.22583,132.70998
"65232",880.40356,80.15015,132.64136
"65233",880.4169,80.128174,132.62408
"65234",880.4302,80.15259,132.6525
"65235",880.4435,80.198975,132.70364
"65236",880.4568,80.23804,132.74893
"65237",880.4701,80.257576,132.77591
"65238",880.4834,80.2478,132.77419
"65239",880.4967,80.20874,132.74286
"65240",880.51,80.14282,132.68347
"65241",880.5233,80.062256,132.60736
"65242",880.5366,79.96948,132.51654
"65243",880.5499,79.871826,132.41794
"65244",880.56323,79.766846,132.30896
"65245",880.57654,79.66186,132.19669
"65246",880.58984,79.56176,132.08601
"65247",880.60315,79.47875,131.9893
"65248",880.61646,79.415276,131.90953
"65249",880.62976,79.36889,131.84486
"65250",880.64307,79.33227,131.78851
"65251",880.6564,79.30053,131.7359
"65252",880.6697,79.27123,131.68474
"65253",880.683,79.24681,131.63754
"65254",880.6963,79.2224,131.58958
"65255",880.7096,79.20775,131.55063
"65256",880.7229,79.20531,131.52342
"65257",880.7362,79.217514,131.51079
"65258",880.7495,79.23949,131.5083
"65259",880.7628,79.26879,131.51384
"65260",880.7761,79.29809,131.52028
"65261",880.7894,79.3225,131.52275
"65262",880.80273,79.33715,131.51622
"65263",880.81604,79.33959,131.49794
"65264",880.82935,79.327385,131.46509
"65265",880.84265,79.30785,131.42453
"65266",880.85596,79.28344,131.37848
"65267",880.86926,79.2517,131.32434
"65268",880.88257,79.217514,131.26677
"65269",880.8959,79.18822,131.21301
"65270",880.9092,79.17113,131.17055
"65271",880.9225,79.15404,131.12755
"65272",880.9358,79.13939,131.08646
"65273",880.9491,79.11986,131.04002
"65274",880.9624,79.10277,130.99542
"65275",880.9757,79.08812,130.95273
"65276",880.989,79.08324,130.91934
"65277",881.0023,79.10277,130.91022
"65278",881.0156,79.18822,130.96762
"65279",881.02893,79.37621,131.13025
"65280",881.04224,79.708244,131.44278
"65281",881.05554,80.184326,131.90974
"65282",881.06885,80.762955,132.49414
"65283",881.08215,81.37087,133.1259
"65284",881.09546,81.90311,133.70097
"65285",881.10876,82.27909,134.13643
"65286",881.1221,82.45731,134.38588
"65287",881.1354,82.44755,134.45291
"65288",881.1487,82.286415,134.36827
"65289",881.162,82.022736,134.17604
"65290",881.1753,81.71511,133.93163
"65291",881.1886,81.41726,133.68738
"65292",881.2019,81.16579,133.4802
"65293",881.2152,80.990005,133.34085
"65294",881.2285,80.89479,133.27658
"65295",881.2418,80.86549,133.27525
"65296",881.2551,80.87038,133.30719
"65297",881.26843,80.87282,133.33684
"65298",881.28174,80.848404,133.3397
"65299",881.29504,80.780045,133.29787
"65300",881.30835,80.67506,133.21725
"65301",881.32166,80.55543,133.11873
"65302",881.33496,80.44312,133.02379
"65303",881.34827,80.360115,132.95464
"65304",881.3616,80.323494,132.92928
"65305",881.3749,80.32838,132.94427
"65306",881.3882,80.35523,132.9814
"65307",881.4015,80.38209,133.01936
"65308",881.4148,80.396736,133.04596
"65309",881.4281,80.36988,133.03151
"65310",881.4414,80.306404,132.9796
"65311",881.4547,80.2063,132.88907
"65312",881.468,80.08667,132.77588
"65313",881.4813,79.957275,132.6492
"65314",881.4946,79.835205,132.52579
"65315",881.50793,79.72289,132.40833
"65316",881.52124,79.622795,132.29956
"65317",881.53455,79.53246,132.19743
"65318",881.54785,79.447014,132.09737
"65319",881.56116,79.36645,131.99951
"65320",881.57446,79.29565,131.9089
"65321",881.58777,79.237045,131.8283
"65322",881.6011,79.19554,131.76294
"65323",881.6144,79.168686,131.71094
"65324",881.6277,79.15892,131.67519
"65325",881.641,79.15892,131.6489
"65326",881.6543,79.168686,131.63237
"65327",881.6676,79.185776,131.62347
"65328",881.6809,79.21019,131.62244
"65329",881.6942,79.23216,131.61972
"65330",881.7075,79.24925,131.61281
"65331",881.7208,79.259026,131.59912
"65332",881.73413,79.26147,131.5784
"65333",881.74744,79.25414,131.54799
"65334",881.76074,79.24681,131.51735
"65335",881.77405,79.234604,131.4816
"65336",881.78735,79.22484,131.4479
"65337",881.80066,79.21263,131.41147
"65338",881.81396,79.19554,131.36977
"65339",881.8273,79.17357,131.32265
"65340",881.8406,79.15404,131.27728
"65341",881.8539,79.13451,131.23131
"65342",881.8672,79.114975,131.18472
"65343",881.8805,79.097885,131.13997
"65344",881.8938,79.08812,131.102
"65345",881.9071,79.07347,131.05885
"65346",881.9204,79.05882,131.01524
"65347",881.9337,79.044174,130.97118
"65348",881.947,79.027084,130.92421
"65349",881.9603,79.00755,130.87427
"65350",881.97363,78.99046,130.82616
"65351",881.98694,78.975815,130.77995
"65352",882.00024,78.96361,130.73573
"65353",882.01355,78.958725,130.69846
"65354",882.02686,78.96117,130.66835
"65355",882.04016,78.97093,130.64565
"65356",882.05347,78.97826,130.6208
"65357",882.0668,78.99046,130.60107
"65358",882.0801,79.009995,130.58905
"65359",882.0934,79.044174,130.59229
"65360",882.1067,79.11009,130.62833
"65361",882.12,79.24193,130.73235
"65362",882.1333,79.48852,130.95525
"65363",882.1466,79.87915,131.3299
"65364",882.1599,80.40894,131.85591
"65365",882.1732,81.02663,132.48637
"65366",882.1865,81.63943,133.13126
"65367",882.1998,82.15213,133.69519
"65368",882.21313,82.48173,134.09204
"65369",882.22644,82.58915,134.27702
"65370",882.23975,82.496376,134.26517
"65371",882.25305,82.25468,134.10149
"65372",882.26636,81.92264,133.8399
"65373",882.27966,81.55886,133.53621
"65374",882.29297,81.214615,133.24068
"65375",882.3063,80.92409,132.98811
"65376",882.3196,80.709236,132.80214
"65377",882.3329,80.570076,132.68515
"65378",882.3462,80.49683,132.62973
"65379",882.3595,80.465096,132.61353
"65380",882.3728,80.45533,132.6183
"65381",882.3861,80.43336,132.61057
"65382",882.3994,80.38941,132.58017
"65383",882.4127,80.33326,132.5362
"65384",882.426,80.27955,132.4929
"65385",882.43933,80.24536,132.46745
"65386",882.45264,80.2478,132.47757
"65387",882.46594,80.28443,132.52194
"65388",882.47925,80.3357,132.5821
"65389",882.49255,80.38453,132.64143
"65390",882.50586,80.40894,132.67787
"65391",882.51917,80.39918,132.6809
"65392",882.5325,80.35279,132.64699
"65393",882.5458,80.272224,132.57745
"65394",882.5591,80.16724,132.48097
"65395",882.5724,80.04761,132.36658
"65396",882.5857,79.923096,132.24356
"65397",882.599,79.801025,132.11908
"65398",882.6123,79.68627,131.99811
"65399",882.6256,79.58129,131.88332
"65400",882.6389,79.49096,131.77989
"65401",882.6522,79.41039,131.68341
"65402",882.6655,79.34936,131.60394
"65403",882.67883,79.30053,131.53477
"65404",882.69214,79.26391,131.47629
"65405",882.70544,79.23949,131.42886
"65406",882.71875,79.22728,131.39288
"65407",882.73206,79.22728,131.36873
"65408",882.74536,79.234604,131.3519
"65409",882.75867,79.25414,131.34752
"65410",882.772,79.281,131.35106
"65411",882.7853,79.30785,131.35544
"65412",882.7986,79.33471,131.36066
"65413",882.8119,79.35912,131.36427
"65414",882.8252,79.378654,131.36377
"65415",882.8385,79.39086,131.35655
"65416",882.8518,79.395744,131.34239
"65417",882.8651,79.395744,131.3235
"65418",882.8784,79.398186,131.30705
"65419",882.8917,79.40063,131.29068
"65420",882.905,79.40307,131.27438
"65421",882.91833,79.40307,131.25572
"65422",882.93164,79.395744,131.22974
"65423",882.94495,79.38354,131.19864
"65424",882.95825,79.35668,131.15251
"65425",882.97156,79.3225,131.09822
"65426",882.98486,79.290764,131.0453
"65427",882.99817,79.259026,130.9914
"65428",883.0115,79.22972,130.93893
"65429",883.0248,79.21019,130.89532
"65430",883.0381,79.19554,130.85599
"65431",883.0514,79.18089,130.8162
"65432",883.0647,79.168686,130.77838
"65433",883.078,79.1638,130.74751
"65434",883.0913,79.15892,130.71649
"65435",883.1046,79.15892,130.6902
"65436",883.1179,79.1638,130.6688
"65437",883.1312,79.1638,130.64265
"65438",883.14453,79.15648,130.60919
"65439",883.15784,79.149155,130.5755
"65440",883.17114,79.13939,130.53914
"65441",883.18445,79.12718,130.50003
"65442",883.19775,79.11742,130.46298
"65443",883.21106,79.13695,130.45493
"65444",883.22437,79.234604,130.5256
"65445",883.2377,79.4641,130.73119
"65446",883.251,79.85474,131.10507
"65447",883.2643,80.38697,131.63277
"65448",883.2776,80.987564,132.24545
"65449",883.2909,81.55642,132.84517
"65450",883.3042,81.99344,133.33083
"65451",883.3175,82.23514,133.63483
"65452",883.3308,82.269325,133.73886
"65453",883.3441,82.1326,133.67305
"65454",883.3574,81.87137,133.47847
"65455",883.3707,81.53445,133.20003
"65456",883.38403,81.16823,132.88176
"65457",883.39734,80.82643,132.57648
"65458",883.41064,80.54078,132.31665
"65459",883.42395,80.32105,132.11383
"65460",883.43726,80.17212,131.97493
"65461",883.45056,80.08667,131.89487
"65462",883.46387,80.042725,131.85364
"65463",883.4772,80.02319,131.83545
"65464",883.4905,80.02319,131.83618
"65465",883.5038,80.042725,131.85645
"65466",883.5171,80.093994,131.90906
"65467",883.5304,80.17212,131.99011
"65468",883.5437,80.274666,132.09804
"65469",883.557,80.394295,132.22626
"65470",883.5703,80.50904,132.35333
"65471",883.5836,80.59693,132.45714
"65472",883.5969,80.6482,132.52707
"65473",883.6102,80.65064,132.54977
"65474",883.62354,80.60914,132.52861
"65475",883.63684,80.52613,132.46465
"65476",883.65015,80.411385,132.36635
"65477",883.66345,80.27955,132.24738
"65478",883.67676,80.14038,132.11694
"65479",883.69006,79.99878,131.97974
"65480",883.70337,79.86694,131.84787
"65481",883.7167,79.74975,131.72652
"65482",883.73,79.64721,131.61615
"65483",883.7433,79.55932,131.51723
"65484",883.7566,79.49584,131.43997
"65485",883.7699,79.447014,131.37538
"65486",883.7832,79.415276,131.32635
"65487",883.7965,79.395744,131.28854
"65488",883.8098,79.38598,131.25989
"65489",883.8231,79.378654,131.23337
"65490",883.8364,79.381096,131.21638
"65491",883.84973,79.38842,131.20436
"65492",883.86304,79.40307,131.19989
"65493",883.87634,79.42016,131.19832
"65494",883.88965,79.43725,131.19728
"65495",883.90295,79.4519,131.19434
"65496",883.91626,79.466545,131.19185
"65497",883.92957,79.47875,131.18738
"65498",883.9429,79.49096,131.18329
"65499",883.9562,79.49584,131.17226
"65500",883.9695,79.49828,131.15894
"65501",883.9828,79.49096,131.13593
"65502",883.9961,79.47875,131.1078
"65503",884.0094,79.45922,131.07198
"65504",884.0227,79.44213,131.03798
"65505",884.036,79.42504,131.00345
"65506",884.0493,79.40795,130.96838
"65507",884.0626,79.38354,130.92546
"65508",884.0759,79.35668,130.87933
"65509",884.08923,79.32494,130.82748
"65510",884.10254,79.28832,130.76976
"65511",884.11584,79.2517,130.71089
"65512",884.12915,79.2224,130.6582
"65513",884.14246,79.200424,130.61192
"65514",884.15576,79.18822,130.57472
"65515",884.16907,79.183334,130.54446
"65516",884.1824,79.19066,130.52626
"65517",884.1957,79.200424,130.51073
"65518",884.209,79.21263,130.49794
"65519",884.2223,79.22484,130.48553
"65520",884.2356,79.24193,130.4784
"65521",884.2489,79.26635,130.47913
"65522",884.2622,79.29809,130.48793
"65523",884.2755,79.344475,130.51237
"65524",884.2888,79.429924,130.57733
"65525",884.3021,79.5935,130.72308
"65526",884.3154,79.886475,131.00336
"65527",884.32874,80.31861,131.43195
"65528",884.34204,80.85329,131.97658
"65529",884.35535,81.4197,132.56966
"65530",884.36865,81.917755,133.11208
"65531",884.38196,82.252235,133.50648
"65532",884.39526,82.38163,133.70627
"65533",884.40857,82.31571,133.71478
"65534",884.4219,82.08865,133.56009
"65535",884.4352,81.76395,133.30066
"65536",884.4485,81.392845,132.98468
"65537",884.4618,81.01686,132.65222
"65538",884.4751,80.67017,132.33731
"65539",884.4884,80.377205,132.06529
"65540",884.5017,80.147705,131.84758
"65541",884.515,79.971924,131.67642
"65542",884.5283,79.84009,131.5437
"65543",884.5416,79.744865,131.44348
"65544",884.55493,79.68139,131.37202
"65545",884.56824,79.656975,131.33765
"65546",884.58154,79.68871,131.35866
"65547",884.59485,79.781494,131.44171
"65548",884.60815,79.93286,131.58624
"65549",884.62146,80.12085,131.77213
"65550",884.63477,80.323494,131.97855
"65551",884.6481,80.5066,132.17177
"65552",884.6614,80.638435,132.31944
"65553",884.6747,80.706795,132.40776
"65554",884.688,80.70435,132.42741
"65555",884.7013,80.635994,132.38107
"65556",884.7146,80.51148,132.27644
"65557",884.7279,80.35035,132.1313
"65558",884.7412,80.17944,131.97134
"65559",884.7545,80.01099,131.8085
"65560",884.7678,79.84741,131.64526
"65561",884.7811,79.70092,131.494
"65562",884.79443,79.57641,131.36014
"65563",884.80774,79.483635,131.25412
"65564",884.82104,79.41772,131.17206
"65565",884.83435,79.38598,131.12212
"65566",884.84766,79.378654,131.0956
"65567",884.86096,79.395744,131.09326
"65568",884.87427,79.41772,131.09634
"65569",884.8876,79.44457,131.105
"65570",884.9009,79.466545,131.1096
"65571",884.9142,79.47875,131.10513
"65572",884.9275,79.47631,131.0864
"65573",884.9408,79.466545,131.06026
"65574",884.9541,79.4519,131.02893
"65575",884.9674,79.447014,131.00691
"65576",884.9807,79.45922,131.00183
"65577",884.994,79.49096,131.01666
"65578",885.0073,79.534904,131.0447
"65579",885.0206,79.58373,131.07898
"65580",885.03394,79.62768,131.10991
"65581",885.04724,79.66186,131.13245
"65582",885.06055,79.68871,131.14873
"65583",885.07385,79.70336,131.15364
"65584",885.08716,79.708244,131.14925
"65585",885.10046,79.708244,131.14012
"65586",885.1138,79.70092,131.12367
"65587",885.1271,79.68627,131.09967
"65588",885.1404,79.66674,131.07033
"65589",885.1537,79.639885,131.03305
"65590",885.167,79.61059,130.9925
"65591",885.1803,79.57397,130.9437
"65592",885.1936,79.537346,130.89375
"65593",885.2069,79.50805,130.84999
"65594",885.2202,79.483635,130.8102
"65595",885.2335,79.466545,130.77696
"65596",885.2468,79.45434,130.74808
"65597",885.26013,79.449455,130.72614
"65598",885.27344,79.45434,130.7138
"65599",885.28674,79.47631,130.71872
"65600",885.30005,79.517815,130.74385
"65601",885.31335,79.60815,130.8191
"65602",885.32666,79.77905,130.97777
"65603",885.33997,80.06714,131.25894
"65604",885.3533,80.482185,131.67609
"65605",885.3666,80.98024,132.18921
"65606",885.3799,81.50027,132.73987
"65607",885.3932,81.94705,133.23354
"65608",885.4065,82.23758,133.58492
"65609",885.4198,82.33036,133.74762
"65610",885.4331,82.24246,133.73254
"65611",885.4464,82.01541,133.57558
"65612",885.4597,81.6907,133.31384
"65613",885.473,81.322044,132.99803
"65614",885.4863,80.953384,132.67068
"65615",885.49963,80.60914,132.35623
"65616",885.51294,80.306404,132.07254
"65617",885.52625,80.062256,131.83797
"65618",885.53955,79.871826,131.64948
"65619",885.55286,79.73266,131.5063
"65620",885.56616,79.63256,131.39784
"65621",885.57947,79.56664,131.32043
"65622",885.5928,79.54711,131.28735
"65623",885.6061,79.58373,131.30981
"65624",885.6194,79.67895,131.39201
"65625",885.6327,79.83276,131.5358
"65626",885.646,80.02319,131.72101
"65627",885.6593,80.22339,131.92194
"65628",885.6726,80.40406,132.10959
"65629",885.6859,80.5481,132.26627
"65630",885.6992,80.64088,132.37617
"65631",885.7125,80.67506,132.43039
"65632",885.7258,80.6482,132.42464
"65633",885.73914,80.570076,132.36678
"65634",885.75244,80.44068,132.2552
"65635",885.76575,80.28443,132.11273
"65636",885.77905,80.113525,131.95071
"65637",885.79236,79.94995,131.79068
"65638",885.80566,79.79614,131.63531
"65639",885.819,79.66918,131.50198
"65640",885.8323,79.569084,131.39154
"65641",885.8456,79.49828,131.30727
"65642",885.8589,79.449455,131.24275
"65643",885.8722,79.4226,131.19868
"65644",885.8855,79.412834,131.17087
"65645",885.8988,79.40795,131.14763
"65646",885.9121,79.41039,131.13156
"65647",885.9254,79.412834,131.11557
"65648",885.9387,79.42016,131.10454
"65649",885.952,79.42748,131.09373
"65650",885.96533,79.43969,131.08804
"65651",885.97864,79.4641,131.09494
"65652",885.99194,79.49096,131.10504
"65653",886.00525,79.5227,131.12086
"65654",886.01855,79.554436,131.13768
"65655",886.03186,79.588615,131.15793
"65656",886.04517,79.62035,131.1768
"65657",886.0585,79.65209,131.19667
"65658",886.0718,79.676506,131.2102
"65659",886.0851,79.693596,131.21718
"65660",886.0984,79.69848,131.21248
"65661",886.1117,79.68871,131.19328
"65662",886.125,79.6643,131.15913
"65663",886.1383,79.63256,131.1169
"65664",886.1516,79.59838,131.07123
"65665",886.1649,79.56176,131.02205
"65666",886.1782,79.52758,130.97417
"65667",886.1915,79.500725,130.93254
"65668",886.20483,79.48119,130.8974
"65669",886.21814,79.47143,130.87141
"65670",886.23145,79.46899,130.85245
"65671",886.24475,79.47387,130.84073
"65672",886.25806,79.48608,130.83649
"65673",886.27136,79.51537,130.84972
"65674",886.28467,79.55932,130.87851
"65675",886.298,79.63012,130.93553
"65676",886.3113,79.7522,131.04605
"65677",886.3246,79.95972,131.24582
"65678",886.3379,80.2649,131.54974
"65679",886.3512,80.66285,131.95598
"65680",886.3645,81.10475,132.4186
"65681",886.3778,81.51736,132.86572
"65682",886.3911,81.82498,133.22076
"65683",886.4044,81.97635,133.42917
"65684",886.4177,81.96658,133.48117
"65685",886.431,81.8201,133.39615
"65686",886.44434,81.57839,133.21132
"65687",886.45764,81.2781,132.96036
"65688",886.47095,80.95827,132.68047
"65689",886.48425,80.64332,132.39546
"65690",886.49756,80.34791,132.12016
"65691",886.51086,80.09155,131.87468
"65692",886.5242,79.871826,131.6578
"65693",886.5375,79.68139,131.46336
"65694",886.5508,79.52514,131.29715
"65695",886.5641,79.40063,131.15779
"65696",886.5774,79.327385,131.06581
"65697",886.5907,79.327385,131.04478
"65698",886.604,79.41039,131.10677
"65699",886.6173,79.5642,131.24214
"65700",886.6306,79.77905,131.44337
"65701",886.6439,80.01099,131.6684
"65702",886.6572,80.23071,131.88846
"65703",886.67053,80.40406,132.06902
"65704",886.68384,80.52369,132.20128
"65705",886.69714,80.5774,132.27136
"65706",886.71045,80.57496,132.28697
"65707",886.72375,80.52613,132.25612
"65708",886.73706,80.445564,132.192
"65709",886.75037,80.33814,132.09851
"65710",886.7637,80.218506,131.98944
"65711",886.777,80.09155,131.86932
"65712",886.7903,79.96704,131.74768
"65713",886.8036,79.84009,131.61969
"65714",886.8169,79.72289,131.4975
"65715",886.8302,79.61791,131.38385
"65716",886.8435,79.52514,131.27913
"65717",886.8568,79.44457,131.18372
"65718",886.8701,79.381096,131.10287
"65719",886.8834,79.33715,131.03958
"65720",886.8967,79.31274,130.99445
"65721",886.91003,79.310295,130.97052
"65722",886.92334,79.32494,130.96361
"65723",886.93665,79.35912,130.97668
"65724",886.94995,79.41039,131.00792
"65725",886.96326,79.4641,131.0432
"65726",886.97656,79.51537,131.07771
"65727",886.98987,79.56176,131.10895
"65728",887.0032,79.60082,131.13431
"65729",887.0165,79.62524,131.14624
"65730",887.0298,79.64477,131.15405
"65731",887.0431,79.66186,131.16003
"65732",887.0564,79.676506,131.16411
"65733",887.0697,79.68139,131.15887
"65734",887.083,79.676506,131.14403
"65735",887.0963,79.66186,131.11926
"65736",887.1096,79.64233,131.08916
"65737",887.1229,79.62524,131.06088
"65738",887.1362,79.61303,131.03696
"65739",887.14954,79.61059,131.02242
"65740",887.16284,79.62524,131.02489
"65741",887.17615,79.67162,131.05956
"65742",887.18945,79.783936,131.1616
"65743",887.20276,79.99878,131.36969
"65744",887.21606,80.32838,131.69925
"65745",887.2294,80.7483,132.12944
"65746",887.2427,81.20241,132.60693
"65747",887.256,81.600365,133.04247
"65748",887.2693,81.87625,133.36836
"65749",887.2826,81.991,133.54175
"65750",887.2959,81.951935,133.56491
"65751",887.3092,81.7908,133.46478
"65752",887.3225,81.54665,133.2766
"65753",887.3358,81.253685,133.03197
"65754",887.3491,80.936295,132.75375
"65755",887.3624,80.61646,132.46318
"65756",887.37573,80.31861,132.1846
"65757",887.38904,80.059814,131.93576
"65758",887.40234,79.84985,131.72766
"65759",887.41565,79.68139,131.5545
"65760",887.42896,79.551994,131.41515
"65761",887.44226,79.46166,131.3108
"65762",887.45557,79.4226,131.25491
"65763",887.4689,79.44213,131.2564
"65764",887.4822,79.534904,131.33173
"65765",887.4955,79.69604,131.47832
"65766",887.5088,79.91577,131.68855
"65767",887.5221,80.15747,131.92761
"65768",887.5354,80.38941,132.16447
"65769",887.5487,80.58228,132.36952
"65770",887.562,80.72144,132.52689
"65771",887.5753,80.782486,132.61047
"65772",887.5886,80.77272,132.62517
"65773",887.6019,80.70191,132.5785
"65774",887.61523,80.58228,132.48082
"65775",887.62854,80.430916,132.34766
"65776",887.64185,80.26734,132.19756
"65777",887.65515,80.111084,132.04965
"65778",887.66846,79.96216,131.9042
"65779",887.68176,79.82788,131.76874
"65780",887.69507,79.71313,131.6486
"65781",887.7084,79.622795,131.5493
"65782",887.7217,79.551994,131.4667
"65783",887.735,79.50317,131.40387
"65784",887.7483,79.47631,131.36148
"65785",887.7616,79.4641,131.3329
"65786",887.7749,79.45922,131.31126
"65787",887.7882,79.46166,131.2968
"65788",887.8015,79.4641,131.28241
"65789",887.8148,79.466545,131.2681
"65790",887.8281,79.47875,131.26363
"65791",887.84143,79.50561,131.27419
"65792",887.85474,79.554436,131.30756
"65793",887.86804,79.62768,131.36687
"65794",887.88135,79.71801,131.44556
"65795",887.89465,79.81079,131.52953
"65796",887.90796,79.886475,131.5993
"65797",887.92126,79.937744,131.64703
"65798",887.9346,79.95972,131.66705
"65799",887.9479,79.95239,131.65848
"65800",887.9612,79.92798,131.63257
"65801",887.9745,79.8938,131.59613
"65802",887.9878,79.85474,131.55374
"65803",888.0011,79.82544,131.5199
"65804",888.0144,79.83032,131.51932
"65805",888.0277,79.90845,131.59213
"65806",888.041,80.10864,131.78946
"65807",888.0543,80.46021,132.14442
"65808",888.0676,80.94606,132.64465
"65809",888.08093,81.51003,133.23819
"65810",888.09424,82.06912,133.84447
"65811",888.10754,82.52567,134.36568
"65812",888.12085,82.82109,134.74002
"65813",888.13416,82.930954,134.93805
"65814",888.14746,82.87236,134.97105
"65815",888.16077,82.67948,134.86794
"65816",888.1741,82.388954,134.66115
"65817",888.1874,82.04227,134.38911
"65818",888.2007,81.671165,134.08183
"65819",888.214,81.31228,133.77518
"65820",888.2273,80.990005,133.49391
"65821",888.2406,80.72144,133.25629
"65822",888.2539,80.51148,133.06888
"65823",888.2672,80.36256,132.93594
"65824",888.2805,80.257576,132.8423
"65825",888.2938,80.19409,132.78687
"65826",888.3071,80.16724,132.76608
"65827",888.32043,80.18677,132.79083
"65828",888.33374,80.257576,132.86748
"65829",888.34705,80.38453,133.00249
"65830",888.36035,80.55787,133.18785
"65831",888.37366,80.75807,133.40549
"65832",888.38696,80.95094,133.62206
"65833",888.40027,81.10719,133.80803
"65834",888.4136,81.20241,133.93785
"65835",888.4269,81.234146,134.00717
"65836",888.4402,81.19997,134.01157
"65837",888.4535,81.109634,133.95874
"65838",888.4668,80.98024,133.86403
"65839",888.4801,80.816666,133.7311
"65840",888.4934,80.635994,133.57594
"65841",888.5067,80.448006,133.40784
"65842",888.52,80.26246,133.2363
"65843",888.5333,80.08667,133.06871
"65844",888.54663,79.93286,132.9176
"65845",888.55994,79.801025,132.78366
"65846",888.57324,79.691154,132.66757
"65847",888.58655,79.603264,132.57002
"65848",888.59985,79.53979,132.49414
"65849",888.61316,79.500725,132.44069
"65850",888.62646,79.483635,132.40799
"65851",888.6398,79.48852,132.39673
"65852",888.6531,79.50317,132.39539
"65853",888.6664,79.52514,132.40182
"65854",888.6797,79.54955,132.41139
"65855",888.693,79.571526,132.41928
"65856",888.7063,79.588615,132.42297
"65857",888.7196,79.603264,132.42476
"65858",888.7329,79.61547,132.42456
"65859",888.7462,79.622795,132.41986
"65860",888.7595,79.622795,132.40807
"65861",888.7728,79.61547,132.38895
"65862",888.78613,79.603264,132.36472
"65863",888.79944,79.59106,132.3401
"65864",888.81274,79.57641,132.31267
"65865",888.82605,79.55932,132.28233
"65866",888.83936,79.54223,132.25146
"65867",888.85266,79.52758,132.2225
"65868",888.86597,79.534904,132.21506
"65869",888.8793,79.60815,132.27376
"65870",888.8926,79.80347,132.45683
"65871",888.9059,80.15747,132.80469
"65872",888.9192,80.65797,133.3101
"65873",888.9325,81.25124,133.92395
"65874",888.9458,81.85184,134.56364
"65875",888.9591,82.3621,135.13177
"65876",888.9724,82.71122,135.55472
"65877",888.9857,82.86992,135.79814
"65878",888.999,82.85283,135.87074
"65879",889.0123,82.686806,135.79387
"65880",889.02563,82.41825,135.60928
"65881",889.03894,82.09598,135.36258
"65882",889.05225,81.76639,135.0985
"65883",889.06555,81.46609,134.8534
"65884",889.07886,81.214615,134.64774
"65885",889.09216,81.0193,134.49039
"65886",889.10547,80.8777,134.38065
"65887",889.1188,80.7776,134.30798
"65888",889.1321,80.70191,134.25659
"65889",889.1454,80.6482,134.22482
"65890",889.1587,80.618904,134.21579
"65891",889.172,80.62379,134.24002
"65892",889.1853,80.67017,134.30591
"65893",889.1986,80.75319,134.40987
"65894",889.2119,80.86305,134.54327
"65895",889.2252,80.97536,134.68256
"65896",889.2385,81.06081,134.7985
"65897",889.25183,81.09987,134.87071
"65898",889.26514,81.092545,134.89777
"65899",889.27844,81.03883,134.8782
"65900",889.29175,80.9485,134.82034
"65901",889.30505,80.82887,134.73036
"65902",889.31836,80.68726,134.61465
"65903",889.33167,80.52857,134.47745
"65904",889.345,80.365,134.3304
"65905",889.3583,80.19653,134.17334
"65906",889.3716,80.0354,134.01834
"65907",889.3849,79.886475,133.87051
"65908",889.3982,79.74975,133.73024
"65909",889.4115,79.63012,133.60278
"65910",889.4248,79.52514,133.48624
"65911",889.4381,79.43725,133.3835
"65912",889.4514,79.36645,133.2951
"65913",889.4647,79.31274,133.22159
"65914",889.478,79.273674,133.16104
"65915",889.49133,79.256584,133.12125
"65916",889.50464,79.2517,133.09312
"65917",889.51794,79.26147,133.0795
"65918",889.53125,79.276115,133.07106
"65919",889.54456,79.30053,133.07285
"65920",889.55786,79.32006,133.07051
"65921",889.57117,79.33471,133.0639
"65922",889.5845,79.34692,133.05531
"65923",889.5978,79.35424,133.04222
"65924",889.6111,79.35424,133.02203
"65925",889.6244,79.34936,132.99696
"65926",889.6377,79.33227,132.95953
"65927",889.651,79.310295,132.91669
"65928",889.6643,79.273674,132.8585
"65929",889.6776,79.23216,132.7943
"65930",889.6909,79.183334,132.72147
"65931",889.7042,79.14183,132.65443
"65932",889.7175,79.10277,132.58855
"65933",889.73083,79.07591,132.53365
"65934",889.74414,79.080795,132.50964
"65935",889.75745,79.15404,132.55415
"65936",889.77075,79.344475,132.71815
"65937",889.78406,79.691154,133.04434
"65938",889.79736,80.19653,133.54007
"65939",889.81067,80.82399,134.17368
"65940",889.824,81.48562,134.86105
"65941",889.8373,82.08621,135.50807
"65942",889.8506,82.54276,136.02982
"65943",889.8639,82.82109,136.3876
"65944",889.8772,82.913864,136.56854
"65945",889.8905,82.85039,136.59613
"65946",889.9038,82.669716,136.50453
"65947",889.9171,82.41337,136.33162
"65948",889.9304,82.12039,136.11406
"65949",889.9437,81.829865,135.8898
"65950",889.95703,81.566185,135.6833
"65951",889.97034,81.35134,135.51741
"65952",889.98364,81.1902,135.3985
"65953",889.99695,81.07057,135.31607
"65954",890.01025,80.970474,135.24944
"65955",890.02356,80.88014,135.18944
"65956",890.03687,80.79469,135.1315
"65957",890.0502,80.723885,135.08553
"65958",890.0635,80.68238,135.06665
"65959",890.0768,80.68726,135.09286
"65960",890.0901,80.740974,135.16806
"65961",890.1034,80.82887,135.27911
"65962",890.1167,80.91676,135.39291
"65963",890.13,80.98512,135.48993
"65964",890.1433,81.01686,135.55246
"65965",890.1566,80.99489,135.56227
"65966",890.1699,80.91676,135.51524
"65967",890.1832,80.78981,135.41695
"65968",890.19653,80.62623,135.27805
"65969",890.20984,80.43336,135.10475
"65970",890.22314,80.22827,134.91321
"65971",890.23645,80.028076,134.72015
"65972",890.24976,79.84741,134.54037
"65973",890.26306,79.68871,134.3769
"65974",890.27637,79.551994,134.23045
"65975",890.2897,79.43725,134.1017
"65976",890.303,79.33959,133.98645
"65977",890.3163,79.26147,133.88768
"65978",890.3296,79.19554,133.79868
"65979",890.3429,79.14671,133.7247
"65980",890.3562,79.11253,133.66385
"65981",890.3695,79.09056,133.61414
"65982",890.3828,79.06615,133.5613
"65983",890.3961,79.046616,133.51257
"65984",890.4094,79.029526,133.46568
"65985",890.4227,79.01976,133.42558
"65986",890.43604,79.009995,133.38518
"65987",890.44934,79.00755,133.35179
"65988",890.46265,79.00755,133.32077
"65989",890.47595,79.00511,133.28731
"65990",890.48926,79.00267,133.25377
"65991",890.50256,78.995346,133.21527
"65992",890.51587,78.9807,133.16922
"65993",890.5292,78.95628,133.11295
"65994",890.5425,78.922104,133.04614
"65995",890.5558,78.88304,132.97339
"65996",890.5691,78.839096,132.89453
"65997",890.5824,78.79515,132.8143
"65998",890.5957,78.75609,132.73758
"65999",890.609,78.71946,132.66208
"66000",890.6223,78.69016,132.59276
"66001",890.6356,78.67063,132.53229
"66002",890.6489,78.66575,132.48586
"66003",890.66223,78.68284,132.46124
"66004",890.67554,78.75853,132.49577
"66005",890.68884,78.93187,132.63031
"66006",890.70215,79.24681,132.91187
"66007",890.71545,79.725334,133.36685
"66008",890.72876,80.34058,133.97351
"66009",890.74207,81.02174,134.66531
"66010",890.7554,81.66628,135.34178
"66011",890.7687,82.18143,135.909
"66012",890.782,82.49882,136.29456
"66013",890.7953,82.6038,136.47763
"66014",890.8086,82.51591,136.47112
"66015",890.8219,82.2913,136.32513
"66016",890.8352,81.98123,136.08667
"66017",890.8485,81.63943,135.80678
"66018",890.8618,81.31472,135.53331
"66019",890.8751,81.04372,135.30339
"66020",890.8884,80.833755,135.12605
"66021",890.90173,80.689705,135.00806
"66022",890.91504,80.58961,134.92952
"66023",890.92834,80.51392,134.87227
"66024",890.94165,80.445564,134.81998
"66025",890.95496,80.37476,134.7631
"66026",890.96826,80.31617,134.71623
"66027",890.98157,80.28687,134.69682
"66028",890.9949,80.2942,134.71312
"66029",891.0082,80.343025,134.77115
"66030",891.0215,80.41627,134.85512
"66031",891.0348,80.49195,134.94382
"66032",891.0481,80.54566,135.01291
"66033",891.0614,80.55787,135.04218
"66034",891.0747,80.52125,135.023
"66035",891.088,80.43336,134.9514
"66036",891.1013,80.308846,134.84044
"66037",891.1146,80.15503,134.69627
"66038",891.1279,79.98901,134.5351
"66039",891.14124,79.823,134.36874
"66040",891.15454,79.66674,134.20695
"66041",891.16785,79.51293,134.04272
"66042",891.18115,79.36889,133.88345
"66043",891.19446,79.23216,133.727
"66044",891.20776,79.10277,133.57361
"66045",891.22107,78.9807,133.4235
"66046",891.2344,78.86839,133.27933
"66047",891.2477,78.77562,133.15118
"66048",891.261,78.70725,133.04456
"66049",891.2743,78.660866,132.95776
"66050",891.2876,78.641335,132.89638
"66051",891.3009,78.643776,132.85635
"66052",891.3142,78.660866,132.83105
"66053",891.3275,78.68772,132.81606
"66054",891.3408,78.71702,132.80434
"66055",891.3541,78.746315,132.79353
"66056",891.36743,78.77074,132.77878
"66057",891.38074,78.78783,132.75745
"66058",891.39404,78.79759,132.72932
"66059",891.40735,78.79515,132.6893
"66060",891.42065,78.78294,132.63943
"66061",891.43396,78.75609,132.57454
"66062",891.44727,78.71946,132.49904
"66063",891.4606,78.675514,132.41507
"66064",891.4739,78.626686,132.32484
"66065",891.4872,78.58274,132.23798
"66066",891.5005,78.54612,132.15706
"66067",891.5138,78.519264,132.08476
"66068",891.5271,78.504616,132.02383
"66069",891.5404,78.49973,131.97221
"66070",891.5537,78.49973,131.92532
"66071",891.567,78.51194,131.89064
"66072",891.5803,78.56321,131.8954
"66073",891.5936,78.695045,131.98233
"66074",891.60693,78.95384,132.20035
"66075",891.62024,79.37621,132.59003
"66076",891.63354,79.94751,133.14183
"66077",891.64685,80.61402,133.8067
"66078",891.66016,81.28298,134.49486
"66079",891.67346,81.8616,135.11357
"66080",891.68677,82.27909,135.58923
"66081",891.7001,82.5037,135.88507
"66082",891.7134,82.54032,135.99994
"66083",891.7267,82.43046,135.96947
"66084",891.74,82.210724,135.82568
"66085",891.7533,81.92996,135.61401
"66086",891.7666,81.636986,135.38135
"66087",891.7799,81.36599,135.16151
"66088",891.7932,81.14137,134.97958
"66089",891.8065,80.9778,134.85168
"66090",891.8198,80.85329,134.75774
"66091",891.8331,80.75319,134.68431
"66092",891.84644,80.655525,134.61018
"66093",891.85974,80.552986,134.52814
"66094",891.87305,80.448006,134.44044
"66095",891.88635,80.360115,134.36656
"66096",891.89966,80.308846,134.32655
"66097",891.91296,80.30396,134.33133
"66098",891.9263,80.343025,134.3799
"66099",891.9396,80.40406,134.45166
"66100",891.9529,80.46754,134.52777
"66101",891.9662,80.50416,134.57901
"66102",891.9795,80.49683,134.58745
"66103",891.9928,80.43824,134.54439
"66104",892.0061,80.33326,134.45311
"66105",892.0194,80.184326,134.31459
"66106",892.0327,80.0061,134.14212
"66107",892.046,79.818115,133.95432
"66108",892.0593,79.62768,133.7582
"66109",892.07263,79.449455,133.56833
"66110",892.08594,79.28832,133.38998
"66111",892.09924,79.149155,133.22858
"66112",892.11255,79.03197,133.0848
"66113",892.12585,78.93431,132.95688
"66114",892.13916,78.8513,132.84056
"66115",892.15247,78.78783,132.74118
"66116",892.1658,78.73899,132.65446
"66117",892.1791,78.70725,132.58331
"66118",892.1924,78.68284,132.5185
"66119",892.2057,78.67063,132.46512
"66120",892.219,78.66331,132.41624
"66121",892.2323,78.658424,132.36958
"66122",892.2456,78.65354,132.32277
"66123",892.2589,78.6511,132.27824
"66124",892.2722,78.65598,132.24097
"66125",892.2855,78.66331,132.20628
"66126",892.2988,78.675514,132.17671
"66127",892.31213,78.69749,132.15729
"66128",892.32544,78.71946,132.13855
"66129",892.33875,78.73167,132.11073
"66130",892.35205,78.73167,132.07109
"66131",892.36536,78.7219,132.02168
"66132",892.37866,78.69016,131.95
"66133",892.39197,78.643776,131.86267
"66134",892.4053,78.58518,131.76169
"66135",892.4186,78.52659,131.65887
"66136",892.4319,78.47288,131.55911
"66137",892.4452,78.43137,131.46988
"66138",892.4585,78.399635,131.38911
"66139",892.4718,78.380104,131.31956
"66140",892.4851,78.37522,131.26405
"66141",892.4984,78.382545,131.2206
"66142",892.5117,78.40208,131.18958
"66143",892.525,78.45823,131.19579
"66144",892.5383,78.58274,131.27211
"66145",892.55164,78.82689,131.47197
"66146",892.56494,79.22728,131.8357
"66147",892.57825,79.78638,132.37064
"66148",892.59155,80.46754,133.04512
"66149",892.60486,81.19264,133.78484
"66150",892.61816,81.85428,134.48375
"66151",892.6315,82.36454,135.05196
"66152",892.6448,82.67948,135.4408
"66153",892.6581,82.794235,135.63928
"66154",892.6714,82.73319,135.66556
"66155",892.6847,82.53788,135.55566
"66156",892.698,82.25956,135.35666
"66157",892.7113,81.94949,135.1172
"66158",892.7246,81.654076,134.8827
"66159",892.7379,81.409935,134.69026
"66160",892.7512,81.23903,134.56342
"66161",892.7645,81.143814,134.50693
"66162",892.77783,81.094986,134.49385
"66163",892.79114,81.058365,134.49146
"66164",892.80444,81.00221,134.46838
"66165",892.81775,80.919205,134.4167
"66166",892.83105,80.81911,134.34534
"66167",892.84436,80.719,134.27083
"66168",892.85767,80.6482,134.2225
"66169",892.871,80.61402,134.20859
"66170",892.8843,80.60914,134.2229
"66171",892.8976,80.61402,134.24683
"66172",892.9109,80.60914,134.26114
"66173",892.9242,80.57496,134.246
"66174",892.9375,80.5066,134.19562
"66175",892.9508,80.40406,134.10892
"66176",892.9641,80.2649,133.98239
"66177",892.9774,80.1062,133.83197
"66178",892.9907,79.9353,133.6644
"66179",893.004,79.76196,133.48904
"66180",893.01733,79.59838,133.31802
"66181",893.03064,79.4519,133.15898
"66182",893.04395,79.3225,133.01245
"66183",893.05725,79.20531,132.87408
"66184",893.07056,79.10277,132.7467
"66185",893.08386,79.00267,132.61856
"66186",893.09717,78.907455,132.49217
"66187",893.1105,78.82201,132.37257
"66188",893.1238,78.751205,132.26495
"66189",893.1371,78.69993,132.17465
"66190",893.1504,78.66819,132.10228
"66191",893.1637,78.65354,132.046
"66192",893.177,78.6511,132.00148
"66193",893.1903,78.65598,131.9642
"66194",893.2036,78.660866,131.92708
"66195",893.2169,78.658424,131.88278
"66196",893.2302,78.6511,131.83353
"66197",893.2435,78.63401,131.77428
"66198",893.25684,78.61692,131.7145
"66199",893.27014,78.60471,131.65906
"66200",893.28345,78.59983,131.61057
"66201",893.29675,78.59739,131.56436
"66202",893.31006,78.59739,131.52052
"66203",893.32336,78.59495,131.47424
"66204",893.3367,78.58518,131.42056
"66205",893.35,78.56321,131.35437
"66206",893.3633,78.52659,131.27284
"66207",893.3766,78.470436,131.17064
"66208",893.3899,78.397194,131.04959
"66209",893.4032,78.311745,130.91405
"66210",893.4165,78.22873,130.77827
"66211",893.4298,78.15549,130.64967
"66212",893.4431,78.1091,130.54564
"66213",893.4564,78.08957,130.46701
"66214",893.4697,78.09445,130.41219
"66215",893.48303,78.116425,130.3746
"66216",893.49634,78.153046,130.35236
"66217",893.50964,78.19943,130.34102
"66218",893.52295,78.24826,130.33357
"66219",893.53625,78.3093,130.33987
"66220",893.54956,78.41428,130.39201
"66221",893.56287,78.60471,130.53288
"66222",893.5762,78.92943,130.814
"66223",893.5895,79.41039,131.2615
"66224",893.6028,80.03052,131.8632
"66225",893.6161,80.72877,132.56241
"66226",893.6294,81.409935,133.26636
"66227",893.6427,81.97879,133.87927
"66228",893.656,82.3621,134.32442
"66229",893.6693,82.54276,134.5789
"66230",893.6826,82.530556,134.64616
"66231",893.6959,82.371864,134.56656
"66232",893.7092,82.11063,134.37944
"66233",893.72253,81.80545,134.14023
"66234",893.73584,81.50271,133.8939
"66235",893.74915,81.24147,133.67963
"66236",893.76245,81.041275,133.51823
"66237",893.77576,80.907,133.4165
"66238",893.78906,80.82399,133.36185
"66239",893.80237,80.76784,133.33145
"66240",893.8157,80.719,133.30661
"66241",893.829,80.66285,133.27293
"66242",893.8423,80.59449,133.2253
"66243",893.8556,80.533455,133.18285
"66244",893.8689,80.48707,133.15314
"66245",893.8822,80.47242,133.15372
"66246",893.8955,80.48951,133.18558
"66247",893.9088,80.52857,133.23994
"66248",893.9221,80.57496,133.30286
"66249",893.9354,80.6067,133.35257
"66250",893.9487,80.6067,133.37154
"66251",893.96204,80.56519,133.349
"66252",893.97534,80.48463,133.2861
"66253",893.98865,80.36256,133.17918
"66254",894.00195,80.21118,133.03914
"66255",894.01526,80.03784,132.8724
"66256",894.02856,79.852295,132.68805
"66257",894.0419,79.656975,132.48811
"66258",894.0552,79.46899,132.2894
"66259",894.0685,79.293205,132.09702
"66260",894.0818,79.13695,131.91867
"66261",894.0951,79.00511,131.75986
"66262",894.1084,78.90013,131.62378
"66263",894.1217,78.82933,131.5186
"66264",894.135,78.78294,131.43562
"66265",894.1483,78.75609,131.37073
"66266",894.1616,78.751205,131.32697
"66267",894.1749,78.765854,131.30258
"66268",894.18823,78.79271,131.29086
"66269",894.20154,78.82201,131.28242
"66270",894.21484,78.8513,131.2749
"66271",894.22815,78.87572,131.26341
"66272",894.24146,78.88548,131.23804
"66273",894.25476,78.88548,131.2032
"66274",894.26807,78.87572,131.1586
"66275",894.2814,78.856186,131.10393
"66276",894.2947,78.83177,131.04376
"66277",894.308,78.802475,130.97795
"66278",894.3213,78.77074,130.90878
"66279",894.3346,78.73655,130.83618
"66280",894.3479,78.70481,130.76495
"66281",894.3612,78.6804,130.70006
"66282",894.3745,78.658424,130.63684
"66283",894.3878,78.63889,130.57538
"66284",894.4011,78.624245,130.51819
"66285",894.4144,78.61448,130.46542
"66286",894.42773,78.59983,130.40747
"66287",894.44104,78.5803,130.34418
"66288",894.45435,78.56321,130.28271
"66289",894.46765,78.538795,130.2134
"66290",894.48096,78.51194,130.14087
"66291",894.49426,78.48264,130.06506
"66292",894.50757,78.45579,129.99078
"66293",894.5209,78.4387,129.92543
"66294",894.5342,78.42893,129.86687
"66295",894.5475,78.433815,129.82265
"66296",894.5608,78.46555,129.80544
"66297",894.5741,78.536354,129.82828
"66298",894.5874,78.675514,129.92169
"66299",894.6007,78.93919,130.14398
"66300",894.614,79.35668,130.52832
"66301",894.6273,79.923096,131.07463
"66302",894.6406,80.59693,131.74606
"66303",894.65393,81.29275,132.46054
"66304",894.66724,81.90799,133.11618
"66305",894.68054,82.36454,133.63235
"66306",894.69385,82.61845,133.96016
"66307",894.70715,82.67948,134.10303
"66308",894.72046,82.57694,134.08423
"66309",894.73376,82.354774,133.9426
"66310",894.7471,82.06668,133.72809
"66311",894.7604,81.76639,133.49239
"66312",894.7737,81.4905,133.2717
"66313",894.787,81.27322,133.101
"66314",894.8003,81.12428,132.99185
"66315",894.8136,81.03395,132.93666
"66316",894.8269,80.98024,132.91527
"66317",894.8402,80.938736,132.9044
"66318",894.8535,80.88258,132.8776
"66319",894.8668,80.80446,132.82706
"66320",894.8801,80.723885,132.77162
"66321",894.89343,80.655525,132.72589
"66322",894.90674,80.618904,132.70976
"66323",894.92004,80.63111,132.74132
"66324",894.93335,80.67506,132.805
"66325",894.94666,80.73121,132.88225
"66326",894.95996,80.77028,132.94417
"66327",894.97327,80.780045,132.97801
"66328",894.9866,80.7483,132.97064
"66329",894.9999,80.6775,132.92323
"66330",895.0132,80.57984,132.84676
"66331",895.0265,80.45777,132.74281
"66332",895.0398,80.31617,132.61552
"66333",895.0531,80.15747,132.4667
"66334",895.0664,79.98657,132.30072
"66335",895.0797,79.81079,132.12451
"66336",895.093,79.639885,131.9477
"66337",895.1063,79.47631,131.77286
"66338",895.1196,79.33471,131.61488
"66339",895.13293,79.2224,131.48178
"66340",895.14624,79.14671,131.38179
"66341",895.15955,79.11009,131.3185
"66342",895.17285,79.10277,131.28336
"66343",895.18616,79.11009,131.26263
"66344",895.19946,79.12962,131.25435
"66345",895.21277,79.14671,131.24423
"66346",895.2261,79.15404,131.22488
"66347",895.2394,79.149155,131.19356
"66348",895.2527,79.13939,131.1572
"66349",895.266,79.1223,131.1132
"66350",895.2793,79.10277,131.06624
"66351",895.2926,79.08568,131.0211
"66352",895.3059,79.078354,130.9852
"66353",895.3192,79.07591,130.95395
"66354",895.3325,79.07103,130.92018
"66355",895.3458,79.06859,130.8887
"66356",895.35913,79.063705,130.8547
"66357",895.37244,79.05882,130.82056
"66358",895.38574,79.05638,130.7887
"66359",895.39905,79.05638,130.7592
"66360",895.41235,79.05638,130.7297
"66361",895.42566,79.04906,130.69289
"66362",895.43896,79.03685,130.65096
"66363",895.4523,79.00755,130.59155
"66364",895.4656,78.96849,130.52147
"66365",895.4789,78.91722,130.43796
"66366",895.4922,78.86351,130.3504
"66367",895.5055,78.80736,130.25873
"66368",895.5188,78.76341,130.1775
"66369",895.5321,78.73655,130.112
"66370",895.5454,78.72434,130.0603
"66371",895.5587,78.73411,130.0302
"66372",895.572,78.76341,130.01994
"66373",895.5853,78.81224,130.03012
"66374",895.59863,78.87572,130.05647
"66375",895.61194,78.97826,130.12387
"66376",895.62524,79.15404,130.26772
"66377",895.63855,79.447014,130.53426
"66378",895.65186,79.886475,130.95644
"66379",895.66516,80.465096,131.53151
"66380",895.67847,81.1194,132.20035
"66381",895.6918,81.76395,132.87988
"66382",895.7051,82.29862,133.46968
"66383",895.7184,82.652626,133.89552
"66384",895.7317,82.79668,134.12247
"66385",895.745,82.74784,134.16103
"66386",895.7583,82.55009,134.04915
"66387",895.7716,82.25712,133.83588
"66388",895.7849,81.92752,133.57681
"66389",895.7982,81.60769,133.31721
"66390",895.8115,81.339134,133.0989
"66391",895.8248,81.143814,132.94543
"66392",895.83813,81.02663,132.864
"66393",895.85144,80.97536,132.84482
"66394",895.86475,80.96559,132.86554
"66395",895.87805,80.96803,132.89816
"66396",895.89136,80.9485,132.90889
"66397",895.90466,80.89479,132.88483
"66398",895.91797,80.81911,132.83711
"66399",895.9313,80.7483,132.7919
"66400",895.9446,80.70191,132.7689
"66401",895.9579,80.69703,132.78596
"66402",895.9712,80.723885,132.83461
"66403",895.9845,80.762955,132.8963
"66404",895.9978,80.78981,132.947
"66405",896.0111,80.79225,132.97414
"66406",896.0244,80.76051,132.96716
"66407",896.0377,80.69947,132.92989
"66408",896.051,80.61402,132.8663
"66409",896.06433,80.50172,132.7732
"66410",896.07764,80.36744,132.6546
"66411",896.09094,80.218506,132.51715
"66412",896.10425,80.062256,132.36774
"66413",896.11755,79.90845,132.21588
"66414",896.13086,79.76929,132.07385
"66415",896.14417,79.65209,131.94945
"66416",896.1575,79.554436,131.84091
"66417",896.1708,79.47875,131.7513
"66418",896.1841,79.42016,131.6764
"66419",896.1974,79.37377,131.6119
"66420",896.2107,79.33715,131.5557
"66421",896.224,79.30541,131.50323
"66422",896.2373,79.28344,131.45955
"66423",896.2506,79.273674,131.42738
"66424",896.2639,79.273674,131.40468
"66425",896.2772,79.281,131.3893
"66426",896.2905,79.293205,131.37903
"66427",896.30383,79.30785,131.37158
"66428",896.31714,79.31274,131.35483
"66429",896.33044,79.30541,131.32602
"66430",896.34375,79.28832,131.28722
"66431",896.35706,79.26879,131.24544
"66432",896.37036,79.24925,131.20305
"66433",896.38367,79.23949,131.16982
"66434",896.397,79.234604,131.14116
"66435",896.4103,79.22972,131.11235
"66436",896.4236,79.22484,131.08339
"66437",896.4369,79.21507,131.0494
"66438",896.4502,79.200424,131.01021
"66439",896.4635,79.183334,130.96812
"66440",896.4768,79.16136,130.92062
"66441",896.4901,79.132065,130.86511
"66442",896.5034,79.093,130.79892
"66443",896.5167,79.04906,130.72662
"66444",896.53,79.009995,130.65784
"66445",896.54333,78.97337,130.59027
"66446",896.55664,78.94896,130.53377
"66447",896.56995,78.93919,130.49115
"66448",896.58325,78.93431,130.45311
"66449",896.59656,78.94408,130.42957
"66450",896.60986,78.975815,130.4283
"66451",896.62317,79.05394,130.47441
"66452",896.6365,79.219955,130.61086
"66453",896.6498,79.520256,130.88678
"66454",896.6631,79.9646,131.31613
"66455",896.6764,80.533455,131.88388
"66456",896.6897,81.160904,132.528
"66457",896.703,81.75906,133.16245
"66458",896.7163,82.22781,133.68617
"66459",896.7296,82.513466,134.04144
"66460",896.7429,82.59403,134.20056
"66461",896.7562,82.49882,134.18642
"66462",896.76953,82.26444,134.03014
"66463",896.78284,81.94217,133.77863
"66464",896.79614,81.58816,133.4853
"66465",896.80945,81.248795,133.19557
"66466",896.82275,80.953384,132.9392
"66467",896.83606,80.72877,132.74437
"66468",896.84937,80.58228,132.62067
"66469",896.8627,80.49439,132.55098
"66470",896.876,80.44068,132.51273
"66471",896.8893,80.396736,132.48256
"66472",896.9026,80.35767,132.4559
"66473",896.9159,80.323494,132.4329
"66474",896.9292,80.31617,132.4357
"66475",896.9425,80.35279,132.48221
"66476",896.9558,80.44068,132.58113
"66477",896.9691,80.55543,132.70966
"66478",896.9824,80.672615,132.84421
"66479",896.9957,80.75563,132.94824
"66480",897.00903,80.79225,133.00848
"66481",897.02234,80.77028,133.01128
"66482",897.03564,80.69947,132.96454
"66483",897.04895,80.59205,132.87898
"66484",897.06226,80.46754,132.77298
"66485",897.07556,80.33082,132.65088
"66486",897.08887,80.18677,132.51717
"66487",897.1022,80.04028,132.37653
"66488",897.1155,79.90112,132.23862
"66489",897.1288,79.77173,132.10614
"66490",897.1421,79.656975,131.98425
"66491",897.1554,79.5642,131.88075
"66492",897.1687,79.48608,131.789
"66493",897.182,79.42504,131.7119
"66494",897.1953,79.37133,131.64021
"66495",897.2086,79.33227,131.5815
"66496",897.2219,79.30297,131.53133
"66497",897.2352,79.28588,131.49245
"66498",897.24854,79.276115,131.46036
"66499",897.26184,79.28344,131.44505
"66500",897.27515,79.30053,131.43974
"66501",897.28845,79.32494,131.44229
"66502",897.30176,79.34692,131.44316
"66503",897.31506,79.364006,131.43983
"66504",897.32837,79.37377,131.42972
"66505",897.3417,79.378654,131.41502
"66506",897.355,79.37621,131.39316
"66507",897.3683,79.36645,131.36389
"66508",897.3816,79.34692,131.32455
"66509",897.3949,79.31518,131.2724
"66510",897.4082,79.26635,131.20216
"66511",897.4215,79.217514,131.1304
"66512",897.4348,79.17113,131.05956
"66513",897.4481,79.132065,130.99458
"66514",897.4614,79.10765,130.94304
"66515",897.47473,79.08812,130.89561
"66516",897.48804,79.07347,130.85246
"66517",897.50134,79.061264,130.8113
"66518",897.51465,79.05638,130.77707
"66519",897.52795,79.06615,130.75734
"66520",897.54126,79.10277,130.76477
"66521",897.55457,79.19798,130.83194
"66522",897.5679,79.395744,131.00464
"66523",897.5812,79.73022,131.32022
"66524",897.5945,80.201416,131.78299
"66525",897.6078,80.77272,132.3606
"66526",897.6211,81.37087,132.9829
"66527",897.6344,81.90555,133.56041
"66528",897.6477,82.28886,134.00327
"66529",897.661,82.48661,134.27255
"66530",897.6743,82.49882,134.36247
"66531",897.6876,82.3621,134.30385
"66532",897.7009,82.12039,134.13596
"66533",897.71423,81.82742,133.90926
"66534",897.72754,81.52468,133.66362
"66535",897.74084,81.25124,133.43784
"66536",897.75415,81.02663,133.25232
"66537",897.76746,80.86549,133.12328
"66538",897.78076,80.75075,133.03558
"66539",897.79407,80.66285,132.97115
"66540",897.8074,80.587166,132.91618
"66541",897.8207,80.516365,132.86374
"66542",897.834,80.445564,132.80908
"66543",897.8473,80.396736,132.77419
"66544",897.8606,80.38941,132.77927
"66545",897.8739,80.430916,132.83295
"66546",897.8872,80.51392,132.92943
"66547",897.9005,80.62623,133.0578
"66548",897.9138,80.743416,133.19456
"66549",897.9271,80.833755,133.30814
"66550",897.9404,80.87282,133.37326
"66551",897.95374,80.85329,133.38101
"66552",897.96704,80.77028,133.32468
"66553",897.98035,80.63111,133.20958
"66554",897.99365,80.45289,133.05109
"66555",898.00696,80.257576,132.86993
"66556",898.02026,80.06958,132.68999
"66557",898.03357,79.89624,132.51883
"66558",898.0469,79.74975,132.3691
"66559",898.0602,79.63744,132.24896
"66560",898.0735,79.54955,132.14973
"66561",898.0868,79.483635,132.06973
"66562",898.1001,79.43481,132.00476
"66563",898.1134,79.40063,131.95291
"66564",898.1267,79.37377,131.90732
"66565",898.14,79.34936,131.86333
"66566",898.1533,79.32983,131.82346
"66567",898.1666,79.31762,131.7903
"66568",898.17993,79.30297,131.75432
"66569",898.19324,79.29565,131.7252
"66570",898.20654,79.293205,131.70074
"66571",898.21985,79.290764,131.67621
"66572",898.23315,79.293205,131.65648
"66573",898.24646,79.30053,131.64171
"66574",898.25977,79.30785,131.62717
"66575",898.2731,79.310295,131.60797
"66576",898.2864,79.30785,131.58397
"66577",898.2997,79.29809,131.55257
"66578",898.313,79.281,131.51353
"66579",898.3263,79.259026,131.46909
"66580",898.3396,79.234604,131.42151
"66581",898.3529,79.20775,131.37073
"66582",898.3662,79.17601,131.31422
"66583",898.3795,79.14183,131.25429
"66584",898.3928,79.10765,131.19328
"66585",898.4061,79.07591,131.13365
"66586",898.41943,79.05638,131.08524
"66587",898.43274,79.05638,131.05574
"66588",898.44604,79.10765,131.07751
"66589",898.45935,79.2517,131.19368
"66590",898.47266,79.53002,131.44861
"66591",898.48596,79.96216,131.86606
"66592",898.49927,80.52613,132.42885
"66593",898.5126,81.15358,133.07274
"66594",898.5259,81.75174,133.70695
"66595",898.5392,82.23514,134.2451
"66596",898.5525,82.54276,134.62257
"66597",898.5658,82.66483,134.82411
"66598",898.5791,82.616005,134.85857
"66599",898.5924,82.44022,134.76454
"66600",898.6057,82.18387,134.58444
"66601",898.619,81.89334,134.36217
"66602",898.6323,81.61257,134.14056
"66603",898.6456,81.37087,133.94926
"66604",898.65894,81.18776,133.80899
"66605",898.67224,81.06813,133.72649
"66606",898.68555,80.99733,133.68907
"66607",898.69885,80.94118,133.6641
"66608",898.71216,80.88014,133.63248
"66609",898.72546,80.8069,133.58675
"66610",898.7388,80.726326,133.53139
"66611",898.7521,80.655525,133.48329
"66612",898.7654,80.61646,133.46472
"66613",898.7787,80.61402,133.48155
"66614",898.792,80.64576,133.53249
"66615",898.8053,80.69215,133.59906
"66616",898.8186,80.72877,133.65732
"66617",898.8319,80.73365,133.68498
"66618",898.8452,80.70435,133.67862
"66619",898.8585,80.63111,133.6274
"66620",898.8718,80.51881,133.53482
"66621",898.88513,80.377205,133.40944
"66622",898.89844,80.22339,133.26741
"66623",898.91174,80.06958,133.12057
"66624",898.92505,79.923096,132.97626
"66625",898.93835,79.79126,132.84201
"66626",898.95166,79.674065,132.71829
"66627",898.96497,79.571526,132.60556
"66628",898.9783,79.48608,132.50671
"66629",898.9916,79.412834,132.4174
"66630",899.0049,79.34936,132.33557
"66631",899.0182,79.29565,132.26152
"66632",899.0315,79.25414,132.198
"66633",899.0448,79.219955,132.1405
"66634",899.0581,79.19066,132.08682
"66635",899.0714,79.1638,132.03467
"66636",899.0847,79.14427,131.989
"66637",899.098,79.12962,131.9476
"66638",899.1113,79.1223,131.91307
"66639",899.12463,79.11986,131.8832
"66640",899.13794,79.12474,131.86057
"66641",899.15125,79.132065,131.84053
"66642",899.16455,79.13451,131.81584
"66643",899.17786,79.132065,131.78635
"66644",899.19116,79.1223,131.74945
"66645",899.20447,79.10521,131.70493
"66646",899.2178,79.078354,131.6501
"66647",899.2311,79.04173,131.58467
"66648",899.2444,78.992905,131.50589
"66649",899.2577,78.93919,131.4207
"66650",899.271,78.88304,131.33139
"66651",899.2843,78.836655,131.25009
"66652",899.2976,78.80003,131.17711
"66653",899.3109,78.785385,131.12495
"66654",899.3242,78.79515,131.09676
"66655",899.3375,78.86351,131.12746
"66656",899.3508,79.02464,131.25307
"66657",899.36414,79.32006,131.518
"66658",899.37744,79.75952,131.93622
"66659",899.39075,80.32105,132.49023
"66660",899.40405,80.936295,133.11551
"66661",899.41736,81.5198,133.72827
"66662",899.43066,81.97635,134.23232
"66663",899.444,82.247345,134.56508
"66664",899.4573,82.320595,134.70856
"66665",899.4706,82.21805,134.67853
"66666",899.4839,81.991,134.5208
"66667",899.4972,81.69802,134.29004
"66668",899.5105,81.39529,134.04037
"66669",899.5238,81.11452,133.8032
"66670",899.5371,80.89479,133.61832
"66671",899.5504,80.74586,133.49734
"66672",899.5637,80.66529,133.4401
"66673",899.577,80.62623,133.42183
"66674",899.59033,80.604256,133.41943
"66675",899.60364,80.570076,133.40414
"66676",899.61694,80.51392,133.36581
"66677",899.63025,80.43824,133.3062
"66678",899.64355,80.36988,133.25154
"66679",899.65686,80.325935,133.21916
"66680",899.67017,80.31861,133.22203
"66681",899.6835,80.343025,133.25641
"66682",899.6968,80.38697,133.31108
"66683",899.7101,80.4358,133.37201
"66684",899.7234,80.46998,133.41982
"66685",899.7367,80.47242,133.43695
"66686",899.75,80.43336,133.41266
"66687",899.7633,80.35035,133.3432
"66688",899.7766,80.23071,133.23451
"66689",899.7899,80.08423,133.09525
"66690",899.8032,79.92554,132.93918
"66691",899.8165,79.76929,132.78061
"66692",899.82983,79.622795,132.6269
"66693",899.84314,79.48852,132.48083
"66694",899.85645,79.37377,132.3501
"66695",899.86975,79.27856,132.2353
"66696",899.88306,79.200424,132.13463
"66697",899.89636,79.13695,132.04616
"66698",899.90967,79.08568,131.96791
"66699",899.923,79.04173,131.89539
"66700",899.9363,79.00023,131.82393
"66701",899.9496,78.96361,131.75606
"66702",899.9629,78.93187,131.69193
"66703",899.9762,78.905014,131.63168
"66704",899.9895,78.88304,131.57549
"66705",900.0028,78.873276,131.5308
"66706",900.0161,78.87572,131.49803
"66707",900.0294,78.88304,131.47021
"66708",900.0427,78.89525,131.44751
"66709",900.056,78.90013,131.41786
"66710",900.06934,78.89525,131.3786
"66711",900.08264,78.8806,131.32942
"66712",900.09595,78.85863,131.27246
"66713",900.10925,78.83177,131.20993
"66714",900.12256,78.802475,131.14412
"66715",900.13586,78.768295,131.07251
"66716",900.1492,78.73167,130.99739
"66717",900.1625,78.69016,130.91624
"66718",900.1758,78.6511,130.83624
"66719",900.1891,78.61448,130.75746
"66720",900.2024,78.58274,130.68242
"66721",900.2157,78.55833,130.61371
"66722",900.229,78.551,130.56133
"66723",900.2423,78.590065,130.5551
"66724",900.2556,78.712135,130.6331
"66725",900.2689,78.97093,130.85165
"66726",900.2822,79.381096,131.22966
"66727",900.29553,79.92798,131.7572
"66728",900.30884,80.5481,132.37508
"66729",900.32214,81.15114,132.99524
"66730",900.33545,81.634544,133.51462
"66731",900.34875,81.93729,133.86844
"66732",900.36206,82.037384,134.02908
"66733",900.37537,81.95926,134.01463
"66734",900.3887,81.74685,133.86345
"66735",900.402,81.46609,133.63728
"66736",900.4153,81.17311,133.39012
"66737",900.4286,80.91432,133.168
"66738",900.4419,80.71412,132.99637
"66739",900.4552,80.58961,132.89418
"66740",900.4685,80.53101,132.85402
"66741",900.4818,80.516365,132.85597
"66742",900.4951,80.5066,132.86235
"66743",900.5084,80.479744,132.85133
"66744",900.5217,80.41627,132.80286
"66745",900.53503,80.325935,132.72554
"66746",900.54834,80.22827,132.63806
"66747",900.56165,80.15015,132.56708
"66748",900.57495,80.11597,132.5376
"66749",900.58826,80.130615,132.55588
"66750",900.60156,80.17456,132.60391
"66751",900.61487,80.22827,132.66309
"66752",900.6282,80.26978,132.71173
"66753",900.6415,80.27711,132.7275
"66754",900.6548,80.24292,132.70197
"66755",900.6681,80.164795,132.63144
"66756",900.6814,80.05493,132.52673
"66757",900.6947,79.923096,132.3966
"66758",900.708,79.783936,132.25504
"66759",900.7213,79.64721,132.11156
"66760",900.7346,79.517815,131.97113
"66761",900.7479,79.40063,131.83887
"66762",900.7612,79.29809,131.71759
"66763",900.77454,79.21019,131.60776
"66764",900.78784,79.13695,131.50983
"66765",900.80115,79.080795,131.4267
"66766",900.81445,79.03685,131.35402
"66767",900.82776,79.00511,131.29218
"66768",900.84106,78.98802,131.24399
"66769",900.8544,78.98314,131.20747
"66770",900.8677,78.98558,131.17813
"66771",900.881,78.992905,131.15375
"66772",900.8943,79.00267,131.13203
"66773",900.9076,79.012436,131.11063
"66774",900.9209,79.027084,131.0944
"66775",900.9342,79.05394,131.09085
"66776",900.9475,79.08812,131.09546
"66777",900.9608,79.11986,131.0987
"66778",900.9741,79.14671,131.09804
"66779",900.9874,79.15648,131.08113
"66780",901.00073,79.14671,131.045
"66781",901.01404,79.1223,130.99391
"66782",901.02734,79.08812,130.9323
"66783",901.04065,79.0515,130.86717
"66784",901.05396,79.01488,130.8009
"66785",901.06726,78.9807,130.73593
"66786",901.08057,78.94896,130.67233
"66787",901.0939,78.922104,130.61263
"66788",901.1072,78.89525,130.55208
"66789",901.1205,78.86839,130.49069
"66790",901.1338,78.84642,130.43335
"66791",901.1471,78.82933,130.3802
"66792",901.1604,78.82689,130.34117
"66793",901.1737,78.84886,130.32648
"66794",901.187,78.91234,130.35397
"66795",901.2003,79.05394,130.46158
"66796",901.2136,79.31762,130.6957
"66797",901.2269,79.73754,131.09428
"66798",901.24023,80.306404,131.65494
"66799",901.25354,80.98024,132.33835
"66800",901.26685,81.6614,133.05014
"66801",901.28015,82.252235,133.6929
"66802",901.29346,82.65507,134.16612
"66803",901.30676,82.83574,134.42976
"66804",901.32007,82.80888,134.49153
"66805",901.3334,82.62821,134.39864
"66806",901.3467,82.35233,134.2049
"66807",901.36,82.05203,133.9781
"66808",901.3733,81.778595,133.7688
"66809",901.3866,81.57107,133.61685
"66810",901.3999,81.449,133.54388
"66811",901.4132,81.40749,133.54767
"66812",901.4265,81.42458,133.60875
"66813",901.4398,81.46609,133.69478
"66814",901.4531,81.48562,133.76013
"66815",901.46643,81.446556,133.7675
"66816",901.47974,81.33669,133.70285
"66817",901.49304,81.17067,133.5786
"66818",901.50635,80.9778,133.42232
"66819",901.51965,80.79469,133.26978
"66820",901.53296,80.65797,133.15788
"66821",901.54626,80.58228,133.10277
"66822",901.5596,80.56519,133.10388
"66823",901.5729,80.584724,133.14108
"66824",901.5862,80.6067,133.18134
"66825",901.5995,80.61402,133.20763
"66826",901.6128,80.587166,133.19997
"66827",901.6261,80.52125,133.1524
"66828",901.6394,80.413826,133.06128
"66829",901.6527,80.28199,132.94238
"66830",901.666,80.13306,132.80226
"66831",901.6793,79.97925,132.65262
"66832",901.6926,79.83276,132.5055
"66833",901.70593,79.70336,132.37086
"66834",901.71924,79.59106,132.24928
"66835",901.73254,79.49584,132.14128
"66836",901.74585,79.41772,132.0474
"66837",901.75916,79.34692,131.95839
"66838",901.77246,79.28832,131.87938
"66839",901.78577,79.24193,131.81075
"66840",901.7991,79.21263,131.75775
"66841",901.8124,79.19798,131.71849
"66842",901.8257,79.19798,131.69342
"66843",901.839,79.202866,131.67323
"66844",901.8523,79.20775,131.6532
"66845",901.8656,79.20775,131.62843
"66846",901.8789,79.202866,131.59879
"66847",901.8922,79.1931,131.5641
"66848",901.9055,79.18089,131.52667
"66849",901.9188,79.17357,131.49374
"66850",901.9321,79.166245,131.46059
"66851",901.94543,79.151596,131.41988
"66852",901.95874,79.132065,131.37383
"66853",901.97205,79.10521,131.31984
"66854",901.98535,79.06859,131.25525
"66855",901.99866,79.027084,131.18463
"66856",902.01196,78.98802,131.11516
"66857",902.02527,78.95628,131.05179
"66858",902.0386,78.92943,130.99231
"66859",902.0519,78.905014,130.93443
"66860",902.0652,78.887924,130.88312
"66861",902.0785,78.873276,130.83371
"66862",902.0918,78.853745,130.77896
"66863",902.1051,78.84154,130.73093
"66864",902.1184,78.83177,130.68495
"66865",902.1317,78.82933,130.646
"66866",902.145,78.83177,130.61185
"66867",902.1583,78.839096,130.58266
"66868",902.17163,78.84154,130.54881
"66869",902.18494,78.84398,130.51505
"66870",902.19824,78.84642,130.48135
"66871",902.21155,78.84886,130.44774
"66872",902.22485,78.8513,130.4142
"66873",902.23816,78.853745,130.38074
"66874",902.25146,78.86839,130.35956
"66875",902.2648,78.90013,130.35593
"66876",902.2781,78.975815,130.39723
"66877",902.2914,79.13939,130.5288
"66878",902.3047,79.43481,130.79732
"66879",902.318,79.88403,131.22888
"66880",902.3313,80.46754,131.80876
"66881",902.3446,81.12428,132.48012
"66882",902.3579,81.75906,133.15004
"66883",902.3712,82.26444,133.71039
"66884",902.3845,82.579384,134.0961
"66885",902.3978,82.684364,134.2817
"66886",902.41113,82.60868,134.2899
"66887",902.42444,82.406044,134.1688
"66888",902.43774,82.13748,133.97542
"66889",902.45105,81.8616,133.76634
"66890",902.46436,81.62722,133.59013
"66891",902.47766,81.45632,133.4701
"66892",902.49097,81.36111,133.4204
"66893",902.5043,81.339134,133.44096
"66894",902.5176,81.36111,133.50479
"66895",902.5309,81.3904,133.57663
"66896",902.5442,81.392845,133.62253
"66897",902.5575,81.341576,133.61479
"66898",902.5708,81.22194,133.53708
"66899",902.5841,81.05592,133.40926
"66900",902.5974,80.87282,133.25916
"66901",902.6107,80.71656,133.13017
"66902",902.624,80.618904,133.05492
"66903",902.6373,80.587166,133.04253
"66904",902.65063,80.6067,133.08041
"66905",902.66394,80.65308,133.14577
"66906",902.67725,80.69215,133.20525
"66907",902.69055,80.70191,133.23665
"66908",902.70386,80.66773,133.22441
"66909",902.71716,80.59205,133.1696
"66910",902.73047,80.4773,133.07336
"66911",902.7438,80.3357,132.94669
"66912",902.7571,80.17456,132.79604
"66913",902.7704,80.008545,132.63547
"66914",902.7837,79.84985,132.47705
"66915",902.797,79.710686,132.33319
"66916",902.8103,79.603264,132.21672
"66917",902.8236,79.52758,132.12863
"66918",902.8369,79.47387,132.06015
"66919",902.8502,79.44213,132.01196
"66920",902.8635,79.42016,131.97255
"66921",902.87683,79.40795,131.94221
"66922",902.89014,79.398186,131.91394
"66923",902.90344,79.40063,131.89757
"66924",902.91675,79.40307,131.88127
"66925",902.93005,79.40795,131.8675
"66926",902.94336,79.41039,131.85143
"66927",902.95667,79.41039,131.833
"66928",902.97,79.41039,131.81456
"66929",902.9833,79.40063,131.78636
"66930",902.9966,79.38842,131.75542
"66931",903.0099,79.37133,131.71921
"66932",903.0232,79.34692,131.67514
"66933",903.0365,79.31762,131.62543
"66934",903.0498,79.28832,131.5748
"66935",903.0631,79.25414,131.51837
"66936",903.0764,79.219955,131.46088
"66937",903.0897,79.183334,131.39987
"66938",903.103,79.14427,131.33528
"66939",903.11633,79.10521,131.26947
"66940",903.12964,79.06615,131.20244
"66941",903.14294,79.03197,131.13907
"66942",903.15625,79.00511,131.08195
"66943",903.16956,78.98802,131.03377
"66944",903.18286,78.97826,130.99237
"66945",903.19617,78.9807,130.96288
"66946",903.2095,78.98314,130.93346
"66947",903.2228,78.98802,130.90656
"66948",903.2361,78.99046,130.87737
"66949",903.2494,78.992905,130.84825
"66950",903.2627,78.995346,130.81921
"66951",903.276,79.00267,130.79514
"66952",903.2893,79.00755,130.76884
"66953",903.3026,79.009995,130.74026
"66954",903.3159,79.012436,130.71176
"66955",903.3292,79.01976,130.68822
"66956",903.3425,79.029526,130.66734
"66957",903.35583,79.03929,130.64677
"66958",903.36914,79.05394,130.6314
"66959",903.38245,79.063705,130.61159
"66960",903.39575,79.07103,130.58965
"66961",903.40906,79.07591,130.56549
"66962",903.42236,79.08568,130.54637
"66963",903.43567,79.10521,130.53732
"66964",903.449,79.16136,130.5655
"66965",903.4623,79.30053,130.67847
"66966",903.4756,79.569084,130.92516
"66967",903.4889,79.9939,131.3365
"66968",903.5022,80.56031,131.90273
"66969",903.5155,81.20729,132.56721
"66970",903.5288,81.84207,133.23973
"66971",903.5421,82.3621,133.81732
"66972",903.5554,82.69657,134.22562
"66973",903.5687,82.82109,134.4344
"66974",903.58203,82.75517,134.45665
"66975",903.59534,82.545204,134.33278
"66976",903.60864,82.25468,134.1218
"66977",903.62195,81.94217,133.87975
"66978",903.63525,81.65652,133.65479
"66979",903.64856,81.43191,133.48195
"66980",903.66187,81.28054,133.37534
"66981",903.6752,81.20729,133.3421
"66982",903.6885,81.1902,133.36275
"66983",903.7018,81.20485,133.4146
"66984",903.7151,81.22194,133.46935
"66985",903.7284,81.20973,133.49533
"66986",903.7417,81.163345,133.48676
"66987",903.755,81.08522,133.44499
"66988",903.7683,80.99977,133.39346
"66989",903.7816,80.93141,133.35635
"66990",903.7949,80.902115,133.35617
"66991",903.8082,80.90944,133.3917
"66992",903.82153,80.936295,133.44698
"66993",903.83484,80.96315,133.5031
"66994",903.84814,80.96803,133.53809
"66995",903.86145,80.92897,133.52928
"66996",903.87476,80.848404,133.47775
"66997",903.88806,80.72877,133.38463
"66998",903.90137,80.587166,133.26581
"66999",903.9147,80.4358,133.1328
"67000",903.928,80.28443,132.99506
"67001",903.9413,80.13794,132.85745
"67002",903.9546,80.0061,132.72992
"67003",903.9679,79.88403,132.60803
"67004",903.9812,79.77661,132.49698
"67005",903.9945,79.68871,132.4021
"67006",904.0078,79.622795,132.32645
"67007",904.0211,79.57397,132.26582
"67008",904.0344,79.53979,132.21832
"67009",904.0477,79.517815,132.18196
"67010",904.06104,79.50805,132.15712
"67011",904.07434,79.50561,132.1393
"67012",904.08765,79.50561,132.12384
"67013",904.10095,79.51049,132.11327
"67014",904.11426,79.517815,132.10529
"67015",904.12756,79.52514,132.09753
"67016",904.14087,79.52758,132.08513
"67017",904.1542,79.52758,132.07036
"67018",904.1675,79.517815,132.04582
"67019",904.1808,79.50317,132.0161
"67020",904.1941,79.48119,131.97859
"67021",904.2074,79.45678,131.93796
"67022",904.2207,79.4226,131.8868
"67023",904.234,79.381096,131.82724
"67024",904.2473,79.33471,131.7615
"67025",904.2606,79.290764,131.69676
"67026",904.2739,79.24681,131.63065
"67027",904.28723,79.20775,131.56804
"67028",904.30054,79.17845,131.51398
"67029",904.31384,79.14671,131.45656
"67030",904.32715,79.114975,131.39815
"67031",904.34045,79.08324,131.33875
"67032",904.35376,79.05394,131.28079
"67033",904.36707,79.027084,131.22437
"67034",904.3804,79.00511,131.17198
"67035",904.3937,78.98802,131.1238
"67036",904.407,78.9807,131.08484
"67037",904.4203,78.98314,131.05542
"67038",904.4336,78.99779,131.03828
"67039",904.4469,79.027084,131.03625
"67040",904.4602,79.06615,131.0449
"67041",904.4735,79.10277,131.05234
"67042",904.4868,79.132065,131.05359
"67043",904.5001,79.14671,131.0411
"67044",904.5134,79.149155,131.01688
"67045",904.52673,79.13695,130.97807
"67046",904.54004,79.11742,130.93156
"67047",904.55334,79.09544,130.882
"67048",904.56665,79.078354,130.83664
"67049",904.57996,79.061264,130.79074
"67050",904.59326,79.04906,130.74919
"67051",904.60657,79.061264,130.73167
"67052",904.6199,79.13451,130.77557
"67053",904.6332,79.3225,130.93652
"67054",904.6465,79.66674,131.25958
"67055",904.6598,80.16724,131.74966
"67056",904.6731,80.780045,132.3677
"67057",904.6864,81.42214,133.03418
"67058",904.6997,81.99344,133.64992
"67059",904.713,82.406044,134.12482
"67060",904.7263,82.616005,134.40997
"67061",904.7396,82.62577,134.5015
"67062",904.7529,82.46952,134.4273
"67063",904.76624,82.20096,134.23592
"67064",904.77954,81.86893,133.97267
"67065",904.79285,81.53445,133.6966
"67066",904.80615,81.24147,133.45157
"67067",904.81946,81.01198,133.26088
"67068",904.83276,80.86061,133.14114
"67069",904.84607,80.780045,133.08748
"67070",904.8594,80.74586,133.07767
"67071",904.8727,80.73121,133.08633
"67072",904.886,80.71412,133.0921
"67073",904.8993,80.68238,133.08269
"67074",904.9126,80.64088,133.06252
"67075",904.9259,80.61402,133.0557
"67076",904.9392,80.618904,133.07977
"67077",904.9525,80.66285,133.14307
"67078",904.9658,80.73853,133.23947
"67079",904.9791,80.82399,133.348
"67080",904.99243,80.89723,133.447
"67081",905.00574,80.921646,133.49947
"67082",905.01904,80.89235,133.49898
"67083",905.03235,80.814224,133.44875
"67084",905.04565,80.69459,133.35455
"67085",905.05896,80.54322,133.2249
"67086",905.07227,80.38209,133.08075
"67087",905.0856,80.22095,132.93155
"67088",905.0989,80.06958,132.78708
"67089",905.1122,79.93286,132.65253
"67090",905.1255,79.82056,132.53812
"67091",905.1388,79.73022,132.44217
"67092",905.1521,79.66186,132.36537
"67093",905.1654,79.605705,132.29865
"67094",905.1787,79.56176,132.24237
"67095",905.192,79.52758,132.19449
"67096",905.2053,79.49828,132.15042
"67097",905.2186,79.47631,132.11276
"67098",905.23193,79.46166,132.08174
"67099",905.24524,79.45434,132.05759
"67100",905.25854,79.449455,132.03564
"67101",905.27185,79.449455,132.01843
"67102",905.28516,79.45434,132.0061
"67103",905.29846,79.46166,131.99637
"67104",905.31177,79.4641,131.98198
"67105",905.3251,79.46166,131.96278
"67106",905.3384,79.45434,131.93863
"67107",905.3517,79.43969,131.90692
"67108",905.365,79.415276,131.86499
"67109",905.3783,79.38598,131.81741
"67110",905.3916,79.3518,131.76404
"67111",905.4049,79.30785,131.69983
"67112",905.4182,79.259026,131.62936
"67113",905.4315,79.21019,131.55737
"67114",905.4448,79.16136,131.48386
"67115",905.4581,79.11742,131.4137
"67116",905.47144,79.080795,131.34949
"67117",905.48474,79.0515,131.29146
"67118",905.49805,79.027084,131.2374
"67119",905.51135,79.00755,131.18745
"67120",905.52466,78.992905,131.14178
"67121",905.53796,78.9807,131.0981
"67122",905.5513,78.97337,131.05891
"67123",905.5646,78.97337,131.02682
"67124",905.5779,78.97826,130.99962
"67125",905.5912,78.98802,130.97745
"67126",905.6045,78.995346,130.95314
"67127",905.6178,78.99779,130.92418
"67128",905.6311,78.992905,130.88797
"67129",905.6444,78.98314,130.84673
"67130",905.6577,78.975815,130.80762
"67131",905.671,78.975815,130.7756
"67132",905.6843,78.9807,130.74847
"67133",905.69763,78.995346,130.73126
"67134",905.71094,79.02464,130.72916
"67135",905.72424,79.07591,130.74994
"67136",905.73755,79.183334,130.82848
"67137",905.75085,79.3933,131.01292
"67138",905.76416,79.727776,131.32843
"67139",905.77747,80.18921,131.78136
"67140",905.7908,80.73121,132.32927
"67141",905.8041,81.287865,132.90878
"67142",905.8174,81.77127,133.43243
"67143",905.8307,82.108185,133.8247
"67144",905.844,82.26444,134.04684
"67145",905.8573,82.24246,134.09563
"67146",905.8706,82.07889,134.00214
"67147",905.8839,81.815216,133.80344
"67148",905.8972,81.4905,133.53545
"67149",905.9105,81.15602,133.24754
"67150",905.9238,80.85817,132.98582
"67151",905.93713,80.60914,132.76361
"67152",905.95044,80.41871,132.59222
"67153",905.96375,80.274666,132.46127
"67154",905.97705,80.16724,132.36243
"67155",905.99036,80.076904,132.27731
"67156",906.00366,80.008545,132.21136
"67157",906.01697,79.97681,132.1799
"67158",906.0303,80.00122,132.20358
"67159",906.0436,80.09155,132.29395
"67160",906.0569,80.235596,132.44086
"67161",906.0702,80.40406,132.61668
"67162",906.0835,80.570076,132.79533
"67163",906.0968,80.70435,132.94743
"67164",906.1101,80.79469,133.05978
"67165",906.1234,80.82887,133.1188
"67166",906.1367,80.8069,133.12274
"67167",906.15,80.73121,133.07227
"67168",906.1633,80.61646,132.98038
"67169",906.17664,80.46998,132.85316
"67170",906.18994,80.306404,132.70428
"67171",906.20325,80.1355,132.54295
"67172",906.21655,79.96948,132.38116
"67173",906.22986,79.81323,132.22397
"67174",906.24316,79.66918,132.07408
"67175",906.2565,79.54711,131.94167
"67176",906.2698,79.4519,131.83229
"67177",906.2831,79.38354,131.7468
"67178",906.2964,79.33959,131.68358
"67179",906.3097,79.31274,131.63608
"67180",906.323,79.30297,131.60483
"67181",906.3363,79.310295,131.59036
"67182",906.3496,79.327385,131.58589
"67183",906.3629,79.3518,131.58928
"67184",906.3762,79.378654,131.59587
"67185",906.3895,79.40795,131.60574
"67186",906.40283,79.432365,131.61165
"67187",906.41614,79.45678,131.61832
"67188",906.42944,79.47631,131.62086
"67189",906.44275,79.49096,131.61914
"67190",906.45605,79.50317,131.61543
"67191",906.46936,79.500725,131.59746
"67192",906.48267,79.48852,131.56964
"67193",906.496,79.45922,131.52435
"67194",906.5093,79.42016,131.46838
"67195",906.5226,79.37133,131.40143
"67196",906.5359,79.3225,131.33295
"67197",906.5492,79.281,131.27026
"67198",906.5625,79.24681,131.21361
"67199",906.5758,79.2224,131.16565
"67200",906.5891,79.202866,131.12181
"67201",906.6024,79.18822,131.08224
"67202",906.6157,79.17357,131.04222
"67203",906.629,79.166245,131.00906
"67204",906.64233,79.16136,130.97812
"67205",906.65564,79.15892,130.94946
"67206",906.66895,79.15648,130.92073
"67207",906.68225,79.151596,130.88948
"67208",906.69556,79.13939,130.85075
"67209",906.70886,79.12718,130.81165
"67210",906.72217,79.11986,130.77704
"67211",906.7355,79.12474,130.75441
"67212",906.7488,79.14671,130.74902
"67213",906.7621,79.18822,130.76385
"67214",906.7754,79.26635,130.81662
"67215",906.7887,79.40551,130.93285
"67216",906.802,79.65453,131.16328
"67217",906.8153,80.04761,131.54556
"67218",906.8286,80.57984,132.07928
"67219",906.8419,81.20241,132.71997
"67220",906.8552,81.84207,133.39722
"67221",906.8685,82.40116,134.01387
"67222",906.88184,82.79912,134.48686
"67223",906.89514,83.004196,134.77942
"67224",906.90845,83.0164,134.88551
"67225",906.92175,82.87236,134.83574
"67226",906.93506,82.61356,134.6667
"67227",906.94836,82.28886,134.42368
"67228",906.9617,81.94949,134.15584
"67229",906.975,81.6321,133.89937
"67230",906.9883,81.37087,133.68915
"67231",907.0016,81.180435,133.54155
"67232",907.0149,81.058365,133.45638
"67233",907.0282,80.98268,133.41377
"67234",907.0415,80.93141,133.39322
"67235",907.0548,80.88258,133.3735
"67236",907.0681,80.82643,133.34494
"67237",907.0814,80.78493,133.32927
"67238",907.0947,80.77272,133.3416
"67239",907.10803,80.80202,133.39505
"67240",907.12134,80.87526,133.49336
"67241",907.13464,80.98024,133.6257
"67242",907.14795,81.08766,133.76376
"67243",907.16125,81.17067,133.88077
"67244",907.17456,81.21217,133.95886
"67245",907.18787,81.19997,133.98454
"67246",907.2012,81.13893,133.96101
"67247",907.2145,81.03151,133.88919
"67248",907.2278,80.89479,133.78471
"67249",907.2411,80.740974,133.65886
"67250",907.2544,80.5774,133.51845
"67251",907.2677,80.411385,133.37048
"67252",907.281,80.2478,133.21976
"67253",907.2943,80.08667,133.06638
"67254",907.3076,79.94263,132.92505
"67255",907.3209,79.818115,132.79874
"67256",907.3342,79.71801,132.69295
"67257",907.34753,79.64233,132.60844
"67258",907.36084,79.586174,132.5411
"67259",907.37415,79.54955,132.49155
"67260",907.38745,79.52758,132.45549
"67261",907.40076,79.51537,132.42851
"67262",907.41406,79.51293,132.41092
"67263",907.42737,79.51537,132.39813
"67264",907.4407,79.520256,132.38786
"67265",907.454,79.52514,132.37775
"67266",907.4673,79.52758,132.36534
"67267",907.4806,79.52758,132.35057
"67268",907.4939,79.52514,132.33336
"67269",907.5072,79.5227,132.31607
"67270",907.5205,79.51537,132.29382
"67271",907.5338,79.50561,132.2689
"67272",907.5471,79.4934,132.24124
"67273",907.5604,79.48608,132.21808
"67274",907.5737,79.48119,132.19713
"67275",907.58704,79.47631,132.17603
"67276",907.60034,79.46899,132.15233
"67277",907.61365,79.4519,132.11864
"67278",907.62695,79.42504,132.07465
"67279",907.64026,79.38842,132.02005
"67280",907.65356,79.34692,131.95943
"67281",907.6669,79.30541,131.8975
"67282",907.6802,79.26391,131.83429
"67283",907.6935,79.2224,131.76978
"67284",907.7068,79.18089,131.70396
"67285",907.7201,79.14427,131.64174
"67286",907.7334,79.10521,131.57593
"67287",907.7467,79.06859,131.51134
"67288",907.76,79.03929,131.45293
"67289",907.7733,79.01732,131.40092
"67290",907.7866,79.00267,131.35556
"67291",907.7999,78.995346,131.31706
"67292",907.81323,79.00511,131.29543
"67293",907.82654,79.046616,131.30583
"67294",907.83984,79.1638,131.39322
"67295",907.85315,79.40307,131.60635
"67296",907.86646,79.801025,131.98566
"67297",907.87976,80.35035,132.52876
"67298",907.89307,81.007095,133.19646
"67299",907.9064,81.68093,133.90176
"67300",907.9197,82.27665,134.55002
"67301",907.933,82.71122,135.05574
"67302",907.9463,82.94316,135.3724
"67303",907.9596,82.9749,135.49612
"67304",907.9729,82.84306,135.45726
"67305",907.9862,82.58671,135.28975
