Time (s), PPG trace, Preprocessed PPG
10.826019,89.65713,89.65713
10.839355,89.37881,89.680595
10.852684,88.76601,89.360886
10.86602,87.94568,88.8145
10.879356,87.044785,88.16191
10.892685,86.170746,87.50802
10.906021,85.39193,86.922035
10.91935,84.74006,86.43866
10.932686,84.20294,86.04967
10.946022,83.74639,85.72446
10.959351,83.32891,85.42405
10.972687,82.9456,85.14477
10.986023,82.61356,84.90478
10.9993515,82.371864,84.74475
11.012688,82.2449,84.69191
11.026016,82.23758,84.75474
11.039352,82.31815,84.905235
11.052689,82.43778,85.097305
11.066017,82.53788,85.27358
11.079353,82.57206,85.38707
11.0926895,82.50858,85.40397
11.106018,82.3328,85.30658
11.119354,82.04471,85.091385
11.132683,81.65896,84.76953
11.146019,81.19508,84.3575
11.159355,80.68482,83.88458
11.172684,80.147705,83.368866
11.18602,79.60815,82.83392
11.199356,79.08812,82.30165
11.212685,78.60227,81.78731
11.226021,78.16037,81.30173
11.239349,77.77463,80.8585
11.252686,77.44015,80.454475
11.266022,77.16182,80.09615
11.27935,76.93233,79.77797
11.292686,76.74677,79.49655
11.306023,76.59785,79.245964
11.319351,76.4831,79.0249
11.332687,76.40009,78.83199
11.346016,76.351265,78.67067
11.359352,76.334175,78.53956
11.372688,76.34882,78.43965
11.386017,76.39277,78.3695
11.399353,76.456245,78.32025
11.412689,76.53193,78.285194
11.426018,76.60273,78.24762
11.439354,76.663765,78.20249
11.4526825,76.70527,78.13974
11.466019,76.71992,78.05143
11.479355,76.70771,77.93672
11.492683,76.67109,77.79722
11.50602,76.61738,77.63948
11.519356,76.54658,77.462975
11.532684,76.46113,77.26961
11.5460205,76.3708,77.06869
11.559349,76.27314,76.85762
11.572685,76.17792,76.645935
11.586021,76.09247,76.44105
11.59935,76.033875,76.260345
11.612686,76.016785,76.119316
11.626022,76.08026,76.05832
11.639351,76.30244,76.158005
11.652687,76.79317,76.53319
11.666016,77.65255,77.29236
11.679352,78.93675,78.503204
11.692688,80.618904,80.15213
11.706017,82.56718,82.11974
11.719353,84.576485,84.209274
11.732689,86.42222,86.19802
11.746017,87.91638,87.892876
11.759354,88.936905,89.16078
11.772682,89.43984,89.94299
11.786018,89.45205,90.2502
11.799355,89.05653,90.15006
11.812683,88.36561,89.74216
11.826019,87.50866,89.14664
11.839355,86.607765,88.48039
11.852684,85.750824,87.82994
11.86602,84.99397,87.2528
11.879349,84.34699,86.76188
11.892685,83.78302,86.33375
11.906021,83.28008,85.94903
11.91935,82.83818,85.60963
11.932686,82.46708,85.32722
11.946022,82.20584,85.143074
11.959351,82.08133,85.087494
11.972687,82.11063,85.18183
11.986015,82.25956,85.39672
11.9993515,82.4744,85.682175
12.012688,82.686806,85.9719
12.026016,82.84062,86.20968
12.039352,82.882126,86.33995
12.052689,82.78935,86.33724
12.066017,82.55741,86.19247
12.079353,82.193634,85.90861
12.092682,81.722435,85.50596
12.106018,81.17555,85.0129
12.119354,80.584724,84.45881
12.132683,79.971924,83.86428
12.146019,79.36645,83.25793
12.159355,78.78294,82.654625
12.172684,78.24094,82.074585
12.18602,77.7551,81.533775
12.199348,77.33761,81.046135
12.212685,76.99092,80.61625
12.226021,76.717476,80.24877
12.239349,76.507515,79.93623
12.252686,76.34882,79.6684
12.266022,76.23651,79.44199
12.27935,76.16327,79.251144
12.292686,76.11932,79.0873
12.306015,76.102234,78.948944
12.319351,76.10956,78.834465
12.332687,76.13641,78.739746
12.346016,76.18524,78.66784
12.359352,76.243835,78.60722
12.372688,76.30976,78.55577
12.386017,76.37324,78.50393
12.399353,76.422066,78.43942
12.412682,76.44892,78.35447
12.426018,76.453804,78.24838
12.439354,76.42695,78.11071
12.4526825,76.37812,77.950226
12.466019,76.30976,77.768684
12.479355,76.226746,77.57035
12.492683,76.138855,77.36455
12.50602,76.04364,77.148674
12.519348,75.945984,76.92738
12.532684,75.85077,76.70548
12.5460205,75.7702,76.495255
12.559349,75.7116,76.304474
12.572685,75.69695,76.155815
12.586021,75.78485,76.109245
12.59935,76.07782,76.27049
12.612686,76.70771,76.77782
12.626015,77.78195,77.749176
12.639351,79.34936,79.24727
12.652687,81.339134,81.21671
12.666016,83.58526,83.504684
12.679352,85.83383,85.865295
12.692688,87.83826,88.052025
12.706017,89.3959,89.854614
12.719353,90.39445,91.14679
12.732681,90.79729,91.87446
12.746017,90.65568,92.07027
12.759354,90.08682,91.834404
12.772682,89.23476,91.297554
12.786018,88.24597,90.59735
12.799355,87.25475,89.863815
12.812683,86.3563,89.19208
12.826019,85.59945,88.63386
12.839348,84.981766,88.191154
12.852684,84.46662,87.83169
12.86602,84.00519,87.509834
12.879349,83.563286,87.19309
12.892685,83.13603,86.87719
12.906021,82.75273,86.59189
12.91935,82.45487,86.38005
12.932686,82.266884,86.268776
12.946014,82.18631,86.25904
12.959351,82.178986,86.32004
12.972687,82.19852,86.40766
12.986015,82.193634,86.47148
12.9993515,82.11795,86.46435
13.012688,81.94705,86.359634
13.026016,81.66384,86.13727
13.039352,81.26833,85.793755
13.052681,80.7776,85.34266
13.066017,80.218506,84.80786
13.079353,79.622795,84.21898
13.092682,79.01976,83.60416
13.106018,78.43137,82.98514
13.119354,77.874725,82.37947
13.132683,77.3547,81.79303
13.146019,76.8835,81.23917
13.159348,76.46601,80.72429
13.172684,76.104675,80.25252
13.18602,75.80438,79.8305
13.226021,75.24773,78.85968
13.239349,75.16228,78.625725
13.252686,75.11833,78.4306
13.266014,75.10368,78.263405
13.27935,75.11833,78.125046
13.292686,75.157394,78.01156
13.306015,75.21355,77.91638
13.319351,75.27703,77.83029
13.332687,75.34539,77.75106
13.346016,75.41131,77.671524
13.359352,75.46258,77.5794
13.372681,75.491875,77.4669
13.386017,75.494316,77.32847
13.399353,75.47234,77.165695
13.412682,75.42596,76.97782
13.426018,75.36004,76.76897
13.439354,75.28191,76.545845
13.4526825,75.20378,76.320274
13.466019,75.13298,76.099594
13.479347,75.07439,75.88891
13.492683,75.04509,75.70569
13.50602,75.0573,75.56306
13.519348,75.142746,75.49405
13.532684,75.386894,75.58641
13.5460205,75.90936,75.96472
13.559349,76.839554,76.76708
13.572685,78.27024,78.09901
13.586014,80.20386,79.97857
13.59935,82.530556,82.31164
13.612686,85.03548,84.89564
13.626015,87.44518,87.4627
13.639351,89.52285,89.773026
13.652687,91.0927,91.640465
13.666016,92.086365,92.98078
13.679352,92.53315,93.80527
13.69268,92.523384,94.187164
13.706017,92.19379,94.248924
13.719353,91.68597,94.12216
13.732681,91.12932,93.9307
13.746017,90.63126,93.78044
13.759354,90.25773,93.739136
13.772682,90.040436,93.8424
13.786018,89.96231,94.07804
13.799347,89.95499,94.38204
13.812683,89.95743,94.69558
13.826019,89.92325,94.97257
13.839348,89.84024,95.19967
13.852684,89.73281,95.39975
13.86602,89.652245,95.62334
13.879349,89.62783,95.90056
13.892685,89.65713,96.23073
13.9060135,89.69863,96.57402
13.91935,89.70107,96.87955
13.932686,89.61074,97.09238
13.946014,89.38857,97.17055
13.959351,89.022354,97.097725
13.972687,88.516975,96.8743
13.986015,87.89685,96.520325
13.9993515,87.183945,96.0542
14.01268,86.40513,95.49988
14.026016,85.58724,94.88215
14.039352,84.754715,94.22422
14.052681,83.92462,93.54271
14.066017,83.11162,92.85235
14.079353,82.32548,92.163445
14.092682,81.583275,91.49391
14.106018,80.89479,90.854904
14.119347,80.26246,90.250534
14.132683,79.69848,89.694756
14.146019,79.200424,89.18728
14.159348,78.75609,88.71796
14.172684,78.36057,88.28357
14.18602,78.00168,87.87344
14.199348,77.67696,87.48628
14.212685,77.37179,87.10851
14.226013,77.09102,86.74561
14.239349,76.82735,86.39104
14.252686,76.58076,86.0453
14.266014,76.33906,85.696754
14.27935,76.102234,85.34553
14.292686,75.8703,84.99179
14.306015,75.63592,84.62836
14.319351,75.39422,84.25028
14.33268,75.142746,83.85488
14.346016,74.881516,83.441864
14.359352,74.61051,83.01091
14.372681,74.32487,82.55685
14.386017,74.03189,82.086525
14.399353,73.75113,81.61926
14.412682,73.48745,81.16031
14.426018,73.25063,80.71998
14.439346,73.057755,80.316185
14.4526825,72.938126,79.979614
14.466019,72.95766,79.778465
14.479347,73.231094,79.83183
14.492683,73.89273,80.281944
14.50602,75.037766,81.23613
14.519348,76.66132,82.70462
14.532684,78.658424,84.59739
14.546013,80.80934,86.70638
14.559349,82.847946,88.77028
14.572685,84.52766,90.53899
14.586014,85.68246,91.83527
14.59935,86.24399,92.57438
14.612686,86.22934,92.75485
14.626015,85.74349,92.46367
14.639351,84.93538,91.83504
14.652679,83.97101,91.024895
14.666016,82.99199,90.16997
14.679352,82.10574,89.37722
14.69268,81.37087,88.70815
14.706017,80.79225,88.17237
14.719353,80.3357,87.74058
14.732681,79.95239,87.36776
14.746017,79.60082,87.0147
14.759346,79.259026,86.66043
14.772682,78.94896,86.32721
14.786018,78.709694,86.0551
14.799347,78.572975,85.87806
14.812683,78.55833,85.81882
14.826019,78.643776,85.859215
14.839348,78.785385,85.95844
14.852684,78.92943,86.06453
14.866013,79.027084,86.12873
14.879349,79.03685,86.10809
14.892685,78.93187,85.973015
14.9060135,78.70725,85.71502
14.91935,78.37278,85.34015
14.932686,77.94797,84.86449
14.946014,77.469444,84.32184
14.959351,76.964066,83.73738
14.972679,76.46113,83.13957
14.986015,75.982605,82.55046
14.9993515,75.545586,81.9879
15.01268,75.157394,81.46051
15.026016,74.830246,80.98203
15.039352,74.57145,80.56168
15.052681,74.373695,80.19429
15.066017,74.23453,79.8793
15.079346,74.15152,79.61613
15.092682,74.1149,79.39674
15.106018,74.11246,79.210396
15.119347,74.13931,79.05327
15.132683,74.19058,78.921394
15.146019,74.26139,78.81066
15.159348,74.35172,78.721664
15.172684,74.4567,78.65014
15.186012,74.57145,78.59166
15.199348,74.686195,78.536766
15.212685,74.793625,78.47814
15.226013,74.8864,78.40822
15.239349,74.9572,78.31922
15.252686,75.00847,78.212906
15.266014,75.03044,78.078896
15.27935,75.02312,77.916275
15.292679,74.986496,77.72413
15.306015,74.92546,77.506424
15.319351,74.844894,77.26728
15.33268,74.75212,77.01341
15.346016,74.65446,76.751755
15.359352,74.57145,76.5017
15.372681,74.5153,76.27591
15.386017,74.49821,76.087425
15.399345,74.54459,75.96188
15.412682,74.70817,75.95498
15.426018,75.09392,76.17536
15.439346,75.83612,76.76425
15.4526825,77.04707,77.845085
15.466019,78.75853,79.464264
15.479347,80.88258,81.54952
15.492683,83.21416,83.908676
15.506012,85.47494,86.2699
15.519348,87.396355,88.362404
15.532684,88.780655,89.977844
15.546013,89.5375,91.00908
15.559349,89.671776,91.44141
15.572685,89.28603,91.35791
15.586014,88.514534,90.8766
15.59935,87.52331,90.15146
15.612679,86.46616,89.32942
15.626015,85.46761,88.532936
15.639351,84.613106,87.84929
15.652679,83.929504,87.309845
15.666016,83.39239,86.89552
15.679352,82.950485,86.55963
15.69268,82.54276,86.24411
15.706017,82.142365,85.92317
15.719345,81.75906,85.60682
15.732681,81.444115,85.34684
15.746017,81.23903,85.18688
15.759346,81.160904,85.14748
15.772682,81.19264,85.21549
15.786018,81.27566,85.33578
15.799347,81.35378,85.453766
15.812683,81.37087,85.51316
15.826012,81.29275,85.477875
15.839348,81.109634,85.33516
15.852684,80.814224,85.074425
15.866013,80.42603,84.71168
15.879349,79.95972,84.258675
15.892685,79.44457,83.74227
15.9060135,78.89525,83.17559
15.91935,78.3386,82.58442
15.932678,77.7966,81.9905
15.946014,77.29122,81.41627
15.959351,76.83467,80.87507
15.972679,76.439156,80.38064
15.986015,76.10712,79.937325
15.9993515,75.843445,79.552
16.01268,75.650566,79.22923
16.026016,75.51873,78.96148
16.039345,75.44305,78.74576
16.052681,75.41375,78.57406
16.066017,75.41619,78.43318
16.079346,75.43816,78.31191
16.092682,75.4699,78.201096
16.106018,75.50652,78.09615
16.119347,75.55779,78.007
16.132683,75.6115,77.9219
16.146011,75.665215,77.83847
16.159348,75.718925,77.75672
16.172684,75.76532,77.669334
16.186012,75.80682,77.57851
16.199348,75.83124,77.471886
16.212685,75.83856,77.34894
16.226013,75.82391,77.20425
16.23935,75.78241,77.03224
16.252678,75.7116,76.829636
16.266014,75.6115,76.59553
16.27935,75.48943,76.33632
16.292679,75.355156,76.06109
16.306015,75.21599,75.77677
16.319351,75.089035,75.50032
16.33268,74.984055,75.241875
16.346016,74.91081,75.01189
16.359344,74.879074,74.82111
16.37268,74.89128,74.673294
16.386017,74.969406,74.591774
16.399345,75.159836,74.625
16.412682,75.577324,74.891235
16.426018,76.36103,75.536736
16.439346,77.63302,76.69501
16.452682,79.44213,78.43015
16.466011,81.7029,80.67349
16.479347,84.210266,83.23407
16.492683,86.6688,85.82417
16.506012,88.7831,88.146866
16.519348,90.32609,89.964325
16.532684,91.20012,91.16105
16.546013,91.41009,91.72102
16.55935,91.05852,91.72602
16.572678,90.29679,91.309875
16.586014,89.2958,90.63066
16.59935,88.21423,89.83959
16.612679,87.186386,89.068436
16.626015,86.295265,88.401886
16.63935,85.575035,87.87838
16.65268,85.00618,87.48374
16.666016,84.53986,87.17387
16.679344,84.105286,86.88116
16.69268,83.67071,86.57487
16.706017,83.24101,86.25988
16.719345,82.85527,85.97542
16.732681,82.55741,85.766785
16.746017,82.37919,85.66848
16.759346,82.31083,85.67447
16.772682,82.320595,85.75645
16.78601,82.34257,85.85094
16.799347,82.32792,85.90949
16.812683,82.22537,85.87969
16.826012,82.01541,85.73927
16.839348,81.68337,85.470215
16.852684,81.23659,85.076035
16.866013,80.69703,84.57512
16.879349,80.079346,83.97922
16.892677,79.41039,83.312744
16.906013,78.7219,82.60583
16.91935,78.05295,81.896935
16.932678,77.4255,81.20864
16.946014,76.86641,80.5691
16.95935,76.39521,79.99998
16.97268,76.00702,79.49914
16.986015,75.699394,79.066734
16.999344,75.4699,78.70285
17.01268,75.31121,78.402596
17.026016,75.21355,78.15841
17.039345,75.16716,77.96245
17.052681,75.16228,77.80654
17.066017,75.18913,77.68222
17.079346,75.24284,77.585594
17.092682,75.32098,77.51507
17.10601,75.41619,77.464066
17.119347,75.51629,77.42092
17.132683,75.6115,77.37602
17.146011,75.699394,77.326775
17.159348,75.772644,77.26563
17.172684,75.83612,77.19701
17.186012,75.894714,77.12548
17.199348,75.945984,77.04846
17.212677,75.98505,76.96084
17.226013,76.00946,76.85979
17.23935,76.00702,76.73264
17.252678,75.97772,76.57857
17.266014,75.928894,76.404045
17.27935,75.86542,76.21335
17.292679,75.789734,76.00846
17.306015,75.70672,75.79388
17.319344,75.62615,75.57915
17.33268,75.55047,75.36678
17.346016,75.49676,75.17403
17.359344,75.47723,75.01377
17.37268,75.50408,74.89929
17.386017,75.596855,74.85157
17.399345,75.809265,74.926384
17.412682,76.23407,75.22023
17.42601,77.015335,75.88381
17.439346,78.27512,77.05033
17.452682,80.06958,78.790886
17.466011,82.3328,81.05628
17.479347,84.86458,83.66096
17.492683,87.36706,86.31545
17.506012,89.530174,88.708786
17.519348,91.11955,90.595985
17.532677,92.018005,91.84193
17.546013,92.225525,92.42501
17.55935,91.83734,92.41888
17.572678,91.00725,91.9587
17.586014,89.918365,91.2138
17.59935,88.7367,90.34209
17.612679,87.60143,89.47984
17.626015,86.62241,88.73837
17.639343,85.84848,88.17139
17.65268,85.25521,87.76088
17.666016,84.78401,87.4539
17.679344,84.35432,87.173706
17.69268,83.91974,86.8752
17.706017,83.46807,86.54602
17.719345,83.04814,86.23447
17.732681,82.71122,85.9928
17.74601,82.49882,85.86512
17.759346,82.41581,85.8602
17.772682,82.425575,85.94546
17.78601,82.46464,86.06032
17.799347,82.47196,86.14466
17.812683,82.39628,86.146225
17.826012,82.20584,86.03067
17.839348,81.88846,85.78222
17.852676,81.449,85.40177
17.866013,80.907,84.90505
17.879349,80.2942,84.320595
17.892677,79.64233,83.67792
17.906013,78.98558,83.009995
17.91935,78.345924,82.33864
17.932678,77.747765,81.68879
17.946014,77.21309,81.08373
17.959343,76.74677,80.53033
17.97268,76.36103,80.04292
17.986015,76.053406,79.62158
17.999344,75.82147,79.26632
18.01268,75.665215,78.979485
18.026016,75.57,78.74881
18.039345,75.526054,78.56643
18.052681,75.51873,78.4193
18.06601,75.53582,78.29635
18.079346,75.56512,78.18614
18.092682,75.60418,78.08662
18.10601,75.648125,77.993195
18.119347,75.701836,77.91091
18.132683,75.76044,77.8352
18.146011,75.81903,77.76131
18.159348,75.87518,77.686806
18.172676,75.92157,77.604294
18.186012,75.948425,77.5037
18.199348,75.95575,77.384415
18.212677,75.94354,77.24583
18.226013,75.911804,77.087326
18.23935,75.86542,76.913185
18.252678,75.809265,76.72783
18.266014,75.7409,76.5285
18.279343,75.66277,76.31728
18.292679,75.57,76.088974
18.306015,75.4699,75.85044
18.319344,75.36248,75.601456
18.33268,75.245285,75.33934
18.346016,75.13054,75.07601
18.359344,75.035324,74.82863
18.37268,74.97185,74.61001
18.38601,74.9572,74.43823
18.399345,74.9987,74.32215
18.412682,75.13298,74.30014
18.42601,75.4284,74.44347
18.439346,76.016785,74.88899
18.452682,77.04219,75.789925
18.466011,78.6096,77.2649
18.479347,80.709236,79.32109
18.492676,83.194626,81.82864
18.506012,85.80698,84.540825
18.519348,88.224,87.13931
18.532677,90.17227,89.34459
18.546013,91.46868,90.958885
18.55935,92.05463,91.90323
18.572678,91.97894,92.204254
18.586014,91.3637,91.963356
18.599342,90.389565,91.34434
18.612679,89.23964,90.51909
18.626015,88.077515,89.645706
18.639343,87.027695,88.84831
18.65268,86.168304,88.208534
18.666016,85.50912,87.7421
18.679344,85.00374,87.40888
18.69268,84.58137,87.142876
18.706009,84.17609,86.88076
18.719345,83.76105,86.59622
18.732681,83.35088,86.30359
18.74601,82.99199,86.04941
18.759346,82.73319,85.88411
18.772682,82.59647,85.8328
18.78601,82.562294,85.87976
18.799347,82.579384,85.97692
18.812675,82.59159,86.06973
18.826012,82.53788,86.09701
18.839348,82.37919,86.017624
18.852676,82.09598,85.80876
18.866013,81.6907,85.46898
18.879349,81.18288,85.01399
18.892677,80.59693,84.46501
18.906013,79.96704,83.853775
18.91935,79.32006,83.205765
18.932678,78.68772,82.55218
18.946014,78.08713,81.910576
18.959343,77.5378,81.301476
18.97268,77.05684,80.74357
18.986015,76.65156,80.246315
18.999344,76.32197,79.81209
19.01268,76.07294,79.44812
19.026009,75.89227,79.14474
19.039345,75.7702,78.8943
19.052681,75.70428,78.6962
19.06601,75.68719,78.54487
19.079346,75.70916,78.43207
19.092682,75.75311,78.341934
19.10601,75.81659,78.2727
19.119347,75.88495,78.21033
19.132683,75.95819,78.154976
19.146011,76.02899,78.09947
19.159348,76.09979,78.04618
19.172676,76.16571,77.99022
19.186012,76.22186,77.92655
19.199348,76.25361,77.84023
19.212677,76.265816,77.73537
19.226013,76.25849,77.61135
19.239342,76.23407,77.47001
19.252678,76.192566,77.31082
19.266014,76.1413,77.14057
19.279343,76.07538,76.95407
19.292679,76.00214,76.75819
19.306015,75.92401,76.55513
19.319344,75.843445,76.34719
19.33268,75.76044,76.13429
19.346016,75.682304,75.923676
19.359344,75.6115,75.71795
19.37268,75.55047,75.519775
19.38601,75.51385,75.34411
19.399345,75.51873,75.2088
19.412682,75.57244,75.122475
19.42601,75.701836,75.11351
19.439346,75.95819,75.23555
19.452675,76.45136,75.60242
19.466011,77.32052,76.36068
19.479347,78.692604,77.64903
19.492676,80.604256,79.51983
19.506012,82.97246,81.90691
19.519348,85.58236,84.6097
19.532677,88.1239,87.32569
19.546013,90.28214,89.73781
19.55935,91.825134,91.60212
19.572678,92.647896,92.79442
19.586014,92.75777,93.29954
19.599342,92.26704,93.20749
19.612679,91.34905,92.67285
19.626015,90.194244,91.8727
19.639343,88.98573,90.982765
19.65268,87.85779,90.13562
19.666008,86.90074,89.42413
19.679344,86.14633,88.88537
19.69268,85.56527,88.496376
19.706009,85.08675,88.191765
19.719345,84.63752,87.9015
19.732681,84.173645,87.58254
19.74601,83.69268,87.232
19.759346,83.243454,86.89817
19.772682,82.882126,86.6382
19.78601,82.64774,86.49388
19.799347,82.53544,86.46432
19.812675,82.49882,86.50693
19.826012,82.48173,86.567924
19.839348,82.42069,86.58444
19.852676,82.28153,86.52093
19.866013,82.04471,86.3554
19.879341,81.69802,86.07261
19.892677,81.24147,85.66912
19.906013,80.69459,85.16103
19.919342,80.079346,84.5675
19.932678,79.4226,83.91323
19.946014,78.75365,83.226234
19.959343,78.10666,82.5403
19.97268,77.51339,81.88786
19.986015,76.98848,81.28525
19.999344,76.53681,80.73947
20.01268,76.175476,80.26991
20.026009,75.894714,79.86964
20.039345,75.68719,79.53382
20.052681,75.54803,79.25989
20.06601,75.47234,79.04508
20.079346,75.45037,78.88162
20.092674,75.4699,78.75898
20.10601,75.511406,78.65892
20.119347,75.56756,78.57481
20.132675,75.63348,78.50221
20.146011,75.69451,78.426796
20.159348,75.755554,78.353294
20.172676,75.81415,78.27925
20.186012,75.8703,78.2046
20.199348,75.91669,78.12193
20.212677,75.95331,78.03095
20.226013,75.97772,77.92891
20.239342,75.98505,77.81054
20.252678,75.97772,77.67775
20.266014,75.96307,77.53741
20.279343,75.93622,77.3844
