"","Time..s.","PPG.trace","Preprocessed.PPG"
"16890",225.39534,80.34547,96.17576
"16891",225.40868,78.802475,94.64356
"16892",225.42201,77.574425,93.37809
"16893",225.43535,76.70527,92.433136
"16894",225.44868,76.24628,91.871185
"16895",225.46202,76.22919,91.73679
"16896",225.47536,76.629585,92.019356
"16897",225.4887,77.35714,92.64159
"16898",225.50203,78.26292,93.464775
"16899",225.51537,79.183334,94.33091
"16900",225.5287,79.98169,95.103745
"16901",225.54204,80.5481,95.669586
"16902",225.55537,80.82887,95.96748
"16903",225.56871,80.80934,95.973854
"16904",225.58205,80.499275,95.68908
"16905",225.59538,79.94507,95.150475
"16906",225.60872,79.202866,94.406555
"16907",225.62206,78.3386,93.51738
"16908",225.63539,77.41085,92.53771
"16909",225.64873,76.46845,91.514404
"16910",225.66206,75.55291,90.4885
"16911",225.6754,74.69352,89.49014
"16912",225.68874,73.919586,88.550385
"16913",225.70207,73.23598,87.676765
"16914",225.71541,72.66468,86.8941
"16915",225.72874,72.20325,86.20343
"16916",225.74208,71.85657,85.6131
"16917",225.75542,71.605095,85.10715
"16918",225.76875,71.4464,84.68611
"16919",225.78209,71.35851,84.33092
"16920",225.79543,71.33166,84.03401
"16921",225.80876,71.33898,83.77045
"16922",225.8221,71.37316,83.533966
"16923",225.83543,71.45617,83.34738
"16924",225.84877,71.73693,83.361145
"16925",225.8621,72.51087,83.87686
"16926",225.87544,74.13931,85.27127
"16927",225.88878,76.83467,87.783485
"16928",225.90211,80.56519,91.41509
"16929",225.91545,85.015945,95.88351
"16930",225.92879,89.652245,100.67655
"16931",225.94212,93.85886,105.1848
"16932",225.95546,97.145035,108.90407
"16933",225.9688,99.26177,111.55659
"16934",225.98213,100.15289,113.04964
"16935",225.99547,99.911194,113.43771
"16936",226.0088,98.71488,112.863625
"16937",226.02214,96.798355,111.53194
"16938",226.03548,94.415504,109.674034
"16939",226.04881,91.82025,107.52927
"16940",226.06215,89.22743,105.30583
"16941",226.07549,86.79576,103.16252
"16942",226.08882,84.63508,101.2142
"16943",226.10216,82.79912,99.52309
"16944",226.1155,81.28054,98.09198
"16945",226.12883,80.05249,96.903946
"16946",226.14217,79.10277,95.955864
"16947",226.1555,78.41917,95.244225
"16948",226.16884,78.011444,94.7871
"16949",226.18217,77.88693,94.60045
"16950",226.19551,78.028534,94.67602
"16951",226.20885,78.37522,94.9611
"16952",226.22218,78.836655,95.37176
"16953",226.23552,79.30785,95.8066
"16954",226.24886,79.693596,96.170715
"16955",226.26219,79.91821,96.38576
"16956",226.27553,79.93286,96.39785
"16957",226.28886,79.72045,96.18334
"16958",226.3022,79.290764,95.74492
"16959",226.31554,78.68284,95.11483
"16960",226.32887,77.9382,94.32903
"16961",226.34221,77.09834,93.42474
"16962",226.35555,76.21454,92.450264
"16963",226.36888,75.318535,91.43597
"16964",226.38222,74.444496,90.415634
"16965",226.39555,73.62173,89.41926
"16966",226.40889,72.87465,88.47286
"16967",226.42223,72.215454,87.591
"16968",226.43556,71.66125,86.79353
"16969",226.4489,71.21202,86.083725
"16970",226.46223,70.86778,85.46486
"16971",226.47557,70.62852,84.940216
"16972",226.4889,70.48936,84.508194
"16973",226.50224,70.43809,84.15971
"16974",226.51558,70.47227,83.89508
"16975",226.52892,70.572365,83.69743
"16976",226.54225,70.72129,83.55174
"16977",226.55559,70.90196,83.44245
"16978",226.56892,71.09239,83.34857
"16979",226.58226,71.26574,83.24356
"16980",226.5956,71.414665,83.11954
"16981",226.60893,71.56115,82.99773
"16982",226.62227,71.83948,83.012344
"16983",226.6356,72.54749,83.46535
"16984",226.64894,74.04898,84.73395
"16985",226.66228,76.592964,87.091965
"16986",226.67561,80.184326,90.57686
"16987",226.68895,84.55451,94.952805
"16988",226.70229,89.18837,99.72899
"16989",226.71562,93.47555,104.3033
"16990",226.72896,96.90578,108.15464
"16991",226.7423,99.20561,110.98278
"16992",226.75563,100.299385,112.67673
"16993",226.76897,100.24811,113.2598
"16994",226.7823,99.22026,112.86471
"16995",226.79564,97.43557,111.68065
"16996",226.80898,95.15282,109.94276
"16997",226.82231,92.61616,107.87962
"16998",226.83565,90.0502,105.707924
"16999",226.84898,87.63317,103.604965
"17000",226.86232,85.47982,101.690155
"17001",226.87566,83.64629,100.02787
"17002",226.88899,82.1326,98.62812
"17003",226.90233,80.91188,97.474045
"17004",226.91566,79.94751,96.53817
"17005",226.929,79.217514,95.80653
"17006",226.94234,78.71946,95.28403
"17007",226.95567,78.46311,94.98766
"17008",226.96901,78.44358,94.920105
"17009",226.98235,78.6218,95.04969
"17010",226.99568,78.92943,95.31425
"17011",227.00902,79.28832,95.63969
"17012",227.02235,79.605705,95.93483
"17013",227.03569,79.80835,96.12515
"17014",227.04903,79.84009,96.1509
"17015",227.06236,79.676506,95.98232
"17016",227.0757,79.310295,95.606
"17017",227.08904,78.765854,95.04001
"17018",227.10237,78.07736,94.31295
"17019",227.1157,77.29366,93.46917
"17020",227.12904,76.453804,92.54474
"17021",227.14238,75.59197,91.57209
"17022",227.15572,74.74723,90.5896
"17023",227.16905,73.944,89.62222
"17024",227.18239,73.2018,88.69077
"17025",227.19572,72.54261,87.819145
"17026",227.20906,71.98108,87.02457
"17027",227.2224,71.517204,86.310104
"17028",227.23573,71.15587,85.683685
"17029",227.24907,70.887314,85.13875
"17030",227.2624,70.711525,84.67819
"17031",227.27574,70.61631,84.29271
"17032",227.28908,70.589455,83.97261
"17033",227.30241,70.626076,83.71515
"17034",227.31575,70.72373,83.51987
"17035",227.32909,70.870224,83.37647
"17036",227.34242,71.05577,83.27672
"17037",227.35576,71.26818,83.209625
"17038",227.3691,71.49767,83.166245
"17039",227.38243,71.724724,83.127594
"17040",227.39577,71.93225,83.07652
"17041",227.4091,72.10315,82.9953
"17042",227.42244,72.2301,82.87547
"17043",227.43578,72.361946,82.76451
"17044",227.44911,72.672005,82.83588
"17045",227.46245,73.494774,83.42964
"17046",227.47578,75.16472,84.8963
"17047",227.48912,77.85275,87.433235
"17048",227.50246,81.46609,90.97947
"17049",227.5158,85.65316,95.21236
"17050",227.52913,89.87198,99.607834
"17051",227.54247,93.54879,103.59315
"17052",227.5558,96.28565,106.75341
"17053",227.56914,97.916534,108.89322
"17054",227.58247,98.45121,109.987785
"17055",227.59581,97.99466,110.107834
"17056",227.60915,96.71534,109.39085
"17057",227.62248,94.82323,108.02109
"17058",227.63582,92.53803,106.19912
"17059",227.64915,90.06973,104.122635
"17060",227.66249,87.60143,101.96902
"17061",227.67583,85.279625,99.88475
"17062",227.68916,83.211716,97.98183
"17063",227.7025,81.43923,96.30971
"17064",227.71584,79.971924,94.887375
"17065",227.72917,78.81712,93.7317
"17066",227.74251,77.977264,92.85487
"17067",227.75584,77.48165,92.29605
"17068",227.76918,77.349815,92.08552
"17069",227.78252,77.58419,92.237076
"17070",227.79585,78.133514,92.71091
"17071",227.80919,78.89525,93.414314
"17072",227.82253,79.73022,94.21476
"17073",227.83586,80.50416,94.98027
"17074",227.8492,81.10475,95.59662
"17075",227.86253,81.45632,95.98271
"17076",227.87587,81.52224,96.09414
"17077",227.8892,81.307396,95.926865
"17078",227.90254,80.84596,95.50629
"17079",227.91588,80.17944,94.8662
"17080",227.92921,79.36889,94.06126
"17081",227.94255,78.467995,93.14064
"17082",227.95589,77.53048,92.15525
"17083",227.96922,76.60029,91.14789
"17084",227.98256,75.70916,90.15052
"17085",227.9959,74.8864,89.19367
"17086",228.00923,74.1564,88.30388
"17087",228.02257,73.52651,87.49138
"17088",228.0359,73.00404,86.76662
"17089",228.04924,72.601204,86.14516
"17090",228.06258,72.31556,85.628296
"17091",228.07591,72.13733,85.20993
"17092",228.08925,72.061646,84.888535
"17093",228.10258,72.07141,84.65022
"17094",228.11592,72.147095,84.478134
"17095",228.12926,72.256966,84.342606
"17096",228.1426,72.376595,84.22026
"17097",228.15593,72.48402,84.08945
"17098",228.16927,72.586555,83.95711
"17099",228.1826,72.796524,83.93541
"17100",228.19594,73.3605,84.27428
"17101",228.20927,74.60563,85.31193
"17102",228.22261,76.76387,87.3016
"17103",228.23595,79.85474,90.291336
"17104",228.24928,83.64385,94.07591
"17105",228.26262,87.691765,98.23769
"17106",228.27596,91.458916,102.24521
"17107",228.28929,94.486305,105.63069
"17108",228.30263,96.51026,108.107346
"17109",228.31596,97.47219,109.58522
"17110",228.3293,97.425804,110.08484
"17111",228.34264,96.50782,109.71141
"17112",228.35597,94.91112,108.63058
"17113",228.36931,92.84566,107.03109
"17114",228.38264,90.52384,105.1107
"17115",228.39598,88.128784,103.04452
"17116",228.40932,85.81186,100.98161
"17117",228.42265,83.67803,99.0294
"17118",228.43599,81.78348,97.24979
"17119",228.44933,80.15503,95.67707
"17120",228.46266,78.79271,94.319595
"17121",228.476,77.71603,93.205185
"17122",228.48933,76.961624,92.37941
"17123",228.50267,76.57099,91.89383
"17124",228.516,76.57099,91.786674
"17125",228.52934,76.94209,92.05062
"17126",228.54268,77.60616,92.61913
"17127",228.55602,78.4387,93.37686
"17128",228.56935,79.29565,94.18502
"17129",228.58269,80.045166,94.91253
"17130",228.59602,80.584724,95.4535
"17131",228.60936,80.86061,95.74766
"17132",228.6227,80.850845,95.764786
"17133",228.63603,80.570076,95.510605
"17134",228.64937,80.05737,95.01572
"17135",228.6627,79.36645,94.326584
"17136",228.67604,78.555885,93.49622
"17137",228.68938,77.68429,92.5795
"17138",228.70271,76.79805,91.620895
"17139",228.71605,75.931335,90.65412
"17140",228.72939,75.11101,89.70665
"17141",228.74272,74.36393,88.80679
"17142",228.75606,73.70229,87.96903
"17143",228.7694,73.13832,87.20826
"17144",228.78273,72.68665,86.54217
"17145",228.79607,72.35218,85.97916
"17146",228.8094,72.12512,85.51311
"17147",228.82274,71.9884,85.130295
"17148",228.83607,71.920044,84.81157
"17149",228.84941,71.89563,84.53465
"17150",228.86275,71.888306,84.27406
"17151",228.87608,71.9176,84.049866
"17152",228.88942,72.11047,83.99016
"17153",228.90276,72.73792,84.37106
"17154",228.91609,74.13443,85.540634
"17155",228.92943,76.51972,87.74263
"17156",228.94276,79.87427,90.98842
"17157",228.9561,83.929504,95.03973
"17158",228.96944,88.20447,99.437485
"17159",228.98277,92.13275,103.62216
"17160",228.99611,95.257805,107.126366
"17161",229.00945,97.33303,109.6784
"17162",229.02278,98.304726,111.19175
"17163",229.03612,98.231476,111.69052
"17164",229.04945,97.26467,111.29345
"17165",229.06279,95.61669,110.18499
"17166",229.07613,93.51217,108.56849
"17167",229.08946,91.175705,106.65428
"17168",229.1028,88.80751,104.63533
"17169",229.11613,86.56626,102.66931
"17170",229.12947,84.54719,100.85543
"17171",229.1428,82.80156,99.2519
"17172",229.15614,81.33669,97.87458
"17173",229.16948,80.12573,96.70539
"17174",229.18282,79.16136,95.74495
"17175",229.19615,78.4387,94.99608
"17176",229.20949,77.977264,94.485855
"17177",229.22282,77.79904,94.24442
"17178",229.23616,77.91379,94.29039
"17179",229.2495,78.26536,94.57677
"17180",229.26283,78.77318,95.03038
"17181",229.27617,79.33227,95.55113
"17182",229.2895,79.83276,96.03076
"17183",229.30284,80.177,96.369774
"17184",229.31618,80.306404,96.50471
"17185",229.32951,80.19653,96.40441
"17186",229.34285,79.84985,96.06387
"17187",229.35619,79.30053,95.50986
"17188",229.36952,78.59495,94.78242
"17189",229.38286,77.78195,93.925514
"17190",229.3962,76.910355,92.984604
"17191",229.40953,76.02655,92.00425
"17192",229.42287,75.16472,91.01825
"17193",229.4362,74.35905,90.06148
"17194",229.44954,73.62905,89.155205
"17195",229.46288,72.99184,88.3189
"17196",229.47621,72.4596,87.567665
"17197",229.48955,72.042114,86.914536
"17198",229.50288,71.73693,86.36067
"17199",229.51622,71.54162,85.907135
"17200",229.52956,71.44152,85.54271
"17201",229.5429,71.40978,85.243515
"17202",229.55623,71.42443,84.989716
"17203",229.56956,71.46349,84.76079
"17204",229.5829,71.54406,84.574585
"17205",229.59624,71.80286,84.56914
"17206",229.60957,72.518196,85.02832
"17207",229.62291,74.00748,86.2838
"17208",229.63625,76.470894,88.55995
"17209",229.64958,79.888916,91.86769
"17210",229.66292,83.9881,95.9634
"17211",229.67625,88.28748,100.38741
"17212",229.68959,92.22064,104.57956
"17213",229.70293,95.33105,108.07186
"17214",229.71626,97.36477,110.58468
"17215",229.7296,98.268105,112.03066
"17216",229.74294,98.109406,112.44284
"17217",229.75627,97.06203,111.96138
"17218",229.7696,95.35058,110.78312
"17219",229.78294,93.2314,109.14365
"17220",229.79628,90.93645,107.26218
"17221",229.80962,88.6659,105.3334
"17222",229.82295,86.5687,103.507
"17223",229.83629,84.732735,101.876305
"17224",229.84962,83.18486,100.476326
"17225",229.86296,81.89578,99.28677
"17226",229.8763,80.82643,98.276665
"17227",229.88963,79.92798,97.40404
"17228",229.90297,79.1931,96.66691
"17229",229.9163,78.63645,96.085045
"17230",229.92964,78.29221,95.6982
"17231",229.94298,78.17258,95.52519
"17232",229.95631,78.2678,95.56331
"17233",229.96965,78.519264,95.76064
"17234",229.98299,78.84398,96.039085
"17235",229.99632,79.151596,96.31058
"17236",230.00966,79.35912,96.49159
"17237",230.023,79.40063,96.51307
"17238",230.03633,79.24681,96.34052
"17239",230.04967,78.89281,95.96298
"17240",230.063,78.365456,95.40103
"17241",230.07634,77.68917,94.67367
"17242",230.08968,76.91524,93.82752
"17243",230.10301,76.085144,92.90103
"17244",230.11635,75.2404,91.93395
"17245",230.12968,74.4152,90.960014
"17246",230.14302,73.64126,90.01155
"17247",230.15636,72.94057,89.11215
"17248",230.1697,72.33021,88.28119
"17249",230.18303,71.81995,87.53125
"17250",230.19637,71.412224,86.867905
"17251",230.2097,71.10948,86.2968
"17252",230.22304,70.906845,85.81633
"17253",230.23637,70.804306,85.42963
"17254",230.24971,70.784775,85.12273
"17255",230.26305,70.84581,84.89578
"17256",230.27638,70.97032,84.73422
"17257",230.28972,71.14122,84.62294
"17258",230.30305,71.33898,84.54387
"17259",230.31639,71.52941,84.46364
"17260",230.32973,71.69543,84.364944
"17261",230.34306,71.82239,84.23239
"17262",230.3564,71.93713,84.09158
"17263",230.36974,72.17883,84.081314
"17264",230.38307,72.83803,84.49609
"17265",230.39641,74.25407,85.688324
"17266",230.40974,76.64179,87.89649
"17267",230.42308,80.0061,91.15586
"17268",230.43642,84.085754,95.2357
"17269",230.44975,88.40223,99.679855
"17270",230.46309,92.384224,103.92442
"17271",230.47643,95.56786,107.49507
"17272",230.48976,97.68215,110.095856
"17273",230.5031,98.65873,111.625
"17274",230.51643,98.565956,112.11531
"17275",230.52977,97.57229,111.70183
"17276",230.5431,95.904785,110.58346
"17277",230.55644,93.81491,108.99061
"17278",230.56978,91.53948,107.1469
"17279",230.58311,89.28115,105.249176
"17280",230.59645,87.1815,103.43957
"17281",230.60979,85.330894,101.81338
"17282",230.62312,83.76593,100.415
"17283",230.63646,82.46464,99.23139
"17284",230.6498,81.373314,98.21709
"17285",230.66313,80.448006,97.334694
"17286",230.67647,79.674065,96.57475
"17287",230.6898,79.061264,95.95177
"17288",230.70314,78.6511,95.51227
"17289",230.71648,78.47532,95.294334
"17290",230.72981,78.53391,95.30528
"17291",230.74315,78.77074,95.49629
"17292",230.75648,79.10521,95.79235
"17293",230.76982,79.43481,96.09399
"17294",230.78316,79.66674,96.30826
"17295",230.7965,79.7351,96.3662
"17296",230.80983,79.605705,96.22853
"17297",230.82317,79.276115,95.88662
"17298",230.8365,78.76097,95.348854
"17299",230.84984,78.099335,94.6485
"17300",230.86317,77.332726,93.822495
"17301",230.87651,76.50507,92.91149
"17302",230.88985,75.65789,91.95509
"17303",230.90318,74.82048,90.981995
"17304",230.91652,74.02945,90.029106
"17305",230.92986,73.304344,89.117424
"17306",230.94319,72.66468,88.268524
"17307",230.95653,72.12024,87.49486
"17308",230.96986,71.675896,86.804276
"17309",230.9832,71.33654,86.20479
"17310",230.99654,71.097275,85.69479
"17311",231.00987,70.95567,85.27498
"17312",231.02321,70.89952,84.93619
"17313",231.03654,70.91905,84.671326
"17314",231.04988,70.99718,84.46567
"17315",231.06322,71.12657,84.31372
"17316",231.07655,71.28527,84.19513
"17317",231.08989,71.468376,84.105896
"17318",231.10323,71.66613,84.03703
"17319",231.11656,71.87366,83.98413
"17320",231.1299,72.076294,83.932816
"17321",231.14323,72.271614,83.88052
"17322",231.15657,72.45228,83.81967
"17323",231.1699,72.60609,83.73761
"17324",231.18324,72.71595,83.61641
"17325",231.19658,72.77699,83.44983
"17326",231.20992,72.77699,83.22411
"17327",231.22325,72.75014,82.97154
"17328",231.23659,72.82582,82.82067
"17329",231.24992,73.28237,83.05303
"17330",231.26326,74.46891,84.02965
"17331",231.2766,76.627144,86.01504
"17332",231.28993,79.77905,89.06155
"17333",231.30327,83.69024,92.96583
"17334",231.3166,87.89685,97.28776
"17335",231.32994,91.8349,101.47258
"17336",231.34328,95.02586,105.03339
"17337",231.35661,97.20607,107.68315
"17338",231.36995,98.2974,109.31217
"17339",231.38329,98.36088,109.94744
"17340",231.39662,97.53811,109.69845
"17341",231.40996,96.03418,108.742584
"17342",231.4233,94.06882,107.27829
"17343",231.43663,91.8642,105.51332
"17344",231.44997,89.62051,103.64039
"17345",231.4633,87.481804,101.80233
"17346",231.47664,85.56039,100.114716
"17347",231.48997,83.90265,98.63074
"17348",231.50331,82.511024,97.36107
"17349",231.51665,81.356224,96.28474
"17350",231.52998,80.41627,95.38716
"17351",231.54332,79.67895,94.66285
"17352",231.55666,79.15892,94.13279
"17353",231.56999,78.87816,93.825745
"17354",231.58333,78.84398,93.75651
"17355",231.59666,79.03929,93.915695
"17356",231.61,79.40063,94.24701
"17357",231.62334,79.83765,94.6653
"17358",231.63667,80.24292,95.0655
"17359",231.65001,80.5359,95.366066
"17360",231.66335,80.65064,95.49756
"17361",231.67668,80.550545,95.41779
"17362",231.69002,80.23071,95.115166
"17363",231.70335,79.72045,94.612114
"17364",231.71669,79.061264,93.94419
"17365",231.73003,78.294655,93.14825
"17366",231.74336,77.467,92.2673
"17367",231.7567,76.61494,91.33608
"17368",231.77003,75.775085,90.39045
"17369",231.78337,74.969406,89.45274
"17370",231.7967,74.2272,88.55334
"17371",231.81004,73.57046,87.716194
"17372",231.82338,73.01137,86.956184
"17373",231.83672,72.56214,86.28857
"17374",231.85005,72.217896,85.71188
"17375",231.86339,71.98352,85.234314
"17376",231.87672,71.84192,84.84219
"17377",231.89006,71.78821,84.53354
"17378",231.9034,71.80286,84.291565
"17379",231.91673,71.88098,84.113525
"17380",231.93007,72.00305,83.98187
"17381",231.9434,72.1593,83.888214
"17382",231.95674,72.33997,83.82387
"17383",231.97008,72.535286,83.7798
"17384",231.98341,72.73304,83.74428
"17385",231.99675,72.92348,83.70763
"17386",232.01009,73.10414,83.66715
"17387",232.02342,73.26772,83.61524
"17388",232.03676,73.41909,83.55623
"17389",232.0501,73.55337,83.484856
"17390",232.06343,73.673,83.40303
"17391",232.07677,73.777985,83.3103
"17392",232.0901,73.86099,83.198875
"17393",232.10344,73.917145,83.06319
"17394",232.11678,73.93912,82.89507
"17395",232.13011,73.92203,82.68858
"17396",232.14345,73.86832,82.44494
"17397",232.15678,73.83414,82.21915
"17398",232.17012,74.005035,82.197365
"17399",232.18346,74.683754,82.68874
"17400",232.1968,76.15839,83.997246
"17401",232.21013,78.551,86.26981
"17402",232.22346,81.761505,89.435036
"17403",232.2368,85.45052,93.1791
"17404",232.25014,89.14198,97.040886
"17405",232.26347,92.350044,100.53464
"17406",232.27681,94.75731,103.32784
"17407",232.29015,96.2417,105.2734
"17408",232.30348,96.81789,106.35714
"17409",232.31682,96.5713,106.63611
"17410",232.33015,95.641106,106.22377
"17411",232.34349,94.203094,105.27454
"17412",232.35683,92.43549,103.95079
"17413",232.37016,90.511635,102.41554
"17414",232.3835,88.57801,100.81041
"17415",232.39684,86.744484,99.24495
"17416",232.41017,85.09407,97.8053
"17417",232.42351,83.6585,96.528915
"17418",232.43684,82.44511,95.42985
"17419",232.45018,81.43435,94.4955
"17420",232.46352,80.621346,93.72732
"17421",232.47685,80.0061,93.13149
"17422",232.49019,79.60082,92.7264
"17423",232.50352,79.4226,92.535706
"17424",232.51686,79.4641,92.559166
"17425",232.5302,79.69604,92.77435
"17426",232.54353,80.045166,93.11398
"17427",232.55687,80.428474,93.4987
"17428",232.5702,80.75563,93.83925
"17429",232.58354,80.96315,94.07038
"17430",232.59688,81.004654,94.14198
"17431",232.61021,80.86061,94.029335
"17432",232.62355,80.53834,93.733955
"17433",232.63689,80.062256,93.2747
"17434",232.65022,79.46899,92.68337
"17435",232.66356,78.79515,91.99294
"17436",232.6769,78.07492,91.23506
"17437",232.69023,77.33517,90.43515
"17438",232.70357,76.610054,89.62676
"17439",232.7169,75.92157,88.832344
"17440",232.73024,75.2868,88.07012
"17441",232.74358,74.720375,87.356415
"17442",232.75691,74.23697,86.70802
"17443",232.77025,73.83414,86.1251
"17444",232.78358,73.50942,85.607704
"17445",232.79692,73.25796,85.15341
"17446",232.81026,73.0724,84.75717
"17447",232.8236,72.94789,84.416176
"17448",232.83693,72.88197,84.12988
"17449",232.8636,72.89174,83.69432
"17450",232.87694,72.94789,83.52834
"17451",232.89027,73.02846,83.388535
"17452",232.90361,73.11635,83.25857
"17453",232.91695,73.20912,83.13623
"17454",232.93028,73.29946,83.01436
"17455",232.94362,73.38735,82.89286
"17456",232.95695,73.47036,82.769226
"17457",232.97029,73.548485,82.6433
"17458",232.98363,73.619286,82.5125
"17459",232.99696,73.69009,82.3839
"17460",233.0103,73.75845,82.25509
"17461",233.02364,73.81949,82.12108
"17462",233.03697,73.87808,81.986534
"17463",233.05031,73.92935,81.8465
"17464",233.06364,73.9733,81.70074
"17465",233.07698,74.002594,81.5417
"17466",233.09032,74.0148,81.36649
"17467",233.10365,74.01724,81.1819
"17468",233.11699,74.10269,81.08039
"17469",233.13033,74.48844,81.28185
"17470",233.14366,75.46258,82.083755
"17471",233.157,77.21553,83.694916
"17472",233.17033,79.74975,86.14212
"17473",233.18367,82.865036,89.24959
"17474",233.197,86.187836,92.66192
"17475",233.21034,89.2665,95.93395
"17476",233.22368,91.74456,98.70159
"17477",233.23701,93.45846,100.78251
"17478",233.25035,94.39109,102.13572
"17479",233.26369,94.60105,102.7954
"17480",233.27702,94.19333,102.84396
"17481",233.29036,93.297325,102.3915
"17482",233.3037,92.052185,101.561905
"17483",233.31703,90.58976,100.47611
"17484",233.33037,89.02724,99.24452
"17485",233.3437,87.467155,97.96654
"17486",233.35704,85.99008,96.72281
"17487",233.37038,84.64973,95.56964
"17488",233.38371,83.48028,94.545494
"17489",233.39705,82.48173,93.6557
"17490",233.41039,81.64919,92.90072
"17491",233.42372,80.9778,92.28086
"17492",233.43706,80.47242,91.80604
"17493",233.4504,80.147705,91.496086
"17494",233.46373,80.02319,91.37619
"17495",233.47707,80.10132,91.45504
"17496",233.4904,80.34791,91.704796
"17497",233.50374,80.709236,92.076996
"17498",233.51707,81.09987,92.48979
"17499",233.53041,81.43679,92.861084
"17500",233.54375,81.65896,93.12815
"17501",233.55708,81.72976,93.25079
"17502",233.57042,81.634544,93.20963
"17503",233.58376,81.3782,93.004364
"17504",233.59709,80.98512,92.65436
"17505",233.61043,80.48707,92.18709
"17506",233.62376,79.91089,91.62613
"17507",233.6371,79.29565,91.0081
"17508",233.65044,78.660866,90.35131
"17509",233.66377,78.03342,89.682014
"17510",233.67711,77.42794,89.01508
"17511",233.69044,76.86397,88.370735
"17512",233.70378,76.34638,87.75515
"17513",233.71712,75.88495,87.17954
"17514",233.73045,75.47967,86.64567
"17515",233.74379,75.142746,86.16749
"17516",233.75713,74.86687,85.73982
"17517",233.77046,74.65446,85.367004
"17518",233.7838,74.50309,85.04859
"17519",233.79713,74.407875,84.7816
"17520",233.81047,74.36393,84.562904
"17521",233.8238,74.36637,84.38922
"17522",233.83714,74.39811,84.24491
"17523",233.85048,74.45182,84.123566
"17524",233.86382,74.52018,84.01855
"17525",233.87715,74.59586,83.92299
"17526",233.89049,74.67155,83.829796
"17527",233.90382,74.74723,83.73897
"17528",233.91716,74.82292,83.65051
"17529",233.9305,74.896164,83.56197
"17530",233.94383,74.96452,83.47084
"17531",233.95717,75.020676,83.36964
"17532",233.9705,75.0695,83.26286
"17533",233.98384,75.106125,83.14541
"17534",233.99718,75.13786,83.024216
"17535",234.01051,75.16472,82.89913
"17536",234.02385,75.18913,82.772446
"17537",234.03719,75.211105,82.64408
"17538",234.05052,75.23308,82.5164
"17539",234.06386,75.2404,82.37476
"17540",234.0772,75.23552,82.221146
"17541",234.09053,75.245285,82.08202
"17542",234.10387,75.386894,82.07505
"17543",234.1172,75.90936,82.45336
"17544",234.13054,77.08125,83.49742
"17545",234.14388,79.04173,85.36669
"17546",234.15721,81.72488,88.01989
"17547",234.17055,84.86458,91.21349
"17548",234.18388,88.060425,94.561356
"17549",234.19722,90.88518,97.638
"17550",234.21056,93.04341,100.1364
"17551",234.22389,94.43992,101.94051
"17552",234.23723,95.10887,103.060715
"17553",234.25056,95.130844,103.55484
"17554",234.2639,94.605934,103.50277
"17555",234.27724,93.661095,103.014366
"17556",234.29057,92.4184,102.198586
"17557",234.30391,90.9926,101.16086
"17558",234.31725,89.478905,99.990685
"17559",234.33058,87.96277,98.77077
"17560",234.34392,86.51011,97.56694
"17561",234.35725,85.172195,96.432465
"17562",234.37059,83.97589,95.39779
"17563",234.38393,82.93584,94.48198
"17564",234.39726,82.056915,93.6948
"17565",234.4106,81.33669,93.03886
"17566",234.42393,80.78493,92.52886
"17567",234.43727,80.42115,92.18961
"17568",234.4506,80.2649,92.046524
"17569",234.46394,80.32105,92.110954
"17570",234.47728,80.56275,92.362686
"17571",234.49062,80.93141,92.74893
"17572",234.50395,81.34402,93.19064
"17573",234.51729,81.71511,93.60374
"17574",234.53062,81.98123,93.923454
"17575",234.54396,82.09842,94.102554
"17576",234.5573,82.04715,94.11686
"17577",234.57063,81.84207,93.97575
"17578",234.58397,81.497826,93.68907
"17579",234.5973,81.04616,93.28421
"17580",234.61064,80.516365,92.78711
"17581",234.62398,79.937744,92.224625
"17582",234.63731,79.33715,91.622086
"17583",234.65065,78.73655,91.00077
"17584",234.66399,78.150604,90.37534
"17585",234.67732,77.591515,89.75846
"17586",234.69066,77.07393,89.16561
"17587",234.704,76.60029,88.60053
"17588",234.71733,76.17059,88.0646
"17589",234.73067,75.792175,87.56651
"17590",234.744,75.47234,87.11519
"17591",234.75734,75.20622,86.70758
"17592",234.77068,74.99382,86.345375
"17593",234.78401,74.83269,86.0278
"17594",234.79735,74.71793,85.75157
"17595",234.81068,74.63981,85.508385
"17596",234.82402,74.60563,85.3067
"17597",234.83736,74.60319,85.13569
"17598",234.8507,74.6276,84.991455
"17599",234.86403,74.67643,84.8724
"17600",234.87737,74.737465,84.767075
"17601",234.8907,74.80583,84.67099
"17602",234.90404,74.881516,84.58436
"17603",234.91737,74.96208,84.504974
"17604",234.93071,75.04753,84.43299
"17605",234.94405,75.1281,84.358795
"17606",234.95738,75.20134,84.27979
"17607",234.97072,75.26971,84.198204
"17608",234.98405,75.33074,84.11142
"17609",234.99739,75.386894,84.02166
"17610",235.01073,75.43572,83.92633
"17611",235.02406,75.47723,83.8252
"17612",235.0374,75.50164,83.70828
"17613",235.05074,75.511406,83.57748
"17614",235.06407,75.545586,83.47139
"17615",235.07741,75.76532,83.551926
"17616",235.09074,76.42451,84.07878
"17617",235.10408,77.752655,85.2952
"17618",235.11742,79.84985,87.32217
"17619",235.13075,82.60868,90.0763
"17620",235.14409,85.73861,93.28775
"17621",235.15742,88.82948,96.55795
"17622",235.17076,91.49554,99.49992
"17623",235.1841,93.49508,101.8587
"17624",235.19743,94.76219,103.54754
"17625",235.21077,95.33349,104.580154
"17626",235.2241,95.28466,105.0105
"17627",235.23744,94.710915,104.9144
"17628",235.25078,93.73434,104.39754
"17629",235.26411,92.474556,103.566956
"17630",235.27745,91.03899,102.52122
"17631",235.29079,89.51064,101.337845
"17632",235.30412,87.974976,100.09939
"17633",235.31746,86.48814,98.86177
"17634",235.3308,85.09651,97.6729
"17635",235.34413,83.824524,96.56017
"17636",235.35747,82.69169,95.54685
"17637",235.3708,81.70779,94.647064
"17638",235.38414,80.88014,93.87279
"17639",235.39748,80.23071,93.25086
"17640",235.41081,79.7937,92.82106
"17641",235.42415,79.60082,92.621735
"17642",235.43748,79.66186,92.670296
"17643",235.45082,79.937744,92.935616
"17644",235.46416,80.365,93.36092
"17645",235.4775,80.848404,93.855736
"17646",235.49083,81.29763,94.331474
"17647",235.50417,81.63943,94.71382
"17648",235.5175,81.82498,94.95061
"17649",235.53084,81.83475,95.0174
"17650",235.54417,81.68337,94.92336
"17651",235.55751,81.38796,94.68056
"17652",235.57085,80.98268,94.31865
"17653",235.58418,80.499275,93.86595
"17654",235.59752,79.957275,93.339554
"17655",235.61086,79.38598,92.76692
"17656",235.62419,78.80003,92.16179
"17657",235.63753,78.21896,91.54322
"17658",235.65086,77.659874,90.928474
"17659",235.6642,77.137405,90.33288
"17660",235.67754,76.65888,89.7649
"17661",235.69087,76.224304,89.225914
"17662",235.70421,75.843445,88.727066
"17663",235.71754,75.508965,88.262695
"17664",235.73088,75.22575,87.83914
"17665",235.74422,74.99382,87.458015
"17666",235.75755,74.8156,87.12335
"17667",235.77089,74.67887,86.824615
"17668",235.78423,74.58366,86.56312
"17669",235.79756,74.52506,86.335266
"17670",235.8109,74.50065,86.13976
"17671",235.82423,74.510414,85.97768
"17672",235.83757,74.54459,85.84031
"17673",235.8509,74.60319,85.728424
"17674",235.86424,74.67399,85.63058
"17675",235.87758,74.757,85.54716
"17676",235.89091,74.84245,85.468765
"17677",235.90425,74.93034,85.395485
"17678",235.91759,75.018234,85.32495
"17679",235.93092,75.106125,85.257164
"17680",235.94426,75.18913,85.18724
"17681",235.9576,75.267265,85.115036
"17682",235.97093,75.34295,85.04282
"17683",235.98427,75.41375,84.968094
"17684",235.9976,75.47723,84.88825
"17685",236.01094,75.526054,84.795746
"17686",236.02428,75.56512,84.695
"17687",236.03761,75.66033,84.65163
"17688",236.05095,75.982605,84.83829
"17689",236.06429,76.79805,85.52819
"17690",236.07762,78.30442,86.9345
"17691",236.09096,80.552986,89.13008
"17692",236.1043,83.404594,91.99897
"17693",236.11763,86.56138,95.262146
"17694",236.13097,89.61562,98.52143
"17695",236.1443,92.21332,101.41962
"17696",236.15764,94.151825,103.73979
"17697",236.17097,95.36523,105.39544
"17698",236.18431,95.88281,106.39319
"17699",236.19765,95.765625,106.77234
"17700",236.21098,95.12596,106.62535
"17701",236.22432,94.07126,106.043335
"17702",236.23766,92.72602,105.137825
"17703",236.25099,91.205,104.014496
"17704",236.26433,89.600975,102.76063
"17705",236.27766,87.9823,101.441986
"17706",236.291,86.41245,100.12158
"17707",236.30434,84.93294,98.84245
"17708",236.31767,83.57061,97.63428
"17709",236.33101,82.337685,96.51293
"17710",236.34435,81.253685,95.50198
"17711",236.35768,80.35279,94.64027
"17712",236.37102,79.67162,93.97012
"17713",236.38435,79.25414,93.54238
"17714",236.39769,79.13451,93.39944
"17715",236.41103,79.30053,93.538414
"17716",236.42436,79.70092,93.91695
"17717",236.4377,80.24536,94.45204
"17718",236.45103,80.82887,95.04322
"17719",236.46437,81.3489,95.58915
"17720",236.4777,81.73708,96.019485
"17721",236.49104,81.94705,96.28374
"17722",236.50438,81.969025,96.366554
"17723",236.51772,81.81033,96.269394
"17724",236.53105,81.50515,96.02078
"17725",236.54439,81.08034,95.643005
"17726",236.55772,80.567635,95.16406
"17727",236.57106,79.99878,94.612946
"17728",236.5844,79.398186,94.012314
"17729",236.59773,78.78783,93.38315
"17730",236.61107,78.184784,92.742226
"17731",236.6244,77.60616,92.10688
"17732",236.63774,77.06172,91.48763
"17733",236.65108,76.56367,90.89776
"17734",236.66441,76.11444,90.34115
"17735",236.67775,75.71404,89.81933
"17736",236.69109,75.369804,89.341156
"17737",236.70442,75.07683,88.90349
"17738",236.71776,74.83513,88.50794
"17739",236.7311,74.64469,88.156105
"17740",236.74443,74.49821,87.84227
"17741",236.75777,74.39567,87.5678
"17742",236.7711,74.339516,87.33652
"17743",236.78444,74.322426,87.14254
"17744",236.79778,74.337074,86.97977
"17745",236.81111,74.38102,86.84675
"17746",236.82445,74.444496,86.734634
"17747",236.83778,74.52018,86.63671
"17748",236.85112,74.600746,86.546036
"17749",236.86446,74.683754,86.46032
"17750",236.87779,74.76921,86.37965
"17751",236.89113,74.85466,86.301636
"17752",236.90446,74.93523,86.22141
"17753",236.91777,75.01091,86.138824
"17754",236.9311,75.07927,86.05128
"17755",236.94444,75.13786,85.9561
"17756",236.95778,75.18425,85.85055
"17757",236.97112,75.22331,85.73912
"17758",236.98445,75.27703,85.64357
"17759",236.99779,75.46258,85.681526
"17760",237.01112,76.00458,86.08173
"17761",237.02446,77.14229,87.09459
"17762",237.0378,79.01732,88.88032
"17763",237.05113,81.5906,91.42289
"17764",237.06447,84.64973,94.53172
"17765",237.0778,87.82361,97.85091
"17766",237.09114,90.71183,100.98361
"17767",237.10448,93.02144,103.62797
"17768",237.11781,94.6157,105.62915
"17769",237.13115,95.46288,106.933075
"17770",237.14449,95.61913,107.57254
"17771",237.15782,95.17479,107.616295
"17772",237.17116,94.24704,107.16276
"17773",237.1845,92.95552,106.31646
"17774",237.19783,91.42962,105.19542
"17775",237.21117,89.76944,103.89242
"17776",237.2245,88.05798,102.48626
"17777",237.23784,86.366066,101.04616
"17778",237.25117,84.7425,99.62153
"17779",237.26451,83.226364,98.25359
"17780",237.27785,81.83719,96.96524
"17781",237.29118,80.6067,95.79216
"17782",237.30452,79.55688,94.7613
"17783",237.31786,78.73655,93.927124
"17784",237.33119,78.19211,93.3432
"17785",237.34453,77.9675,93.062096
"17786",237.35786,78.07248,93.10356
"17787",237.3712,78.47288,93.443726
"17788",237.38454,79.08568,94.008804
"17789",237.39787,79.80591,94.70046
"17790",237.41121,80.50904,95.39753
"17791",237.42455,81.09743,96.00182
"17792",237.43788,81.497826,96.436516
"17793",237.45122,81.68093,96.66643
"17794",237.46455,81.64675,96.68478
"17795",237.47789,81.42458,96.51407
"17796",237.49123,81.0486,96.1826
"17797",237.50456,80.56031,95.72708
"17798",237.5179,79.99878,95.18306
"17799",237.53123,79.38842,94.57266
"17800",237.54457,78.75365,93.91878
"17801",237.5579,78.118866,93.24505
"17802",237.57124,77.503624,92.57102
"17803",237.58458,76.92256,91.91195
"17804",237.59792,76.385445,91.27866
"17805",237.61125,75.90448,90.684746
"17806",237.62459,75.474785,90.12707
"17807",237.63792,75.0988,89.60967
"17808",237.65126,74.776535,89.13425
"17809",237.6646,74.50797,88.70245
"17810",237.67793,74.29313,88.31599
"17811",237.69127,74.13687,87.98139
"17812",237.7046,74.039215,87.700516
"17813",237.71794,73.99527,87.4703
"17814",237.73128,74.00015,87.28754
"17815",237.74461,74.0441,87.14399
"17816",237.75795,74.12222,87.035995
"17817",237.77129,74.2272,86.9573
"17818",237.78462,74.356606,86.9063
"17819",237.79796,74.50797,86.88132
"17820",237.8113,74.67155,86.87327
"17821",237.82463,74.83757,86.87278
"17822",237.83797,74.9987,86.87259
"17823",237.8513,75.14763,86.86523
"17824",237.86464,75.27703,86.842995
"17825",237.87798,75.37957,86.79794
"17826",237.89131,75.44793,86.72192
"17827",237.90465,75.48455,86.61629
"17828",237.91798,75.508965,86.499596
"17829",237.93132,75.596855,86.44714
"17830",237.94466,75.928894,86.64159
"17831",237.958,76.732124,87.3176
"17832",237.97133,78.18967,88.67302
"17833",237.98466,80.33082,90.7576
"17834",237.998,83.0164,93.45352
"17835",238.01134,85.95102,96.4824
"17836",238.02467,88.76845,99.485794
"17837",238.03801,91.13176,102.12312
"17838",238.05135,92.843216,104.18245
"17839",238.06468,93.85153,105.59212
"17840",238.07802,94.17624,106.349686
"17841",238.09135,93.893036,106.50949
"17842",238.10469,93.10933,106.15994
"17843",238.11803,91.949646,105.40993
"17844",238.13136,90.52384,104.35755
"17845",238.1447,88.93935,103.10193
"17846",238.15804,87.28161,101.72354
"17847",238.17137,85.626305,100.29579
"17848",238.18471,84.017395,98.8627
"17849",238.19804,82.496376,97.467224
"17850",238.21138,81.08522,96.13408
"17851",238.22472,79.81323,94.896
"17852",238.23805,78.712135,93.78907
"17853",238.25139,77.84543,92.88212
"17854",238.26472,77.26925,92.23861
"17855",238.27806,77.051956,91.93598
"17856",238.2914,77.20332,91.995224
"17857",238.30473,77.68673,92.391235
"17858",238.31807,78.40452,93.036736
"17859",238.3314,79.237045,93.819405
"17860",238.34474,80.04761,94.606125
"17861",238.35808,80.73853,95.29854
"17862",238.37141,81.23903,95.82211
"17863",238.38475,81.529564,96.15137
"17864",238.39809,81.60525,96.27485
"17865",238.41142,81.48562,96.20538
"17866",238.42476,81.20729,95.97348
"17867",238.4381,80.8069,95.61082
"17868",238.45143,80.31373,95.14286
"17869",238.46477,79.75952,94.59846
"17870",238.4781,79.17113,94.00255
"17871",238.49144,78.57053,93.37605
"17872",238.50478,77.97482,92.73567
"17873",238.51811,77.401085,92.09865
"17874",238.53145,76.86153,91.477875
"17875",238.54478,76.36591,90.884186
"17876",238.55812,75.91669,90.321396
"17877",238.57146,75.528496,89.8056
"17878",238.5848,75.194016,89.33139
"17879",238.59813,74.91814,88.90533
"17880",238.61147,74.69596,88.524345
"17881",238.6248,74.52506,88.1877
"17882",238.63814,74.41032,87.90186
"17883",238.65147,74.3444,87.66127
"17884",238.66481,74.32975,87.46989
"17885",238.67815,74.36393,87.32687
"17886",238.69148,74.43717,87.22399
"17887",238.70482,74.54215,87.155136
"17888",238.71815,74.67399,87.11642
"17889",238.73149,74.82536,87.10136
"17890",238.74483,74.98894,87.103226
"17891",238.75816,75.15251,87.11021
"17892",238.7715,75.30877,87.11498
"17893",238.78484,75.44305,87.10266
"17894",238.79817,75.54803,87.06524
"17895",238.81151,75.6701,87.04819
"17896",238.82484,75.945984,87.18877
"17897",238.83818,76.610054,87.72615
"17898",238.85152,77.93332,88.94348
"17899",238.86485,80.05737,91.00295
"17900",238.87819,82.948044,93.89542
"17901",238.89153,86.37095,97.410446
"17902",238.90486,89.94522,101.18381
"17903",238.9182,93.24361,104.792984
"17904",238.93153,95.93164,107.89488
"17905",238.94487,97.84085,110.301956
"17906",238.9582,98.915085,111.933716
"17907",238.97154,99.19096,112.80069
"17908",238.98488,98.75395,112.963394
"17909",238.99821,97.73586,112.531364
"17910",239.01155,96.27589,111.62563
"17911",239.02489,94.51804,110.37641
"17912",239.03822,92.5893,108.90136
"17913",239.05156,90.60441,107.30988
"17914",239.0649,88.653694,105.69056
"17915",239.07823,86.81041,104.11771
"17916",239.09157,85.1136,102.63372
"17917",239.1049,83.595024,101.27494
"17918",239.11824,82.269325,100.061584
"17919",239.13158,81.15846,99.02164
"17920",239.14491,80.29664,98.196014
"17921",239.15825,79.710686,97.61933
"17922",239.17159,79.42748,97.32709
"17923",239.18492,79.43969,97.3214
"17924",239.19826,79.71313,97.57733
"17925",239.2116,80.16724,98.02248
"17926",239.22493,80.70435,98.56482
"17927",239.23827,81.22438,99.10686
"17928",239.2516,81.64431,99.56505
"17929",239.26494,81.90555,99.87767
"17930",239.27827,81.97391,100.00558
"17931",239.29161,81.83475,99.9281
"17932",239.30495,81.50759,99.65828
"17933",239.31828,81.01686,99.21466
"17934",239.33162,80.394295,98.62387
"17935",239.34496,79.68383,97.92573
"17936",239.35829,78.924545,97.15656
"17937",239.37163,78.14816,96.34657
"17938",239.38496,77.38644,95.52698
"17939",239.3983,76.65888,94.71775
"17940",239.41164,75.97772,93.93218
"17941",239.42497,75.3576,93.18636
"17942",239.43831,74.80095,92.48464
"17943",239.45164,74.31266,91.833885
"17944",239.46498,73.89517,91.23867
"17945",239.47832,73.54604,90.69877
"17946",239.49165,73.26772,90.218765
"17947",239.50499,73.06264,89.8033
"17948",239.51833,72.921036,89.44491
"17949",239.53166,72.84047,89.14313
"17950",239.545,72.80873,88.88766
"17951",239.55833,72.82338,88.67758
"17952",239.57167,72.87953,88.50947
"17953",239.585,72.96742,88.37485
"17954",239.59834,73.08217,88.26983
"17955",239.61168,73.214005,88.185486
"17956",239.62502,73.34829,88.10771
"17957",239.63835,73.47036,88.02192
"17958",239.65169,73.57534,87.92285
"17959",239.66502,73.673,87.81974
"17960",239.67836,73.8439,87.79293
"17961",239.6917,74.29557,88.05222
"17962",239.70503,75.30633,88.88472
"17963",239.71837,77.11055,90.54227
"17964",239.7317,79.781494,93.12292
"17965",239.74504,83.20439,96.53899
"17966",239.75838,87.047226,100.48196
"17967",239.77171,90.85588,104.51083
"17968",239.78505,94.205536,108.19974
"17969",239.79839,96.8008,111.23892
"17970",239.81172,98.4976,113.46075
"17971",239.82506,99.266655,114.80785
"17972",239.8384,99.173874,115.317154
"17973",239.85173,98.34623,115.08869
"17974",239.86507,96.9424,114.25818
"17975",239.8784,95.13573,112.98096
"17976",239.89174,93.09712,111.415344
"17977",239.90508,90.97551,109.70302
"17978",239.91841,88.89296,107.963455
"17979",239.93175,86.94957,106.29797
"17980",239.94508,85.2137,104.779274
"17981",239.95842,83.71465,103.44315
"17982",239.97176,82.44511,102.28969
"17983",239.98509,81.3904,101.31139
"17984",239.99843,80.5359,100.500336
"17985",240.01176,79.87915,99.86034
"17986",240.0251,79.429924,99.40733
"17987",240.03844,79.18822,99.14781
"17988",240.05177,79.151596,99.08582
"17989",240.06511,79.28588,99.193596
"17990",240.07845,79.53246,99.41786
"17991",240.09178,79.815674,99.68646
"17992",240.10512,80.06714,99.93217
"17993",240.11845,80.216064,100.08319
"17994",240.13179,80.218506,100.092384
"17995",240.14513,80.05005,99.930756
"17996",240.15846,79.710686,99.59296
"17997",240.1718,79.21507,99.0883
"17998",240.18513,78.59739,98.44609
"17999",240.19847,77.89426,97.69913
"18000",240.2118,77.14229,96.881355
"18001",240.22514,76.37812,96.027885
"18002",240.23848,75.62127,95.15785
"18003",240.25182,74.896164,94.29591
"18004",240.26515,74.21988,93.46014
"18005",240.27849,73.602196,92.66183
"18006",240.29182,73.04799,91.90769
"18007",240.30516,72.57191,91.21436
"18008",240.3185,72.183716,90.59404
"18009",240.33183,71.8761,90.04216
"18010",240.34517,71.64416,89.55635
"18011",240.3585,71.483025,89.134094
"18012",240.37184,71.38781,88.77272
"18013",240.38518,71.346306,88.46208
"18014",240.39851,71.35363,88.198975
"18015",240.41185,71.40002,87.97516
"18016",240.42519,71.48058,87.78697
"18017",240.43852,71.58556,87.62572
"18018",240.45186,71.710075,87.487274
"18019",240.4652,71.8468,87.364944
"18020",240.47853,71.990845,87.254196
"18021",240.49187,72.13489,87.14795
"18022",240.5052,72.271614,87.038895
"18023",240.51854,72.393684,86.91945
"18024",240.53188,72.49134,86.7794
"18025",240.54521,72.58167,86.635086
"18026",240.55855,72.75014,86.57173
"18027",240.57188,73.20912,86.80416
"18028",240.58522,74.24185,87.62468
"18029",240.59856,76.09003,89.292915
"18030",240.6119,78.84642,91.927124
"18031",240.62523,82.37675,95.4214
"18032",240.63857,86.348976,99.4679
"18033",240.6519,90.28947,103.6068
"18034",240.66524,93.73678,107.375656
"18035",240.67857,96.375984,110.44414
"18036",240.69191,98.04837,112.62827
"18037",240.70525,98.73197,113.875885
"18038",240.71858,98.50492,114.23421
"18039",240.73192,97.51125,113.81882
"18040",240.74525,95.94141,112.796196
"18041",240.75859,93.99802,111.350975
"18042",240.77193,91.86664,109.657036
"18043",240.78526,89.7084,107.86963
"18044",240.7986,87.64782,106.11244
"18045",240.81194,85.78256,104.486176
"18046",240.82527,84.16144,103.04575
"18047",240.83861,82.794235,101.80859
"18048",240.85194,81.6614,100.76308
"18049",240.86528,80.73853,99.89213
"18050",240.87862,80.00366,99.180336
"18051",240.89195,79.4519,98.628685
"18052",240.90529,79.093,98.25266
"18053",240.91862,78.93187,98.06319
"18054",240.93196,78.95628,98.05422
"18055",240.9453,79.1223,98.18762
"18056",240.95863,79.37133,98.409225
"18057",240.97197,79.62768,98.64593
"18058",240.9853,79.82544,98.832054
"18059",240.99864,79.90845,98.90961
"18060",241.01198,79.84009,98.83839
"18061",241.02531,79.59594,98.58924
"18062",241.03865,79.185776,98.16645
"18063",241.05199,78.63645,97.59168
"18064",241.06532,77.98459,96.89721
"18065",241.07866,77.26681,96.11645
"18066",241.092,76.51972,95.28395
"18067",241.10533,75.7702,94.425674
"18068",241.11867,75.04265,93.56594
"18069",241.132,74.356606,92.72498
"18070",241.14534,73.724266,91.91629
"18071",241.15868,73.16029,91.156204
"18072",241.17201,72.67689,90.45906
"18073",241.18535,72.274055,89.82738
"18074",241.19868,71.94934,89.26123
"18075",241.21202,71.70519,88.7655
"18076",241.22536,71.536736,88.33783
"18077",241.2387,71.431755,87.96837
"18078",241.25203,71.38537,87.65422
"18079",241.26537,71.39269,87.392334
"18080",241.2787,71.448845,87.179504
"18081",241.29204,71.54894,87.012375
"18082",241.30537,71.67834,86.87767
"18083",241.31871,71.82971,86.769
"18084",241.33205,71.99573,86.67969
"18085",241.34538,72.166626,86.60045
"18086",241.35872,72.33509,86.524124
"18087",241.37206,72.49134,86.44084
"18088",241.38539,72.62562,86.34047
"18089",241.39873,72.7306,86.215
"18090",241.41206,72.8185,86.07573
"18091",241.4254,72.96254,85.99535
"18092",241.43874,73.34585,86.158745
"18093",241.45207,74.249176,86.85413
"18094",241.46541,75.931335,88.35658
"18095",241.47874,78.502174,90.80028
"18096",241.49208,81.87137,94.122665
"18097",241.50542,85.73373,98.0435
"18098",241.51875,89.63271,102.121666
"18099",241.53209,93.08736,105.877335
"18100",241.54543,95.7412,108.94016
"18101",241.55876,97.41604,111.10691
"18102",241.5721,98.075226,112.31035
"18103",241.58543,97.79202,112.591995
"18104",241.59877,96.72999,112.08596
"18105",241.6121,95.08446,110.96324
"18106",241.62544,93.07515,109.42532
"18107",241.63878,90.89494,107.65372
"18108",241.65211,88.70496,105.80421
"18109",241.66545,86.641945,104.013214
"18110",241.67879,84.788895,102.36772
"18111",241.69212,83.18974,100.91822
"18112",241.70546,81.84207,99.67023
"18113",241.7188,80.72877,98.61449
"18114",241.73213,79.83032,97.738815
"18115",241.74547,79.13695,97.04014
"18116",241.7588,78.65354,96.52976
"18117",241.77214,78.39231,96.226456
"18118",241.78548,78.35325,96.13715
"18119",241.79881,78.50706,96.2395
"18120",241.81215,78.79759,96.48338
"18121",241.82549,79.15648,96.804695
"18122",241.83882,79.4934,97.11526
"18123",241.85216,79.74731,97.35333
"18124",241.8655,79.852295,97.450424
"18125",241.87883,79.783936,97.37745
"18126",241.89217,79.53246,97.119225
"18127",241.9055,79.11253,96.684685
"18128",241.91884,78.551,96.09542
"18129",241.93217,77.89426,95.393394
"18130",241.94551,77.171585,94.60492
"18131",241.95885,76.422066,93.76701
"18132",241.97218,75.67986,92.913
"18133",241.98552,74.966965,92.0651
"18134",241.99886,74.29801,91.23887
"18135",242.01219,73.69497,90.45764
"18136",242.02553,73.162735,89.72838
"18137",242.03886,72.71107,89.06305
"18138",242.0522,72.33997,88.46417
"18139",242.06554,72.05432,87.93915
"18140",242.07887,71.84436,87.48088
"18141",242.09221,71.70519,87.08685
"18142",242.10555,71.63683,86.75928
"18143",242.11888,71.63195,86.49304
"18144",242.13222,71.68566,86.28525
"18145",242.14555,71.79309,86.13286
"18146",242.15889,71.94202,86.025314
"18147",242.17223,72.112915,85.9444
"18148",242.18556,72.30335,85.88837
"18149",242.1989,72.498665,85.843155
"18150",242.21223,72.68665,85.79672
"18151",242.22557,72.850235,85.731766
"18152",242.2389,72.97963,85.63773
"18153",242.25224,73.091934,85.530655
"18154",242.26558,73.287254,85.5101
"18155",242.27892,73.78531,85.798386
"18156",242.29225,74.864426,86.6833
"18157",242.30559,76.74433,88.40272
"18158",242.31892,79.47143,91.028076
"18159",242.33226,82.87724,94.41737
"18160",242.3456,86.60288,98.232925
"18161",242.35893,90.16739,102.00377
"18162",242.37227,93.14839,105.302505
"18163",242.3856,95.26757,107.83257
"18164",242.39894,96.40528,109.447395
"18165",242.41228,96.585945,110.140724
"18166",242.42561,95.92432,109.997406
"18167",242.43895,94.59373,109.16445
"18168",242.45229,92.789505,107.816284
"18169",242.46562,90.71183,106.13828
"18170",242.47896,88.52674,104.28794
"18171",242.4923,86.383156,102.41081
"18172",242.50563,84.38361,100.61074
"18173",242.51897,82.58915,98.95326
"18174",242.5323,81.03639,97.481415
"18175",242.54564,79.73022,96.20763
"18176",242.55898,78.677956,95.146935
"18177",242.57231,77.88937,94.31704
"18178",242.58565,77.401085,93.762794
"18179",242.59898,77.239944,93.52044
"18180",242.61232,77.3962,93.59045
"18181",242.62566,77.82834,93.941216
"18182",242.63899,78.45335,94.49836
"18183",242.65233,79.15648,95.15316
"18184",242.66566,79.82056,95.79088
"18185",242.679,80.35035,96.31506
"18186",242.69234,80.6775,96.65316
"18187",242.70567,80.762955,96.75979
"18188",242.71901,80.6067,96.62737
"18189",242.73235,80.23071,96.27035
"18190",242.74568,79.67162,95.71847
"18191",242.75902,78.98558,95.02216
"18192",242.77235,78.221405,94.22629
"18193",242.78569,77.42306,93.37236
"18194",242.79903,76.627144,92.49592
"18195",242.81236,75.860535,91.62391
"18196",242.8257,75.14519,90.779205
"18197",242.83904,74.49821,89.980515
"18198",242.85237,73.92691,89.23729
"18199",242.8657,73.445946,88.56654
"18200",242.87904,73.06264,87.978424
"18201",242.89238,72.77211,87.47111
"18202",242.90572,72.569466,87.042595
"18203",242.91905,72.43519,86.67612
"18204",242.93239,72.359505,86.36403
"18205",242.94572,72.32288,86.08864
"18206",242.95906,72.31312,85.83896
"18207",242.9724,72.35706,85.642685
"18208",242.98573,72.57435,85.621124
"18209",242.99907,73.196915,86.01164
"18210",243.0124,74.48356,87.08569
"18211",243.02574,76.60761,89.03736
"18212",243.03908,79.54955,91.87329
"18213",243.05241,83.08232,95.39198
"18214",243.06575,86.785995,99.19198
"18215",243.07909,90.17471,102.792755
"18216",243.09242,92.85298,105.78899
"18217",243.10576,94.59373,107.93139
"18218",243.1191,95.34814,109.14185
"18219",243.13243,95.17967,109.45302
"18220",243.14577,94.23239,108.9801
"18221",243.1591,92.70161,107.89408
"18222",243.17244,90.794846,106.38425
"18223",243.18578,88.6952,104.62194
"18224",243.19911,86.56382,102.76228
"18225",243.21245,84.52766,100.93124
"18226",243.22578,82.66239,99.20746
"18227",243.23912,81.004654,97.63292
"18228",243.25246,79.569084,96.228745
"18229",243.2658,78.363014,95.00921
"18230",243.27913,77.40353,93.998566
"18231",243.29247,76.72724,93.24114
"18232",243.3058,76.37324,92.78487
"18233",243.31914,76.35859,92.65688
"18234",243.33247,76.66865,92.85315
"18235",243.34581,77.23506,93.31546
"18236",243.35915,77.94797,93.94196
"18237",243.37248,78.69016,94.62003
"18238",243.38582,79.34203,95.23097
"18239",243.39915,79.81323,95.68161
"18240",243.41249,80.05005,95.91259
"18241",243.42583,80.03296,95.897064
"18242",243.43916,79.77661,95.64175
"18243",243.4525,79.3225,95.18066
"18244",243.46584,78.71458,94.55156
"18245",243.47917,78.011444,93.80826
"18246",243.49251,77.2546,92.98927
"18247",243.50584,76.48798,92.13686
"18248",243.51918,75.7409,91.28003
"18249",243.53252,75.04265,90.448685
"18250",243.54585,74.4152,89.66632
"18251",243.55919,73.8732,88.9498
"18252",243.57253,73.411766,88.296906
"18253",243.58586,73.023575,87.702835
"18254",243.5992,72.69642,87.15767
"18255",243.61253,72.41566,86.64867
"18256",243.62587,72.19592,86.191925
"18257",243.6392,72.1178,85.86992
"18258",243.65254,72.38148,85.88728
"18259",243.66588,73.26772,86.535446
"18260",243.67921,75.01091,88.06825
"18261",243.69255,77.68429,90.585724
"18262",243.70589,81.13649,93.96556
"18263",243.71922,85.00862,97.87321
"18264",243.73256,88.78798,101.80908
"18265",243.7459,91.981384,105.277115
"18266",243.75923,94.26902,107.93917
"18267",243.77257,95.516594,109.63265
"18268",243.7859,95.74853,110.34948
"18269",243.79924,95.096664,110.18976
"18270",243.81258,93.7612,109.326065
"18271",243.82591,91.95941,107.954315
"18272",243.83925,89.90372,106.272354
"18273",243.85258,87.782104,104.460236
"18274",243.86592,85.73861,102.65993
"18275",243.87926,83.87091,100.97156
"18276",243.8926,82.22293,99.44454
"18277",243.90593,80.8069,98.09798
"18278",243.91927,79.60082,96.917114
"18279",243.9326,78.60227,95.90609
"18280",243.94594,77.82834,95.08848
"18281",243.95927,77.30099,94.49326
"18282",243.97261,77.04707,94.15501
"18283",243.98595,77.069046,94.0847
"18284",243.99928,77.34249,94.266556
"18285",244.01262,77.79172,94.63274
"18286",244.02596,78.328835,95.100845
"18287",244.03929,78.8513,95.57109
"18288",244.05263,79.259026,95.94292
"18289",244.06596,79.48608,96.14681
"18290",244.0793,79.49096,96.135635
"18291",244.09264,79.273674,95.90244
"18292",244.10597,78.856186,95.46226
"18293",244.11931,78.28733,94.85766
"18294",244.13264,77.61349,94.130295
"18295",244.14598,76.87862,93.32085
"18296",244.15932,76.11932,92.46401
"18297",244.17265,75.372246,91.595665
"18298",244.18599,74.66178,90.740585
"18299",244.19933,74.01236,89.92435
"18300",244.21266,73.43374,89.158615
"18301",244.226,72.935684,88.45537
"18302",244.23933,72.515755,87.81468
"18303",244.25267,72.164185,87.22923
"18304",244.266,71.89563,86.715805
"18305",244.27934,71.78088,86.34779
"18306",244.29268,72.0177,86.32776
"18307",244.30602,72.87709,86.9377
"18308",244.31935,74.60807,88.44609
"18309",244.33269,77.296104,90.96563
"18310",244.34602,80.80202,94.38705
"18311",244.35936,84.754715,98.36481
"18312",244.3727,88.64637,102.405045
"18313",244.38603,91.97162,106.00049
"18314",244.39937,94.37888,108.78187
"18315",244.4127,95.71435,110.56667
"18316",244.42604,95.99756,111.34096
"18317",244.43938,95.3579,111.201225
"18318",244.45271,94.0029,110.32616
"18319",244.46605,92.18158,108.94243
"18320",244.47939,90.125885,107.26741
"18321",244.49272,88.03845,105.496414
"18322",244.50606,86.07309,103.78226
"18323",244.5194,84.32746,102.22641
"18324",244.53273,82.82353,100.85771
"18325",244.54607,81.549095,99.67151
"18326",244.5594,80.45777,98.62859
"18327",244.57274,79.517815,97.70294
"18328",244.58607,78.71458,96.884636
"18329",244.59941,78.065155,96.195045
"18330",244.61275,77.61349,95.682915
"18331",244.62608,77.38644,95.38129
"18332",244.63942,77.38888,95.302055
"18333",244.65276,77.576866,95.40845
"18334",244.66609,77.88205,95.63791
"18335",244.67943,78.21408,95.903755
"18336",244.69276,78.48264,96.11651
"18337",244.7061,78.61692,96.20337
"18338",244.71944,78.56809,96.11132
"18339",244.73277,78.32639,95.824875
"18340",244.74611,77.90158,95.34776
"18341",244.75945,77.330284,94.71089
"18342",244.77278,76.64912,93.9463
"18343",244.78612,75.90448,93.09695
"18344",244.79945,75.13298,92.197464
"18345",244.81279,74.37614,91.28853
"18346",244.82613,73.66567,90.40232
"18347",244.83946,73.0309,89.5696
"18348",244.8528,72.4889,88.80982
"18349",244.86613,72.047,88.133194
"18350",244.87947,71.70275,87.54042
"18351",244.8928,71.44152,87.0199
"18352",244.90614,71.2462,86.55713
"18353",244.91948,71.1046,86.14197
"18354",244.93282,71.04845,85.80783
"18355",244.94615,71.2047,85.68434
"18356",244.95949,71.837036,86.041824
"18357",244.97282,73.24086,87.19055
"18358",244.98616,75.6115,89.349976
"18359",244.9995,78.92943,92.53076
"18360",245.01283,82.94072,96.5086
"18361",245.02617,87.16441,100.82419
"18362",245.0395,91.036545,104.920204
"18363",245.05284,94.08591,108.31446
"18364",245.06618,96.04639,110.715126
"18365",245.07951,96.84474,112.01493
"18366",245.09285,96.57618,112.272766
"18367",245.10619,95.44335,111.65794
"18368",245.11952,93.70748,110.40468
"18369",245.13286,91.6347,108.760254
"18370",245.1462,89.46914,106.95828
"18371",245.15953,87.40124,105.186295
"18372",245.17287,85.555504,103.57185
"18373",245.1862,83.983215,102.17317
"18374",245.19954,82.68192,100.99635
"18375",245.21288,81.59304,99.99128
"18376",245.22621,80.65308,99.101105
"18377",245.23955,79.80835,98.27678
"18378",245.25288,79.05882,97.52126
"18379",245.26622,78.43137,96.8644
"18380",245.27956,77.97482,96.35883
"18381",245.2929,77.71847,96.03919
"18382",245.30623,77.66476,95.914185
"18383",245.31956,77.77219,95.94864
"18384",245.3329,77.96506,96.07189
"18385",245.34624,78.15793,96.20117
"18386",245.35957,78.27512,96.2608
"18387",245.37291,78.25315,96.18493
"18388",245.38625,78.05783,95.93502
"18389",245.39958,77.68917,95.50567
"18390",245.41292,77.171585,94.91587
"18391",245.42625,76.53437,94.19027
"18392",245.43959,75.82391,93.37151
"18393",245.45293,75.08171,92.49881
"18394",245.46626,74.337074,91.60048
"18395",245.4796,73.62173,90.70817
"18396",245.49294,72.96498,89.852104
"18397",245.50627,72.38148,89.04876
"18398",245.5196,71.888306,88.317505
"18399",245.53294,71.500114,87.67583
"18400",245.54628,71.21446,87.12456
"18401",245.55962,71.028915,86.66446
"18402",245.57295,70.9337,86.288895
"18403",245.58629,70.92149,85.99336
"18404",245.59962,70.98497,85.77313
"18405",245.61296,71.10704,85.61348
"18406",245.6263,71.28039,85.50893
"18407",245.63963,71.47814,85.43419
"18408",245.65297,71.690544,85.38028
"18409",245.6663,71.888306,85.318375
"18410",245.67964,72.05676,85.23334
"18411",245.69298,72.181274,85.10962
"18412",245.70631,72.30579,84.98981
"18413",245.71965,72.57923,85.0228
"18414",245.73299,73.28481,85.496475
"18415",245.74632,74.75212,86.75394
"18416",245.75966,77.208206,89.04603
"18417",245.773,80.66041,92.41099
"18418",245.78633,84.842606,96.61382
"18419",245.79967,89.25918,101.181725
"18420",245.813,93.3193,105.5312
"18421",245.82634,96.50782,109.13595
"18422",245.83968,98.53422,111.678215
"18423",245.85301,99.31548,113.03867
"18424",245.86635,98.94682,113.27362
"18425",245.87968,97.65041,112.5693
"18426",245.89302,95.71923,111.18969
"18427",245.90636,93.44625,109.407936
"18428",245.9197,91.09758,107.47946
"18429",245.93303,88.87831,105.606995
"18430",245.94637,86.92027,103.92641
"18431",245.9597,85.28695,102.50934
"18432",245.97304,83.966125,101.35373
"18433",245.98637,82.9041,100.41564
"18434",245.99971,82.02518,99.62747
"18435",246.01305,81.253685,98.919266
"18436",246.02638,80.56031,98.26507
"18437",246.03972,79.957275,97.67954
"18438",246.05305,79.47631,97.19724
"18439",246.06639,79.15892,96.86349
"18440",246.07973,79.01488,96.69316
"18441",246.09306,79.01488,96.66238
"18442",246.1064,79.10521,96.721924
"18443",246.11974,79.20531,96.79406
"18444",246.13307,79.24681,96.81073
"18445",246.14641,79.16136,96.701744
"18446",246.15974,78.91966,96.43384
"18447",246.17308,78.504616,95.98503
"18448",246.18642,77.93088,95.36456
"18449",246.19975,77.225296,94.59432
"18450",246.21309,76.436714,93.71903
"18451",246.22643,75.60174,92.772705
"18452",246.23976,74.76189,91.79541
"18453",246.2531,73.953766,90.8236
"18454",246.26643,73.2018,89.88269
"18455",246.27977,72.5304,88.998856
"18456",246.2931,71.95911,88.19414
"18457",246.30644,71.49279,87.47655
"18458",246.31978,71.12901,86.846924
"18459",246.33311,70.86534,86.30603
"18460",246.34645,70.69688,85.85211
"18461",246.35979,70.61143,85.47594
"18462",246.37312,70.6041,85.17522
"18463",246.38646,70.66758,84.94507
"18464",246.3998,70.78233,84.76818
"18465",246.41313,70.93614,84.63394
"18466",246.42647,71.11192,84.526474
"18467",246.4398,71.29748,84.43428
"18468",246.45314,71.48058,84.34543
"18469",246.46648,71.658806,84.257416
"18470",246.47981,71.82727,84.16522
"18471",246.49315,71.98352,84.06607
"18472",246.50648,72.12512,83.95715
"18473",246.51982,72.25941,83.84535
"18474",246.53316,72.38148,83.725525
"18475",246.5465,72.4889,83.594864
"18476",246.55983,72.57679,83.44803
"18477",246.57317,72.637825,83.277084
"18478",246.5865,72.66224,83.07143
"18479",246.59984,72.66956,82.84944
"18480",246.61317,72.77211,82.722916
"18481",246.62651,73.233536,82.95847
"18482",246.63985,74.41276,83.92625
"18483",246.65318,76.610054,85.948944
"18484",246.66652,79.92554,89.15849
"18485",246.67986,84.18341,93.41404
"18486",246.69319,88.9247,98.28606
"18487",246.70653,93.52926,103.16951
"18488",246.71986,97.39895,107.46199
"18489",246.7332,100.140686,110.747444
"18490",246.74654,101.58358,112.81973
"18491",246.75987,101.75693,113.667564
"18492",246.77321,100.8365,113.42705
"18493",246.78654,99.090866,112.33255
"18494",246.79988,96.82521,110.66348
"18495",246.81322,94.33494,108.699
"18496",246.82655,91.861755,106.67378
"18497",246.83989,89.583885,104.766594
"18498",246.85323,87.61364,103.09585
"18499",246.86656,85.99252,101.71266
"18500",246.8799,84.69367,100.601074
"18501",246.89323,83.6585,99.71258
"18502",246.90657,82.811325,98.97973
"18503",246.9199,82.09598,98.352234
"18504",246.93324,81.48318,97.80493
"18505",246.94658,80.98268,97.350784
"18506",246.95992,80.61646,97.015274
"18507",246.97325,80.39918,96.81725
"18508",246.98659,80.323494,96.75404
"18509",246.99992,80.34791,96.78857
"18510",247.01326,80.411385,96.862915
"18511",247.0266,80.445564,96.90995
"18512",247.03993,80.38209,96.8604
"18513",247.05327,80.17212,96.66237
"18514",247.0666,79.7937,96.28933
"18515",247.07994,79.24925,95.738434
"18516",247.09328,78.56321,95.02893
"18517",247.10661,77.77707,94.19789
"18518",247.11995,76.92256,93.27392
"18519",247.13329,76.04608,92.30127
"18520",247.14662,75.176926,91.308556
"18521",247.15996,74.34928,90.33019
"18522",247.1733,73.582664,89.38699
"18523",247.18663,72.901505,88.505295
"18524",247.19997,72.31556,87.697525
"18525",247.2133,71.82727,86.9691
"18526",247.22664,71.43908,86.325516
"18527",247.23997,71.15831,85.77722
"18528",247.25331,70.97276,85.31537
"18529",247.26665,70.872665,84.93317
"18530",247.27998,70.853134,84.6284
"18531",247.29332,70.89708,84.386505
"18532",247.30666,70.98741,84.19237
"18533",247.31999,71.10948,84.03279
"18534",247.33333,71.25353,83.89902
"18535",247.34666,71.4049,83.777054
"18536",247.36,71.55627,83.65982
"18537",247.37334,71.70519,83.544876
"18538",247.38667,71.84436,83.424835
"18539",247.40001,71.97864,83.304245
"18540",247.41335,72.10071,83.175644
"18541",247.42668,72.21057,83.03865
"18542",247.44002,72.308235,82.8929
"18543",247.45335,72.396126,82.74042
"18544",247.46669,72.47181,82.578476
"18545",247.48003,72.52552,82.39693
"18546",247.49336,72.5597,82.197525
"18547",247.5067,72.56458,81.969894
"18548",247.52003,72.549934,81.722885
"18549",247.53337,72.61585,81.555984
"18550",247.5467,73.00404,81.713425
"18551",247.56004,74.06363,82.55439
"18552",247.57338,76.09247,84.39772
"18553",247.58672,79.20531,87.38845
"18554",247.60005,83.25567,91.41398
"18555",247.61339,87.83093,96.09098
"18556",247.62672,92.34516,100.84993
"18557",247.64006,96.22461,105.115166
"18558",247.6534,99.07622,108.47379
"18559",247.66673,100.72419,110.717896
"18560",247.68007,101.16853,111.80987
"18561",247.6934,100.543526,111.846375
"18562",247.70674,99.07378,111.01861
"18563",247.72008,97.025406,109.56629
"18564",247.73341,94.66453,107.73746
"18565",247.74675,92.2182,105.7494
"18566",247.76009,89.87686,103.78988
"18567",247.77342,87.765015,101.98669
"18568",247.78676,85.96323,100.42755
"18569",247.8001,84.47639,99.12706
"18570",247.81343,83.27276,98.06332
"18571",247.82677,82.29618,97.18901
"18572",247.8401,81.495384,96.45997
"18573",247.85344,80.8362,95.84751
"18574",247.86678,80.325935,95.36338
"18575",247.88011,79.98169,95.02932
"18576",247.89345,79.815674,94.86273
"18577",247.90678,79.823,94.864296
"18578",247.92012,79.957275,94.99304
"18579",247.93346,80.147705,95.18214
"18580",247.9468,80.31861,95.35766
"18581",247.96013,80.396736,95.44574
"18582",247.97346,80.32838,95.38978
"18583",247.9868,80.08179,95.15345
"18584",248.00014,79.65453,94.72875
"18585",248.01347,79.063705,94.12713
"18586",248.02681,78.35081,93.38497
"18587",248.04015,77.55489,92.53752
"18588",248.05348,76.71015,91.61637
"18589",248.06682,75.85565,90.659065
"18590",248.08015,75.02312,89.69702
"18591",248.09349,74.23941,88.75779
"18592",248.10683,73.51919,87.85755
"18593",248.12016,72.8893,87.02514
"18594",248.1335,72.35462,86.26826
"18595",248.14684,71.9176,85.592316
"18596",248.16017,71.5758,84.99794
"18597",248.17351,71.32433,84.483215
"18598",248.18684,71.15587,84.04364
"18599",248.20018,71.063095,83.674484
"18600",248.21352,71.03868,83.37079
"18601",248.22685,71.0753,83.127365
"18602",248.24019,71.15587,82.92903
"18603",248.25352,71.26574,82.76253
"18604",248.26686,71.397575,82.621414
"18605",248.2802,71.53918,82.49419
"18606",248.29353,71.68566,82.37627
"18607",248.30687,71.834595,82.26538
"18608",248.3202,71.973755,82.14937
"18609",248.33354,72.10559,82.03038
"18610",248.34688,72.2301,81.90819
"18611",248.36021,72.34486,81.780136
"18612",248.37355,72.444954,81.64101
"18613",248.38689,72.53773,81.49768
"18614",248.40022,72.62318,81.34993
"18615",248.41356,72.69398,81.1902
"18616",248.4269,72.74525,81.01315
"18617",248.44023,72.77455,80.81575
"18618",248.45357,72.79164,80.60705
"18619",248.4669,72.901505,80.49165
"18620",248.48024,73.35073,80.719055
"18621",248.49358,74.46647,81.62701
"18622",248.50691,76.50996,83.497574
"18623",248.52025,79.55932,86.437874
"18624",248.53358,83.44854,90.313324
"18625",248.54692,87.77234,94.74489
"18626",248.56026,91.98871,99.20415
"18627",248.5736,95.59472,103.18481
"18628",248.58693,98.26566,106.34309
"18629",248.60027,99.8526,108.500824
"18630",248.6136,100.36042,109.629036
"18631",248.62694,99.896545,109.80142
"18632",248.64027,98.64408,109.17072
"18633",248.65361,96.815445,107.92471
"18634",248.66695,94.642555,106.277306
"18635",248.68028,92.32075,104.41308
"18636",248.69362,90.023346,102.5007
"18637",248.70695,87.869995,100.66058
"18638",248.72029,85.95102,98.98755
"18639",248.73363,84.29084,97.513336
"18640",248.74696,82.88945,96.24603
"18641",248.7603,81.722435,95.16931
"18642",248.77364,80.77028,94.27098
"18643",248.78697,80.028076,93.55285
"18644",248.80031,79.50317,93.02882
"18645",248.81364,79.21019,92.720314
"18646",248.82698,79.15648,92.64192
"18647",248.84032,79.30541,92.764496
"18648",248.85365,79.60082,93.0382
"18649",248.86699,79.95972,93.38462
"18650",248.88033,80.29664,93.72028
"18651",248.89366,80.52857,93.96149
"18652",248.907,80.59937,94.048805
"18653",248.92033,80.479744,93.94791
"18654",248.93367,80.164795,93.64795
"18655",248.947,79.68627,93.174576
"18656",248.96034,79.07347,92.55197
"18657",248.97368,78.3679,91.817444
"18658",248.98701,77.60372,91.002266
"18659",249.00035,76.8127,90.13636
"18660",249.01369,76.019226,89.243286
"18661",249.02702,75.250175,88.34984
"18662",249.04036,74.52262,87.473854
"18663",249.0537,73.86099,86.64106
"18664",249.06703,73.27505,85.86327
"18665",249.08037,72.76967,85.14774
"18666",249.0937,72.34486,84.49699
"18667",249.10704,72.00061,83.91351
"18668",249.12038,71.72961,83.39253
"18669",249.13371,71.52697,82.93144
"18670",249.14705,71.38293,82.52261
"18671",249.16039,71.29748,82.16788
"18672",249.17372,71.255974,81.854416
"18673",249.18706,71.258415,81.5836
"18674",249.2004,71.29748,81.34949
"18675",249.21373,71.363396,81.14345
"18676",249.22707,71.45617,80.966324
"18677",249.2404,71.568474,80.81163
"18678",249.25374,71.70275,80.68242
"18679",249.26707,71.854126,80.57451
"18680",249.28041,72.02258,80.4884
"18681",249.29375,72.20813,80.42465
"18682",249.30708,72.40101,80.37404
"18683",249.32042,72.601204,80.33676
"18684",249.33376,72.796524,80.30087
"18685",249.34709,72.98451,80.263756
"18686",249.36043,73.15541,80.21542
"18687",249.37376,73.3019,80.148026
"18688",249.3871,73.42153,80.05834
"18689",249.40044,73.55581,79.987045
"18690",249.41377,73.863434,80.09329
"18691",249.42711,74.6276,80.665695
"18692",249.44044,76.12665,81.99686
"18693",249.45378,78.519264,84.26843
"18694",249.46712,81.76883,87.471725
"18695",249.48045,85.6141,91.37227
"18696",249.49379,89.600975,95.534584
"18697",249.50713,93.24849,99.48213
"18698",249.52046,96.18555,102.833206
"18699",249.5338,98.21683,105.370285
"18700",249.54713,99.283745,107.00648
"18701",249.56047,99.43755,107.7629
"18702",249.5738,98.7979,107.73067
"18703",249.58714,97.530785,107.05099
"18704",249.60048,95.80713,105.87517
"18705",249.61382,93.805145,104.36716
"18706",249.62715,91.66888,102.6623
"18707",249.64049,89.52529,100.88337
"18708",249.65382,87.4696,99.12534
"18709",249.66716,85.57015,97.45932
"18710",249.6805,83.86603,95.92926
"18711",249.69383,82.3621,94.54614
"18712",249.70717,81.07301,93.33087
"18713",249.7205,80.008545,92.299934
"18714",249.73384,79.19066,91.482315
"18715",249.74718,78.65354,90.91991
"18716",249.76051,78.41917,90.643456
"18717",249.77385,78.485085,90.65997
"18718",249.78719,78.80736,90.934906
"18719",249.80052,79.293205,91.383484
"18720",249.81386,79.84253,91.91072
"18721",249.8272,80.35279,92.41606
"18722",249.84053,80.73609,92.81039
"18723",249.85387,80.94118,93.038475
"18724",249.8672,80.94118,93.06789
"18725",249.88054,80.743416,92.899536
"18726",249.89388,80.36988,92.54923
"18727",249.90721,79.85962,92.05053
"18728",249.92055,79.237045,91.42357
"18729",249.93388,78.551,90.713684
"18730",249.94722,77.83078,89.94818
"18731",249.96056,77.100784,89.1504
"18732",249.97389,76.385445,88.34446
"18733",249.98723,75.70916,87.55522
"18734",250.00056,75.08415,86.79613
"18735",250.0139,74.52018,86.07854
"18736",250.02724,74.02457,85.41168
"18737",250.04057,73.599754,84.80014
"18738",250.05391,73.248184,84.248566
"18739",250.06725,72.969864,83.759254
"18740",250.08058,72.75746,83.32716
"18741",250.09392,72.60853,82.951904
"18742",250.10725,72.518196,82.630585
"18743",250.12059,72.47913,82.35771
"18744",250.13393,72.481575,82.12512
"18745",250.14726,72.52308,81.93167
"18746",250.1606,72.59144,81.76637
"18747",250.17393,72.67933,81.62274
"18748",250.18727,72.77699,81.49164
"18749",250.2006,72.8893,81.37823
"18750",250.21394,73.00893,81.27565
"18751",250.22728,73.13832,81.18658
"18752",250.24062,73.27993,81.11376
"18753",250.25395,73.4313,81.05513
"18754",250.26729,73.582664,81.00123
"18755",250.28062,73.724266,80.94229
"18756",250.29396,73.85367,80.87558
"18757",250.3073,73.96353,80.79337
"18758",250.32063,74.0856,80.72681
"18759",250.33397,74.34684,80.80322
"18760",250.3473,75.01335,81.293076
"18761",250.36064,76.3708,82.49469
"18762",250.37398,78.59251,84.60299
"18763",250.38731,81.668724,87.63522
"18764",250.40065,85.3724,91.391045
"18765",250.41399,89.29092,95.47745
"18766",250.42732,92.95064,99.42751
"18767",250.44066,95.975586,102.85717
"18768",250.454,98.16556,105.54638
"18769",250.46733,99.44732,107.39581
"18770",250.48067,99.85016,108.40638
"18771",250.494,99.46929,108.64583
"18772",250.50734,98.443886,108.228836
"18773",250.52068,96.93019,107.29151
"18774",250.53401,95.08446,105.974846
"18775",250.54735,93.048294,104.41007
"18776",250.56068,90.93645,102.705986
"18777",250.57402,88.84413,100.95544
"18778",250.58736,86.84459,99.23227
"18779",250.6007,84.98665,97.58822
"18780",250.61403,83.299614,96.057014
"18781",250.62737,81.80301,94.66352
"18782",250.6407,80.51881,93.43566
"18783",250.65404,79.47875,92.41182
"18784",250.66737,78.72678,91.64356
"18785",250.68071,78.2971,91.17409
"18786",250.69405,78.2092,91.032974
"18787",250.70738,78.43137,91.19919
"18788",250.72072,78.890366,91.60916
"18789",250.73405,79.47875,92.16287
"18790",250.74739,80.08911,92.75694
"18791",250.76073,80.61402,93.28464
"18792",250.77406,80.98268,93.672485
"18793",250.7874,81.15358,93.87409
"18794",250.80074,81.12428,93.880844
"18795",250.81407,80.89967,93.69137
"18796",250.82741,80.51392,93.33373
"18797",250.84074,79.99634,92.83221
"18798",250.85408,79.38598,92.22173
"18799",250.86742,78.71702,91.533585
"18800",250.88075,78.01633,90.7928
"18801",250.89409,77.31075,90.02524
"18802",250.90742,76.62226,89.25271
"18803",250.92076,75.97284,88.497734
"18804",250.9341,75.36248,87.76153
"18805",250.94743,74.80583,87.05996
"18806",250.96077,74.31266,86.40447
"18807",250.9741,73.88785,85.80193
"18808",250.98744,73.531395,85.25448
"18809",251.00078,73.25063,84.771576
"18810",251.01411,73.03578,84.34581
"18811",251.02745,72.87953,83.97193
"18812",251.04079,72.77699,83.64688
"18813",251.05412,72.723274,83.36745
"18814",251.06746,72.708626,83.1254
"18815",251.0808,72.73548,82.92439
"18816",251.09413,72.80141,82.763306
"18817",251.10747,72.89418,82.63113
"18818",251.1208,73.00893,82.52382
"18819",251.13414,73.1432,82.43963
"18820",251.14748,73.29214,82.37429
"18821",251.16081,73.445946,82.31848
"18822",251.17415,73.599754,82.26748
"18823",251.18748,73.74624,82.21396
"18824",251.20082,73.87564,82.147934
"18825",251.21416,74.00992,82.09083
"18826",251.2275,74.26383,82.157555
"18827",251.24083,74.896164,82.610634
"18828",251.25417,76.190125,83.7451
"18829",251.2675,78.34104,85.77696
"18830",251.28084,81.34402,88.728096
"18831",251.29417,84.981766,92.407845
"18832",251.30751,88.8539,96.43565
"18833",251.32085,92.49897,100.35741
"18834",251.33418,95.53124,103.78027
"18835",251.34752,97.74807,106.48245
"18836",251.36086,99.090866,108.379875
"18837",251.37419,99.58404,109.469635
"18838",251.38753,99.31304,109.81064
"18839",251.40086,98.407265,109.50839
"18840",251.4142,97.0132,108.68955
"18841",251.42754,95.27978,107.48779
"18842",251.44087,93.34127,106.02678
"18843",251.45421,91.30511,104.40753
"18844",251.46754,89.26406,102.71977
"18845",251.48088,87.28649,101.03171
"18846",251.49422,85.42123,99.39415
"18847",251.50755,83.702446,97.84478
"18848",251.52089,82.15213,96.410164
"18849",251.53423,80.78737,95.112656
"18850",251.54756,79.64721,93.9971
"18851",251.5609,78.77074,93.109604
"18852",251.57423,78.20676,92.50721
"18853",251.58757,77.97238,92.2168
"18854",251.6009,78.05783,92.238884
"18855",251.61424,78.4094,92.52976
"18856",251.62758,78.93187,93.002525
"18857",251.64091,79.51537,93.55265
"18858",251.65425,80.05493,94.077065
"18859",251.66759,80.46998,94.49383
"18860",251.68092,80.706795,94.74533
"18861",251.69426,80.7483,94.80892
"18862",251.7076,80.601814,94.68582
"18863",251.72093,80.28687,94.38969
"18864",251.73427,79.835205,93.94698
"18865",251.7476,79.27856,93.385185
"18866",251.76094,78.64622,92.7303
"18867",251.77428,77.9675,92.00928
"18868",251.78761,77.27413,91.252396
"18869",251.80095,76.595406,90.48849
"18870",251.81429,75.945984,89.73267
"18871",251.82762,75.338066,88.99807
"18872",251.84096,74.78386,88.29818
"18873",251.8543,74.288246,87.639565
"18874",251.86763,73.85123,87.024055
"18875",251.88097,73.48501,86.46569
"18876",251.8943,73.18715,85.96424
"18877",251.90764,72.95766,85.52185
"18878",251.92097,72.79164,85.135765
"18879",251.93431,72.68177,84.80064
"18880",251.94765,72.61829,84.50847
"18881",251.96098,72.60609,84.26558
"18882",251.97432,72.63294,84.06137
"18883",251.98766,72.70374,83.90195
"18884",252.00099,72.80629,83.77649
"18885",252.01433,72.938126,83.683525
"18886",252.02766,73.08705,83.61177
"18887",252.041,73.24086,83.54955
"18888",252.05434,73.38979,83.48727
"18889",252.06767,73.52895,83.41986
"18890",252.08101,73.673,83.36169
"18891",252.09435,73.9147,83.40568
"18892",252.10768,74.47379,83.774605
"18893",252.12102,75.650566,84.77869
"18894",252.13435,77.6672,86.6594
"18895",252.14769,80.5774,89.496704
"18896",252.16103,84.2005,93.13785
"18897",252.17436,88.17029,97.2389
"18898",252.1877,92.01312,101.33705
"18899",252.20103,95.31884,105.01818
"18900",252.21437,97.831085,108.00914
"18901",252.2277,99.46441,110.199684
"18902",252.24104,100.22858,111.57211
"18903",252.25438,100.189514,112.16519
"18904",252.26772,99.46441,112.07101
"18905",252.28105,98.18753,111.40239
"18906",252.29439,96.50538,110.2886
"18907",252.30772,94.56443,108.86344
"18908",252.32106,92.48676,107.24091
"18909",252.3344,90.3798,105.52416
"18910",252.34773,88.33631,103.805046
"18911",252.36107,86.414894,102.144135
"18912",252.3744,84.65949,100.589195
"18913",252.38774,83.08476,99.16007
"18914",252.40108,81.7029,97.87461
"18915",252.41441,80.52125,96.74617
"18916",252.42775,79.56664,95.80785
"18917",252.44109,78.86839,95.09606
"18918",252.45442,78.45335,94.64565
"18919",252.46776,78.32639,94.47037
"18920",252.4811,78.45823,94.549904
"18921",252.49443,78.78294,94.82644
"18922",252.50777,79.21019,95.21565
"18923",252.5211,79.64233,95.62311
"18924",252.53444,80.00122,95.970825
"18925",252.54778,80.22339,96.19303
"18926",252.56111,80.274666,96.25129
"18927",252.57445,80.15015,96.13535
"18928",252.58778,79.85962,95.84952
"18929",252.60112,79.42748,95.412994
"18930",252.61446,78.887924,94.855545
"18931",252.62779,78.27512,94.20799
"18932",252.64113,77.61837,93.49734
"18933",252.65446,76.94209,92.746635
"18934",252.6678,76.265816,91.9748
"18935",252.68114,75.60662,91.19891
"18936",252.69447,74.98161,90.436615
"18937",252.70781,74.40055,89.69873
"18938",252.72115,73.87808,89.00128
"18939",252.73448,73.41665,88.34854
"18940",252.74782,73.02113,87.7473
"18941",252.76115,72.68177,87.18985
"18942",252.77449,72.40833,86.68771
"18943",252.78783,72.19348,86.23563
"18944",252.80116,72.03967,85.83786
"18945",252.8145,71.94446,85.49388
"18946",252.82784,71.902954,85.20064
"18947",252.84117,71.905396,84.95004
"18948",252.8545,71.95178,84.74347
"18949",252.86784,72.03235,84.572525
"18950",252.88118,72.13977,84.430954
"18951",252.89452,72.271614,84.31717
"18952",252.90785,72.42298,84.22702
"18953",252.92119,72.58167,84.148926
"18954",252.93452,72.73304,84.06847
"18955",252.94786,72.89418,84.00252
"18956",252.9612,73.16029,84.04658
"18957",252.97453,73.76578,84.438324
"18958",252.98787,75.020676,85.498405
"18959",253.0012,77.15938,87.48151
"18960",253.01454,80.233154,90.466515
"18961",253.02788,84.051575,94.29222
"18962",253.04121,88.22888,98.59614
"18963",253.05455,92.2768,102.901215
"18964",253.06789,95.76074,106.76881
"18965",253.08122,98.42191,109.9225
"18966",253.09456,100.1651,112.24137
"18967",253.1079,100.99031,113.69674
"18968",253.12123,100.963455,114.32583
"18969",253.13457,100.21149,114.228966
"18970",253.1479,98.87846,113.52755
"18971",253.16124,97.1255,112.36454
"18972",253.17458,95.10155,110.875755
"18973",253.18791,92.9482,109.19433
"18974",253.20125,90.77287,107.42364
"18975",253.21458,88.670784,105.6582
"18976",253.22792,86.71519,103.97357
"18977",253.24126,84.945145,102.413376
"18978",253.2546,83.3753,100.99806
"18979",253.26793,81.99832,99.72656
"18980",253.28127,80.816666,98.60735
"18981",253.2946,79.84009,97.656296
"18982",253.30794,79.08812,96.89933
"18983",253.32127,78.58762,96.37034
"18984",253.33461,78.35813,96.09671
"18985",253.34795,78.380104,96.067375
"18986",253.36128,78.59739,96.23404
"18987",253.37462,78.92699,96.519806
"18988",253.38795,79.28344,96.84273
"18989",253.40129,79.58373,97.12063
"18990",253.41463,79.76929,97.293175
"18991",253.42796,79.798584,97.31526
"18992",253.4413,79.656975,97.16736
"18993",253.45464,79.3518,96.85146
"18994",253.46797,78.89525,96.37466
"18995",253.48131,78.32151,95.766396
"18996",253.49464,77.662315,95.05475
"18997",253.50798,76.95674,94.27612
"18998",253.52132,76.23407,93.45835
"18999",253.53465,75.52117,92.62777
"19000",253.54799,74.84245,91.80909
"19001",253.56133,74.21011,91.01558
"19002",253.57466,73.633934,90.25847
"19003",253.588,73.11879,89.54439
"19004",253.60133,72.66956,88.88013
"19005",253.61467,72.28626,88.267746
"19006",253.628,71.96643,87.70686
"19007",253.64134,71.710075,87.19946
"19008",253.65468,71.51476,86.74509
"19009",253.66801,71.38293,86.34808
"19010",253.68135,71.30724,86.00311
"19011",253.69469,71.28039,85.704605
"19012",253.70802,71.29504,85.44676
"19013",253.72136,71.343864,85.22356
"19014",253.7347,71.42199,85.03117
"19015",253.74803,71.52209,84.863205
"19016",253.76137,71.6466,84.72278
"19017",253.7747,71.79797,84.61311
"19018",253.78804,71.96643,84.52525
"19019",253.80138,72.13977,84.44754
"19020",253.81471,72.308235,84.37038
"19021",253.82805,72.46204,84.28381
"19022",253.84138,72.61829,84.2045
"19023",253.85472,72.87221,84.22774
"19024",253.86806,73.46792,84.60071
"19025",253.8814,74.72526,85.65392
"19026",253.89473,76.8835,87.64733
"19027",253.90807,80.00366,90.670105
"19028",253.9214,83.90509,94.57165
"19029",253.93474,88.199585,98.988174
"19030",253.94807,92.38178,103.426605
"19031",253.96141,95.99756,107.42931
"19032",253.97475,98.76128,110.692955
"19033",253.98808,100.56306,113.081024
"19034",254.00142,101.39803,114.55859
"19035",254.01476,101.332115,115.16136
"19036",254.02809,100.489815,114.98569
"19037",254.04143,99.02983,114.16601
"19038",254.05476,97.127945,112.8588
"19039",254.0681,94.9453,111.2114
"19040",254.08144,92.630806,109.36395
"19041",254.09477,90.32853,107.45639
"19042",254.10811,88.131226,105.581856
"19043",254.12144,86.117035,103.82176
"19044",254.13478,84.317696,102.21358
"19045",254.14812,82.7454,100.77621
"19046",254.16145,81.392845,99.509445
"19047",254.17479,80.26246,98.422585
"19048",254.18813,79.364006,97.53233
"19049",254.20146,78.7219,96.87035
"19050",254.2148,78.345924,96.45444
"19051",254.22813,78.238495,96.29532
"19052",254.24147,78.3679,96.369675
"19053",254.2548,78.66575,96.61652
"19054",254.26814,79.0515,96.96058
"19055",254.28148,79.43969,97.31913
"19056",254.29482,79.74731,97.60924
"19057",254.30815,79.91577,97.769806
"19058",254.32149,79.90845,97.75985
"19059",254.33482,79.71557,97.56411
"19060",254.34816,79.3518,97.19145
"19061",254.3615,78.84398,96.663376
"19062",254.37483,78.22629,96.00956
"19063",254.38817,77.5378,95.26565
"19064",254.4015,76.807816,94.45872
"19065",254.41484,76.06317,93.61432
"19066",254.42818,75.3283,92.756424
"19067",254.44151,74.62028,91.90241
"19068",254.45485,73.96109,91.07511
"19069",254.46819,73.358055,90.28336
"19070",254.48152,72.82094,89.53869
"19071",254.49486,72.34974,88.84315
"19072",254.5082,71.94934,88.203674
"19073",254.52153,71.6173,87.620056
"19074",254.53487,71.35851,87.099304
"19075",254.5482,71.165634,86.63638
"19076",254.56154,71.04112,86.235794
"19077",254.57487,70.98009,85.89479
"19078",254.58821,70.97032,85.60315
"19079",254.60155,71.011826,85.36247
"19080",254.61488,71.09239,85.162155
"19081",254.62822,71.20958,85.00098
"19082",254.64156,71.360954,84.877655
"19083",254.65489,71.54162,84.788345
"19084",254.66823,71.744255,84.726654
"19085",254.68156,71.95911,84.68352
"19086",254.6949,72.17151,84.64464
"19087",254.70824,72.37171,84.600204
"19088",254.72157,72.569466,84.55957
"19089",254.73491,72.85268,84.61058
"19090",254.74825,73.445946,84.9805
"19091",254.76158,74.66178,85.99152
"19092",254.77492,76.74677,87.9097
"19093",254.78825,79.75952,90.820786
"19094",254.80159,83.54864,94.60239
"19095",254.81493,87.74059,98.905235
"19096",254.82826,91.8349,103.24144
"19097",254.8416,95.36767,107.14405
"19098",254.85493,98.04837,110.30499
"19099",254.86827,99.74029,112.56092
"19100",254.8816,100.42878,113.866295
"19101",254.89494,100.1944,114.27031
"19102",254.90828,99.173874,113.88086
"19103",254.92162,97.550316,112.85648
"19104",254.93495,95.501945,111.35656
"19105",254.94829,93.21187,109.55092
"19106",254.96162,90.8217,107.57362
"19107",254.97496,88.465706,105.55581
"19108",254.9883,86.23178,103.58644
"19109",255.00163,84.18341,101.73281
"19110",255.01497,82.357216,100.037346
"19111",255.0283,80.77028,98.52407
"19112",255.04164,79.42748,97.205345
"19113",255.05498,78.35325,96.11322
"19114",255.06831,77.57931,95.28782
"19115",255.08165,77.13252,94.76539
"19116",255.09499,77.0251,94.56836
"19117",255.10832,77.23262,94.682915
"19118",255.12166,77.69161,95.05543
"19119",255.135,78.29221,95.58389
"19120",255.14833,78.92943,96.16774
"19121",255.16167,79.48608,96.69093
"19122",255.175,79.88403,97.07283
"19123",255.18834,80.076904,97.26208
"19124",255.20168,80.05005,97.237625
"19125",255.21501,79.81079,96.99993
"19126",255.22835,79.398186,96.58141
"19127",255.24168,78.84398,96.0084
"19128",255.25502,78.19211,95.320404
"19129",255.26836,77.47433,94.54613
"19130",255.2817,76.72968,93.72256
"19131",255.29503,75.98749,92.87817
"19132",255.30836,75.267265,92.032555
"19133",255.3217,74.58854,91.20593
"19134",255.33504,73.96597,90.41426
"19135",255.34837,73.40688,89.66661
"19136",255.36171,72.91615,88.96985
"19137",255.37505,72.50355,88.33588
"19138",255.38838,72.164185,87.76225
"19139",255.40172,71.89807,87.25127
"19140",255.41505,71.70275,86.802765
"19141",255.42839,71.57336,86.41408
"19142",255.44173,71.50744,86.08482
"19143",255.45506,71.49767,85.80966
"19144",255.4684,71.52941,85.5757
"19145",255.48174,71.59777,85.37935
"19146",255.49507,71.70275,85.221756
"19147",255.5084,71.82483,85.08455
"19148",255.52174,71.95422,84.958466
"19149",255.53508,72.0885,84.84131
"19150",255.54842,72.24475,84.75032
"19151",255.56175,72.52064,84.78386
"19152",255.57509,73.16762,85.19711
"19153",255.58842,74.486,86.30199
"19154",255.60176,76.697945,88.34162
"19155",255.6151,79.818115,91.358604
"19156",255.62843,83.64385,95.17866
"19157",255.64177,87.767456,99.41613
"19158",255.6551,91.67864,103.57005
"19159",255.66844,94.94774,107.20411
"19160",255.68178,97.31106,110.034546
"19161",255.69511,98.67582,111.94028
"19162",255.70845,99.054245,112.90232
"19163",255.72179,98.54398,112.9875
"19164",255.73512,97.30129,112.32431
"19165",255.74846,95.499504,111.06319
"19166",255.7618,93.33883,109.38687
"19167",255.77513,90.982834,107.447716
"19168",255.78847,88.57801,105.38611
"19169",255.8018,86.24155,103.3177
"19170",255.81514,84.04913,101.320335
"19171",255.82848,82.04715,99.444885
"19172",255.84181,80.26246,97.72417
"19173",255.85515,78.71946,96.18937
"19174",255.86848,77.45968,94.88957
"19175",255.88182,76.51972,93.87023
"19176",255.89516,75.945984,93.18774
"19177",255.9085,75.76532,92.88039
"19178",255.92183,75.96063,92.94337
"19179",255.93517,76.46845,93.32496
"19180",255.9485,77.18379,93.92994
"19181",255.96184,77.98215,94.64029
"19182",255.97517,78.73899,95.334076
"19183",255.98851,79.35424,95.90992
"19184",256.00183,79.764404,96.299904
"19185",256.0152,79.9353,96.46344
"19186",256.0285,79.8645,96.39062
"19187",256.04187,79.57885,96.10073
"19188",256.05518,79.11742,95.62614
"19189",256.06854,78.519264,95.000404
"19190",256.08185,77.83322,94.26809
"19191",256.0952,77.103226,93.47038
"19192",256.10852,76.35615,92.63278
"19193",256.1219,75.61883,91.78159
"19194",256.1352,74.91325,90.93911
"19195",256.14856,74.25407,90.120964
"19196",256.16187,73.651024,89.33836
"19197",256.17523,73.11879,88.60773
"19198",256.18854,72.65736,87.93126
"19199",256.2019,72.26917,87.313614
"19200",256.2152,71.95422,86.75708
"19201",256.22858,71.7174,86.26883
"19202",256.24188,71.55871,85.8513
"19203",256.25525,71.4757,85.5045
"19204",256.26855,71.465935,85.22835
"19205",256.28192,71.52453,85.02025
"19206",256.29523,71.63439,84.86525
"19207",256.3086,71.77356,84.743
"19208",256.3219,71.922485,84.63484
"19209",256.33527,72.07141,84.53134
"19210",256.34857,72.25941,84.47157
"19211",256.36194,72.62562,84.59589
"19212",256.37524,73.43374,85.17355
"19213",256.3886,74.95964,86.49426
"19214",256.40192,77.347374,88.72449
"19215",256.41528,80.533455,91.827675
"19216",256.4286,84.24689,95.55778
"19217",256.44196,88.04578,99.48938
"19218",256.45526,91.45403,103.14906
"19219",256.46863,94.117645,106.170616
"19220",256.48193,95.868164,108.36231
"19221",256.4953,96.67628,109.666306
"19222",256.5086,96.61036,110.12152
"19223",256.52197,95.79004,109.820274
"19224",256.53528,94.37644,108.900116
"19225",256.54865,92.53803,107.51097
"19226",256.56195,90.43839,105.80315
"19227",256.57532,88.21179,103.90275
"19228",256.58862,85.980316,101.92789
"19229",256.602,83.83185,99.9663
"19230",256.6153,81.82498,98.07918
"19231",256.62866,79.9939,96.30512
"19232",256.64197,78.380104,94.69114
"19233",256.65533,77.03731,93.29772
"19234",256.66864,76.033875,92.201706
"19235",256.682,75.44549,91.48938
"19236",256.6953,75.32586,91.227425
"19237",256.70868,75.65789,91.41339
"19238",256.722,76.36103,91.98084
"19239",256.73535,77.30587,92.811966
"19240",256.74866,78.32639,93.7483
"19241",256.76202,79.276115,94.64572
"19242",256.77533,80.03784,95.38483
"19243",256.7887,80.54566,95.89383
"19244",256.802,80.782486,96.147705
"19245",256.81537,80.75319,96.14286
"19246",256.82867,80.49439,95.9076
"19247",256.84204,80.04028,95.46894
"19248",256.85535,79.44457,94.87449
"19249",256.8687,78.74876,94.161316
"19250",256.88202,78.00412,93.37758
"19251",256.8954,77.24971,92.5608
"19252",256.9087,76.51728,91.742424
"19253",256.92206,75.83124,90.94755
"19254",256.93536,75.208664,90.1947
"19255",256.94873,74.652016,89.48833
"19256",256.96204,74.17105,88.84024
"19257",256.9754,73.76822,88.25526
"19258",256.9887,73.43618,87.72848
"19259",257.00208,73.16029,87.247475
"19260",257.01538,72.9308,86.804245
"19261",257.02875,72.762344,86.41488
"19262",257.04205,72.73792,86.16428
"19263",257.05542,73.074844,86.27426
"19264",257.06873,74.0441,87.02711
"19265",257.0821,75.83612,88.63301
"19266",257.0954,78.47532,91.14209
"19267",257.10876,81.77371,94.39284
"19268",257.12207,85.35775,98.0323
"19269",257.13544,88.763565,101.605545
"19270",257.14874,91.580986,104.69682
"19271",257.1621,93.56832,107.04607
"19272",257.1754,94.64988,108.551636
"19273",257.18878,94.85741,109.21697
"19274",257.2021,94.29832,109.12218
"19275",257.21545,93.12154,108.39222
"19276",257.22876,91.49798,107.17871
"19277",257.24213,89.59121,105.631256
"19278",257.25543,87.53796,103.87773
"19279",257.2688,85.46029,102.03563
"19280",257.2821,83.4461,100.19207
"19281",257.29547,81.54665,98.400314
"19282",257.30878,79.801025,96.70302
"19283",257.32214,78.25315,95.148926
"19284",257.33545,76.96651,93.80769
"19285",257.34882,76.00946,92.75585
"19286",257.36212,75.457695,92.079384
"19287",257.3755,75.355156,91.8349
"19288",257.3888,75.684746,92.01934
"19289",257.40216,76.368355,92.5681
"19290",257.41547,77.25948,93.34574
"19291",257.42883,78.21164,94.21226
"19292",257.44214,79.078354,95.02309
"19293",257.4555,79.7522,95.66813
"19294",257.4688,80.17212,96.08031
"19295",257.48218,80.325935,96.2395
"19296",257.49548,80.22583,96.14958
"19297",257.50885,79.91089,95.8417
"19298",257.52216,79.42748,95.35551
"19299",257.53552,78.82445,94.73458
"19300",257.54883,78.150604,94.024
"19301",257.5622,77.452354,93.26796
"19302",257.5755,76.756546,92.49254
"19303",257.58887,76.09247,91.727104
"19304",257.60217,75.47234,90.98487
"19305",257.61554,74.90593,90.27697
"19306",257.62885,74.390785,89.60264
"19307",257.6422,73.92691,88.96348
"19308",257.65552,73.52651,88.3733
"19309",257.66888,73.25796,87.90245
"19310",257.6822,73.3019,87.73571
"19311",257.69556,73.92935,88.15385
"19312",257.70886,75.38201,89.4168
"19313",257.72223,77.752655,91.643135
"19314",257.73553,80.921646,94.7419
"19315",257.7489,84.55695,98.406006
"19316",257.7622,88.19226,102.183716
"19317",257.77557,91.35638,105.603836
"19318",257.78888,93.73434,108.336685
"19319",257.80225,95.17479,110.20634
"19320",257.81555,95.66796,111.17372
"19321",257.82892,95.29931,111.29469
"19322",257.84222,94.22507,110.698555
"19323",257.8556,92.63325,109.55127
"19324",257.8689,90.71671,108.029526
"19325",257.88226,88.65125,106.298965
"19326",257.89557,86.588234,104.5063
"19327",257.90894,84.630196,102.75414
"19328",257.92224,82.83574,101.10438
"19329",257.9356,81.231705,99.58896
"19330",257.9489,79.83032,98.22607
"19331",257.96228,78.65598,97.046425
"19332",257.9756,77.74044,96.08888
"19333",257.98895,77.13008,95.40791
"19334",258.00226,76.85664,95.04479
"19335",258.01562,76.91524,95.00516
"19336",258.02893,77.25948,95.253006
"19337",258.0423,77.79904,95.706924
"19338",258.0556,78.42405,96.26315
"19339",258.06897,79.01976,96.809616
"19340",258.08228,79.48852,97.24774
"19341",258.09564,79.75708,97.50032
"19342",258.10895,79.79614,97.53179
"19343",258.1223,79.605705,97.334984
"19344",258.13562,79.21263,96.92959
"19345",258.149,78.66331,96.35566
"19346",258.1623,78.00412,95.6547
"19347",258.17566,77.279015,94.867226
"19348",258.18896,76.53193,94.03511
"19349",258.20233,75.789734,93.18454
"19350",258.21564,75.07683,92.340065
"19351",258.229,74.407875,91.517265
"19352",258.2423,73.78775,90.72239
"19353",258.25568,73.22133,89.96184
"19354",258.26898,72.71839,89.24707
"19355",258.28235,72.342415,88.64354
"19356",258.29565,72.2765,88.33832
"19357",258.30902,72.80141,88.62187
"19358",258.32233,74.178375,89.77389
"19359",258.3357,76.52705,91.940636
"19360",258.349,79.76196,95.067024
"19361",258.36237,83.5584,98.856026
"19362",258.37567,87.432976,102.8418
"19363",258.38904,90.87785,106.51895
"19364",258.40234,93.51705,109.498085
"19365",258.4157,95.16014,111.56358
"19366",258.42902,95.77539,112.65259
"19367",258.44238,95.44579,112.81597
"19368",258.4557,94.33982,112.19268
"19369",258.46906,92.67719,110.97817
"19370",258.48236,90.68253,109.37968
"19371",258.49573,88.57313,107.6041
"19372",258.50903,86.51011,105.80899
"19373",258.5224,84.61555,104.11787
"19374",258.5357,82.948044,102.5946
"19375",258.54907,81.514915,101.25359
"19376",258.56238,80.291756,100.077774
"19377",258.57574,79.26635,99.061485
"19378",258.58905,78.43137,98.20358
"19379",258.60242,77.803925,97.527115
"19380",258.61572,77.40353,97.05809
"19381",258.6291,77.24971,96.823135
"19382",258.6424,77.3254,96.81288
"19383",258.65576,77.58175,96.98565
"19384",258.66907,77.9382,97.26653
"19385",258.68243,78.29954,97.56344
"19386",258.69574,78.58518,97.795944
"19387",258.7091,78.71702,97.88357
"19388",258.7224,78.658424,97.78488
"19389",258.73578,78.39475,97.47929
"19390",258.74908,77.94797,96.98234
"19391",258.76245,77.35958,96.32983
"19392",258.77576,76.67109,95.55882
"19393",258.78912,75.931335,94.71504
"19394",258.80243,75.17937,93.83593
"19395",258.8158,74.45182,92.95774
"19396",258.8291,73.76822,92.10076
"19397",258.84247,73.1432,91.281006
"19398",258.85577,72.584114,90.507645
"19399",258.86914,72.09827,89.790054
"19400",258.88245,71.67834,89.1232
"19401",258.8958,71.329216,88.51402
"19402",258.90912,71.10704,88.02089
"19403",258.9225,71.182724,87.818665
"19404",258.9358,71.82727,88.18767
"19405",258.94916,73.31167,89.41667
"19406",258.96246,75.775085,91.67108
"19407",258.97583,79.13695,94.90092
"19408",258.98914,83.08476,98.82176
"19409",259.0025,87.11803,102.95142
"19410",259.0158,90.704506,106.76034
"19411",259.02917,93.436485,109.826836
"19412",259.04248,95.099106,111.90935
"19413",259.05585,95.655754,112.93784
"19414",259.06915,95.218735,112.99007
"19415",259.08252,93.99313,112.24005
"19416",259.09583,92.23773,110.921936
"19417",259.1092,90.20889,109.27553
"19418",259.1225,88.128784,107.51445
"19419",259.13586,86.168304,105.808
"19420",259.14917,84.43,104.26245
"19421",259.16254,82.950485,102.92137
"19422",259.17584,81.70046,101.76355
"19423",259.1892,80.63355,100.74978
"19424",259.2025,79.69604,99.83206
"19425",259.21588,78.86595,98.99248
"19426",259.2292,78.14816,98.23925
"19427",259.24255,77.58419,97.61741
"19428",259.25586,77.21065,97.16837
"19429",259.26923,77.04463,96.91519
"19430",259.28253,77.06416,96.84237
"19431",259.2959,77.21309,96.89955
"19432",259.3092,77.418175,97.01755
"19433",259.32257,77.591515,97.11021
"19434",259.33588,77.66476,97.108185
"19435",259.34924,77.58419,96.95464
"19436",259.36255,77.332726,96.627686
"19437",259.37592,76.91524,96.12685
"19438",259.38922,76.35859,95.4738
"19439",259.4026,75.70428,94.705696
"19440",259.4159,74.98894,93.85612
"19441",259.42926,74.246735,92.95732
"19442",259.44257,73.514305,92.045105
"19443",259.45593,72.816055,91.14418
"19444",259.46924,72.17883,90.28246
"19445",259.4826,71.622185,89.4814
"19446",259.4959,71.16319,88.760605
"19447",259.50928,70.80675,88.128006
"19448",259.52258,70.56016,87.59413
"19449",259.53595,70.41367,87.15265
"19450",259.54926,70.347755,86.787155
"19451",259.56262,70.34287,86.48064
"19452",259.57593,70.37461,86.21059
"19453",259.5893,70.43076,85.96594
"19454",259.6026,70.5333,85.76944
"19455",259.61597,70.821396,85.761696
"19456",259.62927,71.55627,86.20973
"19457",259.64264,73.02602,87.41562
"19458",259.65594,75.42596,89.597626
"19459",259.6693,78.746315,92.77505
"19460",259.68262,82.73319,96.72275
"19461",259.69598,86.922714,100.99768
"19462",259.7093,90.758224,105.04952
"19463",259.72266,93.770966,108.39846
"19464",259.73596,95.69482,110.752655
"19465",259.74933,96.46143,112.009735
"19466",259.76263,96.166016,112.22874
"19467",259.776,95.02098,111.58889
"19468",259.7893,93.30221,110.33952
"19469",259.80267,91.285576,108.73859
"19470",259.81598,89.2079,107.01359
"19471",259.82935,87.25231,105.34575
"19472",259.84265,85.53109,103.851166
"19473",259.85602,84.085754,102.578674
"19474",259.86932,82.89433,101.51493
"19475",259.8827,81.8909,100.601944
"19476",259.896,81.00221,99.77235
"19477",259.90936,80.181885,98.98334
"19478",259.92267,79.42016,98.227295
"19479",259.93604,78.75609,97.545105
"19480",259.94934,78.23361,96.98376
"19481",259.9627,77.89426,96.5892
"19482",259.976,77.74288,96.372025
"19483",259.98938,77.74532,96.30393
"19484",260.0027,77.83566,96.323814
"19485",260.01605,77.94064,96.36116
"19486",260.02936,77.98459,96.34075
"19487",260.04272,77.91135,96.20453
"19488",260.05603,77.68917,95.91708
"19489",260.0694,77.31075,95.46645
"19490",260.0827,76.79561,94.86727
"19491",260.09607,76.16571,94.13724
"19492",260.10938,75.46014,93.311844
"19493",260.12274,74.71305,92.42289
"19494",260.13605,73.96353,91.508156
"19495",260.1494,73.23598,90.591965
"19496",260.16272,72.55726,89.70187
"19497",260.1761,71.95911,88.87114
"19498",260.1894,71.45373,88.11449
"19499",260.20276,71.04845,87.44214
"19500",260.21606,70.748146,86.86211
"19501",260.22943,70.54795,86.37279
"19502",260.24274,70.44297,85.97243
"19503",260.2561,70.41856,85.64935
"19504",260.2694,70.467384,85.39876
"19505",260.28278,70.57725,85.210724
"19506",260.29608,70.73594,85.07495
"19507",260.30945,70.91905,84.96856
"19508",260.32275,71.11925,84.88498
"19509",260.33612,71.31945,84.80766
"19510",260.34943,71.49767,84.714615
"19511",260.3628,71.639275,84.590515
"19512",260.3761,71.73449,84.42445
"19513",260.38947,71.783325,84.215
"19514",260.40277,71.82239,83.997284
"19515",260.41614,72.00549,83.924835
"19516",260.42944,72.603645,84.27316
"19517",260.4428,73.936676,85.37506
"19518",260.45612,76.2121,87.461006
"19519",260.46948,79.447014,90.57755
"19520",260.4828,83.39971,94.51297
"19521",260.49615,87.60876,98.828255
"19522",260.50946,91.51751,102.97478
"19523",260.52283,94.640114,106.457306
"19524",260.53613,96.69581,108.970505
"19525",260.5495,97.58938,110.38582
"19526",260.5628,97.40139,110.7475
"19527",260.57617,96.324715,110.214615
"19528",260.58948,94.62791,109.027954
"19529",260.60284,92.5893,107.44647
"19530",260.61615,90.457924,105.70851
"19531",260.62952,88.4242,104.0016
"19532",260.64282,86.61753,102.45819
"19533",260.6562,85.09895,101.14641
"19534",260.6695,83.8465,100.05329
"19535",260.68286,82.80156,99.128555
"19536",260.69617,81.900665,98.31521
"19537",260.70953,81.10231,97.57625
"19538",260.72284,80.394295,96.90268
"19539",260.7362,79.80591,96.326614
"19540",260.7495,79.38598,95.90062
"19541",260.76288,79.1638,95.659256
"19542",260.77618,79.12474,95.59406
"19543",260.78955,79.219955,95.66193
"19544",260.80286,79.37621,95.79381
"19545",260.81622,79.51293,95.91103
"19546",260.82953,79.551994,95.934875
"19547",260.8429,79.44457,95.81345
"19548",260.8562,79.16136,95.512886
"19549",260.86957,78.712135,95.03745
"19550",260.88287,78.116425,94.4015
"19551",260.89624,77.418175,93.64439
"19552",260.90955,76.663765,92.809296
"19553",260.9229,75.894714,91.93599
"19554",260.93622,75.142746,91.05573
"19555",260.9496,74.43473,90.19593
"19556",260.9629,73.797516,89.3848
"19557",260.97626,73.24574,88.639206
"19558",260.98956,72.79164,87.97404
"19559",261.00293,72.430305,87.38744
"19560",261.01624,72.16174,86.882324
"19561",261.0296,71.9762,86.45183
"19562",261.0429,71.86389,86.088776
"19563",261.05627,71.81262,85.78325
"19564",261.06958,71.817505,85.53227
"19565",261.08295,71.868774,85.327835
"19566",261.09625,71.94934,85.1543
"19567",261.10962,72.04944,85.00281
"19568",261.12292,72.1593,84.86421
"19569",261.1363,72.2765,84.73639
"19570",261.1496,72.39857,84.617096
"19571",261.16296,72.52308,84.50406
"19572",261.17627,72.65003,84.397354
"19573",261.18964,72.779434,84.29707
"19574",261.20294,72.901505,84.193504
"19575",261.2163,73.01381,84.083984
"19576",261.2296,73.109024,83.960884
"19577",261.24298,73.17738,83.8139
"19578",261.2563,73.20912,83.63244
"19579",261.26965,73.2018,83.4129
"19580",261.28296,73.162735,83.1614
"19581",261.29633,73.17006,82.95506
"19582",261.30963,73.42153,82.9931
"19583",261.323,74.215,83.58099
"19584",261.3363,75.826355,85.01157
"19585",261.34967,78.382545,87.43734
"19586",261.36298,81.78836,90.79261
"19587",261.37634,85.72152,94.781654
"19588",261.38965,89.68154,98.92047
"19589",261.403,93.14351,102.68499
"19590",261.41632,95.726555,105.67877
"19591",261.4297,97.23781,107.68148
"19592",261.443,97.6553,108.63765
"19593",261.45636,97.09865,108.63273
"19594",261.46967,95.78027,107.84869
"19595",261.48303,93.961395,106.52294
"19596",261.49634,91.90082,104.89866
"19597",261.5097,89.81583,103.18557
"19598",261.523,87.87732,101.55381
"19599",261.53638,86.18051,100.103165
"19600",261.54968,84.76692,98.88271
"19601",261.56305,83.612114,97.87687
"19602",261.57635,82.65995,97.03758
"19603",261.58972,81.864044,96.3248
"19604",261.60303,81.19264,95.71165
"19605",261.6164,80.635994,95.19227
"19606",261.6297,80.218506,94.794655
"19607",261.64307,79.95972,94.542694
"19608",261.65637,79.86206,94.44378
"19609",261.66974,79.90112,94.47853
"19610",261.68304,80.01831,94.59263
"19611",261.6964,80.147705,94.722595
"19612",261.70972,80.218506,94.79801
"19613",261.72308,80.177,94.763336
"19614",261.7364,79.98169,94.573555
"19615",261.74976,79.61547,94.206764
"19616",261.76306,79.097885,93.67716
"19617",261.77643,78.45579,93.006874
"19618",261.78973,77.730675,92.233505
"19619",261.8031,76.964066,91.39598
"19620",261.8164,76.19745,90.53449
"19621",261.82977,75.457695,89.67591
"19622",261.84308,74.76433,88.8406
"19623",261.85645,74.13931,88.05197
"19624",261.86975,73.59731,87.32683
"19625",261.88312,73.1432,86.67264
"19626",261.89642,72.779434,86.0946
"19627",261.9098,72.50355,85.59307
"19628",261.9231,72.31312,85.16838
"19629",261.93646,72.19348,84.80853
"19630",261.94977,72.14465,84.51575
"19631",261.96313,72.15442,84.28003
"19632",261.97644,72.21057,84.091
"19633",261.9898,72.30335,83.94037
"19634",262.0031,72.41566,83.81215
"19635",262.01648,72.54261,83.70209
"19636",262.0298,72.66712,83.59355
"19637",262.04315,72.78432,83.4816
"19638",262.05646,72.886856,83.35865
"19639",262.06982,72.97963,83.22914
"19640",262.08313,73.060196,83.090324
"19641",262.0965,73.131,82.94426
"19642",262.1098,73.19203,82.79064
"19643",262.12317,73.248184,82.63405
"19644",262.13647,73.29946,82.474335
"19645",262.14984,73.34829,82.313774
"19646",262.16315,73.392235,82.14986
"19647",262.1765,73.43374,81.98487
"19648",262.18982,73.463036,81.808975
"19649",262.2032,73.48257,81.62423
"19650",262.2165,73.48257,81.42056
"19651",262.22986,73.463036,81.197365
"19652",262.24316,73.460594,80.99065
"19653",262.25653,73.60464,80.930336
"19654",262.26984,74.13443,81.26028
"19655",262.2832,75.33074,82.27329
"19656",262.2965,77.39132,84.18796
"19657",262.30988,80.32838,87.043495
"19658",262.32318,83.94415,90.66953
"19659",262.33655,87.835815,94.68445
"19660",262.34985,91.51507,98.60857
"19661",262.36322,94.55222,102.00557
"19662",262.37653,96.673836,104.58194
"19663",262.3899,97.77493,106.204094
"19664",262.4032,97.884796,106.86942
"19665",262.41656,97.14992,106.69344
"19666",262.42987,95.77539,105.85485
"19667",262.44324,93.98825,104.56069
"19668",262.45654,92.018005,103.02758
"19669",262.4699,90.04288,101.42802
"19670",262.48322,88.20203,99.90101
"19671",262.49658,86.58335,98.53865
"19672",262.5099,85.223465,97.38449
"19673",262.52325,84.105286,96.42954
"19674",262.53656,83.18974,95.64229
"19675",262.54993,82.43046,94.98268
"19676",262.56323,81.80545,94.433624
"19677",262.5766,81.31228,93.99687
"19678",262.5899,80.96559,93.69119
"19679",262.60327,80.780045,93.53582
"19680",262.61658,80.7483,93.52845
"19681",262.62994,80.831314,93.63485
"19682",262.64325,80.97536,93.80487
"19683",262.65662,81.11696,93.97695
"19684",262.66992,81.19264,94.08754
"19685",262.6833,81.146255,94.07842
"19686",262.6966,80.955826,93.92381
"19687",262.70996,80.6067,93.60455
"19688",262.72327,80.111084,93.1279
"19689",262.73663,79.49828,92.51857
"19690",262.74994,78.80736,91.811966
"19691",262.7633,78.07004,91.03738
"19692",262.7766,77.32296,90.22999
"19693",262.78998,76.59052,89.413895
"19694",262.80328,75.897156,88.61398
"19695",262.81665,75.264824,87.85344
"19696",262.82996,74.71061,87.15125
"19697",262.84332,74.23453,86.50988
"19698",262.85663,73.846344,85.94153
"19699",262.87,73.53872,85.441605
"19700",262.8833,73.304344,85.00532
"19701",262.89667,73.13344,84.625175
"19702",262.90997,73.02846,84.30562
"19703",262.92334,72.97963,84.03893
"19704",262.93665,72.97963,83.81955
"19705",262.95,73.01869,83.63923
"19706",262.96332,73.08949,83.49187
"19707",262.97668,73.1725,83.358925
"19708",262.99,73.26772,83.24079
"19709",263.00336,73.37026,83.13295
"19710",263.01666,73.47036,83.02587
"19711",263.03003,73.565575,82.91704
"19712",263.04333,73.651024,82.801414
"19713",263.0567,73.721825,82.67381
"19714",263.07,73.7731,82.5289
"19715",263.08337,73.81705,82.37826
"19716",263.09668,73.85367,82.221664
"19717",263.11005,73.88541,82.06133
"19718",263.12335,73.9147,81.89955
"19719",263.13672,73.944,81.738686
"19720",263.15002,73.970856,81.576294
"19721",263.1634,73.99527,81.4123
"19722",263.1767,74.022125,81.25151
"19723",263.19006,74.05386,81.09644
"19724",263.20337,74.08316,80.939926
"19725",263.21674,74.10269,80.77456
"19726",263.23004,74.11734,80.60492
"19727",263.2434,74.18082,80.484566
"19728",263.2567,74.461586,80.58349
"19729",263.27008,75.21355,81.16238
"19730",263.2834,76.68818,82.487434
"19731",263.29675,79.0222,84.717964
"19732",263.31006,82.16922,87.83443
"19733",263.32343,85.86069,91.59368
"19734",263.33673,89.671776,95.58791
"19735",263.3501,93.14107,99.35945
"19736",263.3634,95.904785,102.53383
"19737",263.37677,97.75784,104.88391
"19738",263.39008,98.634315,106.315315
"19739",263.40344,98.597694,106.861015
"19740",263.41675,97.794464,106.63896
"19741",263.4301,96.42237,105.822945
"19742",263.44342,94.68894,104.602715
"19743",263.4568,92.77974,103.15254
"19744",263.4701,90.84856,101.62073
"19745",263.48346,89.01503,100.12622
"19746",263.49677,87.36462,98.75752
"19747",263.51013,85.93393,97.55698
"19748",263.52344,84.72541,96.53389
"19749",263.5368,83.72198,95.67812
"19750",263.5501,82.90166,94.97411
"19751",263.56348,82.24002,94.40315
"19752",263.57678,81.74441,93.97754
"19753",263.59015,81.41482,93.70246
"19754",263.60345,81.26833,93.60019
"19755",263.61682,81.290306,93.6618
"19756",263.63013,81.44167,93.853485
"19757",263.6435,81.65896,94.11582
"19758",263.6568,81.87381,94.382515
"19759",263.67017,82.01297,94.58023
"19760",263.68347,82.02762,94.65778
"19761",263.69684,81.883575,94.5771
"19762",263.71014,81.57351,94.3259
"19763",263.7235,81.112076,93.913635
"19764",263.73682,80.52857,93.36488
"19765",263.75018,79.852295,92.705124
"19766",263.7635,79.12718,91.975395
"19767",263.77686,78.382545,91.20348
"19768",263.79016,77.645226,90.41562
"19769",263.80353,76.93721,89.63402
"19770",263.81683,76.280464,88.88156
"19771",263.8302,75.69207,88.17693
"19772",263.8435,75.174484,87.52473
"19773",263.85687,74.737465,86.93691
"19774",263.87018,74.373695,86.40869
"19775",263.88354,74.08316,85.94234
"19776",263.89685,73.85611,85.53039
"19777",263.91022,73.69253,85.17481
"19778",263.92352,73.58999,84.87517
"19779",263.9369,73.53872,84.62359
"19780",263.9502,73.52895,84.41191
"19781",263.96356,73.55337,84.23411
"19782",263.97687,73.599754,84.07904
"19783",263.99023,73.66811,83.947395
"19784",264.00354,73.74868,83.83009
"19785",264.0169,73.83902,83.72508
"19786",264.0302,73.936676,83.63021
"19787",264.04358,74.03189,83.53595
"19788",264.0569,74.11734,83.4349
"19789",264.07025,74.19302,83.32675
"19790",264.08356,74.26383,83.216095
"19791",264.09692,74.32731,83.10032
"19792",264.11023,74.390785,82.98653
"19793",264.1236,74.44938,82.869835
"19794",264.1369,74.510414,82.757416
"19795",264.15027,74.56901,82.64446
"19796",264.16357,74.617836,82.523575
"19797",264.17694,74.65934,82.39689
"19798",264.19025,74.68864,82.25929
"19799",264.2036,74.70817,82.11285
"19800",264.21692,74.72526,81.96457
"19801",264.2303,74.79851,81.872986
"19802",264.2436,75.09392,82.00585
"19803",264.25696,75.87274,82.63136
"19804",264.27026,77.37423,84.003876
"19805",264.28363,79.72045,86.26804
"19806",264.29694,82.84306,89.38192
"19807",264.3103,86.468605,93.096306
"19808",264.3236,90.16739,96.99723
"19809",264.33698,93.49508,100.642654
"19810",264.35028,96.10986,103.67916
"19811",264.36365,97.84085,105.91358
"19812",264.37695,98.63676,107.26701
"19813",264.39032,98.565956,107.77861
"19814",264.40363,97.760284,107.55312
"19815",264.417,96.40284,106.75069
"19816",264.4303,94.66941,105.52985
"19817",264.44366,92.7309,104.04976
"19818",264.45697,90.73136,102.44806
"19819",264.47034,88.78798,100.840034
"19820",264.48364,86.976425,99.3031
"19821",264.497,85.35531,97.899994
"19822",264.5103,83.94415,96.65619
"19823",264.52368,82.74052,95.575806
"19824",264.537,81.74441,94.66534
"19825",264.55035,80.96559,93.94103
"19826",264.56366,80.40894,93.41456
"19827",264.57703,80.096436,93.11483
"19828",264.59033,80.03052,93.051926
"19829",264.6037,80.184326,93.20669
"19830",264.617,80.50416,93.53228
"19831",264.63037,80.91432,93.9582
"19832",264.64368,81.3196,94.39205
"19833",264.65704,81.64187,94.755554
"19834",264.67035,81.8201,94.98509
"19835",264.68372,81.81766,95.03953
"19836",264.69702,81.62478,94.90345
"19837",264.7104,81.26589,94.59534
"19838",264.7237,80.762955,94.13196
"19839",264.73706,80.15747,93.550316
"19840",264.75037,79.483635,92.8814
"19841",264.76373,78.77074,92.15237
"19842",264.77704,78.05295,91.396164
"19843",264.7904,77.35226,90.63463
"19844",264.8037,76.69306,89.89269
"19845",264.81708,76.087585,89.183876
"19846",264.83038,75.545586,88.519615
"19847",264.84375,75.071945,87.90678
"19848",264.85706,74.66422,87.345055
"19849",264.87042,74.32975,86.84384
"19850",264.88373,74.06119,86.39809
"19851",264.8971,73.865875,86.01719
"19852",264.9104,73.73647,85.6961
"19853",264.92377,73.66567,85.429565
"19854",264.93707,73.6437,85.20965
"19855",264.95044,73.65835,85.025665
"19856",264.96375,73.69985,84.868996
"19857",264.9771,73.763336,84.7356
"19858",264.99042,73.8439,84.62128
"19859",265.00378,73.936676,84.521675
"19860",265.0171,74.03433,84.429855
"19861",265.03046,74.13443,84.34353
"19862",265.04376,74.229645,84.25545
"19863",265.05713,74.32731,84.17279
"19864",265.07043,74.42008,84.088295
"19865",265.0838,74.512856,84.0067
"19866",265.0971,74.60319,83.92556
"19867",265.11047,74.69596,83.849686
"19868",265.12378,74.77898,83.76695
"19869",265.13715,74.8571,83.68192
"19870",265.15045,74.93034,83.59445
"19871",265.16382,74.99382,83.499504
"19872",265.17712,75.04509,83.39433
"19873",265.1905,75.08171,83.276115
"19874",265.2038,75.10857,83.14928
"19875",265.21716,75.19646,83.08431
"19876",265.23047,75.526054,83.2638
"19877",265.24384,76.36103,83.95897
"19878",265.25714,77.943085,85.42731
"19879",265.2705,80.360115,87.78006
"19880",265.2838,83.51446,90.945656
"19881",265.29718,87.1107,94.651726
"19882",265.3105,90.704506,98.467735
"19883",265.32385,93.86618,101.96393
"19884",265.33716,96.29542,104.826485
"19885",265.35052,97.84573,106.88603
"19886",265.36383,98.50492,108.1029
"19887",265.3772,98.34867,108.524925
"19888",265.3905,97.51125,108.2609
"19889",265.40387,96.15381,107.45068
"19890",265.41718,94.43992,106.2416
"19891",265.43054,92.51606,104.76899
"19892",265.44385,90.50675,103.15081
"19893",265.4572,88.51209,101.48449
"19894",265.47052,86.60532,99.84372
"19895",265.4839,84.83528,98.28009
"19896",265.4972,83.23125,96.827156
"19897",265.51056,81.80545,95.502335
"19898",265.52386,80.57252,94.32582
"19899",265.53723,79.56664,93.33784
"19900",265.55054,78.82445,92.5821
"19901",265.5639,78.38743,92.108345
"19902",265.5772,78.27268,91.94321
"19903",265.59058,78.46555,92.0821
"19904",265.60388,78.90257,92.47117
"19905",265.61725,79.483635,93.01794
"19906",265.63055,80.09888,93.61704
"19907",265.64392,80.65308,94.17434
"19908",265.65723,81.058365,94.60003
"19909",265.6706,81.26589,94.84063
"19910",265.6839,81.26101,94.875305
"19911",265.69727,81.05348,94.707184
"19912",265.71057,80.67017,94.3568
"19913",265.72394,80.15015,93.85771
"19914",265.73724,79.53246,93.24472
"19915",265.7506,78.856186,92.55383
"19916",265.76392,78.15549,91.81739
"19917",265.77728,77.45724,91.0615
"19918",265.7906,76.7834,90.308205
"19919",265.80396,76.15106,89.57535
"19920",265.81726,75.56756,88.87157
"19921",265.83063,75.04265,88.208145
"19922",265.84393,74.58854,87.59912
"19923",265.8573,74.20767,87.04915
"19924",265.8706,73.90738,86.56785
"19925",265.88397,73.6852,86.15528
"19926",265.89728,73.53872,85.81146
"19927",265.91064,73.463036,85.53387
"19928",265.92395,73.44839,85.31494
"19929",265.93732,73.48501,85.14683
"19930",265.95062,73.56069,85.01892
"19931",265.964,73.66567,84.922676
"19932",265.9773,73.79263,84.85169
"19933",265.99066,73.936676,84.80176
"19934",266.00397,74.08804,84.76365
"19935",266.01733,74.23697,84.72783
"19936",266.03064,74.38346,84.69423
"19937",266.044,74.52018,84.65543
"19938",266.0573,74.64713,84.611145
"19939",266.07068,74.76433,84.561066
"19940",266.08398,74.879074,84.5122
"19941",266.09735,74.99626,84.46936
"19942",266.11066,75.11345,84.43018
"19943",266.12402,75.22575,84.389786
"19944",266.13733,75.32586,84.3407
"19945",266.1507,75.406425,84.2752
"19946",266.164,75.457695,84.18292
"19947",266.17737,75.494316,84.0776
"19948",266.19067,75.562675,84.00516
"19949",266.20404,75.8288,84.132614
"19950",266.21735,76.544136,84.717606
"19951",266.2307,77.95529,86.02077
"19952",266.24402,80.164795,88.166374
"19953",266.2574,83.104294,91.11102
"19954",266.2707,86.50034,94.60408
"19955",266.28406,89.94522,98.25209
"19956",266.29736,93.016556,101.63422
"19957",266.31073,95.431145,104.455574
"19958",266.32404,97.040054,106.54671
"19959",266.3374,97.831085,107.87024
"19960",266.3507,97.86038,108.45676
"19961",266.36407,97.232925,108.387436
"19962",266.37738,96.08301,107.77605
"19963",266.39075,94.55222,106.747856
"19964",266.40405,92.7773,105.42769
"19965",266.41742,90.87785,103.927536
"19966",266.43073,88.956436,102.346054
"19967",266.4441,87.08629,100.7558
"19968",266.4574,85.32113,99.21208
"19969",266.47076,83.685356,97.74259
"19970",266.48407,82.2034,96.3758
"19971",266.49744,80.902115,95.14337
"19972",266.51074,79.82056,94.090004
"19973",266.5241,79.01976,93.2836
"19974",266.5374,78.54124,92.774445
"19975",266.55078,78.41917,92.60679
"19976",266.5641,78.63401,92.77223
"19977",266.57745,79.1223,93.217834
"19978",266.59076,79.76929,93.837395
"19979",266.60413,80.45777,94.51867
"19980",266.61743,81.077896,95.1531
"19981",266.6308,81.54421,95.6531
"19982",266.6441,81.81033,95.967476
"19983",266.65747,81.864044,96.07776
"19984",266.67078,81.71999,95.99196
"19985",266.68414,81.40505,95.73077
"19986",266.69745,80.9485,95.31812
"19987",266.71082,80.38697,94.78623
"19988",266.72412,79.75708,94.168434
"19989",266.7375,79.08812,93.49188
"19990",266.7508,78.40696,92.78223
"19991",266.76416,77.738,92.063484
"19992",266.77747,77.103226,91.358025
"19993",266.79083,76.50996,90.67423
"19994",266.80414,75.965515,90.02073
"19995",266.8175,75.474785,89.40392
"19996",266.8308,75.04265,88.830376
"19997",266.84418,74.669106,88.30192
"19998",266.85748,74.36149,87.82771
"19999",266.87085,74.11978,87.409805
"20000",266.88416,73.944,87.05027
"20001",266.89752,73.82681,86.743835
"20002",266.91083,73.76822,86.49233
"20003",266.9242,73.760895,86.29027
"20004",266.9375,73.795074,86.12948
"20005",266.95087,73.863434,86.00394
"20006",266.96417,73.95865,85.90739
"20007",266.97754,74.06851,85.82846
"20008",266.99084,74.19058,85.765175
"20009",267.0042,74.322426,85.71548
"20010",267.01752,74.46403,85.67966
"20011",267.03088,74.60807,85.6507
"20012",267.0442,74.75212,85.62626
"20013",267.05756,74.88884,85.59898
"20014",267.07086,75.01335,85.563774
"20015",267.08423,75.11345,85.50804
"20016",267.09753,75.194016,85.435905
"20017",267.1109,75.25994,85.35165
"20018",267.1242,75.40154,85.34512
"20019",267.13757,75.82147,85.62135
"20020",267.15088,76.81026,86.47956
"20021",267.16425,78.607155,88.17678
"20022",267.17755,81.28054,90.80664
"20023",267.19092,84.68635,94.252464
"20024",267.20422,88.49012,98.20268
"20025",267.2176,92.24017,102.21805
"20026",267.2309,95.516594,105.876976
"20027",267.24426,98.06058,108.90585
"20028",267.25757,99.75983,111.169495
"20029",267.27094,100.59968,112.62684
"20030",267.28424,100.628975,113.29987
"20031",267.2976,99.96246,113.278015
"20032",267.3109,98.72953,112.66891
"20033",267.32428,97.08888,111.613556
"20034",267.3376,95.18944,110.24814
"20035",267.35095,93.17525,108.70862
"20036",267.36426,91.14885,107.09395
"20037",267.37762,89.198135,105.49164
"20038",267.39093,87.38659,103.96753
"20039",267.4043,85.750824,102.56259
"20040",267.4176,84.30549,101.29697
"20041",267.43097,83.06035,100.18637
"20042",267.44427,82.022736,99.24439
"20043",267.45764,81.20241,98.487274
"20044",267.47095,80.61646,97.9389
"20045",267.4843,80.26978,97.61149
"20046",267.49762,80.15991,97.51005
"20047",267.511,80.2649,97.62003
"20048",267.5243,80.52125,97.88466
"20049",267.53766,80.850845,98.230545
"20050",267.55096,81.17067,98.57696
"20051",267.56433,81.409935,98.852806
"20052",267.57764,81.51003,98.99696
"20053",267.591,81.44167,98.97579
"20054",267.6043,81.19508,98.774254
"20055",267.61768,80.78737,98.403885
"20056",267.63098,80.24292,97.88404
"20057",267.64435,79.59594,97.24465
"20058",267.65765,78.8806,96.516685
"20059",267.67102,78.12863,95.72974
"20060",267.68433,77.37179,94.91441
"20061",267.6977,76.63203,94.09252
"20062",267.711,75.92645,93.2817
"20063",267.72437,75.27215,92.5001
"20064",267.73767,74.67887,91.75908
"20065",267.75104,74.15152,91.065445
"20066",267.76434,73.69497,90.42613
"20067",267.7777,73.306786,89.84092
"20068",267.79102,72.989395,89.31437
"20069",267.80438,72.73792,88.84382
"20070",267.8177,72.54505,88.42401
"20071",267.83105,72.40833,88.05432
"20072",267.84436,72.325325,87.73407
"20073",267.85773,72.29603,87.464935
"20074",267.87103,72.30579,87.23395
"20075",267.8844,72.35462,87.04233
"20076",267.8977,72.430305,86.87909
"20077",267.91107,72.52308,86.735306
"20078",267.92438,72.637825,86.616394
"20079",267.93774,72.764786,86.51329
"20080",267.95105,72.901505,86.42391
"20081",267.96442,73.040665,86.34125
"20082",267.97772,73.17738,86.26049
"20083",267.9911,73.3019,86.17181
"20084",268.0044,73.411766,86.07236
"20085",268.01776,73.50698,85.96169
"20086",268.03107,73.62417,85.87598
"20087",268.04443,73.90738,85.959946
"20088",268.05774,74.617836,86.48001
"20089",268.0711,76.050964,87.74495
"20090",268.0844,78.37278,89.94336
"20091",268.09778,81.55398,93.07371
"20092",268.11108,85.350426,96.91872
"20093",268.12445,89.34463,101.08012
"20094",268.13776,93.05806,105.08557
"20095",268.15112,96.11963,108.55521
"20096",268.16443,98.338905,111.27822
"20097",268.1778,99.64507,113.15748
"20098",268.1911,100.065,114.191315
"20099",268.20447,99.684135,114.43748
"20100",268.21777,98.651405,114.019875
"20101",268.23114,97.1255,113.07683
"20102",268.24445,95.27245,111.75895
"20103",268.2578,93.24361,110.20737
