"","Time..s.","PPG.trace","Preprocessed.PPG"
"44174",602.2092,76.67109,85.2702
"44175",602.22266,76.81758,85.31267
"44176",602.23584,77.21309,85.60873
"44177",602.24927,77.962616,86.271164
"44178",602.26245,79.12474,87.36962
"44179",602.2759,80.66285,88.88038
"44180",602.28906,82.45243,90.690674
"44181",602.3025,84.2884,92.60328
"44182",602.3157,85.94614,94.39503
"44183",602.3291,87.24254,95.87724
"44184",602.3423,88.07019,96.93122
"44185",602.3557,88.40711,97.52034
"44186",602.3689,88.30457,97.68053
"44187",602.3823,87.87488,97.510345
"44188",602.3955,87.24498,97.12654
"44189",602.40894,86.539406,96.64737
"44190",602.4221,85.858246,96.17056
"44191",602.43555,85.25765,95.75304
"44192",602.4487,84.749825,95.40951
"44193",602.46216,84.317696,95.12581
"44194",602.47534,83.9173,94.86034
"44195",602.4888,83.52178,94.587234
"44196",602.50195,83.1165,94.29201
"44197",602.5154,82.70878,93.981674
"44198",602.52856,82.33524,93.69279
"44199",602.542,82.020294,93.45081
"44200",602.5552,81.77615,93.269806
"44201",602.5686,81.59304,93.1422
"44202",602.5818,81.45144,93.05038
"44203",602.5952,81.322044,92.96634
"44204",602.6084,81.17555,92.86116
"44205",602.6218,80.990005,92.71235
"44206",602.635,80.74586,92.49914
"44207",602.64844,80.445564,92.22215
"44208",602.6616,80.08423,91.87474
"44209",602.67505,79.67895,91.47209
"44210",602.68823,79.24681,91.02992
"44211",602.70166,78.80736,90.56693
"44212",602.71484,78.37278,90.095085
"44213",602.7283,77.962616,89.63407
"44214",602.74146,77.58663,89.19442
"44215",602.7549,77.25216,88.78453
"44216",602.76807,76.961624,88.40813
"44217",602.7815,76.715034,88.06659
"44218",602.7947,76.507515,87.75642
"44219",602.8081,76.33906,87.47882
"44220",602.8213,76.20477,87.23013
"44221",602.8347,76.102234,87.008995
"44222",602.8479,76.02899,86.81395
"44223",602.8613,75.98016,86.64103
"44224",602.8745,75.948425,86.48367
"44225",602.88794,75.931335,86.33997
"44226",602.9011,75.92401,86.205505
"44227",602.91455,75.92645,86.080574
"44228",602.92773,75.93622,85.96304
"44229",602.94116,75.94354,85.843376
"44230",602.95435,75.9411,85.71417
"44231",602.9678,75.928894,85.57513
"44232",602.98096,75.90692,85.425934
"44233",602.9944,75.8703,85.261406
"44234",603.00757,75.8288,85.09085
"44235",603.021,75.78729,84.919
"44236",603.0342,75.76776,84.76782
"44237",603.0476,75.8288,84.6966
"44238",603.0608,76.07538,84.812836
"44239",603.0742,76.627144,85.24196
"44240",603.0874,77.574425,86.08384
"44241",603.1008,78.93919,87.37281
"44242",603.114,80.64332,89.043785
"44243",603.12744,82.511024,90.931595
"44244",603.1406,84.31281,92.81185
"44245",603.15405,85.83383,94.46764
"44246",603.16724,86.92027,95.73639
"44247",603.18066,87.50622,96.53859
"44248",603.19385,87.603874,96.87082
"44249",603.2073,87.29626,96.80083
"44250",603.22046,86.70786,96.440445
"44251",603.2339,85.96811,95.91031
"44252",603.2471,85.19661,95.32531
"44253",603.2605,84.47639,94.76748
"44254",603.2737,83.85138,94.28236
"44255",603.2871,83.32647,93.8778
"44256",603.3003,82.8748,93.53008
"44257",603.3137,82.46708,93.2122
"44258",603.3269,82.07889,92.9011
"44259",603.34033,81.71023,92.597404
"44260",603.3535,81.38308,92.3237
"44261",603.36694,81.12184,92.10568
"44262",603.3801,80.9485,91.9674
"44263",603.39355,80.85817,91.90671
"44264",603.40674,80.82399,91.899345
"44265",603.42017,80.80934,91.910446
"44266",603.43335,80.780045,91.90644
"44267",603.4468,80.69703,91.8478
"44268",603.45996,80.54078,91.71333
"44269",603.4734,80.306404,91.49586
"44270",603.4866,80.00122,91.20025
"44271",603.5,79.639885,90.83895
"44272",603.5132,79.23949,90.4273
"44273",603.5266,78.82201,89.98605
"44274",603.5398,78.40452,89.53175
"44275",603.5532,78.00168,89.079056
"44276",603.5664,77.628136,88.64307
"44277",603.57983,77.29122,88.23203
"44278",603.593,77.00069,87.85685
"44279",603.60645,76.756546,87.51898
"44280",603.6196,76.558784,87.219864
"44281",603.63306,76.40009,86.953636
"44282",603.64624,76.282906,86.72395
"44283",603.65967,76.19989,86.52478
"44284",603.67285,76.15106,86.3572
"44285",603.6863,76.13153,86.21739
"44286",603.69946,76.138855,86.10383
"44287",603.7129,76.16083,86.00514
"44288",603.7261,76.190125,85.91447
"44289",603.7395,76.22186,85.82715
"44290",603.7527,76.24628,85.7335
"44291",603.7661,76.26093,85.63085
"44292",603.7793,76.25361,85.50668
"44293",603.7927,76.226746,85.36275
"44294",603.8059,76.190125,85.20821
"44295",603.81934,76.1535,85.052536
"44296",603.8325,76.16083,84.93966
"44297",603.84595,76.29511,84.95397
"44298",603.85913,76.67109,85.21417
"44299",603.87256,77.383995,85.82305
"44300",603.88574,78.47288,86.830185
"44301",603.8992,79.903564,88.21315
"44302",603.91235,81.53689,89.84346
"44303",603.9258,83.17265,91.52725
"44304",603.93896,84.60578,93.059525
"44305",603.9524,85.67269,94.27036
"44306",603.9656,86.28794,95.06288
"44307",603.979,86.44419,95.41563
"44308",603.9922,86.19516,95.36797
"44309",604.0056,85.645836,95.012245
"44310",604.0188,84.91341,94.456245
"44311",604.0322,84.11505,93.81143
"44312",604.0454,83.33868,93.16365
"44313",604.05884,82.633095,92.5624
"44314",604.072,82.01541,92.027
"44315",604.08545,81.46853,91.5431
"44316",604.09863,80.98268,91.10314
"44317",604.11206,80.56275,90.71392
"44318",604.12524,80.22583,90.394585
"44319",604.1387,79.9939,90.16971
"44320",604.15186,79.88403,90.059654
"44321",604.1653,79.89868,90.07068
"44322",604.17847,80.0061,90.174934
"44323",604.1919,80.16235,90.331375
"44324",604.2051,80.31373,90.48782
"44325",604.2185,80.41627,90.60017
"44326",604.2317,80.43336,90.630264
"44327",604.2451,80.34058,90.55103
"44328",604.2583,80.14282,90.363914
"44329",604.2717,79.852295,90.07785
"44330",604.2849,79.4934,89.71434
"44331",604.29834,79.09056,89.29567
"44332",604.3115,78.67063,88.84732
"44333",604.32495,78.25803,88.39318
"44334",604.33813,77.8674,87.94811
"44335",604.35156,77.51583,87.5299
"44336",604.36475,77.20332,87.13976
"44337",604.3782,76.94209,86.79114
"44338",604.39136,76.72236,86.475845
"44339",604.4048,76.55146,86.20252
"44340",604.41797,76.422066,85.96536
"44341",604.4314,76.33173,85.76322
"44342",604.4446,76.27558,85.59244
"44343",604.458,76.25117,85.45164
"44344",604.4712,76.24872,85.33204
"44345",604.4846,76.265816,85.23191
"44346",604.4978,76.297554,85.14696
"44347",604.5112,76.33173,85.06544
"44348",604.5244,76.36591,84.984985
"44349",604.53784,76.387886,84.893394
"44350",604.551,76.40009,84.792725
"44351",604.56445,76.39765,84.67779
"44352",604.57764,76.404976,84.57254
"44353",604.59106,76.46845,84.523674
"44354",604.60425,76.6833,84.62816
"44355",604.6177,77.1667,85.00792
"44356",604.63086,78.00168,85.75436
"44357",604.6443,79.21263,86.90286
"44358",604.6575,80.73609,88.40172
"44359",604.6709,82.41581,90.10444
"44360",604.6841,84.034485,91.79861
"44361",604.6975,85.39193,93.28213
"44362",604.7107,86.348976,94.40767
"44363",604.7241,86.84703,95.104126
"44364",604.7373,86.89586,95.36692
"44365",604.75073,86.57603,95.26258
"44366",604.7639,85.99985,94.8919
"44367",604.77734,85.28451,94.36405
"44368",604.7905,84.53986,93.784546
"44369",604.80396,83.83917,93.22572
"44370",604.81714,83.23369,92.74021
"44371",604.83057,82.72587,92.33344
"44372",604.84375,82.29374,91.986496
"44373",604.8572,81.91043,91.674866
"44374",604.87036,81.55398,91.37811
"44375",604.8838,81.22682,91.09952
"44376",604.897,80.94606,90.85709
"44377",604.9104,80.73609,90.67669
"44378",604.9236,80.60914,90.57274
"44379",604.937,80.55787,90.540504
"44380",604.9502,80.56031,90.56038
"44381",604.9636,80.584724,90.6023
"44382",604.9768,80.59205,90.6279
"44383",604.99023,80.552986,90.60734
"44384",605.0034,80.44312,90.514755
"44385",605.01685,80.25025,90.33573
"44386",605.03,79.98169,90.07499
"44387",605.04346,79.64721,89.73994
"44388",605.05664,79.27123,89.352936
"44389",605.07007,78.873276,88.932205
"44390",605.08325,78.4802,88.50392
"44391",605.0967,78.1091,88.08533
"44392",605.10986,77.76486,87.682
"44393",605.1233,77.46212,87.30941
"44394",605.1365,77.20088,86.968864
"44395",605.1499,76.981155,86.66167
"44396",605.1631,76.79561,86.38178
"44397",605.1765,76.646675,86.13271
"44398",605.1897,76.53193,85.91318
"44399",605.2031,76.45136,85.724236
"44400",605.2163,76.404976,85.566956
"44401",605.22974,76.39277,85.442406
"44402",605.2429,76.40742,85.34433
"44403",605.25635,76.439156,85.2638
"44404",605.26953,76.48066,85.19403
"44405",605.28296,76.52949,85.13288
"44406",605.29614,76.58076,85.0757
"44407",605.3096,76.61982,85.00791
"44408",605.32275,76.64912,84.93158
"44409",605.3362,76.66132,84.83907
"44410",605.34937,76.654,84.72742
"44411",605.3628,76.63203,84.60088
"44412",605.376,76.59785,84.46146
"44413",605.3894,76.56367,84.32096
"44414",605.4026,76.55634,84.20625
"44415",605.416,76.64912,84.191414
"44416",605.4292,76.95674,84.394325
"44417",605.4426,77.593956,84.93644
"44418",605.4558,78.6218,85.8891
"44419",605.46924,80.03296,87.25719
"44420",605.4824,81.70779,88.933044
"44421",605.49585,83.45098,90.72961
"44422",605.50903,85.04524,92.43171
"44423",605.52246,86.30991,93.85404
"44424",605.53564,87.132675,94.873985
"44425",605.5491,87.48669,95.45089
"44426",605.56226,87.413445,95.6116
"44427",605.5757,87.00816,95.43799
"44428",605.58887,86.39048,95.03931
"44429",605.6023,85.67513,94.52366
"44430",605.6155,84.962234,93.988106
"44431",605.6289,84.32258,93.50352
"44432",605.6421,83.78058,93.096596
"44433",605.6555,83.33868,92.772835
"44434",605.6687,82.96025,92.49874
"44435",605.6821,82.616005,92.247
"44436",605.6953,82.28153,91.99428
"44437",605.70874,81.95682,91.74086
"44438",605.7219,81.65652,91.50171
"44439",605.73535,81.40505,91.30201
"44440",605.74854,81.2195,91.16036
"44441",605.76196,81.09987,91.07884
"44442",605.77515,81.02174,91.03509
"44443",605.7886,80.955826,91.0011
"44444",605.80176,80.87282,90.94796
"44445",605.8152,80.75563,90.85805
"44446",605.82837,80.58228,90.70831
"44447",605.8418,80.35035,90.494576
"44448",605.855,80.062256,90.21743
"44449",605.8684,79.72289,89.88001
"44450",605.8816,79.344475,89.492935
"44451",605.895,78.9514,89.07938
"44452",605.9082,78.553444,88.64865
"44453",605.92163,78.17502,88.22502
"44454",605.9348,77.823456,87.81643
"44455",605.94824,77.51583,87.44079
"44456",605.9614,77.24727,87.0946
"44457",605.97485,77.01778,86.77908
"44458",605.98804,76.82002,86.48814
"44459",606.00146,76.65888,86.22762
"44460",606.01465,76.52705,85.99138
"44461",606.0281,76.42451,85.78031
"44462",606.04126,76.34882,85.592896
"44463",606.0547,76.299995,85.42997
"44464",606.0679,76.26826,85.28261
"44465",606.0813,76.25605,85.153786
"44466",606.0945,76.26093,85.04167
"44467",606.1079,76.27802,84.94192
"44468",606.1211,76.30488,84.85246
"44469",606.1345,76.334175,84.76629
"44470",606.1477,76.36347,84.68103
"44471",606.16113,76.387886,84.591805
"44472",606.1743,76.402534,84.493576
"44473",606.18774,76.40986,84.38848
"44474",606.2009,76.40986,84.27629
"44475",606.21436,76.39765,84.15189
"44476",606.22754,76.37568,84.01735
"44477",606.24097,76.34882,83.877235
"44478",606.25415,76.3415,83.75581
"44479",606.2676,76.40742,83.707405
"44480",606.28076,76.64912,83.83684
"44481",606.2942,77.17647,84.259476
"44482",606.3074,78.065155,85.05993
"44483",606.3208,79.31762,86.25193
"44484",606.334,80.84596,87.75895
"44485",606.3474,82.48173,89.42115
"44486",606.3606,84.01984,91.03681
"44487",606.374,85.28207,92.42466
"44488",606.3872,86.151215,93.45887
"44489",606.40063,86.588234,94.08811
"44490",606.4138,86.61509,94.32085
"44491",606.42725,86.30015,94.21262
"44492",606.4404,85.748375,93.85773
"44493",606.45386,85.06477,93.35376
"44494",606.46704,84.351875,92.79913
"44495",606.48047,83.67803,92.261284
"44496",606.49365,83.08476,91.78295
"44497",606.5071,82.579384,91.37397
"44498",606.52026,82.13992,91.015114
"44499",606.5337,81.74929,90.69135
"44500",606.5469,81.40749,90.40422
"44501",606.5603,81.11452,90.15523
"44502",606.5735,80.88747,89.963005
"44503",606.5869,80.73853,89.841805
"44504",606.6001,80.6775,89.80385
"44505",606.6135,80.68726,89.834785
"44506",606.6267,80.74586,89.914856
"44507",606.64014,80.81911,90.01141
"44508",606.6533,80.87038,90.08828
"44509",606.66675,80.87282,90.11792
"44510",606.67993,80.80202,90.074394
"44511",606.69336,80.65064,89.94808
"44512",606.70654,80.41627,89.73404
"44513",606.72,80.12085,89.45163
"44514",606.73315,79.783936,89.11849
"44515",606.7466,79.42016,88.74796
"44516",606.75977,79.0515,88.36118
"44517",606.7732,78.692604,87.97265
"44518",606.7864,78.363014,87.6022
"44519",606.7998,78.065155,87.25319
"44520",606.813,77.803925,86.931496
"44521",606.8264,77.58419,86.643135
"44522",606.8396,77.40353,86.38698
"44523",606.853,77.25948,86.1618
"44524",606.8662,77.14473,85.9614
"44525",606.87964,77.06172,85.78917
"44526",606.8928,77.01289,85.64852
"44527",606.91943,76.99092,85.43917
"44528",606.93286,77.00801,85.36223
"44529",606.94604,77.03731,85.29803
"44530",606.9595,77.07149,85.239624
"44531",606.97266,77.10567,85.18229
"44532",606.9861,77.134964,85.12114
"44533",606.99927,77.154495,85.05114
"44534",607.0127,77.15694,84.96466
"44535",607.0259,77.14961,84.86849
"44536",607.0393,77.14473,84.774536
"44537",607.0525,77.17403,84.71461
"44538",607.0659,77.3254,84.77767
"44539",607.0791,77.69405,85.062744
"44540",607.0925,78.363014,85.659645
"44541",607.1057,79.35912,86.6046
"44542",607.11914,80.62867,87.85412
"44543",607.1323,82.04227,89.28736
"44544",607.14575,83.42657,90.73548
"44545",607.15894,84.60822,92.024216
"44546",607.17236,85.46761,93.02761
"44547",607.18555,85.95102,93.68188
"44548",607.199,86.06088,93.97771
"44549",607.21216,85.84848,93.954704
"44550",607.2256,85.38949,93.678474
"44551",607.2388,84.78401,93.24142
"44552",607.2522,84.12482,92.73172
"44553",607.2654,83.47784,92.21364
"44554",607.2788,82.882126,91.72661
"44555",607.292,82.35233,91.28688
"44556",607.3054,81.881134,90.88919
"44557",607.3186,81.45632,90.52316
"44558",607.33203,81.08034,90.19269
"44559",607.3452,80.77516,89.92127
"44560",607.35864,80.56031,89.730644
"44561",607.3718,80.45533,89.64317
"44562",607.38525,80.462654,89.66473
"44563",607.39844,80.56519,89.78172
"44564",607.41187,80.72877,89.96296
"44565",607.42505,80.902115,90.15908
"44566",607.4385,81.05348,90.33864
"44567",607.45166,81.13649,90.45457
"44568",607.4651,81.13405,90.48764
"44569",607.4783,81.02907,90.4181
"44570",607.4917,80.833755,90.254944
"44571",607.5049,80.56275,90.009995
"44572",607.5183,80.24292,89.70775
"44573",607.5315,79.89136,89.36378
"44574",607.5449,79.52758,88.996605
"44575",607.5581,79.17357,88.62783
"44576",607.57153,78.836655,88.26509
"44577",607.5847,78.519264,87.91135
"44578",607.59814,78.23361,87.57942
"44579",607.6113,77.98215,87.27276
"44580",607.62476,77.7673,86.99486
"44581",607.63794,77.58907,86.74686
"44582",607.65137,77.44991,86.53236
"44583",607.66455,77.349815,86.35257
"44584",607.678,77.28878,86.20872
"44585",607.69116,77.261925,86.09714
"44586",607.7046,77.25704,86.00669
"44587",607.7178,77.26681,85.93074
"44588",607.7312,77.281456,85.85998
"44589",607.7444,77.29366,85.78723
"44590",607.7578,77.30587,85.71487
"44591",607.771,77.33517,85.65997
"44592",607.7844,77.437706,85.67924
"44593",607.7976,77.696495,85.857956
"44594",607.81104,78.2092,86.298676
"44595",607.8242,79.04173,87.07525
"44596",607.83765,80.201416,88.20499
"44597",607.8508,81.600365,89.61023
"44598",607.86426,83.10185,91.16173
"44599",607.87744,84.51545,92.67226
"44600",607.89087,85.68246,93.98037
"44601",607.90405,86.49058,94.966064
"44602",607.9175,86.90318,95.5815
"44603",607.93066,86.93248,95.826515
"44604",607.9441,86.641945,95.75262
"44605",607.9573,86.12192,95.44015
"44606",607.9707,85.47494,94.984474
"44607",607.9839,84.788895,94.46952
"44608",607.9973,84.1297,93.95998
"44609",608.0105,83.543755,93.50308
"44610",608.0239,83.04082,93.110886
"44611",608.0371,82.60136,92.76645
"44612",608.05054,82.210724,92.45711
"44613",608.0637,81.85916,92.17463
"44614",608.07715,81.54665,91.92022
"44615",608.09033,81.29275,91.714645
"44616",608.10376,81.11696,91.579254
"44617",608.11694,81.02663,91.52383
"44618",608.1304,81.01198,91.54126
"44619",608.14355,81.04616,91.60706
"44620",608.157,81.094986,91.68858
"44621",608.17017,81.12428,91.7521
"44622",608.1836,81.109634,91.77258
"44623",608.1968,81.02663,91.72425
"44624",608.2102,80.85817,91.587875
"44625",608.2234,80.61158,91.3681
"44626",608.2368,80.29908,91.074715
"44627",608.25,79.9353,90.72028
"44628",608.2634,79.54711,90.33007
"44629",608.2766,79.15648,89.925285
"44630",608.29004,78.77806,89.52051
"44631",608.3032,78.42161,89.12587
"44632",608.31665,78.09689,88.75183
"44633",608.32983,77.7966,88.39207
"44634",608.34326,77.53292,88.05953
"44635",608.35645,77.30831,87.75783
"44636",608.3699,77.120316,87.48572
"44637",608.38306,76.97383,87.249245
"44638",608.3965,76.86885,87.0497
"44639",608.40967,76.79805,86.88105
"44640",608.4231,76.75166,86.734604
"44641",608.4363,76.71992,86.60135
"44642",608.4497,76.697945,86.476875
"44643",608.4629,76.6833,86.35904
"44644",608.4763,76.66621,86.238304
"44645",608.4895,76.654,86.12192
"44646",608.5029,76.654,86.01736
"44647",608.5161,76.6955,85.9543
"44648",608.52954,76.859085,86.01462
"44649",608.5427,77.242386,86.29977
"44650",608.55615,77.94064,86.91185
"44651",608.56934,79.00023,87.90708
"44652",608.58276,80.38697,89.26258
"44653",608.59595,81.986115,90.87382
"44654",608.6094,83.60967,92.55944
"44655",608.62256,85.05745,94.12002
"44656",608.636,86.17319,95.3938
"44657",608.6492,86.871445,96.284966
"44658",608.6626,87.13756,96.76581
"44659",608.6758,87.02037,96.871666
"44660",608.6892,86.607765,96.678444
"44661",608.7024,86.00473,96.2819
"44662",608.7158,85.31136,95.77618
"44663",608.729,84.613106,95.2439
"44664",608.74243,83.97345,94.7484
"44665",608.7556,83.4168,94.31592
"44666",608.76904,82.94072,93.94661
"44667",608.7822,82.52567,93.62346
"44668",608.79565,82.14725,93.32396
"44669",608.80884,81.78592,93.02973
"44670",608.82227,81.449,92.74862
"44671",608.83545,81.15846,92.503365
"44672",608.8489,80.92897,92.310074
"44673",608.86206,80.77272,92.18285
"44674",608.8755,80.68482,92.1191
"44675",608.8887,80.64332,92.099
"44676",608.9021,80.618904,92.09469
"44677",608.9153,80.5774,92.072525
"44678",608.9287,80.499275,92.01244
"44679",608.9419,80.35279,91.88156
"44680",608.9553,80.1355,91.67529
"44681",608.9685,79.84741,91.39144
"44682",608.98193,79.50561,91.04487
"44683",608.9951,79.12474,90.64855
"44684",609.00854,78.729225,90.225685
"44685",609.0217,78.331276,89.788025
"44686",609.03516,77.945526,89.35013
"44687",609.04834,77.58419,88.92459
"44688",609.06177,77.2546,88.51951
"44689",609.07495,76.964066,88.14318
"44690",609.0884,76.715034,87.79928
"44691",609.10156,76.507515,87.489105
"44692",609.115,76.34394,87.21639
"44693",609.1282,76.21942,86.97762
"44694",609.1416,76.12665,86.76671
"44695",609.1548,76.06561,86.58463
"44696",609.1682,76.02899,86.425064
"44697",609.1814,76.0119,86.28388
"44698",609.1948,76.00702,86.15437
"44699",609.208,76.00946,86.032036
"44700",609.22144,76.019226,85.9171
"44701",609.2346,76.033875,85.80735
"44702",609.24805,76.04364,85.69318
"44703",609.2612,76.04608,85.57198
"44704",609.27466,76.03876,85.4411
"44705",609.28784,76.02899,85.30755
"44706",609.3013,76.02899,85.18346
"44707",609.31445,76.10712,85.13749
"44708",609.3279,76.368355,85.27708
"44709",609.34106,76.93477,85.73
"44710",609.3545,77.88693,86.58638
"44711",609.3677,79.234604,87.86802
"44712",609.3811,80.885025,89.49452
"44713",609.3943,82.66239,91.299545
"44714",609.4077,84.34211,93.06246
"44715",609.4209,85.7264,94.58244
"44716",609.4343,86.68589,95.72088
"44717",609.4475,87.1693,96.413216
"44718",609.46094,87.201035,96.66899
"44719",609.4741,86.86168,96.554665
"44720",609.48755,86.26841,96.17582
"44721",609.50073,85.54574,95.64903
"44722",609.51416,84.79378,95.07037
"44723",609.52734,84.09064,94.51704
"44724",609.5408,83.47784,94.03207
"44725",609.55396,82.96269,93.6256
"44726",609.5674,82.51835,93.27384
"44727",609.58057,82.12039,92.95458
"44728",609.594,81.74685,92.6473
"44729",609.6072,81.3904,92.34544
"44730",609.6206,81.06813,92.06662
"44731",609.6338,80.80446,91.83633
"44732",609.6472,80.61402,91.67103
"44733",609.6604,80.499275,91.57547
"44734",609.6738,80.44312,91.53492
"44735",609.687,80.42359,91.529236
"44736",609.70044,80.39918,91.51806
"44737",609.7136,80.34058,91.47194
"44738",609.72705,80.22095,91.362946
"44739",609.74023,80.03052,91.17942
"44740",609.75366,79.766846,90.9167
"44741",609.76685,79.43969,90.58226
"44742",609.7803,79.07103,90.19609
"44743",609.79346,78.677956,89.77399
"44744",609.8069,78.277565,89.33228
"44745",609.82007,77.88693,88.887825
"44746",609.8335,77.523155,88.458015
"44747",609.8467,77.19112,88.04858
"44748",609.8601,76.89815,87.66783
"44749",609.8733,76.63935,87.3121
"44750",609.8867,76.41718,86.98492
"44751",609.8999,76.23407,86.68984
"44752",609.9133,76.0827,86.42079
"44753",609.9265,75.965515,86.18119
"44754",609.93994,75.88251,85.97211
"44755",609.9531,75.82391,85.78484
"44756",609.96655,75.78729,85.61772
"44757",609.97974,75.76776,85.466545
"44758",609.99316,75.76044,85.326965
"44759",610.00635,75.76532,85.19936
"44760",610.0198,75.77997,85.08168
"44761",610.03296,75.809265,84.9791
"44762",610.0464,75.84589,84.884766
"44763",610.0596,75.88251,84.79157
"44764",610.073,75.90936,84.68976
"44765",610.0862,75.92157,84.574135
"44766",610.0996,75.914246,84.43936
"44767",610.1128,75.894714,84.29215
"44768",610.1262,75.86786,84.13701
"44769",610.1394,75.862976,84.003
"44770",610.15283,75.93378,83.94452
"44771",610.166,76.18036,84.06403
"44772",610.17944,76.717476,84.48179
"44773",610.1926,77.628136,85.28987
"44774",610.20605,78.91722,86.50484
"44775",610.21924,80.50416,88.05794
"44776",610.23267,82.21805,89.78758
"44777",610.24585,83.84161,91.48046
"44778",610.2593,85.186844,92.94574
"44779",610.27246,86.12436,94.04534
"44780",610.2859,86.598,94.710365
"44781",610.2991,86.63462,94.95317
"44782",610.3125,86.30747,94.83335
"44783",610.3257,85.71908,94.44206
"44784",610.3391,84.98909,93.89079
"44785",610.3523,84.22247,93.28008
"44786",610.3657,83.49981,92.68937
"44787",610.3789,82.85771,92.15664
"44788",610.39233,82.31083,91.69906
"44789",610.4055,81.84207,91.30251
"44790",610.41895,81.43679,90.954796
"44791",610.4321,81.077896,90.6408
"44792",610.44556,80.7776,90.37419
"44793",610.45874,80.5481,90.16899
"44794",610.47217,80.4065,90.04452
"44795",610.48535,80.36256,90.013275
"44796",610.4988,80.40406,90.06611
"44797",610.51196,80.49195,90.166626
"44798",610.5254,80.59693,90.28698
"44799",610.5386,80.67506,90.38376
"44800",610.552,80.69703,90.42683
"44801",610.5652,80.63355,90.38513
"44802",610.5786,80.482185,90.25356
"44803",610.5918,80.24536,90.03181
"44804",610.6052,79.94263,89.73674
"44805",610.6184,79.59838,89.3907
"44806",610.63184,79.23216,89.01193
"44807",610.645,78.86351,88.619286
"44808",610.65845,78.50706,88.22732
"44809",610.67163,78.17258,87.84618
"44810",610.68506,77.86984,87.48634
"44811",610.69824,77.60372,87.153656
"44812",610.7117,77.37423,86.84928
"44813",610.72485,77.17891,86.57191
"44814",610.7383,77.015335,86.320175
"44815",610.75146,76.88838,86.09995
"44816",610.7649,76.79561,85.90994
"44817",610.7781,76.732124,85.74632
"44818",610.7915,76.700386,85.612465
"44819",610.8047,76.69306,85.50203
"44820",610.8181,76.70527,85.4109
"44821",610.8313,76.72968,85.33235
"44822",610.8447,76.76387,85.26434
"44823",610.8579,76.79805,85.197395
"44824",610.87134,76.82002,85.11931
"44825",610.8845,76.822464,85.02238
"44826",610.89795,76.81514,84.91576
"44827",610.91113,76.80049,84.80158
"44828",610.92456,76.79805,84.69916
"44829",610.93774,76.86641,84.66746
"44830",610.9512,77.09834,84.80147
"44831",610.96436,77.5964,85.20885
"44832",610.9778,78.42893,85.96627
"44833",610.99097,79.5935,87.08174
"44834",611.0044,80.99977,88.47531
"44835",611.0176,82.48173,89.98851
"44836",611.031,83.8465,91.43083
"44837",611.0442,84.92561,92.63015
"44838",611.0576,85.626305,93.484764
"44839",611.0708,85.91928,93.95356
"44840",611.0842,85.83627,94.05553
"44841",611.0974,85.44808,93.84972
"44842",611.11084,84.84749,93.41937
"44843",611.124,84.137024,92.86039
"44844",611.13745,83.39971,92.25236
"44845",611.15063,82.69413,91.653015
"44846",611.16406,82.056915,91.09999
"44847",611.17725,81.48806,90.59541
"44848",611.1907,80.98268,90.136536
"44849",611.20386,80.550545,89.73511
"44850",611.2173,80.21118,89.41295
"44851",611.23047,79.98169,89.190056
"44852",611.2439,79.88159,89.089386
"44853",611.2571,79.91089,89.11498
"44854",611.2705,80.05005,89.25136
"44855",611.2837,80.26002,89.46289
"44856",611.2971,80.49195,89.70295
"44857",611.3103,80.70191,89.92828
"44858",611.3237,80.84596,90.09427
"44859",611.3369,80.89235,90.16709
"44860",611.35034,80.831314,90.13394
"44861",611.3635,80.66285,89.991455
"44862",611.37695,80.40894,89.75826
"44863",611.39014,80.08911,89.45121
"44864",611.40356,79.7351,89.09998
"44865",611.41675,79.364006,88.72061
"44866",611.4302,78.995346,88.33208
"44867",611.44336,78.64622,87.95155
"44868",611.4568,78.32395,87.58698
"44869",611.47,78.0383,87.248955
"44870",611.4834,77.7966,86.94595
"44871",611.4966,77.593956,86.67445
"44872",611.51,77.4255,86.43081
"44873",611.5232,77.29366,86.21852
"44874",611.5366,77.196,86.036285
"44875",611.5498,77.1252,85.87786
"44876",611.56323,77.07881,85.74164
"44877",611.5764,77.051956,85.6235
"44878",611.58984,77.04219,85.52161
"44879",611.603,77.03731,85.42429
"44880",611.61646,77.032425,85.32683
"44881",611.62964,77.02754,85.22921
"44882",611.64307,77.0251,85.13388
"44883",611.65625,77.03975,85.055565
"44884",611.6697,77.11299,85.0363
"44885",611.68286,77.32784,85.160934
"44886",611.6963,77.789276,85.538864
"44887",611.7095,78.57542,86.25592
"44888",611.7229,79.7058,87.34179
"44889",611.7361,81.12184,88.748634
"44890",611.7495,82.67948,90.34133
"44891",611.7627,84.17853,91.92411
"44892",611.7761,85.43832,93.314476
"44893",611.7893,86.329445,94.37555
"44894",611.80273,86.800644,95.04454
"44895",611.8159,86.85924,95.31565
"44896",611.82935,86.571144,95.241905
"44897",611.8425,86.03403,94.91013
"44898",611.85596,85.34554,94.41021
"44899",611.86914,84.60578,93.837494
"44900",611.88257,83.89288,93.268524
"44901",611.89575,83.25323,92.75052
"44902",611.9092,82.69901,92.297966
"44903",611.92236,82.22537,91.90867
"44904",611.9358,81.80545,91.55829
"44905",611.949,81.43679,91.24605
"44906",611.9624,81.12428,90.97844
"44907",611.9756,80.8777,90.76699
"44908",611.989,80.72144,90.63816
"44909",612.0022,80.65797,90.59723
"44910",612.0156,80.6775,90.63732
"44911",612.0288,80.75807,90.73907
"44912",612.04224,80.86061,90.865295
"44913",612.0554,80.94362,90.9752
"44914",612.06885,80.9778,91.038864
"44915",612.08203,80.93141,91.02303
"44916",612.09546,80.79469,90.91542
"44917",612.10864,80.570076,90.71564
"44918",612.1221,80.272224,90.4356
"44919",612.13525,79.920654,90.09254
"44920",612.1487,79.53979,89.70919
"44921",612.16187,79.14427,89.29929
"44922",612.1753,78.75853,88.88681
"44923",612.1885,78.397194,88.48668
"44924",612.2019,78.07004,88.109436
"44925",612.2151,77.77707,87.75616
"44926",612.2285,77.52804,87.43766
"44927",612.2417,77.315636,87.14801
"44928",612.2551,77.13985,86.888336
"44929",612.2683,77.00069,86.6598
"44930",612.28174,76.89082,86.45621
"44931",612.2949,76.807816,86.27604
"44932",612.30835,76.749214,86.11768
"44933",612.32153,76.71015,85.977036
"44934",612.33496,76.69062,85.8547
"44935",612.34814,76.6833,85.74396
"44936",612.3616,76.680855,85.63787
"44937",612.37476,76.68574,85.53903
"44938",612.3882,76.68818,85.437904
"44939",612.40137,76.68818,85.33441
"44940",612.4148,76.6833,85.226036
"44941",612.428,76.66865,85.10774
"44942",612.4414,76.64912,84.98411
"44943",612.4546,76.64179,84.87207
"44944",612.468,76.70527,84.830605
"44945",612.4812,76.946976,84.96935
"44946",612.4946,77.48165,85.40862
"44947",612.5078,78.380104,86.22838
"44948",612.52124,79.635,87.432655
"44949",612.5344,81.15846,88.94471
"44950",612.54785,82.76982,90.59227
"44951",612.56104,84.26154,92.17055
"44952",612.57446,85.46273,93.504906
"44953",612.58765,86.27085,94.483734
"44954",612.6011,86.65415,95.062996
"44955",612.61426,86.6395,95.25629
"44956",612.6277,86.312355,95.13662
"44957",612.64087,85.77524,94.79676
"44958",612.6543,85.12581,94.327805
"44959",612.6675,84.454414,93.81659
"44960",612.6809,83.83429,93.33566
"44961",612.6941,83.299614,92.92081
"44962",612.7075,82.85283,92.57713
"44963",612.7207,82.47196,92.285416
"44964",612.73413,82.13748,92.02818
"44965",612.7473,81.829865,91.78736
"44966",612.76074,81.55154,91.566216
"44967",612.7739,81.31228,91.37544
"44968",612.78735,81.129166,91.23334
"44969",612.80054,81.01198,91.151436
"44970",612.81396,80.95094,91.122025
"44971",612.82715,80.93385,91.13465
"44972",612.8406,80.92897,91.15895
"44973",612.85376,80.91188,91.17089
"44974",612.8672,80.85573,91.143234
"44975",612.8804,80.743416,91.05766
"44976",612.8938,80.567635,90.90511
"44977",612.907,80.325935,90.68115
"44978",612.9204,80.0354,90.4008
"44979",612.9336,79.708244,90.07475
"44980",612.947,79.35912,89.716515
"44981",612.9602,79.00267,89.340034
"44982",612.97363,78.6511,88.9573
"44983",612.9868,78.32151,88.585556
"44984",613.00024,78.01877,88.23036
"44985",613.0134,77.747765,87.897446
"44986",613.02686,77.50851,87.58781
"44987",613.04004,77.30587,87.30731
"44988",613.05347,77.134964,87.052216
"44989",613.06665,76.99336,86.82108
"44990",613.0801,76.88594,86.619705
"44991",613.09326,76.80293,86.439384
"44992",613.1067,76.73945,86.27599
"44993",613.1199,76.69306,86.127716
"44994",613.1333,76.663765,85.99508
"44995",613.1465,76.64423,85.87129
"44996",613.1599,76.63447,85.75666
"44997",613.1731,76.63203,85.64905
"44998",613.1865,76.63447,85.54624
"44999",613.1997,76.63447,85.44107
"45000",613.21313,76.63203,85.33346
"45001",613.2263,76.627144,85.22333
"45002",613.23975,76.612495,85.10328
"45003",613.2529,76.58808,84.97301
"45004",613.26636,76.55634,84.83465
"45005",613.27954,76.51728,84.68797
"45006",613.29297,76.490425,84.552284
"45007",613.30615,76.51728,84.46947
"45008",613.3196,76.6833,84.52665
"45009",613.33276,77.0959,84.83561
"45010",613.3462,77.83566,85.48462
"45011",613.3594,78.91478,86.4961
"45012",613.3728,80.26246,87.80987
"45013",613.386,81.74197,89.29758
"45014",613.3994,83.16289,90.772934
"45015",613.4126,84.34455,92.05344
"45016",613.426,85.17952,93.02417
"45017",613.4392,85.61898,93.62549
"45018",613.45264,85.68246,93.864555
"45019",613.4658,85.435875,93.79555
"45020",613.47925,84.962234,93.491776
"45021",613.49243,84.36652,93.05113
"45022",613.50586,83.734184,92.555244
"45023",613.51904,83.13603,92.073784
"45024",613.5325,82.616005,91.65176
"45025",613.54565,82.18387,91.30137
"45026",613.5591,81.82742,91.01317
"45027",613.57227,81.52712,90.76997
"45028",613.5857,81.26345,90.55402
"45029",613.5989,81.03151,90.361565
"45030",613.6123,80.83864,90.20093
"45031",613.6255,80.70191,90.09041
"45032",613.6389,80.63355,90.04398
"45033",613.6521,80.62623,90.05646
"45034",613.6655,80.66041,90.11021
"45035",613.6787,80.709236,90.17967
"45036",613.69214,80.740974,90.233574
"45037",613.7053,80.72877,90.24452
"45038",613.71875,80.66041,90.19894
"45039",613.73193,80.52125,90.080414
"45040",613.74536,80.32105,89.89651
"45041",613.75854,80.0647,89.650185
"45042",613.772,79.77173,89.35924
"45043",613.78516,79.45434,89.03471
"45044",613.7986,79.12962,88.69295
"45045",613.81177,78.81224,88.348366
"45046",613.8252,78.51438,88.01339
"45047",613.8384,78.24338,87.69596
"45048",613.8518,78.00412,87.40181
"45049",613.865,77.80148,87.1368
"45050",613.8784,77.625694,86.89231
"45051",613.8916,77.48165,86.67407
"45052",613.905,77.35958,86.473305
"45053",613.9182,77.264366,86.29558
"45054",613.93164,77.19112,86.13684
"45055",613.9448,77.14229,86.00024
"45056",613.95825,77.11299,85.88164
"45057",613.97144,77.10567,85.784096
"45058",613.98486,77.11543,85.703415
"45059",613.99805,77.137405,85.63525
"45060",614.0115,77.16426,85.57265
"45061",614.02466,77.188675,85.508446
"45062",614.0381,77.208206,85.440125
"45063",614.0513,77.22041,85.36509
"45064",614.0647,77.222855,85.28067
"45065",614.0779,77.22041,85.191444
"45066",614.0913,77.208206,85.09238
"45067",614.1045,77.19356,84.990486
"45068",614.1179,77.17891,84.88814
"45069",614.1311,77.19112,84.81219
"45070",614.14453,77.29122,84.82452
"45071",614.1577,77.574425,85.02307
"45072",614.17114,78.12375,85.4966
"45073",614.1843,78.97093,86.28515
"45074",614.19775,80.07446,87.35652
"45075",614.21094,81.324486,88.60887
"45076",614.22437,82.55253,89.8783
"45077",614.23755,83.5877,90.99324
"45078",614.251,84.32258,91.84023
"45079",614.26416,84.701,92.35373
"45080",614.2776,84.7425,92.54214
"45081",614.2908,84.49836,92.4462
"45082",614.3042,84.051575,92.139984
"45083",614.3174,83.48272,91.69774
"45084",614.3308,82.879684,91.20354
"45085",614.344,82.303505,90.71735
"45086",614.3574,81.79324,90.27907
"45087",614.3706,81.356224,89.89809
"45088",614.38403,80.99245,89.57669
"45089",614.3972,80.68726,89.30252
"45090",614.41064,80.445564,89.0823
"45091",614.4238,80.26978,88.92044
"45092",614.43726,80.17456,88.83365
"45093",614.45044,80.16724,88.83178
"45094",614.46387,80.24536,88.91513
"45095",614.47705,80.37965,89.05708
"45096",614.4905,80.54566,89.23496
"45097",614.50366,80.706795,89.41315
"45098",614.5171,80.831314,89.55975
"45099",614.5303,80.89235,89.64677
"45100",614.5437,80.8777,89.66
"45101",614.5569,80.77516,89.58489
"45102",614.5703,80.59449,89.428444
"45103",614.5835,80.35279,89.20532
"45104",614.5969,80.0647,88.92825
"45105",614.6101,79.75952,88.6251
"45106",614.62354,79.45678,88.31484
"45107",614.6367,79.17113,88.012215
"45108",614.65015,78.9099,87.72508
"45109",614.6633,78.6804,87.46152
"45110",614.67676,78.4802,87.220085
"45111",614.68994,78.311745,87.004135
"45112",614.70337,78.17502,86.81465
"45113",614.71655,78.065155,86.64776
"45114",614.73,77.98703,86.50917
"45115",614.74316,77.9382,86.39744
"45116",614.7566,77.91135,86.30615
"45117",614.7698,77.90402,86.23356
"45118",614.7832,77.908905,86.17294
"45119",614.7964,77.91379,86.11248
"45120",614.8098,77.91623,86.04973
"45121",614.823,77.91379,85.98217
"45122",614.8364,77.908905,85.912094
"45123",614.8496,77.90158,85.839424
"45124",614.86304,77.90402,85.77629
"45125",614.8762,77.95529,85.76206
"45126",614.88965,78.12131,85.86418
"45127",614.90283,78.485085,86.16925
"45128",614.91626,79.10521,86.742035
"45129",614.92944,79.98169,87.59055
"45130",614.9429,81.05104,88.65933
"45131",614.95605,82.18875,89.82989
"45132",614.9695,83.23613,90.94566
"45133",614.98267,84.05646,91.86712
"45134",614.9961,84.5716,92.509026
"45135",615.0093,84.76692,92.847206
"45136",615.0227,84.661934,92.89118
"45137",615.0359,84.32014,92.69507
"45138",615.0493,83.81964,92.329575
"45139",615.0625,83.24834,91.87763
"45140",615.0759,82.6746,91.4054
"45141",615.0891,82.15457,90.968956
"45142",615.10254,81.705345,90.58706
"45143",615.1157,81.32693,90.26193
"45144",615.12915,81.00221,89.97868
"45145",615.14233,80.723885,89.731674
"45146",615.15576,80.49439,89.5248
"45147",615.16895,80.32838,89.37424
"45148",615.1824,80.24536,89.30148
"45149",615.19556,80.255135,89.318924
"45150",615.209,80.343025,89.41479
"45151",615.22217,80.482185,89.56467
"45152",615.2356,80.64088,89.73843
"45153",615.2488,80.782486,89.90006
"45154",615.2622,80.87038,90.012405
"45155",615.2754,80.88258,90.05181
"45156",615.2888,80.8069,90.00371
"45157",615.302,80.64332,89.86534
"45158",615.3154,80.411385,89.65351
"45159",615.3286,80.130615,89.3856
"45160",615.34204,79.82788,89.086945
"45161",615.3552,79.5227,88.77638
"45162",615.36865,79.22972,88.46849
"45163",615.38184,78.95384,88.16854
"45164",615.39526,78.70481,87.88682
"45165",615.40845,78.47776,87.61929
"45166",615.4219,78.28245,87.37641
"45167",615.43506,78.11398,87.154274
"45168",615.4485,77.98215,86.9635
"45169",615.4617,77.88449,86.80279
"45170",615.4751,77.81369,86.66588
"45171",615.4883,77.76486,86.54873
"45172",615.5017,77.738,86.45202
"45173",615.5149,77.72335,86.366684
"45174",615.5283,77.713585,86.285774
"45175",615.5415,77.71114,86.21188
"45176",615.55493,77.713585,86.1428
"45177",615.5681,77.713585,86.07135
"45178",615.58154,77.71603,86.00234
"45179",615.5947,77.74044,85.95538
"45180",615.60815,77.84299,85.98732
"45181",615.62134,78.10666,86.183586
"45182",615.63477,78.61692,86.63468
"45183",615.64795,79.42016,87.3947
"45184",615.6614,80.49683,88.453255
"45185",615.67456,81.74197,89.71391
"45186",615.688,83.01152,91.0379
"45187",615.7012,84.14191,92.2624
"45188",615.7146,85.0013,93.25122
"45189",615.7278,85.523766,93.92998
"45190",615.7412,85.70443,94.28326
"45191",615.7544,85.57748,94.334564
"45192",615.7678,85.21126,94.14264
"45193",615.781,84.70832,93.80255
"45194",615.79443,84.14679,93.38815
"45195",615.8076,83.59991,92.970856
"45196",615.82104,83.11406,92.5975
"45197",615.8342,82.71366,92.29442
"45198",615.84766,82.391396,92.05695
"45199",615.86084,82.12283,91.86312
"45200",615.87427,81.881134,91.68776
"45201",615.88745,81.65896,91.52437
"45202",615.9009,81.45388,91.37113
"45203",615.91406,81.28542,91.24811
"45204",615.9275,81.16823,91.17108
"45205",615.9407,81.11696,91.15632
"45206",615.9541,81.11452,91.18878
"45207",615.9673,81.13893,91.248024
"45208",615.9807,81.15602,91.300705
"45209",615.9939,81.14137,91.32218
"45210",616.0073,81.077896,91.29437
"45211",616.0205,80.953384,91.203545
"45212",616.03394,80.765396,91.04535
"45213",616.0471,80.52125,90.82512
"45214",616.06055,80.233154,90.553314
"45215",616.0737,79.91577,90.24322
"45216",616.08716,79.58373,89.90855
"45217",616.10034,79.259026,89.57083
"45218",616.1138,78.94896,89.23761
"45219",616.12695,78.66331,88.91911
"45220",616.1404,78.40452,88.61855
"45221",616.15356,78.17746,88.34164
"45222",616.167,77.98703,88.09425
"45223",616.1802,77.83322,87.87754
"45224",616.1936,77.713585,87.69019
"45225",616.2068,77.62325,87.52841
"45226",616.2202,77.557335,87.38822
"45227",616.2334,77.50851,87.26306
"45228",616.2468,77.47433,87.151024
"45229",616.26,77.454796,87.05257
"45230",616.27344,77.44259,86.96082
"45231",616.2866,77.435265,86.87358
"45232",616.30005,77.4255,86.78367
"45233",616.31323,77.41085,86.68857
"45234",616.32666,77.383995,86.5808
"45235",616.33984,77.35226,86.467316
"45236",616.3533,77.31808,86.350395
"45237",616.36646,77.313194,86.2617
"45238",616.3799,77.39864,86.26319
"45239",616.39307,77.6672,86.450455
"45240",616.4065,78.20187,86.91223
"45241",616.4197,79.04173,87.6959
"45242",616.4331,80.16235,88.786575
"45243",616.4463,81.463646,90.09294
"45244",616.4597,82.78691,91.461945
"45245",616.4729,83.96124,92.723366
"45246",616.4863,84.857254,93.743164
"45247",616.4995,85.39681,94.43451
"45248",616.51294,85.57015,94.7765
"45249",616.5261,85.43099,94.8114
"45250",616.53955,85.05745,94.607574
"45251",616.55273,84.54719,94.255356
"45252",616.56616,83.99298,93.84325
"45253",616.57935,83.46563,93.440674
"45254",616.5928,83.00908,93.09242
"45255",616.60596,82.64286,92.82024
"45256",616.6194,82.34501,92.60497
"45257",616.63257,82.09354,92.42678
"45258",616.646,81.8616,92.26027
"45259",616.6592,81.634544,92.091385
"45260",616.6726,81.41482,91.92274
"45261",616.6858,81.22194,91.77407
"45262",616.6992,81.077896,91.66821
"45263",616.7124,80.987564,91.611565
"45264",616.7258,80.94606,91.60092
"45265",616.739,80.93385,91.61828
"45266",616.75244,80.92409,91.637695
"45267",616.7656,80.88258,91.62507
"45268",616.77905,80.79225,91.56232
"45269",616.79224,80.64088,91.4357
"45270",616.80566,80.428474,91.243324
"45271",616.81885,80.15503,90.98327
"45272",616.8323,79.84253,90.67561
"45273",616.84546,79.50561,90.33377
"45274",616.8589,79.1638,89.97652
"45275",616.8721,78.82933,89.61591
"45276",616.8855,78.51194,89.26194
"45277",616.8987,78.21896,88.92246
"45278",616.9121,77.95773,88.605576
"45279",616.9253,77.72579,88.309814
"45280",616.9387,77.53292,88.045876
"45281",616.9519,77.383995,87.819855
"45282",616.96533,77.26925,87.62336
"45283",616.9785,77.18135,87.45013
"45284",616.99194,77.11543,87.29613
"45285",617.0051,77.066605,87.15716
"45286",617.01855,77.02998,87.02887
"45287",617.03174,77.00069,86.90676
"45288",617.04517,76.9836,86.795944
"45289",617.05835,76.97627,86.69436
"45290",617.0718,76.96651,86.5901
"45291",617.08496,76.95674,86.48554
"45292",617.0984,76.944534,86.378235
"45293",617.1116,76.92256,86.26078
"45294",617.125,76.89082,86.13287
"45295",617.1382,76.85176,85.99665
"45296",617.1516,76.82735,85.873856
"45297",617.1648,76.86397,85.81133
"45298",617.1782,77.06172,85.91109
"45299",617.1914,77.506065,86.26361
"45300",617.20483,78.260475,86.94009
"45301",617.218,79.31274,87.93799
"45302",617.23145,80.57984,89.18362
"45303",617.2446,81.91287,90.53477
"45304",617.25806,83.13603,91.8177
"45305",617.27124,84.1004,92.88007
"45306",617.28467,84.72297,93.630775
"45307",617.29785,84.981766,94.03716
"45308",617.3113,84.90852,94.1196
"45309",617.32446,84.5716,93.936066
"45310",617.3379,84.07355,93.58087
"45311",617.3511,83.50713,93.141754
"45312",617.3645,82.948044,92.69226
"45313",617.3777,82.44022,92.276566
"45314",617.3911,82.00809,91.920685
"45315",617.4043,81.636986,91.612335
"45316",617.4177,81.30984,91.33634
"45317",617.4309,81.01686,91.0843
"45318",617.44434,80.76051,90.859726
"45319",617.4575,80.55543,90.678406
"45320",617.47095,80.42359,90.56393
"45321",617.48413,80.37232,90.525894
"45322",617.49756,80.396736,90.56194
"45323",617.51074,80.47486,90.652466
"45324",617.5242,80.570076,90.76252
"45325",617.53735,80.64332,90.85358
"45326",617.5508,80.66285,90.89321
"45327",617.56396,80.61158,90.862656
"45328",617.5774,80.4773,90.74749
"45329",617.5906,80.2649,90.55
"45330",617.604,79.98657,90.27995
"45331",617.6172,79.66674,89.9597
"45332",617.6306,79.3225,89.60505
"45333",617.6438,78.9807,89.24207
"45334",617.6572,78.65354,88.883064
"45335",617.6704,78.36057,88.54802
"45336",617.68384,78.10666,88.242874
"45337",617.697,77.88937,87.96642
"45338",617.71045,77.70626,87.717354
"45339",617.72363,77.55978,87.49919
"45340",617.73706,77.44015,87.30331
"45341",617.75024,77.34493,87.1281
"45342",617.7637,77.27413,86.97433
"45343",617.77686,77.22774,86.84275
"45344",617.7903,77.19844,86.72682
"45345",617.80347,77.18379,86.624626
"45346",617.8169,77.17647,86.5293
"45347",617.8301,77.1667,86.4313
"45348",617.8435,77.14961,86.32567
"45349",617.8567,77.12764,86.21462
"45350",617.8701,77.103226,86.10045
"45351",617.8833,77.08858,85.99528
"45352",617.8967,77.120316,85.936035
"45353",617.9099,77.27413,85.99986
"45354",617.92334,77.64034,86.28089
"45355",617.9365,78.28245,86.84926
"45356",617.94995,79.217514,87.73065
"45357",617.96313,80.38941,88.8781
"45358",617.97656,81.67361,90.17446
"45359",617.98975,82.896774,91.44993
"45360",618.0032,83.90265,92.546326
"45361",618.01636,84.58625,93.35188
"45362",618.0298,84.910965,93.819916
"45363",618.04297,84.89143,93.95385
"45364",618.0564,84.596016,93.81129
"45365",618.0696,84.119934,93.47883
"45366",618.083,83.55352,93.04116
"45367",618.0962,82.97978,92.57847
"45368",618.1096,82.459755,92.15156
"45369",618.1228,82.01053,91.7792
"45370",618.1362,81.62478,91.456276
"45371",618.1494,81.287865,91.170135
"45372",618.16284,80.990005,90.91252
"45373",618.176,80.723885,90.67734
"45374",618.18945,80.5066,90.48267
"45375",618.20264,80.35767,90.34958
"45376",618.21606,80.29908,90.30216
"45377",618.22925,80.32105,90.33348
"45378",618.2427,80.4065,90.42896
"45379",618.25586,80.52125,90.55641
"45380",618.2693,80.618904,90.67036
"45381",618.2825,80.66773,90.738525
"45382",618.2959,80.64332,90.73498
"45383",618.3091,80.53101,90.64278
"45384",618.3225,80.33082,90.459175
"45385",618.3357,80.062256,90.20095
"45386",618.3491,79.744865,89.885506
"45387",618.3623,79.40307,89.535736
"45388",618.37573,79.05638,89.170395
"45389",618.3889,78.72434,88.80887
"45390",618.40234,78.41917,88.46383
"45391",618.4155,78.1384,88.13366
"45392",618.42896,77.88937,87.82646
"45393",618.44214,77.67208,87.54321
"45394",618.45557,77.488976,87.28736
"45395",618.46875,77.33761,87.057526
"45396",618.4822,77.22041,86.85713
"45397",618.49536,77.13985,86.689705
"45398",618.5088,77.09102,86.5515
"45399",618.522,77.06416,86.43374
"45400",618.5354,77.0544,86.33223
"45401",618.5486,77.049515,86.2353
"45402",618.562,77.04463,86.138214
"45403",618.5752,77.03975,86.04098
"45404",618.5886,77.03487,85.94359
"45405",618.6018,77.0251,85.84116
"45406",618.61523,77.01289,85.73599
"45407",618.6284,77.00313,85.63288
"45408",618.64185,77.02022,85.55632
"45409",618.655,77.11543,85.55842
"45410",618.66846,77.39376,85.746605
"45411",618.68164,77.945526,86.21693
"45412",618.69507,78.82445,87.03165
"45413",618.70825,80.01587,88.18633
"45414",618.7217,81.42458,89.59554
"45415",618.73486,82.88457,91.100044
"45416",618.7483,84.207825,92.51344
"45417",618.7615,85.243,93.68011
"45418",618.7749,85.90219,94.50314
"45419",618.7881,86.168304,94.9537
"45420",618.8015,86.082855,95.061005
"45421",618.8147,85.731285,94.89952
"45422",618.8281,85.21126,94.55859
"45423",618.8413,84.630196,94.14038
"45424",618.85474,84.0589,93.713776
"45425",618.8679,83.55352,93.335236
"45426",618.88135,83.13603,93.02879
"45427",618.89453,82.791794,92.782555
"45428",618.90796,82.49149,92.569496
"45429",618.92114,82.213165,92.369026
"45430",618.9346,81.93973,92.16475
"45431",618.94775,81.671165,91.9568
"45432",618.9612,81.43435,91.77221
"45433",618.97437,81.248795,91.63148
"45434",618.9878,81.126724,91.54843
"45435",619.001,81.058365,91.51528
"45436",619.0144,81.0193,91.50929
"45437",619.0276,80.98512,91.506966
"45438",619.041,80.92897,91.4816
"45439",619.0542,80.82399,91.40565
"45440",619.0676,80.66285,91.270256
"45441",619.0808,80.448006,91.076126
"45442",619.09424,80.181885,90.824005
"45443",619.1074,79.87427,90.52207
"45444",619.12085,79.534904,90.17878
"45445",619.13403,79.185776,89.81512
"45446",619.14746,78.839096,89.44299
"45447",619.16064,78.49729,89.06491
"45448",619.1741,78.184784,88.705444
"45449",619.18726,77.90402,88.36796
"45450",619.2007,77.659874,88.05831
"45451",619.21387,77.44747,87.77278
"45452",619.2273,77.264366,87.50991
"45453",619.2405,77.11299,87.27305
"45454",619.2539,76.99336,87.0632
"45455",619.2671,76.90303,86.878914
"45456",619.2805,76.83711,86.71622
"45457",619.2937,76.79317,86.57343
"45458",619.3071,76.76143,86.44148
"45459",619.3203,76.73945,86.3183
"45460",619.33374,76.72968,86.20664
"45461",619.3469,76.7248,86.09956
"45462",619.36035,76.7248,85.997215
"45463",619.37354,76.72236,85.892426
"45464",619.38696,76.71015,85.777794
"45465",619.40015,76.6833,85.64813
"45466",619.4136,76.64179,85.50298
"45467",619.42676,76.592964,85.34921
"45468",619.4402,76.54902,85.1988
"45469",619.45337,76.53437,85.07631
"45470",619.4668,76.612495,85.046135
"45471",619.48,76.8835,85.21128
"45472",619.4934,77.44259,85.67298
"45473",619.5066,78.345924,86.4964
"45474",619.52,79.57885,87.677635
"45475",619.5332,81.02907,89.11469
"45476",619.54663,82.530556,90.64834
"45477",619.5598,83.88068,92.07754
"45478",619.57324,84.928055,93.246185
"45479",619.5864,85.58236,94.05449
"45480",619.59985,85.83627,94.48285
"45481",619.61304,85.73373,94.56268
"45482",619.62646,85.367516,94.37565
"45483",619.63965,84.83284,94.008705
"45484",619.6531,84.23956,93.56645
"45485",619.66626,83.65606,93.11543
"45486",619.6797,83.14336,92.71698
"45487",619.6929,82.72343,92.39528
"45488",619.7063,82.38407,92.14103
"45489",619.7195,82.09354,91.924995
"45490",619.7329,81.82498,91.72186
"45491",619.7461,81.566185,91.520096
"45492",619.7595,81.31472,91.31757
"45493",619.7727,81.0901,91.13404
"45494",619.78613,80.919205,90.99721
"45495",619.7993,80.80934,90.91607
"45496",619.81274,80.75563,90.88765
"45497",619.8259,80.726326,90.88196
"45498",619.83936,80.69215,90.870476
"45499",619.85254,80.62379,90.823746
"45500",619.86597,80.50416,90.72361
"45501",619.87915,80.323494,90.5587
"45502",619.8926,80.09155,90.33687
"45503",619.90576,79.815674,90.06385
"45504",619.9192,79.50561,89.748024
"45505",619.9324,79.17601,89.40298
"45506",619.9458,78.836655,89.03787
"45507",619.959,78.504616,88.66948
"45508",619.9724,78.19211,88.31024
"45509",619.9856,77.90402,87.96566
"45510",619.999,77.65011,87.64625
"45511",620.0122,77.42306,87.345764
"45512",620.02563,77.22774,87.069916
"45513",620.0388,77.06416,86.81971
"45514",620.05225,76.927444,86.59125
"45515",620.0654,76.822464,86.39025
"45516",620.07886,76.74677,86.21526
"45517",620.09204,76.700386,86.067215
"45518",620.10547,76.67353,85.93725
"45519",620.11865,76.66621,85.82597
"45520",620.1321,76.66865,85.724236
"45521",620.14526,76.680855,85.63234
"45522",620.1587,76.6955,85.54327
"45523",620.1719,76.70527,85.44977
"45524",620.1853,76.715034,85.356575
"45525",620.1985,76.72236,85.261246
"45526",620.2119,76.7248,85.16126
"45527",620.2251,76.717476,85.05159
"45528",620.2385,76.700386,84.93192
"45529",620.2517,76.67353,84.801956
"45530",620.26514,76.64179,84.66627
"45531",620.2783,76.60761,84.527145
"45532",620.29175,76.58808,84.4016
"45533",620.30493,76.62226,84.32916
"45534",620.31836,76.77852,84.37987
"45535",620.33154,77.15694,84.657616
"45536",620.345,77.838104,85.24994
"45537",620.35815,78.836655,86.18093
"45538",620.3716,80.09888,87.4068
"45539",620.38477,81.48806,88.79907
"45540",620.3982,82.81621,90.17372
"45541",620.4114,83.914856,91.360374
"45542",620.4248,84.6717,92.239555
"45543",620.438,85.04768,92.76153
"45544",620.4514,85.06233,92.933914
"45545",620.4646,84.791336,92.82111
"45546",620.478,84.32258,92.50208
"45547",620.4912,83.756165,92.07075
"45548",620.50464,83.18242,91.61438
"45549",620.5178,82.66239,91.1938
"45550",620.53125,82.22537,90.83998
"45551",620.54443,81.866486,90.55064
"45552",620.55786,81.566185,90.30866
"45553",620.57104,81.30251,90.09393
"45554",620.5845,81.07057,89.902695
"45555",620.59766,80.88014,89.74572
"45556",620.6111,80.75075,89.64383
"45557",620.62427,80.69459,89.61113
"45558",620.6377,80.71168,89.649925
"45559",620.6509,80.78737,89.747856
"45560",620.6643,80.885025,89.87012
"45561",620.6775,80.972916,89.985664
"45562",620.6909,81.01686,90.06001
"45563",620.7041,80.99977,90.0747
"45564",620.7175,80.90944,90.01561
"45565",620.7307,80.740974,89.875565
"45566",620.74414,80.5066,89.664345
"45567",620.7573,80.22339,89.396965
"45568",620.77075,79.91821,89.09877
"45569",620.78394,79.605705,88.78371
"45570",620.79736,79.30297,88.46865
"45571",620.81055,79.0222,88.1661
"45572",620.824,78.768295,87.88164
"45573",620.83716,78.538795,87.61365
"45574",620.8506,78.34104,87.37023
"45575",620.8638,78.170135,87.147484
"45576",620.8772,78.030975,86.95114
"45577",620.8904,77.91867,86.777306
"45578",620.9038,77.83322,86.626816
"45579",620.917,77.769745,86.49563
"45580",620.9304,77.730675,86.38686
"45581",620.9436,77.70382,86.28909
"45582",620.95703,77.68673,86.20025
"45583",620.9702,77.67696,86.118195
"45584",620.98364,77.66476,86.033394
"45585",620.9968,77.65011,85.94577
"45586",621.01025,77.63302,85.85525
"45587",621.02344,77.60616,85.754425
"45588",621.03687,77.574425,85.64788
"45589",621.05005,77.54513,85.542786
"45590",621.0635,77.52804,85.44898
"45591",621.07666,77.56222,85.405914
"45592",621.0901,77.71603,85.48354
"45593",621.1033,78.082245,85.77839
"45594",621.1167,78.72678,86.363
"45595",621.1299,79.6643,87.26073
"45596",621.1433,80.83864,88.424576
"45597",621.1565,82.127716,89.73986
"45598",621.1699,83.353325,91.03196
"45599",621.1831,84.3592,92.142624
"45600",621.19653,85.03792,92.957565
"45601",621.2097,85.350426,93.427505
"45602",621.22314,85.32357,93.56785
"45603",621.2363,85.01839,93.42902
"45604",621.24976,84.53498,93.10244
"45605",621.26294,83.966125,92.6753
"45606",621.27637,83.389946,92.22306
"45607",621.28955,82.865036,91.804085
"45608",621.303,82.41825,91.44683
"45609",621.31616,82.04959,91.15374
"45610",621.3296,81.739525,90.90772
"45611",621.3428,81.47097,90.69353
"45612",621.3562,81.234146,90.50267
"45613",621.3694,81.03395,90.34104
"45614",621.3828,80.88747,90.22687
"45615",621.396,80.80934,90.176476
"45616",621.4094,80.79469,90.18712
"45617",621.4226,80.833755,90.251015
"45618",621.43604,80.89723,90.340546
"45619",621.4492,80.955826,90.42718
"45620",621.46265,80.98024,90.48146
"45621",621.4758,80.94606,90.47791
"45622",621.48926,80.848404,90.40982
"45623",621.50244,80.68238,90.27031
"45624",621.51587,80.46021,90.069466
"45625",621.52905,80.19409,89.817726
"45626",621.5425,79.89868,89.52838
"45627",621.55566,79.59594,89.22247
"45628",621.5691,79.29809,88.911995
"45629",621.5823,79.012436,88.60441
"45630",621.5957,78.746315,88.30743
"45631",621.6089,78.504616,88.02655
"45632",621.6223,78.28489,87.76009
"45633",621.6355,78.08713,87.508736
"45634",621.6489,77.91379,87.27562
"45635",621.6621,77.7673,87.06394
"45636",621.67554,77.65011,86.876976
"45637",621.6887,77.55978,86.71321
"45638",621.70215,77.49142,86.568596
"45639",621.71533,77.44259,86.441376
"45640",621.72876,77.40841,86.32728
"45641",621.74194,77.38644,86.22432
"45642",621.7554,77.37667,86.13288
"45643",621.76855,77.37423,86.04846
"45644",621.782,77.37911,85.97129
"45645",621.79517,77.38644,85.89671
"45646",621.8086,77.3962,85.82481
"45647",621.8218,77.39864,85.74588
"45648",621.8352,77.39376,85.659706
"45649",621.8484,77.38644,85.57094
"45650",621.8618,77.37911,85.48194
"45651",621.875,77.40597,85.426895
"45652",621.8884,77.53048,85.470345
"45653",621.9016,77.855194,85.71789
"45654",621.91504,78.46555,86.26122
"45655",621.9282,79.40063,87.148346
"45656",621.94165,80.618904,88.34789
"45657",621.95483,82.01053,89.75886
"45658",621.96826,83.40948,91.220634
"45659",621.98145,84.63264,92.55034
"45660",621.9949,85.55062,93.61309
"45661",622.00806,86.09506,94.330986
"45662",622.0215,86.26841,94.6948
"45663",622.03467,86.11459,94.73687
"45664",622.0481,85.71664,94.52999
"45665",622.0613,85.17708,94.169075
"45666",622.0747,84.59113,93.74491
"45667",622.0879,84.0296,93.32685
"45668",622.1013,83.54131,92.964485
"45669",622.1145,83.140915,92.67475
"45670",622.1279,82.81621,92.4482
"45671",622.1411,82.53544,92.25543
"45672",622.15454,82.27177,92.07099
"45673",622.1677,82.01541,91.88563
"45674",622.18115,81.77371,91.70691
"45675",622.19434,81.55886,91.547485
"45676",622.20776,81.392845,91.43018
"45677",622.22095,81.28298,91.363846
"45678",622.2344,81.22438,91.34534
"45679",622.24756,81.19508,91.3543
"45680",622.261,81.17067,91.36723
"45681",622.2742,81.12184,91.35499
"45682",622.2876,81.024185,91.29239
"45683",622.3008,80.87282,91.17303
"45684",622.3142,80.65797,90.98545
"45685",622.3274,80.38453,90.732574
"45686",622.3408,80.0647,90.42476
"45687",622.354,79.72045,90.082535
"45688",622.36743,79.36645,89.719795
"45689",622.3806,79.01976,89.35331
"45690",622.39404,78.68528,88.9882
"45691",622.4072,78.37522,88.637054
"45692",622.42065,78.09201,88.30307
"45693",622.43384,77.83566,87.9871
"45694",622.44727,77.61593,87.69973
"45695",622.46045,77.43282,87.44212
"45696",622.4739,77.29122,87.2203
"45697",622.48706,77.18135,87.02578
"45698",622.5005,77.09834,86.85469
"45699",622.5137,77.03731,86.70298
"45700",622.5271,76.995804,86.56889
"45701",622.5403,76.964066,86.443275
"45702",622.5537,76.94942,86.333755
"45703",622.5669,76.946976,86.235985
"45704",622.5803,76.95674,86.150345
"45705",622.5935,76.96895,86.06745
"45706",622.60693,76.9836,85.98738
"45707",622.6201,76.998245,85.90777
"45708",622.63354,77.00313,85.81885
"45709",622.6467,77.00069,85.722755
"45710",622.66016,76.98604,85.61438
"45711",622.67334,76.96895,85.503105
"45712",622.68677,76.94209,85.38153
"45713",622.69995,76.91524,85.25912
"45714",622.7134,76.910355,85.15784
"45715",622.72656,76.99092,85.14185
"45716",622.74,77.25216,85.30906
"45717",622.7532,77.786835,85.757866
"45718",622.7666,78.64866,86.55053
"45719",622.7798,79.82788,87.68752
"45720",622.7932,81.21706,89.07132
"45721",622.8064,82.65751,90.549805
"45722",622.8198,83.96857,91.94391
"45723",622.833,85.01106,93.11042
"45724",622.84644,85.694664,93.950615
"45725",622.8596,86.00717,94.44108
"45726",622.87305,85.977875,94.5995
"45727",622.8862,85.67269,94.481125
"45728",622.89966,85.1844,94.170105
"45729",622.91284,84.60578,93.753494
"45730",622.9263,84.01251,93.30415
"45731",622.93945,83.46807,92.8851
"45732",622.9529,82.99443,92.51984
"45733",622.96606,82.598915,92.217896
"45734",622.9795,82.262,91.9622
"45735",622.9927,81.96414,91.73502
"45736",623.0061,81.70046,91.53272
"45737",623.0193,81.47585,91.36125
"45738",623.0327,81.304955,91.23647
"45739",623.0459,81.197525,91.16982
"45740",623.0593,81.160904,91.17062
"45741",623.0725,81.180435,91.22643
"45742",623.08594,81.231705,91.31459
"45743",623.0991,81.2781,91.399475
"45744",623.11255,81.29519,91.456505
"45745",623.12573,81.253685,91.455475
"45746",623.13916,81.13893,91.3799
"45747",623.15234,80.9485,91.22506
"45748",623.1658,80.69215,90.998344
"45749",623.17896,80.38453,90.71236
"45750",623.1924,80.045166,90.38501
"45751",623.20557,79.691154,90.03241
"45752",623.219,79.33715,89.668755
"45753",623.2322,78.99779,89.30868
"45754",623.2456,78.677956,88.95753
"45755",623.2588,78.39231,88.63057
"45756",623.2722,78.1384,88.326416
"45757",623.2854,77.91867,88.048515
"45758",623.2988,77.730675,87.79548
"45759",623.312,77.57931,87.5732
"45760",623.32544,77.46212,87.38036
"45761",623.3386,77.37911,87.21805
"45762",623.35205,77.32296,87.079994
"45763",623.36523,77.29122,86.9646
"45764",623.37866,77.27413,86.86286
"45765",623.39185,77.27413,86.77768
"45766",623.4053,77.28634,86.704704
"45767",623.41846,77.30343,86.63699
"45768",623.4319,77.32052,86.56982
"45769",623.44507,77.332726,86.49829
"45770",623.4585,77.32784,86.41006
"45771",623.4717,77.30343,86.30214
"45772",623.4851,77.26925,86.18369
"45773",623.4983,77.23262,86.06173
"45774",623.5117,77.24483,85.98746
"45775",623.5249,77.37667,86.0332
"45776",623.5383,77.733116,86.30767
"45777",623.5515,78.38743,86.89114
"45778",623.56494,79.35912,87.81245
"45779",623.5781,80.59693,89.03023
"45780",623.59155,81.96658,90.41853
"45781",623.60474,83.29473,91.808136
"45782",623.61816,84.420235,93.0366
"45783",623.63135,85.22591,93.9804
"45784",623.6448,85.66537,94.58317
"45785",623.65796,85.74349,94.83833
"45786",623.6714,85.514,94.78832
"45787",623.6846,85.06233,94.508965
"45788",623.698,84.47883,94.08366
"45789",623.7112,83.85138,93.59617
"45790",623.7246,83.250786,93.11593
"45791",623.7378,82.71366,92.68039
"45792",623.7512,82.2449,92.29643
"45793",623.7644,81.83963,91.96131
"45794",623.77783,81.48318,91.662346
"45795",623.791,81.17799,91.40351
"45796",623.80444,80.93141,91.19374
"45797",623.8176,80.75563,91.047066
"45798",623.83105,80.66529,90.98034
"45799",623.84424,80.655525,90.99136
"45800",623.85767,80.71656,91.07288
"45801",623.87085,80.81178,91.1905
"45802",623.8843,80.907,91.31108
"45803",623.89746,80.96803,91.40046
"45804",623.9109,80.96315,91.42583
"45805",623.9241,80.87526,91.368034
"45806",623.9375,80.69947,91.2196
"45807",623.9507,80.44068,90.982666
"45808",623.9641,80.11597,90.67172
"45809",623.9773,79.74975,90.30913
"45810",623.9907,79.35912,89.91068
"45811",624.0039,78.96849,89.50002
"45812",624.01733,78.590065,89.08936
"45813",624.0305,78.238495,88.69373
"45814",624.04395,77.92355,88.323746
"45815",624.0571,77.645226,87.98053
"45816",624.07056,77.40841,87.67013
"45817",624.08374,77.208206,87.38894
"45818",624.09717,77.04707,87.140564
"45819",624.11035,76.91524,86.91645
"45820",624.1238,76.81758,86.7224
"45821",624.13696,76.75166,86.55703
"45822",624.1504,76.71015,86.41401
"45823",624.1636,76.6955,86.296555
"45824",624.177,76.70283,86.200615
"45825",624.1902,76.72236,86.11711
"45826",624.2036,76.74433,86.03666
"45827",624.2168,76.76631,85.9569
"45828",624.2302,76.788284,85.87782
"45829",624.2434,76.80293,85.79211
"45830",624.25684,76.81026,85.699524
"45831",624.27,76.81514,85.60473
"45832",624.28345,76.82979,85.51985
"45833",624.29663,76.90303,85.494026
"45834",624.31006,77.12276,85.616974
"45835",624.32324,77.591515,85.99582
"45836",624.3367,78.38743,86.71647
"45837",624.34985,79.5227,87.801346
"45838",624.3633,80.93385,89.197586
"45839",624.37646,82.4744,90.76732
"45840",624.3899,83.95636,92.3266
"45841",624.4031,85.2137,93.70757
"45842",624.4165,86.12436,94.78116
"45843",624.4297,86.63706,95.485245
"45844",624.4431,86.7567,95.81229
"45845",624.4563,86.54429,95.81102
"45846",624.4697,86.09262,95.56386
"45847",624.4829,85.50179,95.16342
"45848",624.49634,84.86458,94.698135
"45849",624.5095,84.25422,94.23979
"45850",624.52295,83.70977,93.828285
"45851",624.53613,83.24834,93.48278
"45852",624.54956,82.847946,93.1839
"45853",624.56274,82.48661,92.91156
"45854",624.5762,82.14725,92.6499
"45855",624.58936,81.832306,92.40206
"45856",624.6028,81.55886,92.185875
"45857",624.61597,81.341576,92.0173
"45858",624.6294,81.19997,91.91762
"45859",624.6426,81.126724,91.881874
"45860",624.656,81.112076,91.902435
"45861",624.6692,81.12184,91.94695
"45862",624.6826,81.126724,91.98689
"45863",624.6958,81.09987,91.99525
"45864",624.7092,81.01442,91.94417
"45865",624.7224,80.85329,91.814735
"45866",624.73584,80.61158,91.59969
"45867",624.749,80.29908,91.306305
"45868",624.76245,79.937744,90.954315
"45869",624.77563,79.554436,90.56906
"45870",624.78906,79.166245,90.16695
"45871",624.80225,78.79515,89.7698
"45872",624.8157,78.44846,89.38546
"45873",624.82886,78.1384,89.02691
"45874",624.8423,77.86252,88.692856
"45875",624.85547,77.62325,88.386795
"45876",624.8689,77.42306,88.11233
"45877",624.8821,77.26681,87.87555
"45878",624.8955,77.14717,87.6705
"45879",624.9087,77.06416,87.498344
"45880",624.9221,77.01289,87.35533
"45881",624.9353,76.99092,87.24001
"45882",624.9487,76.98848,87.14354
"45883",624.9619,77.01045,87.0714
"45884",624.97534,77.04707,87.0146
"45885",624.9885,77.09346,86.96871
"45886",625.00195,77.13985,86.92427
"45887",625.01514,77.18135,86.876396
"45888",625.02856,77.205765,86.81273
"45889",625.04175,77.20332,86.72297
"45890",625.0552,77.18135,86.6136
"45891",625.06836,77.14961,86.49378
"45892",625.0818,77.13985,86.39494
"45893",625.095,77.225296,86.391014
"45894",625.1084,77.52071,86.599724
"45895",625.1216,78.11398,87.11552
"45896",625.135,79.04906,87.99165
"45897",625.1482,80.29908,89.21196
"45898",625.1616,81.75174,90.673965
"45899",625.1748,83.228806,92.20577
"45900",625.18823,84.53498,93.61285
"45901",625.2014,85.52865,94.74823
"45902",625.21484,86.13168,95.52403
"45903",625.228,86.32456,95.90852
"45904",625.24146,86.15854,95.94014
"45905",625.25464,85.72152,95.69557
"45906",625.26807,85.120926,95.27377
"45907",625.28125,84.456856,94.76973
"45908",625.2947,83.81476,94.26691
"45909",625.30786,83.245895,93.81725
"45910",625.3213,82.760056,93.432846
"45911",625.3345,82.34745,93.10649
"45912",625.3479,81.98123,92.81363
"45913",625.3611,81.64187,92.53618
"45914",625.3745,81.33181,92.27743
"45915",625.3877,81.06081,92.04804
"45916",625.4011,80.848404,91.86879
"45917",625.4143,80.70191,91.74881
"45918",625.42773,80.62867,91.6975
"45919",625.4409,80.60914,91.69762
"45920",625.45435,80.61158,91.71909
"45921",625.4675,80.604256,91.73088
"45922",625.48096,80.56275,91.70826
"45923",625.49414,80.462654,91.62575
"45924",625.50757,80.2942,91.47175
"45925",625.52075,80.05737,91.24412
"45926",625.5342,79.764404,90.95294
"45927",625.54736,79.42016,90.60133
"45928",625.5608,79.04173,90.20479
"45929",625.574,78.6511,89.78421
"45930",625.5874,78.27268,89.36364
"45931",625.6006,77.91623,88.95321
"45932",625.614,77.591515,88.56338
"45933",625.6272,77.30831,88.20491
"45934",625.6406,77.06172,87.87421
"45935",625.6538,76.84932,87.569984
"45936",625.66724,76.67109,87.2933
"45937",625.6804,76.52216,87.040344
"45938",625.69385,76.404976,86.814476
"45939",625.70703,76.30976,86.60692
"45940",625.72046,76.23163,86.41347
"45941",625.73364,76.173035,86.237114
"45942",625.7471,76.13397,86.07846
"45943",625.76025,76.112,85.93568
"45944",625.7737,76.10956,85.81174
"45945",625.78687,76.121765,85.70237
"45946",625.8003,76.14862,85.60803
"45947",625.8135,76.173035,85.51209
"45948",625.8269,76.192566,85.41203
"45949",625.8401,76.19745,85.297935
"45950",625.8535,76.18524,85.1669
"45951",625.8667,76.16083,85.02328
"45952",625.8801,76.1413,84.88377
"45953",625.8933,76.14374,84.76563
"45954",625.90674,76.23407,84.73546
"45955",625.9199,76.51484,84.898544
"45956",625.93335,77.08125,85.35605
"45957",625.94653,78.00656,86.19015
"45958",625.95996,79.27856,87.39985
"45959",625.97314,80.80934,88.90809
"45960",625.9866,82.425575,90.549614
"45961",625.99976,83.9173,92.117134
"45962",626.0132,85.1136,93.43585
"45963",626.02637,85.90463,94.38668
"45964",626.0398,86.261086,94.92765
"45965",626.053,86.21713,95.07935
"45966",626.0664,85.858246,94.91475
"45967",626.0796,85.296715,94.536285
"45968",626.093,84.6424,94.04749
"45969",626.1062,83.99542,93.545586
"45970",626.1196,83.41924,93.09426
"45971",626.1328,82.948044,92.72991
"45972",626.14624,82.57694,92.450935
"45973",626.1594,82.27909,92.23361
"45974",626.17285,82.01541,92.04115
"45975",626.18604,81.75662,91.845345
"45976",626.19946,81.495384,91.639
"45977",626.21265,81.23903,91.429375
"45978",626.2261,81.01442,91.243484
"45979",626.23926,80.84596,91.10673
"45980",626.2527,80.73365,91.02085
"45981",626.26587,80.66529,90.97542
"45982",626.2793,80.61402,90.94494
"45983",626.2925,80.550545,90.90065
"45984",626.3059,80.445564,90.812874
"45985",626.3191,80.28443,90.665665
"45986",626.3325,80.062256,90.45238
"45987",626.3457,79.77905,90.17112
"45988",626.35913,79.449455,89.83462
"45989",626.3723,79.08812,89.45608
"45990",626.38574,78.70237,89.04183
"45991",626.3989,78.311745,88.61066
"45992",626.41235,77.93088,88.17703
"45993",626.42554,77.574425,87.75592
"45994",626.43896,77.2546,87.3603
"45995",626.45215,76.981155,87.00106
"45996",626.4656,76.76387,86.68944
"45997",626.47876,76.59785,86.42229
"45998",626.4922,76.4831,86.201225
"45999",626.5054,76.40742,86.01564
"46000",626.5188,76.36591,85.86187
"46001",626.532,76.34638,85.728775
"46002",626.5454,76.3415,85.60972
"46003",626.5586,76.33906,85.49295
"46004",626.572,76.351265,85.390755
"46005",626.5852,76.387886,85.313354
"46006",626.59863,76.45136,85.263954
"46007",626.6118,76.544136,85.245834
"46008",626.62524,76.67353,85.267235
"46009",626.6384,76.824905,85.31466
"46010",626.65186,76.981155,85.37169
"46011",626.66504,77.13008,85.42628
"46012",626.67847,77.26925,85.47576
"46013",626.69165,77.37911,85.50029
"46014",626.7051,77.44503,85.48431
"46015",626.71826,77.454796,85.41423
"46016",626.7317,77.41085,85.29075
"46017",626.7449,77.32052,85.11951
"46018",626.7583,77.21553,84.930786
"46019",626.7715,77.18135,84.80959
"46020",626.7849,77.330284,84.870445
"46021",626.7981,77.78439,85.24113
"46022",626.8115,78.61692,86.00442
"46023",626.8247,79.82788,87.17216
"46024",626.83813,81.31472,88.65362
"46025",626.8513,82.9041,90.28408
"46026",626.86475,84.38361,91.85435
"46027",626.8779,85.57992,93.18764
"46028",626.89136,86.380714,94.1628
"46029",626.90454,86.74937,94.73085
"46030",626.91797,86.72495,94.91735
"46031",626.93115,86.37827,94.78082
"46032",626.9446,85.8143,94.41617
"46033",626.95776,85.1429,93.92646
"46034",626.9712,84.456856,93.40113
"46035",626.9844,83.81964,92.90319
"46036",626.9978,83.267876,92.47079
"46037",627.011,82.804,92.10903
"46038",627.0244,82.41093,91.80358
"46039",627.0376,82.05936,91.52735
"46040",627.051,81.73464,91.26699
"46041",627.0642,81.43191,91.01846
"46042",627.07764,81.163345,90.79465
"46043",627.0908,80.955826,90.62348
"46044",627.10425,80.81911,90.51663
"46045",627.11743,80.75075,90.47387
"46046",627.13086,80.72877,90.47535
"46047",627.14404,80.72877,90.49812
"46048",627.1575,80.71168,90.50381
"46049",627.17065,80.655525,90.469894
"46050",627.1841,80.54078,90.37563
"46051",627.19727,80.35279,90.204544
"46052",627.2107,80.09888,89.961655
"46053",627.2239,79.78882,89.654686
"46054",627.2373,79.449455,89.30872
"46055",627.2505,79.09056,88.932625
"46056",627.2639,78.73899,88.552635
"46057",627.2771,78.40208,88.176315
"46058",627.2905,78.09445,87.818756
"46059",627.3037,77.823456,87.48821
"46060",627.31714,77.593956,87.1907
"46061",627.3303,77.40841,86.92996
"46062",627.34375,77.264366,86.70493
"46063",627.35693,77.15694,86.51202
"46064",627.37036,77.086136,86.35237
"46065",627.38354,77.04463,86.21981
"46066",627.397,77.03731,86.12013
"46067",627.41016,77.05684,86.04708
"46068",627.4236,77.09346,85.99173
"46069",627.43677,77.134964,85.942406
"46070",627.4502,77.16914,85.887054
"46071",627.4634,77.19356,85.823006
"46072",627.4768,77.20332,85.74507
"46073",627.49,77.19844,85.652794
"46074",627.5034,77.18379,85.5506
"46075",627.5166,77.16182,85.44062
"46076",627.53,77.14717,85.33728
"46077",627.5432,77.17403,85.27499
"46078",627.55664,77.32296,85.33561
"46079",627.5698,77.69894,85.62793
"46080",627.58325,78.380104,86.23719
"46081",627.59644,79.395744,87.20221
"46082",627.60986,80.689705,88.47729
"46083",627.62305,82.13748,89.94662
"46084",627.6365,83.546196,91.42213
"46085",627.64966,84.73762,92.724365
"46086",627.6631,85.58236,93.717155
"46087",627.6763,86.02182,94.33106
"46088",627.6897,86.06088,94.558304
"46089",627.7029,85.76059,94.44741
"46090",627.7163,85.22591,94.09274
"46091",627.7295,84.55451,93.584656
"46092",627.7429,83.844055,93.016525
"46093",627.7561,83.16533,92.457924
"46094",627.76953,82.55497,91.94648
"46095",627.7827,82.020294,91.491646
"46096",627.79614,81.55398,91.08846
"46097",627.8093,81.146255,90.7293
"46098",627.82275,80.79469,90.41356
"46099",627.83594,80.51392,90.15762
"46100",627.84937,80.32105,89.98081
"46101",627.86255,80.23071,89.900505
"46102",627.876,80.24536,89.92236
"46103",627.88916,80.343025,90.027695
"46104",627.9026,80.48463,90.180016
"46105",627.9158,80.63111,90.341644
"46106",627.9292,80.73365,90.463905
"46107",627.9424,80.762955,90.516136
"46108",627.9558,80.69947,90.476494
"46109",627.969,80.54078,90.33966
"46110",627.9824,80.289314,90.105095
"46111",627.9956,79.9646,89.78942
"46112",628.00903,79.5935,89.41721
"46113",628.0222,79.20531,89.01632
"46114",628.03564,78.81712,88.6033
"46115",628.0488,78.44602,88.19524
"46116",628.06226,78.11154,87.812195
"46117",628.07544,77.81857,87.46021
"46118",628.08887,77.5671,87.14057
"46119",628.10205,77.3547,86.85214
"46120",628.1155,77.18379,86.59857
"46121",628.12866,77.051956,86.37873
"46122",628.1421,76.9543,86.18895
"46123",628.1553,76.89082,86.0303
"46124",628.1687,76.85664,85.89896
"46125",628.1819,76.85176,85.795845
"46126",628.1953,76.859085,85.70479
"46127",628.2085,76.87862,85.62617
"46128",628.2219,76.90547,85.55548
"46129",628.2351,76.93233,85.485634
"46130",628.24854,76.95186,85.4093
"46131",628.2617,76.97139,85.33358
"46132",628.27515,77.00557,85.27312
"46133",628.2883,77.103226,85.2772
"46134",628.30176,77.36446,85.447914
"46135",628.31494,77.90402,85.90511
"46136",628.32837,78.79515,86.73074
"46137",628.34155,80.04028,87.938225
"46138",628.355,81.56374,89.462944
"46139",628.36816,83.19707,91.145134
"46140",628.3816,84.73762,92.78559
"46141",628.3948,86.00229,94.19831
"46142",628.4082,86.871445,95.255035
"46143",628.4214,87.293816,95.892136
"46144",628.4348,87.29626,96.12251
"46145",628.448,86.94957,96.00383
"46146",628.4614,86.35874,95.63017
"46147",628.4746,85.63851,95.10865
"46148",628.48804,84.89632,94.542656
"46149",628.5012,84.20538,94.00473
"46150",628.51465,83.612114,93.54288
"46151",628.52783,83.11406,93.1577
"46152",628.54126,82.69413,92.83508
"46153",628.55444,82.32792,92.55306
"46154",628.5679,81.988556,92.286446
"46155",628.58105,81.67361,92.03364
"46156",628.5945,81.39529,91.80762
"46157",628.60767,81.17799,91.63393
"46158",628.6211,81.03395,91.526695
"46159",628.6343,80.96071,91.48576
"46160",628.6477,80.936295,91.49137
"46161",628.6609,80.92409,91.50842
"46162",628.6743,80.89723,91.510445
"46163",628.6875,80.82887,91.47012
"46164",628.7009,80.70435,91.371506
"46165",628.7141,80.50904,91.198204
"46166",628.72754,80.24536,90.95043
"46167",628.7407,79.92554,90.638275
"46168",628.75415,79.55932,90.26973
"46169",628.76733,79.168686,89.865326
"46170",628.78076,78.77074,89.4414
"46171",628.79395,78.38743,89.01968
"46172",628.8074,78.02609,88.60795
"46173",628.82056,77.696495,88.21667
"46174",628.834,77.40353,87.851715
"46175",628.84717,77.152054,87.519104
"46176",628.8606,76.93477,87.21282
"46177",628.8738,76.75899,86.94125
"46178",628.8872,76.61982,86.700806
"46179",628.9004,76.507515,86.48287
"46180",628.9138,76.42451,86.290726
"46181",628.927,76.3708,86.12528
"46182",628.9404,76.33906,85.98013
"46183",628.9536,76.33173,85.858406
"46184",628.96704,76.3415,85.75354
"46185",628.9802,76.36103,85.658745
"46186",628.99365,76.38056,85.56456
"46187",629.00684,76.40009,85.470985
"46188",629.02026,76.40742,85.365814
"46189",629.03345,76.40742,85.25355
"46190",629.0469,76.39765,85.131516
"46191",629.06006,76.37812,84.99941
"46192",629.0735,76.351265,84.859375
"46193",629.0867,76.32929,84.72338
"46194",629.1001,76.334175,84.613556
"46195",629.1133,76.4416,84.60642
"46196",629.1267,76.76387,84.8175
"46197",629.1399,77.41329,85.36579
"46198",629.1533,78.44358,86.31525
"46199",629.1665,79.835205,87.65823
"46200",629.17993,81.47341,89.29129
"46201",629.1931,83.16533,91.02925
"46202",629.20654,84.70588,92.66872
"46203",629.2197,85.91684,94.02673
"46204",629.23315,86.70542,95.00021
"46205",629.24634,87.04234,95.54668
"46206",629.25977,86.97154,95.695946
"46207",629.27295,86.573586,95.51585
"46208",629.2864,85.96811,95.11579
"46209",629.29956,85.26742,94.6016
"46210",629.313,84.56672,94.065506
"46211",629.3262,83.93439,93.57588
"46212",629.3396,83.40215,93.166595
"46213",629.3528,82.967575,92.83833
"46214",629.3662,82.60624,92.56973
"46215",629.3794,82.28397,92.32891
"46216",629.3928,81.97391,92.09022
"46217",629.406,81.67605,91.85404
"46218",629.41943,81.39773,91.6281
"46219",629.4326,81.160904,91.43495
"46220",629.44604,80.98512,91.29545
"46221",629.4592,80.867935,91.209045
"46222",629.47266,80.797134,91.16537
"46223",629.48584,80.75319,91.14633
"46224",629.49927,80.70435,91.12103
"46225",629.51245,80.61646,91.05515
"46226",629.5259,80.47242,90.930374
"46227",629.53906,80.26246,90.735176
"46228",629.5525,79.98657,90.46749
"46229",629.5657,79.65453,90.13503
"46230",629.5791,79.28832,89.758026
"46231",629.5923,78.9099,89.35736
"46232",629.6057,78.538795,88.952194
"46233",629.6189,78.1799,88.54764
"46234",629.6323,77.85031,88.16117
"46235",629.6455,77.55245,87.796135
"46236",629.65894,77.29122,87.45842
"46237",629.6721,77.05928,87.14183
"46238",629.68555,76.86641,86.85706
"46239",629.6987,76.70771,86.60044
"46240",629.71216,76.5832,86.37305
"46241",629.72534,76.49287,86.17594
"46242",629.7388,76.43183,86.00531
"46243",629.75195,76.39033,85.8523
"46244",629.7654,76.368355,85.71753
"46245",629.77856,76.35859,85.59428
"46246",629.792,76.36103,85.482925
"46247",629.8052,76.36347,85.37165
"46248",629.8186,76.37568,85.27022
"46249",629.8318,76.39033,85.17161
"46250",629.8452,76.40742,85.0759
"46251",629.8584,76.41718,84.9734
"46252",629.8718,76.42451,84.86876
"46253",629.885,76.42695,84.75947
"46254",629.89844,76.42451,84.64537
"46255",629.9116,76.40986,84.51899
"46256",629.92505,76.39277,84.38971
"46257",629.93823,76.37324,84.257454
"46258",629.95166,76.34638,84.11726
"46259",629.96484,76.334175,83.99088
"46260",629.9783,76.383,83.925156
"46261",629.99146,76.58564,84.01476
"46262",630.0049,77.05684,84.379265
"46263",630.01807,77.874725,85.10518
"46264",630.0315,79.05394,86.21798
"46265",630.0447,80.52125,87.65572
"46266",630.0581,82.127716,89.27848
"46267",630.0713,83.67315,90.8904
"46268",630.0847,84.972,92.30404
"46269",630.0979,85.90463,93.392044
"46270",630.1113,86.41978,94.091705
"46271",630.1245,86.51743,94.38998
"46272",630.13794,86.27085,94.34706
"46273",630.1511,85.77768,94.04985
"46274",630.16455,85.1429,93.59562
"46275",630.17773,84.46418,93.077614
"46276",630.19116,83.82208,92.57502
"46277",630.20435,83.25811,92.130486
"46278",630.2178,82.78447,91.75866
"46279",630.23096,82.39384,91.45504
"46280",630.2444,82.0618,91.19781
"46281",630.25757,81.77127,90.97171
"46282",630.271,81.52712,90.78291
"46283",630.2842,81.33181,90.63532
"46284",630.2976,81.20485,90.54998
"46285",630.3108,81.15846,90.541245
"46286",630.3242,81.18288,90.60186
"46287",630.3374,81.25613,90.712074
"46288",630.3508,81.341576,90.83678
"46289",630.364,81.40261,90.939735
"46290",630.37744,81.40261,90.98357
"46291",630.3906,81.324486,90.94927
"46292",630.40405,81.15602,90.8222
"46293",630.41724,80.90456,90.60686
"46294",630.43066,80.587166,90.31773
"46295",630.44385,80.22827,89.97719
"46296",630.4573,79.84497,89.60102
"46297",630.47046,79.4641,89.21531
"46298",630.4839,79.10033,88.834785
"46299",630.4971,78.76097,88.467316
"46300",630.5105,78.46067,88.128296
"46301",630.5237,78.20187,87.821396
"46302",630.5371,77.979706,87.54304
"46303",630.5503,77.79172,87.291916
"46304",630.5637,77.6379,87.06909
"46305",630.5769,77.51339,86.870766
"46306",630.59033,77.41573,86.695404
"46307",630.6035,77.34493,86.543846
"46308",630.61694,77.30343,86.41937
"46309",630.6301,77.28634,86.318016
"46310",630.64355,77.2839,86.230774
"46311",630.65674,77.296104,86.158104
"46312",630.67017,77.30831,86.085815
"46313",630.68335,77.313194,86.006584
"46314",630.6968,77.31075,85.92018
"46315",630.70996,77.29366,85.81905
"46316",630.7234,77.26681,85.70763
"46317",630.7366,77.23262,85.58803
"46318",630.75,77.19844,85.46737
"46319",630.7632,77.19112,85.3725
"46320",630.7766,77.26681,85.36041
"46321",630.7898,77.52071,85.52891
"46322",630.8032,78.05295,85.983665
"46323",630.8164,78.91478,86.78465
"46324",630.82983,80.09155,87.92751
"46325",630.843,81.4905,89.32932
"46326",630.85645,82.9456,90.831
"46327",630.8696,84.26887,92.246315
"46328",630.88306,85.31136,93.42221
"46329",630.89624,85.97299,94.24982
"46330",630.90967,86.236664,94.70014
"46331",630.92285,86.14145,94.79982
"46332",630.9363,85.75815,94.60844
"46333",630.94946,85.186844,94.21707
"46334",630.9629,84.53254,93.72485
"46335",630.9761,83.87335,93.207306
"46336",630.9895,83.27032,92.72531
"46337",631.0027,82.75029,92.30748
"46338",631.0161,82.31083,91.953964
"46339",631.0293,81.934845,91.65019
"46340",631.0427,81.60525,91.38106
"46341",631.0559,81.31716,91.143135
"46342",631.06934,81.08278,90.94991
"46343",631.0825,80.91676,90.81773
"46344",631.09595,80.82643,90.75605
"46345",631.10913,80.81178,90.76723
"46346",631.12256,80.85573,90.83654
"46347",631.13574,80.919205,90.92676
"46348",631.1492,80.970474,91.00675
"46349",631.16235,80.98268,91.049286
"46350",631.1758,80.92897,91.02628
"46351",631.18896,80.797134,90.92348
"46352",631.2024,80.58961,90.74086
"46353",631.2156,80.31617,90.48585
"46354",631.229,79.9939,90.173454
"46355",631.2422,79.64233,89.82169
"46356",631.2556,79.281,89.44919
"46357",631.2688,78.922104,89.067825
"46358",631.2822,78.5803,88.69234
"46359",631.2954,78.2678,88.33547
"46360",631.30884,77.99191,88.005455
"46361",631.322,77.75754,87.70833
"46362",631.33545,77.56466,87.44537
"46363",631.34863,77.40841,87.21302
"46364",631.36206,77.28634,87.009964
"46365",631.37524,77.19356,86.83238
"46366",631.3887,77.1252,86.67632
"46367",631.40186,77.07637,86.53766
"46368",631.4153,77.04463,86.41456
"46369",631.42847,77.02998,86.307556
"46370",631.4419,77.02998,86.214745
"46371",631.4551,77.04219,86.13414
"46372",631.4685,77.06172,86.06124
"46373",631.4817,77.08125,85.98895
"46374",631.4951,77.100784,85.917274
"46375",631.5083,77.11055,85.83644
"46376",631.5217,77.11055,85.74615
"46377",631.5349,77.100784,85.64609
"46378",631.54834,77.07637,85.531075
"46379",631.5615,77.03731,85.40065
"46380",631.57495,76.995804,85.26656
"46381",631.58813,76.981155,85.158035
"46382",631.60156,77.0544,85.13694
"46383",631.61475,77.32784,85.31834
"46384",631.6282,77.908905,85.815895
"46385",631.64136,78.86595,86.707596
"46386",631.6548,80.181885,87.98809
"46387",631.66797,81.761505,89.573395
"46388",631.6814,83.42901,91.295944
"46389",631.6946,84.97444,92.94853
"46390",631.708,86.2269,94.35644
"46391",631.7212,87.078964,95.40309
"46392",631.7346,87.49645,96.041794
"46393",631.7478,87.50378,96.28339
"46394",631.7612,87.183945,96.198044
"46395",631.7744,86.63706,95.875656
"46396",631.78784,85.97543,95.42143
"46397",631.801,85.296715,94.92944
"46398",631.81445,84.67658,94.47483
"46399",631.82764,84.14435,94.08874
"46400",631.84106,83.70733,93.78123
"46401",631.85425,83.34356,93.53331
"46402",631.8677,83.02373,93.31796
"46403",631.88086,82.72831,93.117035
"46404",631.8943,82.44999,92.92397
"46405",631.9075,82.196075,92.74662
"46406",631.9209,81.986115,92.605286
"46407",631.9341,81.82742,92.50866
"46408",631.9475,81.71267,92.45101
"46409",631.9607,81.634544,92.42641
"46410",631.9741,81.566185,92.40913
"46411",631.9873,81.48806,92.379944
"46412",632.00073,81.375755,92.31414
"46413",632.0139,81.214615,92.19599
"46414",632.02734,80.990005,92.00934
"46415",632.0405,80.706795,91.757065
"46416",632.05396,80.36744,91.4398
"46417",632.06714,79.98901,91.07285
"46418",632.08057,79.588615,90.67211
"46419",632.09375,79.183334,90.253975
"46420",632.1072,78.79271,89.83783
"46421",632.12036,78.41917,89.42656
"46422",632.1338,78.082245,89.04024
"46423",632.147,77.786835,88.6849
"46424",632.1604,77.53292,88.361824
"46425",632.1736,77.32052,88.07233
"46426",632.187,77.14717,87.81525
"46427",632.2002,77.01289,87.59182
"46428",632.2136,76.912796,87.39838
"46429",632.2268,76.841995,87.2311
"46430",632.24023,76.79561,87.08603
"46431",632.2534,76.76387,86.954155
"46432",632.26685,76.73945,86.828606
"46433",632.28,76.72236,86.709625
"46434",632.29346,76.71015,86.59499
"46435",632.30664,76.70283,86.48486
"46436",632.32007,76.697945,86.376945
"46437",632.33325,76.697945,86.27376
"46438",632.3467,76.6955,86.16813
"46439",632.35986,76.68574,86.0551
"46440",632.3733,76.66865,85.93444
"46441",632.3865,76.64179,85.80348
"46442",632.3999,76.60761,85.66436
"46443",632.4131,76.56367,85.514404
"46444",632.4265,76.50996,85.35331
"46445",632.4397,76.453804,85.188095
"46446",632.4531,76.4123,85.035774
"46447",632.4663,76.42939,84.94075
"46448",632.47974,76.59785,84.99763
"46449",632.4929,77.04219,85.335655
"46450",632.50635,77.85031,86.051346
"46451",632.51953,79.0515,87.185356
"46452",632.53296,80.58961,88.693825
"46453",632.54614,82.31571,90.438354
"46454",632.5596,84.01495,92.20996
"46455",632.57275,85.489586,93.81006
"46456",632.5862,86.590675,95.082695
"46457",632.59937,87.24742,95.9454
"46458",632.6128,87.45495,96.3794
"46459",632.626,87.27184,96.42926
"46460",632.6394,86.79332,96.17798
"46461",632.6526,86.13168,95.72863
"46462",632.666,85.401695,95.190254
"46463",632.6792,84.69611,94.65347
"46464",632.6926,84.07355,94.17766
"46465",632.7058,83.55352,93.78493
"46466",632.71924,83.12138,93.46384
"46467",632.7324,82.75517,93.19517
"46468",632.74585,82.42069,92.946785
"46469",632.75903,82.11551,92.71725
"46470",632.77246,81.84451,92.51236
"46471",632.78564,81.62722,92.35271
"46472",632.7991,81.47585,92.25219
"46473",632.81226,81.38796,92.21042
"46474",632.8257,81.34646,92.21229
"46475",632.83887,81.324486,92.23239
"46476",632.8523,81.29275,92.24204
"46477",632.8655,81.22194,92.21163
"46478",632.8789,81.094986,92.12286
"46479",632.8921,80.89479,91.95689
"46480",632.9055,80.621346,91.7114
"46481",632.9187,80.28443,91.393906
"46482",632.9321,79.903564,91.02193
"46483",632.9453,79.49584,90.61119
"46484",632.95874,79.08568,90.18527
"46485",632.9719,78.695045,89.76607
"46486",632.98535,78.33372,89.36396
"46487",632.99854,78.00168,88.97985
"46488",633.01196,77.713585,88.62931
"46489",633.02515,77.46456,88.30884
"46490",633.0386,77.2546,88.019646
"46491",633.05176,77.08858,87.76783
"46492",633.0652,76.95918,87.547455
"46493",633.07837,76.86641,87.35966
"46494",633.0918,76.805374,87.2007
"46495",633.105,76.771194,87.06669
"46496",633.1184,76.754105,86.9487
"46497",633.1316,76.75166,86.844826
"46498",633.145,76.754105,86.74576
"46499",633.1582,76.76631,86.65653
"46500",633.17163,76.78096,86.57013
"46501",633.1848,76.79561,86.484184
"46502",633.19824,76.81026,86.3987
"46503",633.2114,76.82735,86.31611
"46504",633.22485,76.83711,86.22673
"46505",633.23804,76.83223,86.12301
"46506",633.25146,76.81514,86.00693
"46507",633.26465,76.78096,85.87322
"46508",633.2781,76.72724,85.71891
"46509",633.29126,76.66865,85.558044
"46510",633.3047,76.61494,85.40023
"46511",633.3179,76.60761,85.287125
"46512",633.3313,76.71259,85.286095
"46513",633.3445,77.04219,85.51296
"46514",633.3579,77.696495,86.07484
"46515",633.3711,78.72678,87.03314
"46516",633.3845,80.10376,88.37033
"46517",633.3977,81.7029,89.97272
"46518",633.41113,83.34112,91.66415
"46519",633.4243,84.79866,93.2261
"46520",633.43774,85.909515,94.48691
"46521",633.4509,86.590675,95.35274
"46522",633.46436,86.820175,95.78819
"46523",633.47754,86.641945,95.82309
"46524",633.49097,86.14877,95.537476
"46525",633.50415,85.45541,95.036255
"46526",633.5176,84.67902,94.43035
"46527",633.53076,83.90021,93.79775
"46528",633.5442,83.1873,93.206726
"46529",633.5574,82.56718,92.6862
"46530",633.5708,82.03494,92.23419
"46531",633.584,81.57351,91.83635
"46532",633.5974,81.18288,91.49489
"46533",633.6106,80.86305,91.21203
"46534",633.624,80.63111,91.00706
"46535",633.6372,80.5066,90.90227
"46536",633.65063,80.49439,90.90589
"46537",633.6638,80.57496,91.00191
"46538",633.67725,80.709236,91.15415
"46539",633.6904,80.85329,91.320366
"46540",633.70386,80.96071,91.45445
"46541",633.71704,80.99245,91.51621
"46542",633.73047,80.92653,91.48131
"46543",633.74365,80.762955,91.34669
"46544",633.7571,80.50172,91.10929
"46545",633.77026,80.15991,90.783165
"46546",633.7837,79.77173,90.39998
"46547",633.7969,79.361565,89.98268
"46548",633.8103,78.94652,89.54768
"46549",633.8235,78.54612,89.114365
"46550",633.8369,78.17502,88.69783
"46551",633.8501,77.85031,88.31609
"46552",633.8635,77.56954,87.96815
"46553",633.8767,77.33517,87.65782
"46554",633.89014,77.14717,87.38655
"46555",633.9033,76.99336,87.14359
"46556",633.91675,76.87373,86.93001
"46557",633.92993,76.7834,86.74198
"46558",633.94336,76.7248,86.58286
"46559",633.95654,76.6955,86.45122
"46560",633.97,76.69306,86.34551
"46561",633.98315,76.71015,86.25926
"46562",633.9966,76.74189,86.188194
"46563",634.00977,76.7834,86.12789
"46564",634.0232,76.82979,86.07376
"46565",634.0364,76.876175,86.02108
"46566",634.0498,76.91768,85.964966
"46567",634.063,76.94942,85.90038
"46568",634.0764,76.96651,85.82214
"46569",634.0896,76.964066,85.72491
"46570",634.103,76.94209,85.60806
"46571",634.1162,76.90303,85.47344
"46572",634.12964,76.85176,85.32539
"46573",634.1428,76.8127,85.18795
"46574",634.15625,76.84688,85.12253
"46575",634.16943,77.049515,85.22663
"46576",634.18286,77.54269,85.6276
"46577",634.19604,78.41917,86.42729
"46578",634.2095,79.70336,87.66209
"46579",634.22266,81.3196,89.26906
"46580",634.2361,83.10918,91.09987
"46581",634.24927,84.842606,92.93046
"46582",634.2627,86.3148,94.55398
"46583",634.2759,87.37438,95.8109
"46584",634.2893,87.94812,96.61508
"46585",634.3025,88.04089,96.95624
"46586",634.3159,87.73083,96.897446
"46587",634.3291,87.12535,96.533554
"46588",634.3425,86.35142,95.982285
"46589",634.3557,85.523766,95.35311
"46590",634.36914,84.7425,94.74446
"46591",634.3823,84.05646,94.20662
"46592",634.39575,83.4876,93.76453
"46593",634.40894,83.018845,93.404755
"46594",634.42236,82.62089,93.101135
"46595",634.43555,82.269325,92.831474
"46596",634.449,81.95438,92.58744
"46597",634.46216,81.68093,92.37507
"46598",634.4756,81.46853,92.215195
"46599",634.4888,81.33425,92.12681
"46600",634.5022,81.27566,92.10991
"46601",634.5154,81.270775,92.14489
"46602",634.5288,81.287865,92.20169
"46603",634.542,81.287865,92.241936
"46604",634.5554,81.231705,92.22602
"46605",634.5686,81.09743,92.13023
"46606",634.58203,80.87526,91.94236
"46607",634.5952,80.57252,91.66697
"46608",634.60864,80.2063,91.31864
"46609",634.6218,79.79126,90.91005
"46610",634.63525,79.35424,90.46651
"46611",634.64844,78.91478,90.00687
"46612",634.66187,78.48997,89.54814
"46613",634.67505,78.09445,89.10544
"46614",634.6885,77.747765,88.6992
"46615",634.70166,77.44747,88.32853
"46616",634.7151,77.19112,87.99241
"46617",634.7283,76.981155,87.69467
"46618",634.7417,76.8127,87.43188
"46619",634.7549,76.67841,87.19799
"46620",634.7683,76.575874,86.99165
"46621",634.7815,76.507515,86.81629
"46622",634.7949,76.46845,86.66809
"46623",634.8081,76.453804,86.54308
"46624",634.82153,76.45869,86.43715
"46625",634.8347,76.47822,86.346016
"46626",634.84814,76.50019,86.257935
"46627",634.8613,76.524605,86.17298
"46628",634.87476,76.54902,86.08879
"46629",634.88794,76.56611,85.99804
"46630",634.90137,76.58076,85.90538
"46631",634.91455,76.592964,85.81074
"46632",634.928,76.59785,85.70915
"46633",634.94116,76.59785,85.60284
"46634",634.9546,76.59052,85.4892
"46635",634.9678,76.57099,85.36312
"46636",634.9812,76.544136,85.22911
"46637",634.9944,76.507515,85.084496
"46638",635.0078,76.46845,84.936295
"46639",635.021,76.42939,84.78687
"46640",635.0344,76.402534,84.64844
"46641",635.0476,76.42939,84.562874
"46642",635.06104,76.59785,84.61975
"46643",635.0742,77.02754,84.94313
"46644",635.08765,77.83322,85.65592
"46645",635.1008,79.07347,86.82846
"46646",635.11426,80.706795,88.43283
"46647",635.12744,82.58671,90.33483
"46648",635.14087,84.491035,92.31999
"46649",635.15405,86.185394,94.15469
"46650",635.1675,87.484245,95.646835
"46651",635.18066,88.28016,96.676636
"46652",635.1941,88.55848,97.213715
"46653",635.2073,88.37293,97.29562
"46654",635.2207,87.82605,97.01039
"46655",635.2339,87.05455,96.48346
"46656",635.2473,86.187836,95.8372
"46657",635.2605,85.33578,95.178505
"46658",635.2739,84.57404,94.58351
"46659",635.2871,83.931946,94.08435
"46660",635.30054,83.41192,93.687195
"46661",635.3137,82.98222,93.36412
"46662",635.32715,82.61356,93.08865
"46663",635.34033,82.28153,92.838295
"46664",635.35376,81.98123,92.60929
"46665",635.36694,81.72488,92.41485
"46666",635.3804,81.529564,92.27344
"46667",635.39355,81.40017,92.19184
"46668",635.407,81.32693,92.16235
"46669",635.42017,81.290306,92.1672
"46670",635.4336,81.25857,92.17578
"46671",635.4468,81.19508,92.15163
"46672",635.4602,81.07057,92.06446
"46673",635.4734,80.87526,91.9026
"46674",635.4868,80.59937,91.65407
"46675",635.5,80.257576,91.331
"46676",635.5134,79.85718,90.93865
"46677",635.5266,79.429924,90.506935
"46678",635.54004,78.995346,90.05454
"46679",635.5532,78.56809,89.595894
"46680",635.56665,78.167694,89.15075
"46681",635.57983,77.80148,88.72728
"46682",635.59326,77.47433,88.33142
"46683",635.60645,77.196,87.97417
"46684",635.6199,76.95918,87.64973
"46685",635.63306,76.76631,87.36183
"46686",635.6465,76.61738,87.11185
"46687",635.65967,76.50507,86.89384
"46688",635.6731,76.42451,86.704056
"46689",635.6863,76.37324,86.54105
"46690",635.6997,76.34394,86.39842
"46691",635.7129,76.334175,86.27441
"46692",635.7263,76.33906,86.164734
"46693",635.7395,76.35615,86.06742
"46694",635.7529,76.37568,85.97308
"46695",635.7661,76.39765,85.8818
"46696",635.77954,76.41718,85.78876
"46697",635.7927,76.43427,85.693886
"46698",635.80615,76.44404,85.592224
"46699",635.81934,76.453804,85.49087
"46700",635.83276,76.453804,85.38005
"46701",635.84595,76.44892,85.26435
"46702",635.8594,76.43427,85.13873
"46703",635.87256,76.41474,85.007774
"46704",635.886,76.387886,84.86888
"46705",635.8992,76.35859,84.72671
"46706",635.9126,76.32685,84.58118
"46707",635.9258,76.297554,84.437096
"46708",635.9392,76.27802,84.301865
"46709",635.9524,76.29267,84.2002
"46710",635.9658,76.42939,84.22107
"46711",635.979,76.80293,84.48303
"46712",635.99243,77.52804,85.10823
"46713",636.0056,78.67307,86.17602
"46714",636.01904,80.216064,87.67754
"46715",636.0322,82.022736,89.49097
"46716",636.04565,83.88312,91.41456
"46717",636.05884,85.56527,93.218056
"46718",636.07227,86.873886,94.700584
"46719",636.08545,87.70153,95.743034
"46720",636.0989,88.02136,96.30354
"46721",636.11206,87.87976,96.41261
"46722",636.1255,87.37438,96.15347
"46723",636.1387,86.624855,95.6344
"46724",636.1521,85.75815,94.97472
"46725",636.1653,84.88411,94.28062
"46726",636.1787,84.07355,93.62268
"46727",636.1919,83.372856,93.049286
"46728",636.2053,82.78691,92.56874
"46729",636.2185,82.29618,92.1651
"46730",636.23193,81.883575,91.82425
"46731",636.2451,81.53445,91.53398
"46732",636.25854,81.25124,91.29873
"46733",636.2717,81.05104,91.13763
"46734",636.28516,80.94118,91.06061
"46735",636.29834,80.92409,91.07293
"46736",636.31177,80.98024,91.15796
"46737",636.32495,81.06813,91.27648
"46738",636.3384,81.15114,91.39287
"46739",636.35156,81.19264,91.470345
"46740",636.365,81.15602,91.47099
"46741",636.3782,81.02907,91.380165
"46742",636.3916,80.799576,91.18283
"46743",636.4048,80.48707,90.89531
"46744",636.4182,80.10864,90.532104
"46745",636.4314,79.68627,90.11313
"46746",636.4448,79.25414,89.671196
"46747",636.458,78.836655,89.2304
"46748",636.47144,78.44358,88.80097
"46749",636.4846,78.08713,88.39588
"46750",636.49805,77.77219,88.021164
"46751",636.5112,77.503624,87.68298
"46752",636.52466,77.27657,87.37792
"46753",636.53784,77.09102,87.10726
"46754",636.5513,76.946976,86.872314
"46755",636.56445,76.841995,86.67193
"46756",636.5779,76.771194,86.50244
"46757",636.59106,76.732124,86.36247
"46758",636.6045,76.71992,86.248146
"46759",636.6177,76.7248,86.15053
"46760",636.6311,76.74189,86.06527
"46761",636.6443,76.773636,85.9952
"46762",636.6577,76.81514,85.93588
"46763",636.6709,76.86153,85.882744
"46764",636.6843,76.90791,85.831055
"46765",636.6975,76.95186,85.77837
"46766",636.71094,76.9836,85.71486
"46767",636.7241,76.995804,85.632805
"46768",636.73755,76.98604,85.52916
"46769",636.75073,76.95918,85.40812
"46770",636.76416,76.91524,85.26915
"46771",636.77734,76.86397,85.12148
"46772",636.7908,76.824905,84.98442
"46773",636.80396,76.84444,84.90473
"46774",636.8174,77.01289,84.97458
"46775",636.83057,77.44991,85.31825
"46776",636.844,78.25071,86.03936
"46777",636.8572,79.44457,87.17856
"46778",636.8706,80.9778,88.69443
"46779",636.8838,82.69413,90.441315
"46780",636.8972,84.37873,92.210106
"46781",636.9104,85.80942,93.777626
"46782",636.9238,86.83971,94.989456
"46783",636.937,87.39391,95.7574
"46784",636.95044,87.464714,96.059265
"46785",636.9636,87.12535,95.95317
"46786",636.97705,86.48814,95.53862
"46787",636.99023,85.67513,94.92837
"46788",637.00366,84.79622,94.2268
"46789",637.01685,83.946594,93.527054
"46790",637.0303,83.18486,92.88865
"46791",637.04346,82.530556,92.33387
"46792",637.0569,81.97635,91.85874
"46793",637.07007,81.512474,91.45663
"46794",637.0835,81.126724,91.11814
"46795",637.0967,80.82155,90.848175
"46796",637.1101,80.61646,90.66876
"46797",637.1233,80.52369,90.59525
"46798",637.1367,80.54322,90.63115
"46799",637.1499,80.655525,90.76043
"46800",637.1633,80.81911,90.944496
"46801",637.1765,80.9778,91.128784
"46802",637.18994,81.092545,91.274086
"46803",637.2031,81.12184,91.337524
"46804",637.21655,81.041275,91.292015
"46805",637.22974,80.848404,91.13168
"46806",637.24316,80.552986,90.86278
"46807",637.25635,80.177,90.504074
"46808",637.2698,79.74975,90.08235
"46809",637.28296,79.30053,89.62531
"46810",637.2964,78.856186,89.15911
"46811",637.3096,78.44114,88.70832
"46812",637.323,78.065155,88.28362
"46813",637.3362,77.73556,87.89356
"46814",637.3496,77.45968,87.54692
"46815",637.3628,77.2375,87.24536
"46816",637.3762,77.05684,86.97837
"46817",637.3894,76.91768,86.74724
"46818",637.40283,76.81758,86.55082
"46819",637.416,76.756546,86.390335
"46820",637.42944,76.7248,86.25723
"46821",637.4426,76.717476,86.14756
"46822",637.45605,76.73701,86.064514
"46823",637.46924,76.771194,85.996735
"46824",637.48267,76.81758,85.94222
"46825",637.49585,76.86397,85.88916
"46826",637.5093,76.91524,85.84243
"46827",637.52246,76.9543,85.785095
"46828",637.5359,76.9836,85.719215
"46829",637.5491,77.00557,85.64693
"46830",637.5625,77.02022,85.568
"46831",637.5757,77.0251,85.47977
"46832",637.5891,77.01045,85.372154
"46833",637.6023,76.978714,85.246994
"46834",637.6157,76.93721,85.11108
"46835",637.6289,76.893265,84.97142
"46836",637.64233,76.88106,84.86213
"46837",637.6555,76.981155,84.86476
"46838",637.66895,77.313194,85.10246
"46839",637.6821,77.98947,85.69478
"46840",637.69556,79.08812,86.7306
"46841",637.70874,80.59449,88.20847
"46842",637.72217,82.39872,90.03128
"46843",637.73535,84.2884,91.99592
"46844",637.7488,86.031586,93.873116
"46845",637.76196,87.42077,95.45078
"46846",637.7754,88.326546,96.588455
"46847",637.7886,88.70985,97.231964
"46848",637.802,88.61219,97.406494
"46849",637.8152,88.12634,97.18977
"46850",637.8286,87.38415,96.70152
"46851",637.8418,86.51499,96.063126
"46852",637.8552,85.64095,95.39268
"46853",637.8684,84.842606,94.77061
"46854",637.88184,84.16876,94.24809
"46855",637.895,83.62188,93.83148
"46856",637.90845,83.1873,93.510086
"46857",637.92163,82.82109,93.24348
"46858",637.93506,82.496376,93.00692
"46859",637.94824,82.2034,92.791954
"46860",637.9617,81.94949,92.6069
"46861",637.97485,81.75418,92.47251
"46862",637.9883,81.62722,92.40037
"46863",638.00146,81.566185,92.39018
"46864",638.0149,81.53933,92.41227
"46865",638.0281,81.5198,92.44084
"46866",638.0415,81.47097,92.43951
"46867",638.0547,81.37087,92.385376
"46868",638.0681,81.19508,92.252426
"46869",638.0813,80.938736,92.033424
"46870",638.0947,80.604256,91.72828
"46871",638.1079,80.20874,91.35165
"46872",638.12134,79.77417,90.9236
"46873",638.1345,79.327385,90.46976
"46874",638.14795,78.887924,90.00928
"46875",638.16113,78.467995,89.554596
"46876",638.17456,78.082245,89.12097
"46877",638.18774,77.74044,88.71924
"46878",638.2012,77.44991,88.3581
"46879",638.21436,77.21309,88.04159
"46880",638.2278,77.02266,87.76407
"46881",638.24097,76.87862,87.526985
"46882",638.2544,76.76387,87.3147
"46883",638.2676,76.6833,87.132996
"46884",638.281,76.6247,86.97076
"46885",638.2942,76.595406,86.83598
"46886",638.3076,76.58564,86.719826
"46887",638.3208,76.595406,86.622894
"46888",638.3342,76.610054,86.53115
"46889",638.3474,76.63447,86.44963
"46890",638.36084,76.654,86.36399
"46891",638.374,76.67109,86.27652
"46892",638.38745,76.6833,86.1847
"46893",638.40063,76.700386,86.098145
"46894",638.41406,76.71259,86.00724
"46895",638.42725,76.71992,85.911835
"46896",638.4407,76.715034,85.80445
"46897",638.45386,76.697945,85.68471
"46898",638.4673,76.66621,85.54978
"46899",638.48047,76.62226,85.40166
"46900",638.4939,76.56855,85.24239
"46901",638.5071,76.51484,85.08145
"46902",638.5205,76.47578,84.93348
"46903",638.5337,76.49531,84.84288
"46904",638.5471,76.67353,84.91158
"46905",638.5603,77.13252,85.266624
"46906",638.5737,77.98947,86.033966
"46907",638.5869,79.293205,87.27487
"46908",638.60034,80.99733,88.95691
"46909",638.6135,82.94072,90.931465
"46910",638.62695,84.89143,92.974075
"46911",638.64014,86.61021,94.8457
"46912",638.65356,87.89929,96.341354
"46913",638.66675,88.656136,97.34505
"46914",638.6802,88.868546,97.82796
"46915",638.69336,88.60731,97.84386
"46916",638.7068,87.989624,97.49515
"46917",638.72,87.15709,96.91229
"46918",638.7334,86.2562,96.23506
"46919",638.7466,85.39193,95.56629
"46920",638.76,84.63752,94.98038
"46921",638.7732,84.02472,94.5125
"46922",638.7866,83.543755,94.1573
"46923",638.7998,83.1458,93.87009
"46924",638.81323,82.79912,93.62171
"46925",638.8264,82.4744,93.38447
"46926",638.83984,82.16678,93.15417
"46927",638.853,81.88602,92.94112
"46928",638.86646,81.6614,92.77544
"46929",638.87964,81.50027,92.66622
"46930",638.89307,81.40261,92.61545
"46931",638.90625,81.341576,92.59824
"46932",638.9197,81.287865,92.58646
"46933",638.93286,81.20729,92.54613
"46934",638.9463,81.06325,92.43981
"46935",638.9595,80.84596,92.25575
"46936",638.9729,80.54566,91.98189
"46937",638.9861,80.177,91.63028
"46938",638.9995,79.7522,91.211006
"46939",639.0127,79.310295,90.76136
"46940",639.0261,78.86107,90.29058
"46941",639.0393,78.42893,89.82285
"46942",639.05273,78.01877,89.363594
"46943",639.0659,77.65255,88.93546
"46944",639.07935,77.332726,88.54228
"46945",639.0925,77.06172,88.18793
"46946",639.10596,76.83711,87.8715
"46947",639.11914,76.66132,87.59687
"46948",639.13257,76.524605,87.35582
"46949",639.14575,76.419624,87.142235
"46950",639.1592,76.351265,86.96199
"46951",639.17236,76.3122,86.80891
"46952",639.1858,76.29511,86.676575
"46953",639.199,76.29511,86.5608
"46954",639.2124,76.30732,86.45723
"46955",639.2256,76.32197,86.35648
"46956",639.239,76.33906,86.25864
"46957",639.2522,76.36103,86.16621
"46958",639.2656,76.383,86.07446
"46959",639.2788,76.40986,85.98829
"46960",639.29224,76.42939,85.89563
"46961",639.3054,76.4416,85.79626
"46962",639.31885,76.4416,85.68506
"46963",639.33203,76.42451,85.55677
"46964",639.34546,76.39765,85.41818
"46965",639.35864,76.35859,85.26655
"46966",639.3721,76.30976,85.10393
"46967",639.38525,76.25849,84.93734
"46968",639.3987,76.209656,84.77158
"46969",639.41187,76.173035,84.616516
"46970",639.4253,76.190125,84.514015
"46971",639.4385,76.351265,84.5561
"46972",639.4519,76.7834,84.874214
"46973",639.4651,77.5964,85.58669
"46974",639.4785,78.836655,86.75184
"46975",639.4917,80.45533,88.33416
"46976",639.5051,82.303505,90.19656
"46977",639.5183,84.15411,92.119156
"46978",639.53174,85.76547,93.86033
"46979",639.5449,86.96178,95.2368
"46980",639.55835,87.64294,96.13551
"46981",639.57153,87.80896,96.540375
"46982",639.58496,87.52331,96.49875
"46983",639.59814,86.8983,96.10884
"46984",639.6116,86.080414,95.50652
"46985",639.62476,85.19417,94.81029
"46986",639.6382,84.34699,94.12543
"46987",639.65137,83.59991,93.51418
"46988",639.6648,82.98222,93.008995
"46989",639.678,82.47929,92.59925
"46990",639.6914,82.06424,92.26168
"46991",639.7046,81.71511,91.97706
"46992",639.718,81.42214,91.737686
"46993",639.7312,81.19264,91.55263
"46994",639.7446,81.04372,91.44097
"46995",639.7578,80.99489,91.42476
"46996",639.77124,81.02907,91.49003
"46997",639.7844,81.1194,91.61252
"46998",639.79785,81.2195,91.7476
"46999",639.81104,81.28054,91.84675
"47000",639.82446,81.26833,91.87456
"47001",639.83765,81.160904,91.80676
"47002",639.8511,80.955826,91.63796
"47003",639.86426,80.65308,91.36509
"47004",639.8777,80.27955,91.01196
"47005",639.89087,79.85474,90.59589
"47006",639.9043,79.40795,90.14456
"47007",639.9175,78.96117,89.679276
"47008",639.9309,78.53391,89.21956
"47009",639.9441,78.14328,88.78311
"47010",639.9575,77.79904,88.38085
"47011",639.9707,77.50118,88.01421
"47012",639.98413,77.25704,87.691986
"47013",639.9973,77.06416,87.41339
"47014",640.01074,76.92256,87.180046
"47015",640.0239,76.822464,86.98378
"47016",640.03735,76.76631,86.82833
"47017",640.05054,76.73701,86.697975
"47018",640.06396,76.734566,86.59357
"47019",640.07715,76.75166,86.50862
"47020",640.0906,76.78096,86.43641
"47021",640.10376,76.81758,86.37244
"47022",640.1172,76.86397,86.319374
"47023",640.1304,76.912796,86.2702
"47024",640.1438,76.95674,86.217674
"47025",640.157,76.9836,86.14943
"47026",640.1704,76.99092,86.06249
"47027",640.1836,76.981155,85.958694
"47028",640.197,76.94942,85.83262
"47029",640.2102,76.90791,85.695786
"47030",640.22363,76.87373,85.56498
"47031",640.2368,76.8835,85.47705
"47032",640.25024,77.0251,85.52126
"47033",640.2634,77.41329,85.81649
"47034",640.27686,78.15793,86.48029
"47035",640.29004,79.30785,87.572655
"47036",640.30347,80.816666,89.05984
"47037",640.31665,82.533,90.80169
"47038",640.3301,84.24689,92.594734
"47039",640.34326,85.72396,94.20452
"47040",640.3567,86.7982,95.457634
"47041",640.3699,87.37438,96.246254
"47042",640.3833,87.45495,96.55727
"47043",640.3965,87.10582,96.4411
"47044",640.4099,86.451515,96.00885
"47045",640.4231,85.62142,95.38036
"47046",640.4365,84.74738,94.68199
"47047",640.4497,83.92462,94.00758
"47048",640.46313,83.209274,93.41488
"47049",640.4763,82.61112,92.917015
"47050",640.48975,82.11307,92.50056
"47051",640.5029,81.6907,92.14422
"47052",640.51636,81.32693,91.83328
"47053",640.52954,81.0193,91.56712
"47054",640.54297,80.780045,91.35972
"47055",640.55615,80.63355,91.2376
"47056",640.5696,80.58228,91.20613
"47057",640.58276,80.618904,91.26095
"47058",640.5962,80.709236,91.37062
"47059",640.6094,80.81178,91.49533
"47060",640.6228,80.87526,91.584175
"47061",640.636,80.85817,91.59444
"47062",640.6494,80.743416,91.5065
"47063",640.6626,80.52125,91.30756
"47064",640.676,80.201416,91.00402
"47065",640.6892,79.81079,90.61969
"47066",640.70264,79.378654,90.18164
"47067",640.7158,78.93431,89.71788
"47068",640.72925,78.502174,89.25244
"47069",640.74243,78.09445,88.79791
"47070",640.75586,77.72579,88.369705
"47071",640.76904,77.401085,87.97393
"47072",640.7825,77.12764,87.61927
"47073",640.79565,76.89815,87.30002
"47074",640.8091,76.71992,87.02486
"47075",640.82227,76.592964,86.7954
"47076",640.8357,76.50996,86.60593
"47077",640.8489,76.46113,86.44804
"47078",640.8623,76.44892,86.32524
"47079",640.8755,76.46113,86.22648
"47080",640.8889,76.490425,86.14519
"47081",640.9021,76.53437,86.07946
"47082",640.9155,76.58808,86.02487
"47083",640.9287,76.64179,85.97196
"47084",640.94214,76.69306,85.91829
"47085",640.9553,76.74189,85.86378
"47086",640.96875,76.77852,85.79859
"47087",640.98193,76.807816,85.72722
"47088",640.99536,76.81514,85.63479
"47089",641.00854,76.807816,85.52794
"47090",641.022,76.78096,85.40133
"47091",641.03516,76.74433,85.26411
"47092",641.0486,76.70527,85.12331
"47093",641.06177,76.68574,85.00082
"47094",641.0752,76.75166,84.96317
"47095",641.0884,77.01778,85.12778
"47096",641.1018,77.611046,85.62785
"47097",641.115,78.63645,86.578606
"47098",641.1284,80.111084,88.01063
"47099",641.1416,81.94949,89.85251
"47100",641.155,83.95392,91.917854
"47101",641.1682,85.86801,93.955505
"47102",641.18164,87.45251,95.72337
"47103",641.1948,88.54383,97.04759
"47104",641.20825,89.076065,97.84682
"47105",641.22144,89.07851,98.13289
"47106",641.23486,88.64881,97.98689
"47107",641.24805,87.923706,97.53206
"47108",641.2615,87.05699,96.912964
"47109",641.27466,86.170746,96.247246
"47110",641.2881,85.36019,95.629524
"47111",641.3013,84.67658,95.11342
"47112",641.3147,84.13214,94.71512
"47113",641.3279,83.69512,94.40723
"47114",641.3413,83.32647,94.154045
"47115",641.3545,82.98222,93.91375
"47116",641.3679,82.64286,93.66758
"47117",641.3811,82.30839,93.415695
"47118",641.39453,82.01053,93.18997
"47119",641.4077,81.76883,93.0111
"47120",641.42114,81.59304,92.89059
"47121",641.4343,81.478294,92.82562
"47122",641.44775,81.39529,92.78881
"47123",641.46094,81.307396,92.74452
"47124",641.47437,81.180435,92.65842
"47125",641.48755,80.99245,92.50732
"47126",641.501,80.73121,92.27709
"47127",641.51416,80.396736,91.96547
"47128",641.5276,80.0061,91.587234
"47129",641.5408,79.57397,91.15529
"47130",641.5542,79.12474,90.69275
"47131",641.5674,78.67307,90.21373
"47132",641.5808,78.238495,89.737686
"47133",641.594,77.83078,89.274925
"47134",641.6074,77.469444,88.8458
"47135",641.6206,77.152054,88.44933
"47136",641.63403,76.88838,88.096664
"47137",641.6472,76.67109,87.782135
"47138",641.66064,76.50019,87.50721
"47139",641.6738,76.3708,87.26845
"47140",641.68726,76.280464,87.064705
"47141",641.70044,76.22186,86.88987
"47142",641.71387,76.19745,86.74739
"47143",641.72705,76.192566,86.62368
"47144",641.7405,76.20477,86.51691
"47145",641.75366,76.226746,86.42028
"47146",641.7671,76.24872,86.32434
"47147",641.7803,76.2707,86.229095
"47148",641.7937,76.28779,86.12965
"47149",641.8069,76.299995,86.02585
"47150",641.8203,76.30488,85.91511
"47151",641.8335,76.30488,85.79964
"47152",641.8469,76.29511,85.6744
"47153",641.8601,76.280464,85.543976
"47154",641.87354,76.25849,85.40577
"47155",641.8867,76.23163,85.261986
"47156",641.90015,76.19745,85.11005
"47157",641.9133,76.155945,84.949715
"47158",641.92676,76.104675,84.77832
"47159",641.93994,76.06073,84.61265
"47160",641.95337,76.053406,84.48222
"47161",641.96655,76.16815,84.47364
"47162",641.98,76.53437,84.720116
"47163",641.99316,77.29122,85.36867
"47164",642.0066,78.519264,86.51206
"47165",642.0198,80.198975,88.1455
"47166",642.0332,82.20096,90.1537
"47167",642.0464,84.29328,92.314804
"47168",642.0598,86.1976,94.35329
"47169",642.073,87.68688,96.03624
"47170",642.0864,88.6244,97.213974
"47171",642.0996,88.97841,97.837494
"47172",642.11304,88.797745,97.93741
"47173",642.1262,88.20447,97.619064
"47174",642.13965,87.35485,97.02583
"47175",642.15283,86.397804,96.29863
"47176",642.16626,85.45785,95.5586
"47177",642.17944,84.63264,94.903946
"47178",642.1929,83.95636,94.37244
"47179",642.20605,83.42657,93.96628
"47180",642.2195,82.99687,93.64366
"47181",642.23267,82.62333,93.36377
"47182",642.2461,82.27421,93.09663
"47183",642.2593,81.93729,92.83077
"47184",642.2727,81.6321,92.58613
"47185",642.2859,81.38552,92.39055
"47186",642.2993,81.214615,92.26294
"47187",642.3125,81.11452,92.2008
"47188",642.3259,81.058365,92.179474
"47189",642.3391,81.01686,92.17104
"47190",642.35254,80.94606,92.13202
"47191",642.3657,80.814224,92.02975
"47192",642.37915,80.604256,91.84522
"47193",642.39233,80.31617,91.57602
"47194",642.40576,79.94995,91.21968
"47195",642.41895,79.53002,90.79819
"47196",642.4324,79.08568,90.33916
"47197",642.44556,78.63401,89.85892
"47198",642.459,78.187225,89.369446
"47199",642.47217,77.769745,88.89532
"47200",642.4856,77.38155,88.43743
"47201",642.4988,77.03731,88.01136
"47202",642.5122,76.74189,87.62336
"47203",642.5254,76.49775,87.277405
"47204",642.5388,76.30488,86.97509
"47205",642.552,76.16083,86.71557
"47206",642.5654,76.06073,86.4955
"47207",642.5786,75.99481,86.30648
"47208",642.59204,75.96063,86.14714
"47209",642.6052,75.95331,86.01359
"47210",642.61865,75.965515,85.89934
"47211",642.63184,75.98993,85.797676
"47212",642.64526,76.02411,85.70654
"47213",642.65845,76.05829,85.61648
"47214",642.6719,76.09003,85.52504
"47215",642.68506,76.11688,85.42971
"47216",642.6985,76.13397,85.325455
"47217",642.7117,76.13641,85.207085
"47218",642.7251,76.12909,85.079025
"47219",642.7383,76.10712,84.93609
"47220",642.7517,76.07294,84.78026
"47221",642.7649,76.02411,84.60871
"47222",642.7783,75.96796,84.428314
"47223",642.7915,75.914246,84.248604
"47224",642.80493,75.88739,84.09407
"47225",642.8181,75.97528,84.053444
"47226",642.83154,76.297554,84.24995
"47227",642.8447,76.97139,84.80808
"47228",642.85815,78.05295,85.795
"47229",642.87134,79.53002,87.21123
"47230",642.88477,81.27322,88.939735
"47231",642.89795,83.072556,90.77886
"47232",642.9114,84.69123,92.49355
"47233",642.92456,85.93393,93.88285
"47234",642.938,86.69077,94.82513
"47235",642.9512,86.93736,95.2808
"47236",642.9646,86.727394,95.28762
"47237",642.9778,86.170746,94.9412
"47238",642.9912,85.401695,94.36498
"47239",643.0044,84.55207,93.68416
"47240",643.0178,83.7293,93.00364
"47241",643.031,82.99931,92.39019
"47242",643.04443,82.388954,91.87356
"47243",643.0576,81.881134,91.44039
"47244",643.07104,81.45388,91.07192
"47245",643.0842,81.08278,90.746254
"47246",643.09766,80.77028,90.46759
"47247",643.11084,80.52857,90.249954
"47248",643.12427,80.38453,90.12243
"47249",643.13745,80.34547,90.09538
"47250",643.1509,80.40162,90.16233
"47251",643.16406,80.51392,90.287186
"47252",643.1775,80.638435,90.42776
"47253",643.1907,80.726326,90.5356
"47254",643.2041,80.740974,90.572945
"47255",643.2173,80.66041,90.51553
"47256",643.2307,80.46754,90.3433
"47257",643.2439,80.17944,90.06982
"47258",643.2573,79.818115,89.714096
"47259",643.2705,79.40795,89.29825
"47260",643.28394,78.97826,88.85005
"47261",643.2971,78.553444,88.39331
"47262",643.31055,78.153046,87.94771
"47263",643.3237,77.786835,87.52378
"47264",643.33716,77.469444,87.13723
"47265",643.35034,77.20332,86.79203
"47266",643.3638,76.99092,86.49223
"47267",643.37695,76.82735,86.23463
"47268",643.3904,76.71015,86.01829
"47269",643.40356,76.627144,85.83247
"47270",643.417,76.57343,85.67336
"47271",643.4302,76.54658,85.53943
"47272",643.4436,76.541695,85.42663
"47273",643.4568,76.55146,85.32832
"47274",643.4702,76.578316,85.24741
"47275",643.4834,76.610054,85.172226
"47276",643.4968,76.64912,85.105354
"47277",643.51,76.68574,85.03726
"47278",643.52344,76.717476,84.96543
"47279",643.5366,76.73701,84.882385
"47280",643.55005,76.74189,84.7853
"47281",643.56323,76.732124,84.67372
"47282",643.57666,76.70283,84.542305
"47283",643.58984,76.66865,84.40509
"47284",643.6033,76.63447,84.26681
"47285",643.61646,76.63203,84.159195
"47286",643.6299,76.72968,84.1516
"47287",643.64307,77.03975,84.359474
"47288",643.6565,77.67452,84.90174
"47289",643.6697,78.70481,85.85936
"47290",643.6831,80.11841,87.23248
"47291",643.6963,81.80789,88.92567
"47292",643.7097,83.577934,90.752205
"47293",643.7229,85.19905,92.48513
"47294",643.7363,86.47837,93.92692
"47295",643.7495,87.30358,94.954575
"47296",643.76294,87.640495,95.51973
"47297",643.7761,87.53796,95.65596
"47298",643.78955,87.096054,95.449615
"47299",643.80273,86.43687,95.01218
"47300",643.81616,85.68734,94.4638
"47301",643.82935,84.95003,93.90421
"47302",643.8428,84.29328,93.40215
"47303",643.85596,83.75372,92.99676
"47304",643.8694,83.32403,92.684364
"47305",643.88257,82.97734,92.44155
"47306",643.896,82.67216,92.22941
"47307",643.9092,82.38163,92.022385
"47308",643.9226,82.09354,91.808716
"47309",643.9358,81.829865,91.610466
"47310",643.9492,81.61013,91.447914
"47311",643.9624,81.446556,91.334656
"47312",643.9758,81.34646,91.27976
"47313",643.989,81.28542,91.2608
"47314",644.00244,81.23903,91.25458
"47315",644.0156,81.17067,91.22494
"47316",644.02905,81.05592,91.146774
"47317",644.04224,80.87526,90.99911
"47318",644.05566,80.618904,90.7701
"47319",644.06885,80.29664,90.46718
"47320",644.0823,79.93042,90.11023
"47321",644.09546,79.537346,89.71498
"47322",644.1089,79.13695,89.300125
"47323",644.1221,78.74876,88.884964
"47324",644.1355,78.38499,88.48209
"47325",644.1487,78.05295,88.09959
"47326",644.1621,77.75754,87.74333
"47327",644.1753,77.506065,87.42178
"47328",644.1887,77.296104,87.13389
"47329",644.2019,77.1252,86.87849
"47330",644.21533,76.99092,86.65437
"47331",644.2285,76.89082,86.46024
"47332",644.24194,76.81514,86.2874
"47333",644.2551,76.76143,86.13416
"47334",644.26855,76.734566,86.006096
"47335",644.28174,76.7248,85.89429
"47336",644.29517,76.72236,85.7895
"47337",644.30835,76.732124,85.69684
"47338",644.3218,76.74677,85.60937
"47339",644.33496,76.76143,85.52236
"47340",644.3484,76.771194,85.43092
"47341",644.3616,76.7834,85.34223
"47342",644.375,76.790726,85.24904
"47343",644.3882,76.79317,85.15119
"47344",644.4016,76.788284,85.0461
"47345",644.4148,76.78096,84.93841
"47346",644.4282,76.76387,84.820724
"47347",644.4414,76.73701,84.69273
"47348",644.45483,76.6955,84.54926
"47349",644.468,76.65156,84.402054
"47350",644.48145,76.60273,84.24859
"47351",644.4946,76.56611,84.105804
"47352",644.50806,76.5832,84.01559
"47353",644.52124,76.74433,84.06995
"47354",644.53467,77.16426,84.38814
"47355",644.54785,77.960175,85.095436
"47356",644.5613,79.17357,86.24509
"47357",644.57446,80.76051,87.806206
"47358",644.5879,82.5745,89.64396
"47359",644.6011,84.39338,91.54329
"47360",644.6145,85.98276,93.26996
"47361",644.6277,87.17906,94.65322
"47362",644.6411,87.887085,95.58559
"47363",644.6543,88.10681,96.05179
"47364",644.6677,87.90173,96.10005
"47365",644.6809,87.38903,95.834274
"47366",644.69434,86.693214,95.36937
"47367",644.7075,85.93881,94.82413
"47368",644.72095,85.22102,94.29192
"47369",644.73413,84.60334,93.837395
"47370",644.74756,84.102844,93.48075
"47371",644.76074,83.70977,93.21589
"47372",644.7742,83.3753,92.997345
"47373",644.78735,83.072556,92.80008
"47374",644.8008,82.76982,92.59336
"47375",644.81396,82.46708,92.377174
"47376",644.8274,82.18387,92.17106
"47377",644.8406,81.94217,91.997604
"47378",644.854,81.75418,91.87031
"47379",644.8672,81.62234,91.79328
"47380",644.8806,81.52712,91.748764
"47381",644.8938,81.43191,91.70127
"47382",644.9072,81.31716,91.63127
"47383",644.9204,81.160904,91.516174
"47384",644.93384,80.94606,91.33761
"47385",644.947,80.66773,91.088844
"47386",644.96045,80.33326,90.77524
"47387",644.97363,79.957275,90.40967
"47388",644.98706,79.554436,90.00549
"47389",645.00024,79.13451,89.57164
"47390",645.0137,78.72434,89.13443
"47391",645.02686,78.3386,88.708824
"47392",645.0403,77.98459,88.302895
"47393",645.05347,77.6672,87.92252
"47394",645.0669,77.39132,87.573746
"47395",645.0801,77.154495,87.2554
"47396",645.0935,76.95674,86.96873
"47397",645.1067,76.80049,86.71738
"47398",645.1201,76.6833,86.5002
"47399",645.1333,76.60273,86.31599
"47400",645.1467,76.54658,86.15367
"47401",645.1599,76.51484,86.014015
"47402",645.17334,76.50019,85.89046
"47403",645.1865,76.49287,85.773766
"47404",645.19995,76.490425,85.66173
"47405",645.21313,76.49287,85.5545
"47406",645.22656,76.49531,85.44734
"47407",645.23975,76.49531,85.33782
"47408",645.2532,76.50019,85.233185
"47409",645.26636,76.50507,85.1287
"47410",645.2798,76.50507,85.019485
"47411",645.29297,76.50019,84.90539
"47412",645.3064,76.48798,84.78381
"47413",645.3196,76.473335,84.65942
"47414",645.333,76.453804,84.52968
"47415",645.3462,76.43427,84.39933
"47416",645.3596,76.404976,84.258606
"47417",645.3728,76.3708,84.11208
"47418",645.3862,76.33173,83.95961
"47419",645.3994,76.297554,83.8108
"47420",645.41284,76.30488,83.70242
"47421",645.426,76.4416,83.72367
"47422",645.43945,76.822464,83.99334
"47423",645.45264,77.55001,84.62159
"47424",645.46606,78.66575,85.66077
"47425",645.47925,80.13794,87.09126
"47426",645.4927,81.82742,88.78506
"47427",645.50586,83.53155,90.54629
"47428",645.5193,85.033035,92.158134
"47429",645.5325,86.17563,93.45801
"47430",645.5459,86.873886,94.34925
"47431",645.5591,87.115585,94.805756
"47432",645.5725,86.95445,94.86698
"47433",645.5857,86.49058,94.62043
"47434",645.5991,85.838715,94.171394
"47435",645.6123,85.11116,93.6263
"47436",645.62573,84.4007,93.07556
"47437",645.6389,83.76593,92.57831
"47438",645.65234,83.228806,92.15887
"47439",645.6655,82.791794,91.822754
"47440",645.67896,82.425575,91.54378
"47441",645.69214,82.11307,91.30707
"47442",645.70557,81.83963,91.09966
"47443",645.71875,81.61257,90.93009
"47444",645.7322,81.43679,90.8047
"47445",645.74536,81.33425,90.74706
"47446",645.7588,81.30251,90.75702
"47447",645.772,81.324486,90.819695
"47448",645.7854,81.36843,90.90503
