"","Time..s.","PPG.trace","Preprocessed.PPG"
"59446",792.65576,79.26879,93.66625
"59447",792.66907,79.35668,93.73129
"59448",792.6824,79.53246,93.88697
"59449",792.6957,79.74975,94.089645
"59450",792.709,79.9646,94.29668
"59451",792.7223,80.130615,94.461586
"59452",792.7356,80.22583,94.56088
"59453",792.7489,80.235596,94.577705
"59454",792.7622,80.16235,94.511826
"59455",792.7755,80.01343,94.36797
"59456",792.7888,79.80835,94.163315
"59457",792.8021,79.56176,93.910736
"59458",792.8154,79.28344,93.61872
"59459",792.82874,78.992905,93.30579
"59460",792.84204,78.70481,92.98623
"59461",792.85535,78.42649,92.667435
"59462",792.86865,78.16281,92.35458
"59463",792.88196,77.92111,92.05547
"59464",792.89526,77.70382,91.77322
"59465",792.90857,77.506065,91.50371
"59466",792.9219,77.332726,91.25243
"59467",792.9352,77.18379,91.02015
"59468",792.9485,77.05928,90.80763
"59469",792.9618,76.95186,90.608315
"59470",792.9751,76.86641,90.42761
"59471",792.9884,76.79561,90.25889
"59472",793.0017,76.734566,90.09771
"59473",793.015,76.71259,89.973694
"59474",793.0283,76.8127,89.97107
"59475",793.0416,77.15694,90.215706
"59476",793.05493,77.85031,90.82024
"59477",793.06824,78.94408,91.846825
"59478",793.08154,80.39185,93.261604
"59479",793.09485,82.0618,94.943794
"59480",793.10815,83.74395,96.69038
"59481",793.12146,85.22102,98.28445
"59482",793.13477,86.33921,99.56579
"59483",793.1481,87.02037,100.445045
"59484",793.1614,87.24986,100.89392
"59485",793.1747,87.07164,100.94225
"59486",793.188,86.57847,100.67007
"59487",793.2013,85.872894,100.17007
"59488",793.2146,85.050125,99.53082
"59489",793.2279,84.19806,98.83657
"59490",793.2412,83.3753,98.145
"59491",793.2545,82.62333,97.498505
"59492",793.2678,81.94705,96.904205
"59493",793.2811,81.356224,96.37422
"59494",793.29443,80.850845,95.911224
"59495",793.30774,80.430916,95.51788
"59496",793.32104,80.10376,95.20419
"59497",793.33435,79.88159,94.98527
"59498",793.34766,79.77417,94.874146
"59499",793.36096,79.77173,94.86465
"59500",793.37427,79.84985,94.93564
"59501",793.3876,79.974365,95.05546
"59502",793.4009,80.10864,95.188934
"59503",793.4142,80.218506,95.30219
"59504",793.4275,80.27711,95.36762
"59505",793.4408,80.257576,95.35675
"59506",793.4541,80.15991,95.267136
"59507",793.4674,79.98657,95.09879
"59508",793.4807,79.74975,94.86155
"59509",793.494,79.466545,94.570526
"59510",793.5073,79.15648,94.24379
"59511",793.5206,78.836655,93.897606
"59512",793.53394,78.51682,93.54142
"59513",793.54724,78.20676,93.185005
"59514",793.56055,77.91135,92.83356
"59515",793.57385,77.63546,92.4924
"59516",793.58716,77.38644,92.16949
"59517",793.60046,77.15938,91.860756
"59518",793.6138,76.95918,91.57179
"59519",793.6271,76.788284,91.30587
"59520",793.6404,76.646675,91.063896
"59521",793.6537,76.53437,90.8468
"59522",793.667,76.44892,90.65305
"59523",793.6803,76.383,90.476166
"59524",793.6936,76.33662,90.31675
"59525",793.7069,76.30732,90.17297
"59526",793.7202,76.28535,90.03561
"59527",793.7335,76.25849,89.89267
"59528",793.7468,76.23407,89.75133
"59529",793.76013,76.24628,89.64585
"59530",793.77344,76.38056,89.662834
"59531",793.78674,76.75899,89.928154
"59532",793.80005,77.48409,90.55198
"59533",793.81335,78.59251,91.58177
"59534",793.82666,80.03784,92.98312
"59535",793.83997,81.67849,94.624954
"59536",793.8533,83.30938,96.3083
"59537",793.8666,84.72541,97.82774
"59538",793.8799,85.77524,99.02524
"59539",793.8932,86.38804,99.81851
"59540",793.9065,86.55161,100.18171
"59541",793.9198,86.31968,100.15451
"59542",793.9331,85.78012,99.81244
"59543",793.9464,85.04036,99.2533
"59544",793.9597,84.19318,98.56363
"59545",793.973,83.32891,97.8304
"59546",793.9863,82.49882,97.10433
"59547",793.99963,81.74441,96.42801
"59548",794.01294,81.08034,95.81845
"59549",794.02625,80.5066,95.27847
"59550",794.03955,80.025635,94.81334
"59551",794.05286,79.635,94.42351
"59552",794.06616,79.35424,94.13134
"59553",794.07947,79.19066,93.94758
"59554",794.0928,79.151596,93.883224
"59555",794.1061,79.217514,93.92263
"59556",794.1194,79.36889,94.04955
"59557",794.1327,79.55932,94.22026
"59558",794.146,79.74731,94.39448
"59559",794.1593,79.89624,94.535515
"59560",794.1726,79.97925,94.61528
"59561",794.1859,79.97681,94.61219
"59562",794.1992,79.88403,94.51869
"59563",794.2125,79.71313,94.34416
"59564",794.2258,79.47387,94.09594
"59565",794.23914,79.18822,93.793846
"59566",794.25244,78.873276,93.45354
"59567",794.26575,78.555885,93.10094
"59568",794.27905,78.24094,92.74086
"59569",794.29236,77.943085,92.38804
"59570",794.30566,77.66476,92.04543
"59571",794.319,77.41085,91.71855
"59572",794.3323,77.17647,91.40326
"59573",794.3456,76.96651,91.105064
"59574",794.3589,76.7834,90.82716
"59575",794.3722,76.629585,90.57283
"59576",794.3855,76.507515,90.345436
"59577",794.3988,76.422066,90.15085
"59578",794.4121,76.368355,89.98533
"59579",794.4254,76.33662,89.8401
"59580",794.4387,76.32441,89.71342
"59581",794.452,76.31953,89.59367
"59582",794.46533,76.317085,89.47622
"59583",794.47864,76.314644,89.35869
"59584",794.49194,76.30976,89.23864
"59585",794.50525,76.32685,89.14041
"59586",794.51855,76.439156,89.13793
"59587",794.53186,76.754105,89.341606
"59588",794.54517,77.37179,89.85786
"59589",794.5585,78.35569,90.75963
"59590",794.5718,79.674065,92.02662
"59591",794.5851,81.21217,93.55454
"59592",794.5984,82.777145,95.157394
"59593",794.6117,84.16632,96.633354
"59594",794.625,85.21614,97.81337
"59595",794.6383,85.8436,98.60383
"59596",794.6516,86.031586,98.97443
"59597",794.6649,85.82651,98.95783
"59598",794.6782,85.31136,98.62476
"59599",794.6915,84.58381,98.06319
"59600",794.70483,83.74395,97.36657
"59601",794.71814,82.87236,96.61198
"59602",794.73145,82.03006,95.859436
"59603",794.74475,81.248795,95.14161
"59604",794.75806,80.550545,94.48238
"59605",794.77136,79.940186,93.88923
"59606",794.78467,79.42504,93.372215
"59607",794.798,79.01976,92.94897
"59608",794.8113,78.75365,92.65222
"59609",794.8246,78.641335,92.50096
"59610",794.8379,78.68528,92.50245
"59611",794.8512,78.86839,92.64448
"59612",794.8645,79.14427,92.884995
"59613",794.8778,79.46166,93.175644
"59614",794.8911,79.75952,93.45668
"59615",794.9044,79.98901,93.67866
"59616",794.9177,80.12085,93.81015
"59617",794.931,80.14526,93.83834
"59618",794.94434,80.0647,93.762314
"59619",794.95764,79.89868,93.59832
"59620",794.97095,79.66918,93.365654
"59621",794.98425,79.40063,93.08676
"59622",794.99756,79.10521,92.77261
"59623",795.01086,78.80003,92.439476
"59624",795.0242,78.49241,92.09435
"59625",795.0375,78.19699,91.75182
"59626",795.0508,77.91867,91.41716
"59627",795.0641,77.6672,91.10065
"59628",795.0774,77.44503,90.80558
"59629",795.0907,77.25216,90.53287
"59630",795.104,77.08858,90.28342
"59631",795.1173,76.95674,90.0606
"59632",795.1306,76.85176,89.86052
"59633",795.1439,76.773636,89.68401
"59634",795.1572,76.72724,89.5368
"59635",795.17053,76.697945,89.40523
"59636",795.18384,76.68574,89.28983
"59637",795.19714,76.67597,89.1765
"59638",795.21045,76.67597,89.072624
"59639",795.22375,76.72236,89.01514
"59640",795.23706,76.91524,89.10559
"59641",795.25037,77.38155,89.47551
"59642",795.2637,78.221405,90.233536
"59643",795.277,79.46166,91.41821
"59644",795.2903,81.03151,92.97124
"59645",795.3036,82.76494,94.7369
"59646",795.3169,84.439766,96.49813
"59647",795.3302,85.84848,98.045586
"59648",795.3435,86.854355,99.23422
"59649",795.3568,87.38415,99.97821
"59650",795.3701,87.450066,100.27489
"59651",795.3834,87.113144,100.17078
"59652",795.3967,86.47349,99.7534
"59653",795.41003,85.643394,99.1256
"59654",795.42334,84.72541,98.38397
"59655",795.43665,83.79523,97.601456
"59656",795.44995,82.913864,96.83869
"59657",795.46326,82.1033,96.11919
"59658",795.47656,81.38308,95.46469
"59659",795.48987,80.75807,94.882904
"59660",795.5032,80.23804,94.38656
"59661",795.5165,79.84009,93.99605
"59662",795.5298,79.57397,93.72493
"59663",795.5431,79.45434,93.59199
"59664",795.5564,79.47387,93.59447
"59665",795.5697,79.61547,93.71963
"59666",795.583,79.84009,93.93223
"59667",795.5963,80.096436,94.18358
"59668",795.6096,80.32838,94.41853
"59669",795.6229,80.49439,94.59481
"59670",795.6362,80.56031,94.67618
"59671",795.64954,80.51881,94.65218
"59672",795.66284,80.37476,94.52435
"59673",795.67615,80.14526,94.306564
"59674",795.68945,79.84985,94.01569
"59675",795.70276,79.51537,93.67652
"59676",795.71606,79.15892,93.304924
"59677",795.7294,78.80003,92.919754
"59678",795.7427,78.44602,92.528244
"59679",795.756,78.1091,92.14276
"59680",795.7693,77.79416,91.76873
"59681",795.7826,77.51339,91.41903
"59682",795.7959,77.264366,91.0923
"59683",795.8092,77.0544,90.796844
"59684",795.8225,76.88594,90.53634
"59685",795.8358,76.754105,90.30719
"59686",795.8491,76.65156,90.10321
"59687",795.8624,76.578316,89.92533
"59688",795.87573,76.52705,89.767136
"59689",795.88904,76.48798,89.619545
"59690",795.90234,76.453804,89.47562
"59691",795.91565,76.42695,89.337944
"59692",795.92896,76.439156,89.238495
"59693",795.94226,76.56611,89.25417
"59694",795.95557,76.93233,89.513084
"59695",795.9689,77.662315,90.14721
"59696",795.9822,78.82445,91.23629
"59697",795.9955,80.39185,92.76696
"59698",796.0088,82.23758,94.62493
"59699",796.0221,84.15167,96.60895
"59700",796.0354,85.88266,98.46967
"59701",796.0487,87.23277,100.00362
"59702",796.062,88.08728,101.084145
"59703",796.0753,88.411995,101.66159
"59704",796.0886,88.26063,101.7731
"59705",796.1019,87.728386,101.49901
"59706",796.11523,86.93736,100.94949
"59707",796.12854,86.012054,100.240974
"59708",796.14185,85.04768,99.46448
"59709",796.15515,84.11261,98.68714
"59710",796.16846,83.25567,97.95872
"59711",796.18176,82.496376,97.30116
"59712",796.19507,81.832306,96.7151
"59713",796.2084,81.26345,96.20351
"59714",796.2217,80.78737,95.76691
"59715",796.235,80.4065,95.410645
"59716",796.2483,80.130615,95.14746
"59717",796.2616,79.98169,95.00262
"59718",796.2749,79.94751,94.967865
"59719",796.2882,80.01099,95.0297
"59720",796.3015,80.1355,95.15456
"59721",796.3148,80.28443,95.307724
"59722",796.3281,80.40894,95.441124
"59723",796.34143,80.47486,95.51982
"59724",796.35474,80.45289,95.51269
"59725",796.36804,80.33326,95.40721
"59726",796.38135,80.11841,95.202774
"59727",796.39465,79.818115,94.90618
"59728",796.40796,79.4641,94.546486
"59729",796.42126,79.080795,94.14643
"59730",796.4346,78.68772,93.72463
"59731",796.4479,78.29954,93.29544
"59732",796.4612,77.92844,92.8712
"59733",796.4745,77.576866,92.454895
"59734",796.4878,77.25216,92.05447
"59735",796.5011,76.95674,91.67318
"59736",796.5144,76.697945,91.31928
"59737",796.5277,76.48066,90.99881
"59738",796.541,76.299995,90.70817
"59739",796.5543,76.155945,90.448494
"59740",796.5676,76.04852,90.22095
"59741",796.58093,75.97284,90.02178
"59742",796.59424,75.91669,89.83978
"59743",796.60754,75.88251,89.678
"59744",796.62085,75.862976,89.5298
"59745",796.63416,75.85077,89.38831
"59746",796.64746,75.841,89.248886
"59747",796.66077,75.83368,89.111595
"59748",796.6741,75.83856,88.98628
"59749",796.6874,75.911804,88.92948
"59750",796.7007,76.175476,89.0654
"59751",796.714,76.76631,89.53672
"59752",796.7273,77.79172,90.461075
"59753",796.7406,79.26635,91.8667
"59754",796.7539,81.112076,93.6895
"59755",796.7672,83.12871,95.74088
"59756",796.7805,85.05989,97.76984
"59757",796.7938,86.67124,99.53931
"59758",796.8071,87.80896,100.8855
"59759",796.82043,88.39979,101.72035
"59760",796.83374,88.465706,102.04877
"59761",796.84705,88.09949,101.9471
"59762",796.86035,87.413445,101.51416
"59763",796.87366,86.536964,100.869354
"59764",796.88696,85.575035,100.1117
"59765",796.90027,84.62287,99.333755
"59766",796.9136,83.734184,98.58953
"59767",796.9269,82.950485,97.92252
"59768",796.9402,82.27177,97.336006
"59769",796.9535,81.69314,96.82837
"59770",796.9668,81.19508,96.383224
"59771",796.9801,80.77272,95.99821
"59772",796.9934,80.428474,95.67811
"59773",797.0067,80.17456,95.437584
"59774",797.02,80.01831,95.28679
"59775",797.0333,79.95972,95.22877
"59776",797.04663,79.97681,95.2446
"59777",797.05994,80.04028,95.30735
"59778",797.07324,80.10864,95.37697
"59779",797.08655,80.15503,95.42675
"59780",797.09985,80.14526,95.42183
"59781",797.11316,80.059814,95.34092
"59782",797.12646,79.89136,95.17433
"59783",797.1398,79.64477,94.92435
"59784",797.1531,79.32494,94.59342
"59785",797.1664,78.958725,94.20611
"59786",797.1797,78.56321,93.77805
"59787",797.193,78.15793,93.32787
"59788",797.2063,77.76486,92.87724
"59789",797.2196,77.39864,92.44118
"59790",797.2329,77.06172,92.022964
"59791",797.2462,76.76143,91.63085
"59792",797.2595,76.49287,91.261086
"59793",797.2728,76.26093,90.919556
"59794",797.28613,76.06073,90.60251
"59795",797.29944,75.88983,90.30851
"59796",797.31274,75.75067,90.04091
"59797",797.32605,75.63836,89.79581
"59798",797.33936,75.55047,89.57162
"59799",797.35266,75.48699,89.369095
"59800",797.36597,75.44549,89.18656
"59801",797.3793,75.423515,89.02226
"59802",797.3926,75.421074,88.87681
"59803",797.4059,75.43084,88.743484
"59804",797.4192,75.45525,88.625114
"59805",797.4325,75.48699,88.51483
"59806",797.4458,75.51873,88.40554
"59807",797.4591,75.55047,88.29724
"59808",797.4724,75.579765,88.18749
"59809",797.4857,75.60418,88.07378
"59810",797.499,75.62127,87.9535
"59811",797.5123,75.64568,87.84108
"59812",797.52563,75.72869,87.78802
"59813",797.53894,75.98749,87.91334
"59814",797.55225,76.57099,88.37145
"59815",797.56555,77.58663,89.27994
"59816",797.57886,79.07103,90.68892
"59817",797.59216,80.953384,92.542244
"59818",797.60547,83.04326,94.66191
"59819",797.6188,85.084305,96.79806
"59820",797.6321,86.83482,98.70746
"59821",797.6454,88.1239,100.21012
"59822",797.6587,88.868546,101.20863
"59823",797.672,89.07118,101.688416
"59824",797.6853,88.80507,101.70578
"59825",797.6986,88.18005,101.35593
"59826",797.7119,87.325554,100.75705
"59827",797.7252,86.3563,100.01672
"59828",797.7385,85.36996,99.22901
"59829",797.75183,84.439766,98.46663
"59830",797.76514,83.60235,97.76795
"59831",797.77844,82.879684,97.15786
"59832",797.79175,82.266884,96.63505
"59833",797.80505,81.75418,96.193184
"59834",797.81836,81.32937,95.82319
"59835",797.83167,80.987564,95.52293
"59836",797.845,80.73365,95.29987
"59837",797.8583,80.56519,95.15434
"59838",797.8716,80.479744,95.086555
"59839",797.8849,80.46021,95.082016
"59840",797.8982,80.48707,95.12325
"59841",797.9115,80.52857,95.17998
"59842",797.9248,80.552986,95.22091
"59843",797.9381,80.5359,95.2211
"59844",797.9514,80.45533,95.15728
"59845",797.9647,80.29908,95.01526
"59846",797.978,80.0647,94.79022
"59847",797.99133,79.766846,94.49439
"59848",798.00464,79.415276,94.13554
"59849",798.01794,79.03441,93.7364
"59850",798.03125,78.643776,93.31559
"59851",798.04456,78.26292,92.89235
"59852",798.05786,77.89426,92.469406
"59853",798.07117,77.55001,92.05936
"59854",798.0845,77.22774,91.66052
"59855",798.0978,76.93721,91.28336
"59856",798.1111,76.67597,90.926414
"59857",798.1244,76.45136,90.59793
"59858",798.1377,76.25361,90.28928
"59859",798.151,76.09003,90.00863
"59860",798.1643,75.95575,89.75217
"59861",798.1776,75.84833,89.518364
"59862",798.1909,75.76044,89.300735
"59863",798.2042,75.69695,89.10477
"59864",798.2175,75.65789,88.93124
"59865",798.23083,75.6408,88.77846
"59866",798.24414,75.6408,88.642235
"59867",798.25745,75.650566,88.51578
"59868",798.27075,75.6701,88.39939
"59869",798.28406,75.69207,88.28606
"59870",798.29736,75.718925,88.17829
"59871",798.31067,75.74822,88.07381
"59872",798.324,75.78485,87.97757
"59873",798.3373,75.82391,87.88491
"59874",798.3506,75.85809,87.78859
"59875",798.3639,75.88251,87.68357
"59876",798.3772,75.894714,87.56711
"59877",798.3905,75.90204,87.446144
"59878",798.4038,75.93378,87.34982
"59879",798.4171,76.085144,87.37412
"59880",798.4304,76.49531,87.66195
"59881",798.4437,77.30831,88.36543
"59882",798.45703,78.60227,89.57528
"59883",798.47034,80.35523,91.28456
"59884",798.48364,82.42802,93.36845
"59885",798.49695,84.58625,95.602554
"59886",798.51025,86.56626,97.72588
"59887",798.52356,88.15564,99.520454
"59888",798.53687,89.22987,100.84955
"59889",798.5502,89.74502,101.65312
"59890",798.5635,89.740135,101.952774
"59891",798.5768,89.30312,101.820145
"59892",798.5901,88.5536,101.36134
"59893",798.6034,87.61608,100.69113
"59894",798.6167,86.60532,99.91838
"59895",798.63,85.59945,99.11892
"59896",798.6433,84.664375,98.358826
"59897",798.6566,83.83185,97.67206
"59898",798.6699,83.11406,97.07401
"59899",798.6832,82.50126,96.558525
"59900",798.69653,81.98367,96.1191
"59901",798.70984,81.55398,95.751396
"59902",798.72314,81.20973,95.45571
"59903",798.73645,80.953384,95.23717
"59904",798.74976,80.79225,95.10583
"59905",798.76306,80.723885,95.06222
"59906",798.77637,80.73121,95.09216
"59907",798.7897,80.782486,95.16629
"59908",798.803,80.84596,95.25422
"59909",798.8163,80.88258,95.317276
"59910",798.8296,80.86549,95.32777
"59911",798.8429,80.77272,95.26204
"59912",798.8562,80.59693,95.1104
"59913",798.8695,80.34547,94.87759
"59914",798.8828,80.028076,94.57099
"59915",798.8961,79.66186,94.20565
"59916",798.9094,79.259026,93.79225
"59917",798.9227,78.84398,93.35405
"59918",798.93604,78.433815,92.90776
"59919",798.94934,78.04562,92.47063
"59920",798.96265,77.69161,92.05554
"59921",798.97595,77.37423,91.66602
"59922",798.98926,77.08858,91.29832
"59923",799.00256,76.82735,90.946106
"59924",799.01587,76.592964,90.61258
"59925",799.0292,76.387886,90.30103
"59926",799.0425,76.2121,90.01237
"59927",799.0558,76.07538,89.75728
"59928",799.0691,75.97284,89.5321
"59929",799.0824,75.90448,89.33789
"59930",799.0957,75.85809,89.16352
"59931",799.109,75.83368,89.009674
"59932",799.1223,75.82391,88.86971
"59933",799.1356,75.826355,88.74165
"59934",799.1489,75.83368,88.61855
"59935",799.16223,75.84833,88.503006
"59936",799.17554,75.87274,88.39768
"59937",799.18884,75.8996,88.29556
"59938",799.20215,75.93866,88.20649
"59939",799.21545,75.982605,88.12352
"59940",799.22876,76.02655,88.04192
"59941",799.24207,76.06317,87.95438
"59942",799.2554,76.087585,87.85577
"59943",799.2687,76.09247,87.73839
"59944",799.282,76.09735,87.62116
"59945",799.2953,76.16571,87.567566
"59946",799.3086,76.422066,87.7041
"59947",799.3219,77.015335,88.18556
"59948",799.3352,78.04562,89.12258
"59949",799.3485,79.53246,90.54835
"59950",799.3618,81.3782,92.37947
"59951",799.3751,83.38506,94.429405
"59952",799.3884,85.29916,96.44928
"59953",799.40173,86.89586,98.21158
"59954",799.41504,88.03113,99.56234
"59955",799.42834,88.64637,100.42856
"59956",799.44165,88.7538,100.80618
"59957",799.45496,88.41932,100.745255
"59958",799.46826,87.74792,100.33696
"59959",799.48157,86.854355,99.68552
"59960",799.4949,85.84604,98.891396
"59961",799.5082,84.81331,98.04135
"59962",799.5215,83.81964,97.1981
"59963",799.5348,82.90654,96.40436
"59964",799.5481,82.09598,95.68462
"59965",799.5614,81.3904,95.04455
"59966",799.5747,80.79225,94.489845
"59967",799.588,80.31373,94.03608
"59968",799.6013,79.96704,93.699196
"59969",799.6146,79.764404,93.49553
"59970",799.6279,79.708244,93.43201
"59971",799.64124,79.78882,93.50346
"59972",799.65454,79.97681,93.68485
"59973",799.66785,80.22095,93.92827
"59974",799.68115,80.46998,94.184204
"59975",799.69446,80.67506,94.40397
"59976",799.70776,80.799576,94.54958
"59977",799.72107,80.814224,94.58922
"59978",799.7344,80.71412,94.51456
"59979",799.7477,80.51392,94.33668
"59980",799.761,80.233154,94.07197
"59981",799.7743,79.89624,93.74234
"59982",799.7876,79.52758,93.37044
"59983",799.8009,79.14427,92.97237
"59984",799.8142,78.75853,92.55988
"59985",799.8275,78.382545,92.1451
"59986",799.8408,78.02365,91.735664
"59987",799.8541,77.696495,91.34675
"59988",799.86743,77.3962,90.97447
"59989",799.88074,77.13008,90.62698
"59990",799.89404,76.90059,90.30781
"59991",799.90735,76.70527,90.01563
"59992",799.92065,76.541695,89.7491
"59993",799.93396,76.4123,89.511635
"59994",799.94727,76.31953,89.30675
"59995",799.9606,76.25849,89.1307
"59996",799.9739,76.22919,88.984474
"59997",799.9872,76.226746,88.8642
"59998",800.0005,76.243835,88.763374
"59999",800.0138,76.2707,88.67286
"60000",800.0271,76.30488,88.5905
"60001",800.0404,76.33906,88.50921
"60002",800.0537,76.3708,88.426544
"60003",800.067,76.39765,88.33999
"60004",800.0803,76.41718,88.24695
"60005",800.0936,76.4416,88.1594
"60006",800.10693,76.53681,88.14342
"60007",800.12024,76.81758,88.31596
"60008",800.13354,77.4255,88.82443
"60009",800.14685,78.45579,89.77427
"60010",800.16016,79.91089,91.181114
"60011",800.17346,81.69558,92.96302
"60012",800.18677,83.60479,94.92522
"60013",800.2001,85.401695,96.83477
"60014",800.2134,86.871445,98.47332
"60015",800.2267,87.887085,99.70369
"60016",800.24,88.39979,100.46286
"60017",800.2533,88.431526,100.757095
"60018",800.2666,88.04822,100.63727
"60019",800.2799,87.35485,100.195404
"60020",800.2932,86.4564,99.526794
"60021",800.3065,85.45541,98.72756
"60022",800.3198,84.43244,97.87508
"60023",800.3331,83.44366,97.0248
"60024",800.34644,82.528114,96.21687
"60025",800.35974,81.7029,95.470665
"60026",800.37305,80.98024,94.801216
"60027",800.38635,80.360115,94.21172
"60028",800.39966,79.85962,93.72248
"60029",800.41296,79.500725,93.3592
"60030",800.4263,79.30297,93.14584
"60031",800.4396,79.26879,93.08988
"60032",800.4529,79.38354,93.18178
"60033",800.4662,79.61791,93.39689
"60034",800.4795,79.91821,93.68525
"60035",800.4928,80.22583,93.99031
"60036",800.5061,80.48707,94.258606
"60037",800.5194,80.66285,94.44961
"60038",800.5327,80.72144,94.528915
"60039",800.546,80.66041,94.490425
"60040",800.5593,80.49195,94.342606
"60041",800.57263,80.23071,94.09674
"60042",800.58594,79.906006,93.77924
"60043",800.59924,79.54223,93.41253
"60044",800.61255,79.16136,93.01736
"60045",800.62585,78.77806,92.60785
"60046",800.63916,78.40452,92.19612
"60047",800.65247,78.05295,91.79469
"60048",800.6658,77.730675,91.411575
"60049",800.6791,77.437706,91.04769
"60050",800.6924,77.171585,90.7015
"60051",800.7057,76.93721,90.37874
"60052",800.719,76.734566,90.08038
"60053",800.7323,76.56855,89.812325
"60054",800.7456,76.439156,89.5757
"60055",800.7589,76.34638,89.37165
"60056",800.7722,76.282906,89.194
"60057",800.7855,76.24872,89.043655
"60058",800.7988,76.23407,88.91178
"60059",800.81213,76.23407,88.7941
"60060",800.82544,76.241394,88.68374
"60061",800.83875,76.25849,88.58338
"60062",800.85205,76.32929,88.53726
"60063",800.86536,76.561226,88.65449
"60064",800.87866,77.09346,89.07926
"60065",800.89197,78.048065,89.94304
"60066",800.9053,79.45922,91.2932
"60067",800.9186,81.25613,93.073204
"60068",800.9319,83.25323,95.10956
"60069",800.9452,85.20393,97.16193
"60070",800.9585,86.86656,98.987175
"60071",800.9718,88.08484,100.42003
"60072",800.9851,88.78798,101.375824
"60073",800.9984,88.97597,101.83844
"60074",801.0117,88.71961,101.86258
"60075",801.025,88.111694,101.527145
"60076",801.0383,87.259636,100.92857
"60077",801.05164,86.27085,100.16666
"60078",801.06494,85.23811,99.32988
"60079",801.07825,84.224915,98.48037
"60080",801.09155,83.282524,97.670006
"60081",801.10486,82.43046,96.92052
"60082",801.11816,81.671165,96.237175
"60083",801.1315,81.007095,95.62533
"60084",801.1448,80.43824,95.087944
"60085",801.1581,79.97925,94.64265
"60086",801.1714,79.65942,94.32217
"60087",801.1847,79.483635,94.13574
"60088",801.198,79.45678,94.09275
"60089",801.2113,79.55688,94.17587
"60090",801.2246,79.73754,94.34269
"60091",801.2379,79.954834,94.55178
"60092",801.2512,80.15503,94.750565
"60093",801.2645,80.30152,94.9019
"60094",801.27783,80.35767,94.967476
"60095",801.29114,80.31129,94.93227
"60096",801.30444,80.15503,94.785736
"60097",801.31775,79.90112,94.536674
"60098",801.33105,79.571526,94.20399
"60099",801.34436,79.1931,93.81217
"60100",801.35767,78.79027,93.384125
"60101",801.371,78.38499,92.94104
"60102",801.3843,77.99924,92.50482
"60103",801.3976,77.63302,92.07608
"60104",801.4109,77.29366,91.66276
"60105",801.4242,76.98604,91.27056
"60106",801.4375,76.70771,90.89805
"60107",801.4508,76.46113,90.548584
"60108",801.4641,76.25117,90.228035
"60109",801.4774,76.07538,89.9351
"60110",801.4907,75.93866,89.675735
"60111",801.504,75.83856,89.44872
"60112",801.51733,75.7702,89.25032
"60113",801.53064,75.72869,89.07663
"60114",801.54395,75.70672,88.92118
"60115",801.55725,75.69207,88.77237
"60116",801.57056,75.67986,88.62554
"60117",801.58386,75.67254,88.483215
"60118",801.59717,75.7116,88.38705
"60119",801.6105,75.894714,88.43615
"60120",801.6238,76.36347,88.77662
"60121",801.6371,77.24483,89.544334
"60122",801.6504,78.58274,90.79615
"60123",801.6637,80.33082,92.49994
"60124",801.677,82.32548,94.50494
"60125",801.6903,84.32502,96.57715
"60126",801.7036,86.0853,98.47258
"60127",801.7169,87.430534,100.00798
"60128",801.7302,88.27039,101.08005
"60129",801.7435,88.59266,101.66077
"60130",801.75684,88.448616,101.78525
"60131",801.77014,87.93347,101.53412
"60132",801.78345,87.15709,101.00566
"60133",801.79675,86.23178,100.30401
"60134",801.81006,85.24544,99.512405
"60135",801.82336,84.26887,98.69975
"60136",801.8367,83.35577,97.92005
"60137",801.85,82.53788,97.20703
"60138",801.8633,81.82498,96.57344
"60139",801.8766,81.20729,96.01278
"60140",801.8899,80.68482,95.52804
"60141",801.9032,80.2478,95.11242
"60142",801.9165,79.903564,94.775925
"60143",801.9298,79.66186,94.531204
"60144",801.9431,79.534904,94.393684
"60145",801.9564,79.520256,94.3645
"60146",801.9697,79.59594,94.42519
"60147",801.98303,79.72045,94.53708
"60148",801.99634,79.852295,94.66019
"60149",802.00964,79.94995,94.75323
"60150",802.02295,79.97681,94.77852
"60151",802.03625,79.91577,94.71676
"60152",802.04956,79.764404,94.56276
"60153",802.06287,79.52758,94.31857
"60154",802.0762,79.219955,93.996185
"60155",802.0895,78.86595,93.617805
"60156",802.1028,78.48264,93.19906
"60157",802.1161,78.08713,92.75613
"60158",802.1294,77.70382,92.31304
"60159",802.1427,77.33761,91.87508
"60160",802.156,76.995804,91.45007
"60161",802.1693,76.6833,91.043686
"60162",802.1826,76.40009,90.65684
"60163",802.1959,76.14618,90.29043
"60164",802.2092,75.91913,89.94295
"60165",802.22253,75.72625,89.62254
"60166",802.23584,75.56756,89.3303
"60167",802.24915,75.45037,89.0746
"60168",802.26245,75.369804,88.85186
"60169",802.27576,75.32586,88.66322
"60170",802.28906,75.30633,88.49763
"60171",802.30237,75.30877,88.35339
"60172",802.3157,75.318535,88.21656
"60173",802.329,75.335625,88.08736
"60174",802.3423,75.3576,87.96357
"60175",802.3556,75.37469,87.83559
"60176",802.3689,75.39178,87.70814
"60177",802.3822,75.45281,87.62517
"60178",802.3955,75.65301,87.683266
"60179",802.4088,76.12909,88.023506
"60180",802.4221,76.995804,88.76926
"60181",802.4354,78.30686,89.986435
"60182",802.4487,80.00122,91.627884
"60183",802.46204,81.92264,93.54934
"60184",802.47534,83.83917,95.525955
"60185",802.48865,85.514,97.320755
"60186",802.50195,86.785995,98.76506
"60187",802.51526,87.56481,99.755936
"60188",802.52856,87.84314,100.27066
"60189",802.5419,87.682,100.354614
"60190",802.5552,87.17418,100.08685
"60191",802.5685,86.43931,99.57617
"60192",802.5818,85.57015,98.90824
"60193",802.5951,84.664375,98.17653
"60194",802.6084,83.77814,97.43605
"60195",802.6217,82.96513,96.74111
"60196",802.635,82.247345,96.11598
"60197",802.6483,81.62966,95.56853
"60198",802.6616,81.09987,95.08966
"60199",802.6749,80.655525,94.67969
"60200",802.68823,80.289314,94.33396
"60201",802.70154,79.99878,94.05247
"60202",802.71484,79.798584,93.852234
"60203",802.72815,79.69848,93.745834
"60204",802.74146,79.68871,93.72665
"60205",802.75476,79.74731,93.77551
"60206",802.76807,79.84497,93.86528
"60207",802.7814,79.94507,93.96053
"60208",802.7947,80.008545,94.02229
"60209",802.808,80.01343,94.02744
"60210",802.8213,79.940186,93.95462
"60211",802.8346,79.783936,93.7965
"60212",802.8479,79.54955,93.55537
"60213",802.8612,79.2517,93.24344
"60214",802.8745,78.91234,92.88069
"60215",802.8878,78.551,92.48537
"60216",802.9011,78.18234,92.07143
"60217",802.9144,77.8259,91.65818
"60218",802.92773,77.486534,91.25088
"60219",802.94104,77.17403,90.859825
"60220",802.95435,76.89082,90.48831
"60221",802.96765,76.63935,90.13968
"60222",802.98096,76.41718,89.81249
"60223",802.99426,76.226746,89.51009
"60224",803.00757,76.068054,89.23349
"60225",803.0209,75.9411,88.983665
"60226",803.0342,75.84833,88.76405
"60227",803.0475,75.78241,88.5684
"60228",803.0608,75.74578,88.39997
"60229",803.0741,75.72869,88.24994
"60230",803.0874,75.72869,88.11646
"60231",803.1007,75.74334,87.997635
"60232",803.114,75.772644,87.89392
"60233",803.1273,75.80682,87.796
"60234",803.1406,75.843445,87.701584
"60235",803.15393,75.880066,87.608315
"60236",803.16724,75.90448,87.50398
"60237",803.18054,75.92401,87.39553
"60238",803.19385,75.94354,87.28769
"60239",803.20715,76.02411,87.24149
"60240",803.22046,76.27558,87.36872
"60241",803.23376,76.83223,87.80898
"60242",803.2471,77.79416,88.67192
"60243",803.2604,79.17845,89.98728
"60244",803.2737,80.90456,91.68771
"60245",803.287,82.78691,93.598335
"60246",803.3003,84.593575,95.49209
"60247",803.3136,86.117035,97.159096
"60248",803.3269,87.2108,98.444016
"60249",803.3402,87.82361,99.28216
"60250",803.3535,87.96521,99.66824
"60251",803.3668,87.70641,99.658356
"60252",803.3801,87.14732,99.34009
"60253",803.39343,86.39536,98.81148
"60254",803.40674,85.5433,98.15926
"60255",803.42004,84.67658,97.465775
"60256",803.43335,83.85138,96.78671
"60257",803.44666,83.104294,96.15998
"60258",803.45996,82.44755,95.60024
"60259",803.47327,81.883575,95.112755
"60260",803.4866,81.40017,94.68821
"60261",803.4999,80.99489,94.32668
"60262",803.5132,80.67017,94.03306
"60263",803.5265,80.43336,93.817184
"60264",803.5398,80.2942,93.69157
"60265",803.5531,80.24536,93.651924
"60266",803.5664,80.27711,93.69134
"60267",803.5797,80.36256,93.785446
"60268",803.593,80.46998,93.9042
"60269",803.6063,80.55787,94.006775
"60270",803.6196,80.59693,94.06327
"60271",803.63293,80.56275,94.047745
"60272",803.64624,80.448006,93.950584
"60273",803.65955,80.257576,93.774155
"60274",803.67285,80.008545,93.53317
"60275",803.68616,79.71801,93.242905
"60276",803.69946,79.395744,92.91183
"60277",803.71277,79.05394,92.55114
"60278",803.7261,78.70481,92.17245
"60279",803.7394,78.365456,91.79262
"60280",803.7527,78.04318,91.419266
"60281",803.766,77.75021,91.06515
"60282",803.7793,77.49386,90.73849
"60283",803.7926,77.27657,90.44289
"60284",803.8059,77.08858,90.169785
"60285",803.8192,76.929886,89.92011
"60286",803.8325,76.790726,89.68501
"60287",803.8458,76.67353,89.46753
"60288",803.85913,76.578316,89.268364
"60289",803.87244,76.490425,89.07355
"60290",803.88574,76.41474,88.88819
"60291",803.89905,76.351265,88.71268
"60292",803.91235,76.30244,88.54983
"60293",803.92566,76.265816,88.39766
"60294",803.93896,76.24872,88.26387
"60295",803.9523,76.24628,88.1442
"60296",803.9656,76.25361,88.03423
"60297",803.9789,76.265816,87.92937
"60298",803.9922,76.280464,87.827324
"60299",804.0055,76.29023,87.720856
"60300",804.0188,76.297554,87.61225
"60301",804.0321,76.299995,87.49899
"60302",804.0454,76.30488,87.38825
"60303",804.0587,76.33906,87.30696
"60304",804.072,76.49287,87.34637
"60305",804.0853,76.90303,87.646935
"60306",804.09863,77.68673,88.333855
"60307",804.11194,78.91234,89.487175
"60308",804.12524,80.54566,91.08651
"60309",804.13855,82.45487,93.01277
"60310",804.15186,84.41047,95.04508
"60311",804.16516,86.17319,96.945625
"60312",804.17847,87.54772,98.51307
"60313",804.1918,88.43397,99.63518
"60314",804.2051,88.80751,100.27228
"60315",804.2184,88.71229,100.452286
"60316",804.2317,88.23865,100.2509
"60317",804.245,87.50866,99.778366
"60318",804.2583,86.62974,99.134094
"60319",804.2716,85.697105,98.40864
"60320",804.2849,84.788895,97.67846
"60321",804.2982,83.95148,96.99069
"60322",804.3115,83.20683,96.36953
"60323",804.3248,82.562294,95.8252
"60324",804.33813,82.01053,95.35351
"60325",804.35144,81.54665,94.95246
"60326",804.36475,81.17555,94.62969
"60327",804.37805,80.89967,94.39055
"60328",804.39136,80.723885,94.242874
"60329",804.40466,80.65308,94.194695
"60330",804.41797,80.672615,94.234634
"60331",804.4313,80.77028,94.35332
"60332",804.4446,80.89967,94.50678
"60333",804.4579,81.02663,94.66185
"60334",804.4712,81.11696,94.78426
"60335",804.4845,81.13893,94.84114
"60336",804.4978,81.07057,94.80837
"60337",804.5111,80.91188,94.683136
"60338",804.5244,80.66285,94.4626
"60339",804.5377,80.34791,94.16837
"60340",804.551,79.98413,93.81547
"60341",804.56433,79.59594,93.42678
"60342",804.57764,79.202866,93.02108
"60343",804.59094,78.82445,92.61775
"60344",804.60425,78.46311,92.21968
"60345",804.61755,78.12619,91.83473
"60346",804.63086,77.81369,91.46368
"60347",804.64417,77.53292,91.114586
"60348",804.6575,77.28878,90.79335
"60349",804.6708,77.07637,90.496216
"60350",804.6841,76.893265,90.22175
"60351",804.6974,76.74189,89.97329
"60352",804.7107,76.61494,89.74452
"60353",804.724,76.51484,89.53864
"60354",804.7373,76.436714,89.35161
"60355",804.7506,76.38056,89.184105
"60356",804.7639,76.3415,89.03194
"60357",804.7772,76.32197,88.89808
"60358",804.7905,76.3122,88.77338
"60359",804.80383,76.30976,88.65569
"60360",804.81714,76.31953,88.55014
"60361",804.83044,76.334175,88.449776
"60362",804.84375,76.34882,88.34987
"60363",804.85706,76.36103,88.24798
"60364",804.87036,76.37568,88.14891
"60365",804.88367,76.383,88.04298
"60366",804.897,76.39033,87.93727
"60367",804.9103,76.39033,87.82447
"60368",804.9236,76.39033,87.71167
"60369",804.9369,76.43183,87.64037
"60370",804.9502,76.62226,87.7193
"60371",804.9635,77.0959,88.08739
"60372",804.9768,77.98215,88.88288
"60373",804.9901,79.32983,90.1675
"60374",805.0034,81.08522,91.901955
"60375",805.0167,83.07744,93.928085
"60376",805.03,85.067215,96.01403
"60377",805.04333,86.81285,97.918015
"60378",805.05664,88.12634,99.444405
"60379",805.06995,88.92226,100.49426
"60380",805.08325,89.19325,101.04408
"60381",805.09656,88.9955,101.13362
"60382",805.10986,88.43397,100.853195
"60383",805.12317,87.63073,100.31352
"60384",805.1365,86.695656,99.61691
"60385",805.1498,85.714195,98.84469
"60386",805.1631,84.76204,98.0711
"60387",805.1764,83.88312,97.34099
"60388",805.1897,83.104294,96.68351
"60389",805.203,82.4329,96.10912
"60390",805.2163,81.864044,95.616295
"60391",805.2296,81.38796,95.19846
"60392",805.2429,81.004654,94.85853
"60393",805.2562,80.71656,94.60183
"60394",805.26953,80.5359,94.44356
"60395",805.28284,80.465096,94.3895
"60396",805.29614,80.49195,94.43089
"60397",805.30945,80.59205,94.546364
"60398",805.32275,80.719,94.69182
"60399",805.33606,80.833755,94.82904
"60400",805.34937,80.89479,94.91613
"60401",805.3627,80.8777,94.927
"60402",805.376,80.765396,94.842125
"60403",805.3893,80.567635,94.66828
"60404",805.4026,80.289314,94.4077
"60405",805.4159,79.954834,94.08226
"60406",805.4292,79.57885,93.704865
"60407",805.4425,79.185776,93.29863
"60408",805.4558,78.785385,92.872795
"60409",805.4691,78.399635,92.44909
"60410",805.4824,78.03586,92.0353
"60411",805.4957,77.70382,91.641884
"60412",805.50903,77.40597,91.27228
"60413",805.52234,77.14473,90.92998
"60414",805.53564,76.925,90.621025
"60415",805.54895,76.74677,90.3467
"60416",805.56226,76.595406,90.09367
"60417",805.57556,76.473335,89.86521
"60418",805.58887,76.3708,89.652466
"60419",805.6022,76.28535,89.453606
"60420",805.6155,76.22186,89.27404
"60421",805.6288,76.17792,89.11203
"60422",805.6421,76.1535,88.96818
"60423",805.6554,76.14618,88.84065
"60424",805.6687,76.14374,88.71778
"60425",805.682,76.14618,88.59972
"60426",805.6953,76.16083,88.493935
"60427",805.7086,76.18524,88.39838
"60428",805.7219,76.21698,88.310905
"60429",805.7352,76.25117,88.226875
"60430",805.74854,76.282906,88.141464
"60431",805.76184,76.30488,88.04728
"60432",805.77515,76.3122,87.93913
"60433",805.78845,76.3122,87.82389
"60434",805.80176,76.33173,87.72818
"60435",805.81506,76.45869,87.7405
"60436",805.82837,76.83467,88.00582
"60437",805.8417,77.58663,88.65887
"60438",805.855,78.78783,89.784645
"60439",805.8683,80.40894,91.36788
"60440",805.8816,82.31571,93.28743
"60441",805.8949,84.27375,95.31783
"60442",805.9082,86.03403,97.21166
"60443",805.9215,87.411,98.7772
"60444",805.9348,88.29725,99.895035
"60445",805.9481,88.67567,100.532745
"60446",805.9614,88.59266,100.720856
"60447",805.97473,88.14099,100.537704
"60448",805.98804,87.42565,100.07677
"60449",806.00134,86.55894,99.44211
"60450",806.01465,85.626305,98.71444
"60451",806.02795,84.698555,97.96251
"60452",806.04126,83.824524,97.235306
"60453",806.05457,83.03349,96.56379
"60454",806.0679,82.337685,95.962776
"60455",806.0812,81.73708,95.43523
"60456",806.0945,81.231705,94.98413
"60457",806.1078,80.82155,94.612465
"60458",806.1211,80.51881,94.335396
"60459",806.1344,80.33082,94.16362
"60460",806.1477,80.26734,94.11048
"60461",806.161,80.31617,94.16766
"60462",806.1743,80.448006,94.30938
"60463",806.1876,80.62379,94.49916
"60464",806.2009,80.797134,94.692
"60465",806.21423,80.92409,94.843864
"60466",806.22754,80.972916,94.92157
"60467",806.24084,80.92897,94.90803
"60468",806.25415,80.78737,94.795456
"60469",806.26746,80.55787,94.59056
"60470",806.28076,80.26002,94.31014
"60471",806.29407,79.91089,93.96914
"60472",806.3074,79.52514,93.580605
"60473",806.3207,79.132065,93.17269
"60474",806.334,78.74876,92.76226
"60475",806.3473,78.38743,92.36183
"60476",806.3606,78.05539,91.9794
"60477",806.3739,77.75754,91.62078
"60478",806.3872,77.49142,91.284584
"60479",806.4005,77.25948,90.97426
"60480",806.4138,77.051956,90.68109
"60481",806.4271,76.87373,90.41074
"60482",806.4404,76.72724,90.16656
"60483",806.45374,76.60761,89.94466
"60484",806.46704,76.51484,89.74587
"60485",806.48035,76.44648,89.5686
"60486",806.49365,76.40009,89.41117
"60487",806.50696,76.3708,89.26938
"60488",806.52026,76.35371,89.13888
"60489",806.53357,76.351265,89.02249
"60490",806.5469,76.35615,88.91335
"60491",806.5602,76.3708,88.81413
"60492",806.5735,76.39521,88.725136
"60493",806.5868,76.422066,88.63934
"60494",806.6001,76.44892,88.55439
"60495",806.6134,76.46845,88.46295
"60496",806.6267,76.47578,88.35992
"60497",806.64,76.470894,88.2449
"60498",806.6533,76.47822,88.141945
"60499",806.6666,76.561226,88.1149
"60500",806.67993,76.84932,88.29553
"60501",806.69324,77.48165,88.82941
"60502",806.70654,78.54856,89.81762
"60503",806.71985,80.05249,91.27619
"60504",806.73315,81.87869,93.104034
"60505",806.74646,83.824524,95.108574
"60506",806.75977,85.643394,97.04696
"60507",806.7731,87.12535,98.70527
"60508",806.7864,88.145874,99.948456
"60509",806.7997,88.66102,100.718155
"60510",806.813,88.70496,101.03276
"60511",806.8263,88.343636,100.94347
"60512",806.8396,87.68932,100.5499
"60513",806.8529,86.84703,99.94789
"60514",806.8662,85.9144,99.229225
"60515",806.8795,84.97444,98.47409
"60516",806.8928,84.07843,97.73353
"60517",806.9061,83.265434,97.04798
"60518",806.91943,82.55009,96.43468
"60519",806.93274,81.9324,95.89668
"60520",806.94604,81.40749,95.43216
"60521",806.95935,80.970474,95.03912
"60522",806.97266,80.62867,94.727646
"60523",806.98596,80.38941,94.50803
"60524",806.99927,80.26246,94.39325
"60525",807.0126,80.24292,94.38191
"60526",807.0259,80.31373,94.46031
"60527",807.0392,80.4358,94.592186
"60528",807.0525,80.57252,94.74252
"60529",807.0658,80.68238,94.87028
"60530",807.0791,80.73365,94.94287
"60531",807.0924,80.70435,94.9365
"60532",807.1057,80.587166,94.841324
"60533",807.119,80.38209,94.654594
"60534",807.1323,80.10864,94.39309
"60535",807.1456,79.77905,94.066895
"60536",807.15894,79.415276,93.69621
"60537",807.17224,79.03441,93.29707
"60538",807.18555,78.658424,92.890915
"60539",807.19885,78.30198,92.492546
"60540",807.21216,77.9675,92.105
"60541",807.22546,77.6672,91.74119
"60542",807.2388,77.39864,91.399734
"60543",807.2521,77.15938,91.07918
"60544",807.2654,76.94209,90.773125
"60545",807.2787,76.75166,90.48714
"60546",807.292,76.58808,90.222046
"60547",807.3053,76.45136,89.97871
"60548",807.3186,76.34882,89.765274
"60549",807.3319,76.26826,89.57061
"60550",807.3452,76.21698,89.40272
"60551",807.3585,76.1828,89.25032
"60552",807.3718,76.16083,89.10906
"60553",807.38513,76.155945,88.98421
"60554",807.39844,76.16327,88.87141
"60555",807.41174,76.1828,88.77104
"60556",807.42505,76.2121,88.68105
"60557",807.43835,76.241394,88.59198
"60558",807.45166,76.2707,88.50383
"60559",807.46497,76.299995,88.41659
"60560",807.4783,76.32441,88.32538
"60561",807.4916,76.34394,88.23005
"60562",807.5049,76.36103,88.13289
"60563",807.5182,76.40986,88.068
"60564",807.5315,76.58076,88.12671
"60565",807.5448,77.01778,88.45688
"60566",807.5581,77.84299,89.188896
"60567",807.5714,79.11742,90.39592
"60568",807.5847,80.79469,92.045616
"60569",807.598,82.70878,93.984535
"60570",807.6113,84.62043,95.980835
"60571",807.62463,86.29282,97.797615
"60572",807.63794,87.555046,99.256485
"60573",807.65125,88.33631,100.27385
"60574",807.66455,88.63172,100.82977
"60575",807.67786,88.497444,100.96524
"60576",807.69116,88.0238,100.75714
"60577",807.70447,87.31579,100.299866
"60578",807.7178,86.46616,99.67886
"60579",807.7311,85.56527,98.980034
"60580",807.7444,84.67902,98.2677
"60581",807.7577,83.85626,97.591156
"60582",807.771,83.123825,96.979225
"60583",807.7843,82.48905,96.44207
"60584",807.7976,81.94949,95.98029
"60585",807.8109,81.497826,95.58955
"60586",807.8242,81.129166,95.26769
"60587",807.8375,80.848404,95.02222
"60588",807.8508,80.66285,94.863174
"60589",807.86414,80.570076,94.791115
"60590",807.87744,80.570076,94.80893
"60591",807.89075,80.64088,94.897545
"60592",807.90405,80.75563,95.032326
"60593",807.91736,80.88014,95.18045
"60594",807.93066,80.972916,95.30073
"60595",807.944,81.007095,95.36531
"60596",807.9573,80.955826,95.34551
"60597",807.9706,80.816666,95.23622
"60598",807.9839,80.59449,95.039566
"60599",807.9972,80.306404,94.77006
"60600",808.0105,79.96704,94.44027
"60601",808.0238,79.60082,94.07302
"60602",808.0371,79.22972,93.689445
"60603",808.0504,78.86351,93.299164
"60604",808.0637,78.51194,92.91208
"60605",808.077,78.187225,92.54086
"60606",808.09033,77.891815,92.188805
"60607",808.10364,77.625694,91.856804
"60608",808.11694,77.38888,91.54579
"60609",808.13025,77.188675,91.26399
"60610",808.14355,77.01778,91.00524
"60611",808.15686,76.876175,90.77045
"60612",808.17017,76.76143,90.55808
"60613",808.1835,76.67353,90.36898
"60614",808.1968,76.610054,90.20155
"60615",808.2101,76.56367,90.04923
"60616",808.2234,76.53681,89.91499
"60617",808.2367,76.52705,89.797005
"60618",808.25,76.52705,89.68848
"60619",808.2633,76.541695,89.5946
"60620",808.2766,76.56611,89.51094
"60621",808.2899,76.59052,89.42805
"60622",808.3032,76.612495,89.343475
"60623",808.3165,76.63447,89.25959
"60624",808.32983,76.64423,89.164185
"60625",808.34314,76.64179,89.05688
"60626",808.35645,76.63203,88.94217
"60627",808.36975,76.65644,88.861336
"60628",808.38306,76.8127,88.91311
"60629",808.39636,77.23262,89.23343
"60630",808.40967,78.03586,89.95019
"60631",808.423,79.25414,91.10709
"60632",808.4363,80.81911,92.64875
"60633",808.4496,82.55497,94.41021
"60634",808.4629,84.2298,96.16488
"60635",808.4762,85.626305,97.693565
"60636",808.4895,86.60288,98.84596
"60637",808.5028,87.11803,99.567444
"60638",808.5161,87.183945,99.8558
"60639",808.5294,86.873886,99.77023
"60640",808.5427,86.28306,99.39421
"60641",808.556,85.51156,98.81905
"60642",808.56934,84.65217,98.1319
"60643",808.58264,83.775696,97.4008
"60644",808.59595,82.93828,96.68137
"60645",808.60925,82.1741,96.00902
"60646",808.62256,81.50271,95.40556
"60647",808.63586,80.92653,94.87634
"60648",808.6492,80.445564,94.42433
"60649",808.6625,80.06714,94.05983
"60650",808.6758,79.801025,93.795815
"60651",808.6891,79.65942,93.64799
"60652",808.7024,79.65453,93.63246
"60653",808.7157,79.77661,93.743744
"60654",808.729,80.00366,93.96381
"60655",808.7423,80.28443,94.2447
"60656",808.7556,80.56275,94.531906
"60657",808.7689,80.78737,94.77411
"60658",808.7822,80.919205,94.93055
"60659",808.79553,80.94362,94.98369
"60660",808.80884,80.86061,94.93017
"60661",808.82214,80.67994,94.77639
"60662",808.83545,80.41871,94.53641
"60663",808.84875,80.09888,94.22966
"60664",808.86206,79.742424,93.8763
"60665",808.87537,79.37133,93.497154
"60666",808.8887,79.009995,93.11617
"60667",808.902,78.66819,92.74343
"60668",808.9153,78.35813,92.391754
"60669",808.9286,78.082245,92.06456
"60670",808.9419,77.838104,91.76049
"60671",808.9552,77.625694,91.48052
"60672",808.9685,77.44503,91.22566
"60673",808.9818,77.29366,90.99445
"60674",808.9951,77.16914,90.78536
"60675",809.0084,77.07149,90.59924
"60676",809.0217,77.00069,90.43693
"60677",809.03503,76.95918,90.3017
"60678",809.04834,76.93477,90.18226
"60679",809.06165,76.91768,90.06938
"60680",809.07495,76.90059,89.95597
"60681",809.08826,76.8835,89.842026
"60682",809.10156,76.876175,89.73731
"60683",809.11487,76.925,89.68852
"60684",809.1282,77.12276,89.790184
"60685",809.1415,77.591515,90.16903
"60686",809.1548,78.42405,90.9263
"60687",809.1681,79.63012,92.08312
"60688",809.1814,81.13405,93.57549
"60689",809.1947,82.760056,95.23694
"60690",809.208,84.298164,96.8613
"60691",809.2213,85.54818,98.24563
"60692",809.2346,86.38804,99.258865
"60693",809.2479,86.77623,99.84668
"60694",809.2612,86.744484,100.02669
"60695",809.27454,86.366066,99.85903
"60696",809.28784,85.73617,99.42807
"60697",809.30115,84.95003,98.82118
"60698",809.31445,84.1004,98.12624
"60699",809.32776,83.25567,97.409645
"60700",809.34106,82.46952,96.725235
"60701",809.3544,81.75906,96.09195
"60702",809.3677,81.14137,95.52923
"60703",809.381,80.61402,95.037544
"60704",809.3943,80.177,94.61971
"60705",809.4076,79.83032,94.278564
"60706",809.4209,79.588615,94.031555
"60707",809.4342,79.47143,93.90151
"60708",809.4475,79.49096,93.904526
"60709",809.4608,79.63256,94.03022
"60710",809.4741,79.85962,94.2458
"60711",809.4874,80.12573,94.50752
"60712",809.50073,80.37476,94.76048
"60713",809.51404,80.56275,94.96018
"60714",809.52734,80.65308,95.0681
"60715",809.54065,80.64088,95.0763
"60716",809.55396,80.52369,94.97914
"60717",809.56726,80.31129,94.783104
"60718",809.58057,80.03052,94.51206
"60719",809.5939,79.708244,94.19074
"60720",809.6072,79.361565,93.834946
"60721",809.6205,79.01732,93.47075
"60722",809.6338,78.68528,93.108
"60723",809.6471,78.37522,92.75686
"60724",809.6604,78.08957,92.42043
"60725",809.6737,77.83078,92.101944
"60726",809.687,77.60616,91.80954
"60727",809.7003,77.41329,91.54186
"60728",809.7136,77.25216,91.2999
"60729",809.7269,77.120316,91.082184
"60730",809.74023,77.015335,90.887215
"60731",809.75354,76.929886,90.708496
"60732",809.76685,76.859085,90.541756
"60733",809.78015,76.79805,90.38257
"60734",809.79346,76.754105,90.23856
"60735",809.80676,76.78096,90.16399
"60736",809.82007,76.99092,90.27335
"60737",809.8334,77.50851,90.69691
"60738",809.8467,78.416725,91.52727
"60739",809.86,79.71313,92.77419
"60740",809.8733,81.30251,94.354614
"60741",809.8866,82.98955,96.08235
"60742",809.8999,84.55207,97.7383
"60743",809.9132,85.78989,99.11836
"60744",809.9265,86.60044,100.10985
"60745",809.9398,86.94957,100.66524
"60746",809.9531,86.871445,100.80428
"60747",809.96643,86.44907,100.59664
"60748",809.97974,85.78989,100.138985
"60749",809.99304,84.998856,99.528885
"60750",810.00635,84.16632,98.85256
"60751",810.01965,83.35821,98.174644
"60752",810.03296,82.61356,97.53494
"60753",810.04626,81.94949,96.952545
"60754",810.0596,81.36843,96.4324
"60755",810.0729,80.85817,95.964905
"60756",810.0862,80.42359,95.557144
"60757",810.0995,80.07202,95.21881
"60758",810.1128,79.815674,94.964714
"60759",810.1261,79.674065,94.817345
"60760",810.1394,79.65453,94.78763
"60761",810.1527,79.74731,94.869606
"60762",810.166,79.91333,95.02773
"60763",810.1793,80.111084,95.22278
"60764",810.1926,80.29664,95.411804
"60765",810.20593,80.41871,95.543144
"60766",810.21924,80.448006,95.585526
"60767",810.23254,80.37965,95.531166
"60768",810.24585,80.20874,95.37212
"60769",810.25916,79.95239,95.1223
"60770",810.27246,79.63744,94.80586
"60771",810.28577,79.281,94.43809
"60772",810.2991,78.907455,94.042076
"60773",810.3124,78.53391,93.63439
"60774",810.3257,78.17258,93.22724
"60775",810.339,77.840546,92.838104
"60776",810.3523,77.540245,92.47032
"60777",810.3656,77.2839,92.13711
"60778",810.3789,77.06416,91.8325
"60779",810.3922,76.87373,91.55032
"60780",810.4055,76.715034,91.29393
"60781",810.4188,76.5832,91.05944
"60782",810.4321,76.470894,90.84036
"60783",810.44543,76.37324,90.63242
"60784",810.45874,76.29267,90.43852
"60785",810.47205,76.22186,90.25186
"60786",810.48535,76.1828,90.094734
"60787",810.49866,76.24872,90.04137
"60788",810.51196,76.52949,90.20491
"60789",810.52527,77.137405,90.70438
"60790",810.5386,78.133514,91.61103
"60791",810.5519,79.500725,92.919914
"60792",810.5652,81.112076,94.51566
"60793",810.5785,82.757614,96.19595
"60794",810.5918,84.2298,97.75431
"60795",810.6051,85.350426,99.00712
"60796",810.6184,86.031586,99.85548
"60797",810.6317,86.26597,100.27834
"60798",810.645,86.10483,100.31301
"60799",810.6583,85.63607,100.03503
"60800",810.67163,84.962234,99.537315
"60801",810.68494,84.17853,98.908676
"60802",810.69824,83.36797,98.2287
"60803",810.71155,82.59159,97.55756
"60804",810.72485,81.881134,96.92809
"60805",810.73816,81.253685,96.35943
"60806",810.75146,80.70435,95.84927
"60807",810.7648,80.22827,95.3952
"60808",810.7781,79.82056,94.99462
"60809",810.7914,79.49096,94.65942
"60810",810.8047,79.25414,94.40669
"60811",810.818,79.12718,94.256424
"60812",810.8313,79.11253,94.2145
"60813",810.8446,79.19554,94.269775
"60814",810.8579,79.344475,94.39357
"60815",810.8712,79.50805,94.53666
"60816",810.8845,79.64477,94.658005
"60817",810.8978,79.71801,94.720146
"60818",810.91113,79.69604,94.68936
"60819",810.92444,79.58129,94.56512
"60820",810.93774,79.38354,94.35428
"60821",810.95105,79.11253,94.06401
"60822",810.96436,78.79515,93.718895
"60823",810.97766,78.450905,93.337
"60824",810.99097,78.099335,92.93702
"60825",811.0043,77.752655,92.530945
"60826",811.0176,77.42306,92.13112
"60827",811.0309,77.120316,91.74785
"60828",811.0442,76.84688,91.38442
"60829",811.0575,76.60029,91.0393
"60830",811.0708,76.383,90.715775
"60831",811.0841,76.19745,90.41719
"60832",811.0974,76.04852,90.14944
"60833",811.1107,75.928894,89.90633
"60834",811.124,75.841,89.691216
"60835",811.1373,75.78241,89.502655
"60836",811.15063,75.74334,89.33179
"60837",811.16394,75.716484,89.17191
"60838",811.17725,75.69695,89.018524
"60839",811.19055,75.67986,88.86697
"60840",811.20386,75.66277,88.714874
"60841",811.21716,75.64568,88.56225
"60842",811.23047,75.62859,88.40909
"60843",811.2438,75.648125,88.292015
"60844",811.2571,75.78729,88.29519
"60845",811.2704,76.16571,88.54196
"60846",811.2837,76.88838,89.14481
"60847",811.297,78.00412,90.163315
"60848",811.3103,79.466545,91.56337
"60849",811.3236,81.129166,93.20932
"60850",811.3369,82.78447,94.89991
"60851",811.3502,84.21515,96.4176
"60852",811.3635,85.26742,97.60159
"60853",811.37683,85.875336,98.374115
"60854",811.39014,86.03403,98.71641
"60855",811.40344,85.8143,98.68524
"60856",811.41675,85.30648,98.359116
"60857",811.43005,84.61555,97.83401
"60858",811.44336,83.83673,97.199425
"60859",811.45667,83.05058,96.53317
"60860",811.47,82.30595,95.883865
"60861",811.4833,81.62966,95.27964
"60862",811.4966,81.03883,94.73974
"60863",811.5099,80.52613,94.2595
"60864",811.5232,80.096436,93.846245
"60865",811.5365,79.744865,93.49769
"60866",811.5498,79.48852,93.23337
"60867",811.5631,79.33471,93.063576
"60868",811.5764,79.29565,93.00372
"60869",811.5897,79.35912,93.04519
"60870",811.603,79.500725,93.16676
"60871",811.61633,79.68627,93.33671
"60872",811.62964,79.871826,93.51246
"60873",811.64294,80.01099,93.64761
"60874",811.65625,80.076904,93.713875
"60875",811.66956,80.05249,93.691864
"60876",811.68286,79.93042,93.571434
"60877",811.69617,79.727776,93.366615
"60878",811.7095,79.45922,93.089554
"60879",811.7228,79.14427,92.757706
"60880",811.7361,78.80492,92.39161
"60881",811.7494,78.46067,92.01002
"60882",811.7627,78.12131,91.62255
"60883",811.776,77.80148,91.24402
"60884",811.7893,77.50851,90.88234
"60885",811.8026,77.24483,90.5408
"60886",811.8159,77.01289,90.22277
"60887",811.8292,76.81026,89.92679
"60888",811.8425,76.64179,89.658646
"60889",811.85583,76.50019,89.4121
"60890",811.86914,76.385445,89.18799
"60891",811.88245,76.30488,88.99447
"60892",811.89575,76.25117,88.82529
"60893",811.90906,76.224304,88.681274
"60894",811.92236,76.21942,88.5584
"60895",811.93567,76.23407,88.45491
"60896",811.949,76.25605,88.35921
"60897",811.9623,76.280464,88.266624
"60898",811.9756,76.299995,88.16992
"60899",811.9889,76.317085,88.07139
"60900",812.0022,76.317085,87.9563
"60901",812.0155,76.30488,87.829
"60902",812.0288,76.29267,87.701324
"60903",812.0421,76.33906,87.63186
"60904",812.0554,76.541695,87.72009
"60905",812.0687,77.02754,88.09787
"60906",812.08203,77.88449,88.86193
"60907",812.09534,79.11986,90.03119
"60908",812.10864,80.64576,91.52959
"60909",812.12195,82.286415,93.19042
"60910",812.13525,83.81964,94.7951
"60911",812.14856,85.05501,96.149826
"60912",812.16187,85.88022,97.133
"60913",812.1752,86.26597,97.70251
"60914",812.1885,86.24643,97.87878
"60915",812.2018,85.89731,97.72485
"60916",812.2151,85.316246,97.32808
"60917",812.2284,84.59846,96.77642
"60918",812.2417,83.824524,96.14619
"60919",812.255,83.05791,95.499084
"60920",812.2683,82.34501,94.881744
"60921",812.2816,81.705345,94.31536
"60922",812.2949,81.146255,93.80956
"60923",812.3082,80.67017,93.3693
"60924",812.32153,80.274666,92.994736
"60925",812.33484,79.96704,92.695694
"60926",812.34814,79.75708,92.4847
"60927",812.36145,79.6643,92.38433
"60928",812.37476,79.68871,92.398254
"60929",812.38806,79.81323,92.51305
"60930",812.40137,80.01099,92.70496
"60931",812.4147,80.23071,92.92503
"60932",812.428,80.42603,93.12756
"60933",812.4413,80.55543,93.27027
"60934",812.4546,80.601814,93.334015
"60935",812.4679,80.5481,93.29911
"60936",812.4812,80.40406,93.172195
"60937",812.4945,80.177,92.95776
"60938",812.5078,79.89136,92.67765
"60939",812.5211,79.5642,92.3471
"60940",812.5344,79.22484,91.99412
"60941",812.5477,78.88548,91.63054
"60942",812.56104,78.56321,91.27344
"60943",812.57434,78.260475,90.925804
"60944",812.58765,77.98459,90.59556
"60945",812.60095,77.73556,90.28355
"60946",812.61426,77.51583,89.99306
"60947",812.62756,77.32784,89.72744
"60948",812.64087,77.17647,89.49256
"60949",812.6542,77.05684,89.2847
"60950",812.6675,76.964066,89.09995
"60951",812.6808,76.90303,88.944046
"60952",812.6941,76.86153,88.80576
"60953",812.7074,76.839554,88.685715
"60954",812.7207,76.82735,88.574745
"60955",812.734,76.82979,88.47804
"60956",812.7473,76.83711,88.3863
"60957",812.7606,76.84932,88.29967
"60958",812.7739,76.86397,88.21586
"60959",812.78723,76.88594,88.13983
"60960",812.80054,76.90059,88.05717
"60961",812.81384,76.910355,87.97008
"60962",812.82715,76.90547,87.868645
"60963",812.84045,76.88838,87.75485
"60964",812.85376,76.89082,87.66006
"60965",812.86707,76.978714,87.65079
"60966",812.8804,77.26681,87.84447
"60967",812.8937,77.872284,88.36453
"60968",812.907,78.853745,89.2795
"60969",812.9203,80.181885,90.57182
"60970",812.9336,81.74197,92.13759
"60971",812.9469,83.33379,93.78385
"60972",812.9602,84.74006,95.2943
"60973",812.9735,85.79721,96.49957
"60974",812.9868,86.4271,97.31062
"60975",813.0001,86.62241,97.70678
"60976",813.0134,86.43687,97.72818
"60977",813.02673,85.96323,97.45569
"60978",813.04004,85.3016,96.98041
"60979",813.05334,84.54963,96.39411
"60980",813.06665,83.77081,95.75747
"60981",813.07996,83.021286,95.12578
"60982",813.09326,82.33524,94.53415
"60983",813.10657,81.73464,94.00652
"60984",813.1199,81.21217,93.53826
"60985",813.1332,80.77516,93.13913
"60986",813.1465,80.42359,92.81178
"60987",813.1598,80.164795,92.56622
"60988",813.1731,80.008545,92.41512
"60989",813.1864,79.9646,92.371445
"60990",813.1997,80.028076,92.433815
"60991",813.213,80.177,92.58362
"60992",813.2263,80.37476,92.78691
"60993",813.2396,80.57496,92.99882
"60994",813.2529,80.73365,93.175476
"60995",813.26624,80.81911,93.28386
"60996",813.27954,80.814224,93.30457
"60997",813.29285,80.71168,93.22747
"60998",813.30615,80.52125,93.05928
"60999",813.31946,80.26734,92.82166
"61000",813.33276,79.95972,92.52239
"61001",813.34607,79.62768,92.189095
"61002",813.3594,79.28588,91.83566
"61003",813.3727,78.94896,91.476425
"61004",813.386,78.63157,91.12619
"61005",813.3993,78.34348,90.79534
"61006",813.4126,78.082245,90.48234
"61007",813.4259,77.857635,90.1978
"61008",813.4392,77.65743,89.93065
"61009",813.4525,77.48409,89.684105
"61010",813.4658,77.33517,89.45656
"61011",813.4791,77.21553,89.25365
"61012",813.49243,77.12276,89.07386
"61013",813.50574,77.0544,88.91559
"61014",813.51904,77.00557,88.77471
"61015",813.53235,76.981155,88.65672
"61016",813.54565,76.96651,88.54774
"61017",813.55896,76.961624,88.44806
"61018",813.57227,76.96651,88.357994
"61019",813.5856,76.978714,88.275406
"61020",813.5989,77.00069,88.202965
"61021",813.6122,77.0251,88.13365
"61022",813.6255,77.051956,88.06754
"61023",813.6388,77.07637,87.99983
"61024",813.6521,77.09346,87.92556
"61025",813.6654,77.100784,87.84206
"61026",813.6787,77.0959,87.746574
"61027",813.692,77.086136,87.64606
"61028",813.7053,77.09102,87.55988
"61029",813.7186,77.19112,87.56908
"61030",813.73193,77.49874,87.788925
"61031",813.74524,78.12131,88.33333
"61032",813.75854,79.11009,89.263405
"61033",813.77185,80.43824,90.56374
"61034",813.78516,81.97391,92.113106
"61035",813.79846,83.52422,93.725105
"61036",813.81177,84.88167,95.19268
"61037",813.8251,85.89487,96.35843
"61038",813.8384,86.4979,97.145676
"61039",813.8517,86.68345,97.53428
"61040",813.865,86.51011,97.56979
"61041",813.8783,86.06088,97.324005
"61042",813.8916,85.43099,96.883514
"61043",813.9049,84.70832,96.33056
"61044",813.9182,83.9588,95.72817
"61045",813.9315,83.24101,95.134094
"61046",813.9448,82.58671,94.58107
"61047",813.9581,82.01541,94.09061
"61048",813.97144,81.529564,93.66774
"61049",813.98474,81.12428,93.31026
"61050",813.99805,80.79469,93.0158
"61051",814.01135,80.54566,92.7916
"61052",814.02466,80.38209,92.64508
"61053",814.03796,80.31373,92.58866
"61054",814.0513,80.34547,92.6302
"61055",814.0646,80.462654,92.75819
"61056",814.0779,80.635994,92.945984
"61057",814.0912,80.82643,93.156296
"61058",814.1045,80.99245,93.34814
"61059",814.1178,81.10231,93.48901
"61060",814.1311,81.13161,93.55276
"61061",814.1444,81.06569,93.5222
"61062",814.1577,80.90944,93.399254
"61063",814.171,80.6775,93.19573
"61064",814.1843,80.39185,92.93126
"61065",814.19763,80.07202,92.62367
"61066",814.21094,79.742424,92.296326
"61067",814.22424,79.42016,91.96601
"61068",814.23755,79.114975,91.64271
"61069",814.25085,78.82689,91.326965
"61070",814.26416,78.56321,91.02663
"61071",814.27747,78.32395,90.74247
"61072",814.2908,78.11398,90.480125
"61073",814.3041,77.93088,90.23808
"61074",814.3174,77.77707,90.019615
"61075",814.3307,77.65499,89.82807
"61076",814.344,77.55978,89.65958
"61077",814.3573,77.486534,89.51008
"61078",814.3706,77.435265,89.380264
"61079",814.3839,77.401085,89.26594
"61080",814.3972,77.37667,89.16031
"61081",814.4105,77.35714,89.0588
"61082",814.4238,77.34249,88.96156
"61083",814.43713,77.332726,88.86875
"61084",814.45044,77.330284,88.78296
"61085",814.46375,77.33517,88.704414
"61086",814.47705,77.34493,88.630905
"61087",814.49036,77.3547,88.5577
"61088",814.50366,77.36446,88.4848
"61089",814.51697,77.36935,88.407326
"61090",814.5303,77.36446,88.32024
"61091",814.5436,77.35714,88.23055
"61092",814.5569,77.3547,88.14552
"61093",814.5702,77.39864,88.106804
"61094",814.5835,77.58663,88.2135
"61095",814.5968,78.04074,88.59219
"61096",814.6101,78.8513,89.34153
"61097",814.6234,80.03296,90.48729
"61098",814.6367,81.50515,91.96051
"61099",814.65,83.09941,93.60181
"61100",814.6633,84.59846,95.19771
"61101",814.67664,85.81674,96.55969
"61102",814.68994,86.6395,97.564224
"61103",814.70325,87.03502,98.16722
"61104",814.71655,87.03258,98.38462
"61105",814.72986,86.70054,98.27235
"61106",814.74316,86.13168,97.91288
"61107",814.7565,85.41634,97.38915
"61108",814.7698,84.63508,96.777145
"61109",814.7831,83.85626,96.14317
"61110",814.7964,83.123825,95.53124
"61111",814.8097,82.4622,94.96723
"61112",814.823,81.883575,94.46555
"61113",814.8363,81.38552,94.02636
"61114",814.8496,80.96315,93.647285
"61115",814.8629,80.621346,93.33558
"61116",814.8762,80.365,93.09865
"61117",814.8895,80.20874,92.9538
"61118",814.90283,80.164795,92.916374
"61119",814.91614,80.22827,92.985
"61120",814.92944,80.37965,93.14351
"61121",814.94275,80.584724,93.36045
"61122",814.95605,80.797134,93.59113
"61123",814.96936,80.9778,93.79671
"61124",814.98267,81.08766,93.937126
"61125",814.996,81.10475,93.988205
"61126",815.0093,81.02663,93.9446
"61127",815.0226,80.85817,93.80823
"61128",815.0359,80.62379,93.60066
"61129",815.0492,80.34547,93.341835
"61130",815.0625,80.04028,93.04745
"61131",815.0758,79.725334,92.73376
"61132",815.0891,79.41039,92.41023
"61133",815.1024,79.10765,92.089066
"61134",815.1157,78.81468,91.76821
"61135",815.129,78.54124,91.457726
"61136",815.14233,78.294655,91.16556
"61137",815.15564,78.07736,90.89497
"61138",815.16895,77.88693,90.64446
"61139",815.18225,77.72823,90.41973
"61140",815.19556,77.60128,90.22179
"61141",815.20886,77.503624,90.04917
"61142",815.22217,77.42794,89.89548
"61143",815.2355,77.37667,89.76383
"61144",815.2488,77.347374,89.65256
"61145",815.2621,77.332726,89.555016
"61146",815.2754,77.332726,89.471664
"61147",815.2887,77.33761,89.393196
"61148",815.302,77.349815,89.322205
"61149",815.3153,77.36935,89.25892
"61150",815.3286,77.39132,89.198685
"61151",815.3419,77.418175,89.14402
"61152",815.3552,77.44503,89.090195
"61153",815.3685,77.467,89.032326
"61154",815.38184,77.47677,88.96294
"61155",815.39514,77.47433,88.881645
"61156",815.40845,77.46212,88.79051
"61157",815.42175,77.44991,88.699
"61158",815.43506,77.506065,88.67546
"61159",815.44836,77.738,88.82946
"61160",815.4617,78.2678,89.288574
"61161",815.475,79.168686,90.13533
"61162",815.4883,80.428474,91.36914
"61163",815.5016,81.94949,92.90355
"61164",815.5149,83.543755,94.55873
"61165",815.5282,84.996414,96.12213
"61166",815.5415,86.13168,97.413536
"61167",815.5548,86.86168,98.335144
"61168",815.5681,87.166855,98.854744
"61169",815.5814,87.08873,99.00058
"61170",815.5947,86.70054,98.83391
"61171",815.60803,86.099945,98.4427
"61172",815.62134,85.37484,97.90822
"61173",815.63464,84.59846,97.2998
"61174",815.64795,83.826965,96.672005
"61175",815.66125,83.10185,96.06648
"61176",815.67456,82.44755,95.50911
"61177",815.68787,81.87381,95.011856
"61178",815.7012,81.38064,94.57724
"61179",815.7145,80.96559,94.20534
"61180",815.7278,80.62623,93.89615
"61181",815.7411,80.38209,93.67158
"61182",815.7544,80.23804,93.53947
"61183",815.7677,80.21118,93.52005
"61184",815.781,80.29664,93.61211
"61185",815.7943,80.465096,93.78983
"61186",815.8076,80.6775,94.01677
"61187",815.8209,80.88991,94.25035
"61188",815.8342,81.05592,94.444176
"61189",815.84753,81.14137,94.56262
"61190",815.86084,81.13649,94.59341
"61191",815.87415,81.03395,94.52638
"61192",815.88745,80.850845,94.37559
"61193",815.90076,80.604256,94.15559
"61194",815.91406,80.31373,93.88394
"61195",815.92737,79.99634,93.576355
"61196",815.9407,79.66918,93.249084
"61197",815.954,79.344475,92.91404
"61198",815.9673,79.027084,92.576164
"61199",815.9806,78.73167,92.25034
"61200",815.9939,78.46311,91.942154
"61201",816.0072,78.21652,91.64754
"61202",816.0205,77.99924,91.37452
"61203",816.0338,77.81125,91.12401
"61204",816.0471,77.65011,90.89447
"61205",816.0604,77.52071,90.69164
"61206",816.0737,77.420616,90.51407
"61207",816.08704,77.34493,90.35778
"61208",816.10034,77.29122,90.2211
"61209",816.11365,77.25216,90.09739
"61210",816.12695,77.225296,89.98466
"61211",816.14026,77.21065,89.8833
"61212",816.15356,77.205765,89.79125
"61213",816.1669,77.205765,89.70393
"61214",816.1802,77.21309,89.62394
"61215",816.1935,77.23018,89.55394
"61216",816.2068,77.25216,89.489365
"61217",816.2201,77.27657,89.42791
"61218",816.2334,77.298546,89.36478
"61219",816.2467,77.315636,89.29745
"61220",816.26,77.315636,89.21356
"61221",816.2733,77.30831,89.12235
"61222",816.2866,77.32296,89.05289
"61223",816.2999,77.45968,89.10595
"61224",816.31323,77.84543,89.412315
"61225",816.32654,78.590065,90.08962
"61226",816.33984,79.7351,91.1906
"61227",816.35315,81.234146,92.681366
"61228",816.36646,82.933395,94.41918
"61229",816.37976,84.62287,96.200325
"61230",816.39307,86.09018,97.812096
"61231",816.4064,87.186386,99.09862
"61232",816.4197,87.84802,99.984825
"61233",816.433,88.07507,100.45712
"61234",816.4463,87.9115,100.5459
"61235",816.4596,87.447624,100.329254
"61236",816.4729,86.78111,99.89548
"61237",816.4862,85.997406,99.32368
"61238",816.4995,85.17464,98.688324
"61239",816.5128,84.368965,98.04436
"61240",816.5261,83.61944,97.43136
"61241",816.5394,82.950485,96.87551
"61242",816.55273,82.36698,96.38421
"61243",816.56604,81.864044,95.95524
"61244",816.57935,81.44167,95.59112
"61245",816.59265,81.10475,95.29925
"61246",816.60596,80.86305,95.09207
"61247",816.61926,80.723885,94.97987
"61248",816.63257,80.69215,94.97076
"61249",816.6459,80.75807,95.05831
"61250",816.6592,80.89235,95.21628
"61251",816.6725,81.058365,95.41018
"61252",816.6858,81.20729,95.59218
"61253",816.6991,81.30984,95.73245
"61254",816.7124,81.33425,95.7978
"61255",816.7257,81.26589,95.77113
"61256",816.739,81.10719,95.65199
"61257",816.7523,80.87038,95.449776
"61258",816.7656,80.57496,95.18156
"61259",816.77893,80.233154,94.85772
"61260",816.79224,79.87427,94.50612
"61261",816.80554,79.51293,94.140854
"61262",816.81885,79.16136,93.77406
"61263",816.83215,78.82445,93.41094
"61264",816.84546,78.5095,93.05926
"61265",816.85876,78.22385,92.72703
"61266",816.8721,77.96994,92.41762
"61267",816.8854,77.74288,92.12712
"61268",816.8987,77.540245,91.85395
"61269",816.912,77.36446,91.6013
"61270",816.9253,77.21553,91.37001
"61271",816.9386,77.09102,91.158485
"61272",816.9519,76.99336,90.969925
"61273",816.9652,76.92012,90.80273
"61274",816.9785,76.86885,90.65521
"61275",816.9918,76.83223,90.520744
"61276",817.0051,76.807816,90.39734
"61277",817.01843,76.79805,90.28782
"61278",817.03174,76.79561,90.18532
"61279",817.04504,76.80293,90.09251
"61280",817.05835,76.81758,90.00725
"61281",817.07166,76.83467,89.92489
"61282",817.08496,76.84688,89.83818
"61283",817.09827,76.85664,89.74941
"61284",817.1116,76.859085,89.653625
"61285",817.1249,76.85176,89.54815
"61286",817.1382,76.8542,89.45221
"61287",817.1515,76.93965,89.439354
"61288",817.1648,77.23262,89.63669
"61289",817.1781,77.86252,90.18011
"61290",817.1914,78.91722,91.168015
"61291",817.2047,80.37965,92.5966
"61292",817.218,82.14725,94.37607
"61293",817.2313,84.01007,96.30599
"61294",817.2446,85.73617,98.1574
"61295",817.25793,87.12535,99.72584
"61296",817.27124,88.077515,100.900665
"61297",817.28455,88.55848,101.63405
"61298",817.29785,88.5951,101.938126
"61299",817.31116,88.26795,101.87958
"61300",817.32446,87.674675,101.54468
"61301",817.33777,86.91783,101.027664
"61302",817.3511,86.0853,100.41131
"61303",817.3644,85.24788,99.76405
"61304",817.3777,84.45197,99.13214
"61305",817.391,83.734184,98.553474
"61306",817.4043,83.104294,98.040276
"61307",817.4176,82.55741,97.5904
"61308",817.4309,82.08865,97.20156
"61309",817.4442,81.69314,96.871315
"61310",817.4575,81.3782,96.60928
"61311",817.4708,81.146255,96.42041
"61312",817.48413,81.004654,96.31463
"61313",817.49744,80.953384,96.294754
"61314",817.51074,80.972916,96.34408
"61315",817.52405,81.04616,96.44772
"61316",817.53735,81.13161,96.565865
"61317",817.55066,81.197525,96.667145
"61318",817.56396,81.214615,96.72166
"61319",817.5773,81.15846,96.70346
"61320",817.5906,81.02174,96.60294
"61321",817.6039,80.80446,96.41759
"61322",817.6172,80.51881,96.157074
"61323",817.6305,80.181885,95.836365
"61324",817.6438,79.81323,95.4734
"61325",817.6571,79.42748,95.08181
"61326",817.6704,79.044174,94.68061
"61327",817.6837,78.67307,94.27964
"61328",817.697,78.32395,93.88905
"61329",817.7103,77.99924,93.51196
"61330",817.72363,77.70626,93.15646
"61331",817.73694,77.44503,92.823555
"61332",817.75024,77.21797,92.516655
"61333",817.76355,77.02022,92.231964
"61334",817.77686,76.8542,91.97283
"61335",817.79016,76.715034,91.73536
"61336",817.80347,76.60273,91.5204
"61337",817.8168,76.5124,91.323906
"61338",817.8301,76.4416,91.14412
"61339",817.8434,76.39033,90.98165
"61340",817.8567,76.351265,90.82979
"61341",817.87,76.32685,90.69135
"61342",817.8833,76.317085,90.5668
"61343",817.8966,76.317085,90.45171
"61344",817.9099,76.32685,90.34639
"61345",817.9232,76.33906,90.24381
"61346",817.9365,76.34882,90.139175
"61347",817.9498,76.35371,90.02996
"61348",817.96313,76.34638,89.90869
"61349",817.97644,76.32685,89.77499
"61350",817.98975,76.3122,89.64555
"61351",818.00305,76.34638,89.56449
"61352",818.01636,76.53681,89.64075
"61353",818.02966,77.015335,90.01105
"61354",818.04297,77.88937,90.79182
"61355",818.0563,79.185776,92.02226
"61356",818.0696,80.8362,93.64724
"61357",818.0829,82.667274,95.50445
"61358",818.0962,84.45197,97.3725
"61359",818.1095,85.96811,99.027756
"61360",818.1228,87.07408,100.32023
"61361",818.1361,87.70641,101.17362
"61362",818.1494,87.87244,101.580475
"61363",818.1627,87.64294,101.596985
"61364",818.176,87.113144,101.30603
"61365",818.18933,86.38804,100.80321
"61366",818.20264,85.56283,100.17762
"61367",818.21594,84.715645,99.50427
"61368",818.22925,83.897766,98.833755
"61369",818.24255,83.14336,98.20115
"61370",818.25586,82.47196,97.62798
"61371",818.26917,81.88846,97.12173
"61372",818.2825,81.38552,96.6778
"61373",818.2958,80.96315,96.29873
"61374",818.3091,80.63355,95.99923
"61375",818.3224,80.396736,95.78221
"61376",818.3357,80.26978,95.667656
"61377",818.349,80.25025,95.656555
"61378",818.3623,80.31861,95.732735
"61379",818.3756,80.43824,95.86232
"61380",818.3889,80.57252,96.01029
"61381",818.4022,80.68482,96.14049
"61382",818.4155,80.73365,96.21072
"61383",818.42883,80.69947,96.19946
"61384",818.44214,80.5774,96.09925
"61385",818.45544,80.36988,95.909775
"61386",818.46875,80.09155,95.643005
"61387",818.48206,79.76196,95.31628
"61388",818.49536,79.40307,94.94994
"61389",818.50867,79.03197,94.56019
"61390",818.522,78.660866,94.15884
"61391",818.5353,78.29954,93.75566
"61392",818.5486,77.95773,93.36072
"61393",818.5619,77.64034,92.97951
"61394",818.5752,77.35226,92.61768
"61395",818.5885,77.09102,92.273705
"61396",818.6018,76.86885,91.96063
"61397",818.6151,76.67841,91.67235
"61398",818.6284,76.51484,91.404976
"61399",818.6417,76.38056,91.16179
"61400",818.655,76.27314,90.94126
"61401",818.66833,76.192566,90.744225
"61402",818.68164,76.13641,90.56909
"61403",818.69495,76.09979,90.411736
"61404",818.70825,76.0827,90.272766
"61405",818.72156,76.07294,90.14059
"61406",818.73486,76.070496,90.01543
"61407",818.74817,76.07538,89.897514
"61408",818.7615,76.07782,89.77731
"61409",818.7748,76.07294,89.649864
"61410",818.7881,76.05829,89.5125
"61411",818.8014,76.04364,89.37467
"61412",818.8147,76.06561,89.27301
"61413",818.828,76.21698,89.30143
"61414",818.8413,76.61738,89.58361
"61415",818.8546,77.37423,90.23476
"61416",818.8679,78.51682,91.295296
"61417",818.8812,79.9939,92.72602
"61418",818.89453,81.66384,94.395775
"61419",818.90784,83.3167,96.10063
"61420",818.92114,84.74494,97.632515
"61421",818.93445,85.80698,98.84283
"61422",818.94775,86.4271,99.64442
"61423",818.96106,86.607765,100.025925
"61424",818.97437,86.40269,100.027336
"61425",818.9877,85.89731,99.72204
"61426",819.001,85.19173,99.200745
"61427",819.0143,84.38117,98.55243
"61428",819.0276,83.543755,97.85192
"61429",819.0409,82.73319,97.1521
"61430",819.0542,81.988556,96.492874
"61431",819.0675,81.324486,95.890945
"61432",819.0808,80.74586,95.35371
"61433",819.0941,80.25025,94.88141
"61434",819.1074,79.84497,94.48395
"61435",819.1207,79.53979,94.17392
"61436",819.13403,79.34936,93.96911
"61437",819.14734,79.276115,93.875534
"61438",819.16064,79.31762,93.89442
"61439",819.17395,79.447014,94.00249
"61440",819.18726,79.62768,94.16587
"61441",819.20056,79.81079,94.33735
"61442",819.21387,79.954834,94.47548
"61443",819.2272,80.03296,94.55219
"61444",819.2405,80.02075,94.541016
"61445",819.2538,79.91577,94.43668
"61446",819.2671,79.727776,94.246056
"61447",819.2804,79.47143,93.9812
"61448",819.2937,79.168686,93.66194
"61449",819.307,78.836655,93.30393
"61450",819.3203,78.48997,92.92089
"61451",819.3336,78.14572,92.52946
"61452",819.3469,77.81369,92.13948
"61453",819.3602,77.503624,91.76109
"61454",819.37354,77.21797,91.39743
"61455",819.38684,76.95918,91.051704
"61456",819.40015,76.72968,90.72718
"61457",819.41345,76.52949,90.42479
"61458",819.42676,76.351265,90.138115
"61459",819.44006,76.19989,89.87272
"61460",819.45337,76.07538,89.629456
"61461",819.4667,75.982605,89.41404
"61462",819.48,75.90936,89.215256
"61463",819.4933,75.860535,89.0386
"61464",819.5066,75.83612,88.88483
"61465",819.5199,75.83124,88.749825
"61466",819.5332,75.83612,88.624435
"61467",819.5465,75.84833,88.50652
"61468",819.5598,75.860535,88.38899
"61469",819.5731,75.8703,88.2694
"61470",819.5864,75.87274,88.14279
"61471",819.59973,75.88983,88.03091
"61472",819.61304,75.98016,87.9928
"61473",819.62634,76.241394,88.12841
"61474",819.63965,76.771194,88.54076
"61475",819.65295,77.63546,89.30412
"61476",819.66626,78.81468,90.409454
"61477",819.67957,80.218506,91.77624
"61478",819.6929,81.67605,93.24061
"61479",819.7062,82.99687,94.61381
"61480",819.7195,84.02472,95.735306
"61481",819.7328,84.67902,96.51538
"61482",819.7461,84.93782,96.920395
"61483",819.7594,84.842606,96.979485
"61484",819.7727,84.46662,96.75483
"61485",819.786,83.90021,96.327995
"61486",819.7993,83.22392,95.77359
"61487",819.8126,82.50614,95.156555
"61488",819.8259,81.80301,94.53174
"61489",819.83923,81.14137,93.926445
"61490",819.85254,80.5359,93.356636
"61491",819.86584,79.9939,92.83138
"61492",819.87915,79.52514,92.362434
"61493",819.89246,79.13451,91.95696
"61494",819.90576,78.84642,91.64183
"61495",819.91907,78.6804,91.43976
"61496",819.9324,78.643776,91.3619
"61497",819.9457,78.72678,91.40253
"61498",819.959,78.907455,91.54341
"61499",819.9723,79.14427,91.746086
"61500",819.9856,79.38842,91.96349
"61501",819.9989,79.59838,92.15434
"61502",820.0122,79.73754,92.28095
"61503",820.0255,79.7937,92.32891
"61504",820.0388,79.75708,92.28584
"61505",820.0521,79.639885,92.16106
"61506",820.0654,79.45434,91.96426
"61507",820.07874,79.2224,91.71526
"61508",820.09204,78.96117,91.42973
"61509",820.10535,78.68528,91.12138
"61510",820.11865,78.4094,90.80442
"61511",820.13196,78.14328,90.488594
"61512",820.14526,77.8967,90.18399
"61513",820.15857,77.66964,89.891205
"61514",820.1719,77.46456,89.613304
"61515",820.1852,77.2839,89.35341
"61516",820.1985,77.13252,89.11716
"61517",820.2118,77.00557,88.9006
"61518",820.2251,76.90303,88.70448
"61519",820.2384,76.824905,88.52958
"61520",820.2517,76.76631,88.371765
"61521",820.265,76.734566,88.23897
"61522",820.2783,76.71992,88.12228
"61523",820.2916,76.715034,88.01489
"61524",820.30493,76.715034,87.91224
"61525",820.31824,76.717476,87.81203
"61526",820.33154,76.749214,87.74119
"61527",820.34485,76.876175,87.76656
"61528",820.35815,77.196,87.98877
"61529",820.37146,77.78195,88.4871
"61530",820.38477,78.660866,89.2967
"61531",820.3981,79.77173,90.365715
"61532",820.4114,80.99733,91.58418
"61533",820.4247,82.16922,92.78724
"61534",820.438,83.140915,93.82672
"61535",820.4513,83.8172,94.60116
"61536",820.4646,84.16144,95.06468
"61537",820.4779,84.190735,95.22402
"61538",820.4912,83.95148,95.11572
"61539",820.5045,83.51934,94.80707
"61540",820.5178,82.96269,94.3604
"61541",820.5311,82.34501,93.8353
"61542",820.54443,81.71511,93.27868
"61543",820.55774,81.112076,92.72924
"61544",820.57104,80.550545,92.20246
"61545",820.58435,80.045166,91.71429
"61546",820.59766,79.60815,91.27868
"61547",820.61096,79.2517,90.90999
"61548",820.62427,78.99046,90.62537
"61549",820.6376,78.84886,90.45222
"61550",820.6509,78.836655,90.40404
"61551",820.6642,78.9514,90.48243
"61552",820.6775,79.166245,90.664505
"61553",820.6908,79.44457,90.91678
"61554",820.7041,79.7351,91.18995
"61555",820.7174,79.991455,91.43803
"61556",820.7307,80.17944,91.62575
"61557",820.744,80.274666,91.72658
"61558",820.7573,80.28199,91.742485
"61559",820.7706,80.20386,91.673164
"61560",820.78394,80.0647,91.540375
"61561",820.79724,79.87671,91.35441
"61562",820.81055,79.65942,91.13326
"61563",820.82385,79.429924,90.89313
"61564",820.83716,79.19798,90.64337
"61565",820.85046,78.96849,90.38882
"61566",820.8638,78.751205,90.1393
"61567",820.8771,78.54856,89.89763
"61568",820.8904,78.365456,89.66917
"61569",820.9037,78.19699,89.44962
"61570",820.917,78.05051,89.246796
"61571",820.9303,77.92355,89.05892
"61572",820.9436,77.81369,88.88417
"61573",820.9569,77.72335,88.72551
"61574",820.9702,77.662315,88.59333
"61575",820.9835,77.662315,88.52028
"61576",820.9968,77.806366,88.59128
"61577",821.01013,78.19211,88.90847
"61578",821.02344,78.870834,89.5307
"61579",821.03674,79.84253,90.46711
"61580",821.05005,81.03151,91.65117
"61581",821.06335,82.28886,92.94075
"61582",821.07666,83.44366,94.167076
"61583",821.08997,84.35432,95.18535
"61584",821.1033,84.9427,95.909805
"61585",821.1166,85.189285,96.310844
"61586",821.1299,85.12337,96.40709
"61587",821.1432,84.81331,96.25713
"61588",821.1565,84.32746,95.9217
"61589",821.1698,83.74151,95.47098
"61590",821.1831,83.11894,94.96533
"61591",821.1964,82.50614,94.45
"61592",821.2097,81.9324,93.954575
"61593",821.223,81.41238,93.494934
"61594",821.2363,80.953384,93.08008
"61595",821.24963,80.55543,92.711914
"61596",821.26294,80.22583,92.39967
"61597",821.27625,79.974365,92.155266
"61598",821.28955,79.82544,92.00554
"61599",821.30286,79.79126,91.965904
"61600",821.31616,79.86694,92.035065
"61601",821.32947,80.028076,92.19204
"61602",821.3428,80.235596,92.40044
"61603",821.3561,80.445564,92.61777
"61604",821.3694,80.618904,92.80503
"61605",821.3827,80.726326,92.93179
"61606",821.396,80.75075,92.97891
"61607",821.4093,80.69459,92.94621
"61608",821.4226,80.56275,92.83608
"61609",821.4359,80.37232,92.66324
"61610",821.4492,80.14038,92.44293
"61611",821.4625,79.89136,92.198296
"61612",821.4758,79.639885,91.94343
"61613",821.48914,79.3933,91.68559
"61614",821.50244,79.15892,91.43225
"61615",821.51575,78.93919,91.18624
"61616",821.52905,78.73167,90.945564
"61617",821.54236,78.538795,90.71306
"61618",821.55566,78.3679,90.4965
"61619",821.569,78.21164,90.28924
"61620",821.5823,78.07248,90.09419
"61621",821.5956,77.95529,89.91677
"61622",821.6089,77.8967,89.79428
"61623",821.6222,77.97238,89.80424
"61624",821.6355,78.28489,90.05338
"61625",821.6488,78.91478,90.62968
"61626",821.6621,79.88403,91.56502
"61627",821.6754,81.126724,92.804085
"61628",821.6887,82.5037,94.21627
"61629",821.702,83.82941,95.62022
"61630",821.71533,84.928055,96.83853
"61631",821.72864,85.68978,97.75426
"61632",821.74194,86.082855,98.325134
"61633",821.75525,86.12192,98.55428
"61634",821.76855,85.86557,98.48924
"61635",821.78186,85.401695,98.208664
"61636",821.79517,84.81331,97.78908
"61637",821.8085,84.173645,97.29983
"61638",821.8218,83.53399,96.790596
"61639",821.8351,82.94072,96.30776
"61640",821.8484,82.408485,95.867424
"61641",821.8617,81.93973,95.47393
"61642",821.875,81.53689,95.13171
"61643",821.8883,81.1902,94.833046
"61644",821.9016,80.90456,94.584595
"61645",821.9149,80.69215,94.40045
"61646",821.9282,80.56275,94.29269
"61647",821.9415,80.51881,94.26633
"61648",821.95483,80.5481,94.31184
"61649",821.96814,80.63111,94.41197
"61650",821.98145,80.72877,94.52935
"61651",821.99475,80.81178,94.63514
"61652",822.00806,80.848404,94.69713
"61653",822.02136,80.816666,94.6919
"61654",822.03467,80.709236,94.60999
"61655",822.048,80.5359,94.45882
"61656",822.0613,80.308846,94.24851
"61657",822.0746,80.04761,93.996925
"61658",822.0879,79.77173,93.722534
"61659",822.1012,79.483635,93.42731
"61660",822.1145,79.1931,93.120636
"61661",822.1278,78.907455,92.80978
"61662",822.1411,78.63157,92.49975
"61663",822.1544,78.37522,92.20064
"61664",822.1677,78.150604,91.92525
"61665",822.181,77.95285,91.6697
"61666",822.19434,77.77951,91.43239
"61667",822.20764,77.625694,91.20918
"61668",822.22095,77.49386,91.00315
"61669",822.23425,77.3962,90.82718
"61670",822.24756,77.38888,90.73849
"61671",822.26086,77.57198,90.84
"61672",822.2742,78.04562,91.23776
"61673",822.2875,78.86351,91.994576
"61674",822.3008,80.01587,93.11142
"61675",822.3141,81.40505,94.5011
"61676",822.3274,82.85527,95.995224
"61677",822.3407,84.16876,97.39794
"61678",822.354,85.19173,98.55118
"61679",822.3673,85.83139,99.35308
"61680",822.3806,86.07309,99.77701
"61681",822.3939,85.9559,99.8496
"61682",822.4072,85.57259,99.65241
"61683",822.42053,85.01839,99.27235
"61684",822.43384,84.37629,98.78707
"61685",822.44714,83.72442,98.27196
"61686",822.46045,83.11162,97.77554
"61687",822.47375,82.55009,97.31125
"61688",822.48706,82.04471,96.88556
"61689",822.50037,81.59548,96.50023
"61690",822.5137,81.197525,96.15213
"61691",822.527,80.84596,95.83799
"61692",822.5403,80.55787,95.57633
"61693",822.5536,80.34791,95.383804
"61694",822.5669,80.22095,95.267715
"61695",822.5802,80.17456,95.22823
"61696",822.5935,80.19409,95.25322
"61697",822.6068,80.24536,95.310555
"61698",822.6201,80.30152,95.37438
"61699",822.6334,80.33082,95.4131
"61700",822.6467,80.308846,95.40147
"61701",822.66003,80.22095,95.32322
"61702",822.67334,80.06714,95.176315
"61703",822.68665,79.84985,94.96113
"61704",822.69995,79.58373,94.690315
"61705",822.71326,79.290764,94.38434
"61706",822.72656,78.98314,94.05455
"61707",822.73987,78.67307,93.71271
"61708",822.7532,78.37522,93.37339
"61709",822.7665,78.09689,93.04429
"61710",822.7798,77.84543,92.73335
"61711",822.7931,77.611046,92.43164
"61712",822.8064,77.40353,92.14947
"61713",822.8197,77.21309,91.87789
"61714",822.833,77.03975,91.61746
"61715",822.8463,76.876175,91.36138
"61716",822.8596,76.732124,91.11971
"61717",822.8729,76.629585,90.915054
"61718",822.8862,76.629585,90.80973
"61719",822.89954,76.82979,90.90461
"61720",822.91284,77.33517,91.31092
"61721",822.92615,78.20676,92.099236
"61722",822.93945,79.4226,93.25904
"61723",822.95276,80.88014,94.69854
"61724",822.96606,82.40116,96.24706
"61725",822.9794,83.77814,97.69907
"61726",822.9927,84.84993,98.88893
"61727",823.006,85.521324,99.71188
"61728",823.0193,85.78012,100.14322
"61729",823.0326,85.66781,100.21153
"61730",823.0459,85.26986,99.9907
"61731",823.0592,84.68879,99.57431
"61732",823.0725,84.01495,99.047
"61733",823.0858,83.32403,98.48154
"61734",823.0991,82.67216,97.93354
"61735",823.1124,82.07889,97.423775
"61736",823.12573,81.549095,96.95895
"61737",823.13904,81.077896,96.536156
"61738",823.15234,80.66041,96.15235
"61739",823.16565,80.29908,95.81166
"61740",823.17896,80.00122,95.52315
"61741",823.19226,79.783936,95.3059
"61742",823.20557,79.65453,95.16975
"61743",823.2189,79.60815,95.112564
"61744",823.2322,79.63256,95.12473
"61745",823.2455,79.69604,95.17673
"61746",823.2588,79.76196,95.233154
"61747",823.2721,79.798584,95.26234
"61748",823.2854,79.781494,95.23895
"61749",823.2987,79.68871,95.13934
"61750",823.312,79.52514,94.96604
"61751",823.3253,79.29809,94.72415
"61752",823.3386,79.0222,94.42633
"61753",823.3519,78.71702,94.09059
"61754",823.36523,78.39231,93.72579
"61755",823.37854,78.07004,93.35328
"61756",823.39185,77.7551,92.97803
"61757",823.40515,77.454796,92.607574
"61758",823.41846,77.18135,92.25459
"61759",823.43176,76.93965,91.92481
"61760",823.44507,76.72968,91.61921
"61761",823.4584,76.558784,91.346115
"61762",823.4717,76.42451,91.1043
"61763",823.485,76.317085,90.88515
"61764",823.4983,76.226746,90.67972
"61765",823.5116,76.14862,90.48368
"61766",823.5249,76.08026,90.29497
"61767",823.5382,76.036316,90.12853
"61768",823.5515,76.070496,90.03885
"61769",823.5648,76.28779,90.13335
"61770",823.5781,76.790726,90.52028
"61771",823.59143,77.65255,91.281815
"61772",823.60474,78.873276,92.429184
"61773",823.61804,80.36744,93.88814
"61774",823.63135,81.95438,95.48656
"61775",823.64465,83.42901,97.02226
"61776",823.65796,84.60578,98.30619
"61777",823.67126,85.37972,99.22406
"61778",823.6846,85.714195,99.72665
"61779",823.6979,85.65072,99.841736
"61780",823.7112,85.26986,99.63746
"61781",823.7245,84.681465,99.213745
"61782",823.7378,83.99298,98.671555
"61783",823.7511,83.28741,98.09076
"61784",823.7644,82.61845,97.52453
"61785",823.7777,82.01541,97.00332
"61786",823.791,81.480736,96.531624
"61787",823.8043,81.00954,96.1067
"61788",823.8176,80.59449,95.7232
"61789",823.83093,80.24048,95.387764
"61790",823.84424,79.957275,95.112076
"61791",823.85754,79.75708,94.910545
"61792",823.87085,79.64233,94.7882
"61793",823.88416,79.61059,94.745285
"61794",823.89746,79.639885,94.76241
"61795",823.91077,79.7058,94.81708
"61796",823.9241,79.77661,94.87869
"61797",823.9374,79.815674,94.910774
"61798",823.9507,79.79614,94.88548
"61799",823.964,79.70092,94.78389
"61800",823.9773,79.52758,94.601204
"61801",823.9906,79.28832,94.34718
"61802",824.0039,79.00023,94.03685
"61803",824.0172,78.68284,93.68822
"61804",824.0305,78.35325,93.31747
"61805",824.0438,78.02609,92.93885
"61806",824.0571,77.71114,92.56222
"61807",824.07043,77.41085,92.1904
"61808",824.08374,77.137405,91.836044
"61809",824.09705,76.89815,91.50733
"61810",824.11035,76.69062,91.20287
"61811",824.12366,76.51484,90.923676
"61812",824.13696,76.37324,90.673164
"61813",824.15027,76.265816,90.45241
"61814",824.1636,76.1828,90.2527
"61815",824.1769,76.121765,90.07238
"61816",824.1902,76.07538,89.9048
"61817",824.2035,76.0412,89.74798
"61818",824.2168,76.016785,89.59985
"61819",824.2301,76.00458,89.46317
"61820",824.2434,76.050964,89.384705
"61821",824.2567,76.243835,89.45417
"61822",824.27,76.6955,89.78846
"61823",824.2833,77.4963,90.48599
"61824",824.29663,78.66819,91.57964
"61825",824.30994,80.14038,93.010216
"61826",824.32324,81.75418,94.6284
"61827",824.33655,83.29473,96.22377
"61828",824.34985,84.56428,97.596275
"61829",824.36316,85.43832,98.612946
"61830",824.37646,85.872894,99.21747
"61831",824.3898,85.88754,99.41564
"61832",824.4031,85.557945,99.27003
"61833",824.4164,84.98909,98.874855
"61834",824.4297,84.28596,98.32763
"61835",824.443,83.53887,97.71448
"61836",824.4563,82.81621,97.1024
"61837",824.4696,82.161896,96.536095
"61838",824.4829,81.5906,96.03236
"61839",824.4962,81.094986,95.58645
"61840",824.5095,80.66773,95.19341
"61841",824.5228,80.306404,94.85295
"61842",824.53613,80.01831,94.57443
"61843",824.54944,79.81323,94.36993
"61844",824.56274,79.70092,94.25178
"61845",824.57605,79.676506,94.21802
"61846",824.58936,79.73022,94.26162
"61847",824.60266,79.823,94.34597
"61848",824.61597,79.91821,94.43565
"61849",824.6293,79.98901,94.5039
"61850",824.6426,79.99878,94.51332
"61851",824.6559,79.93286,94.447365
"61852",824.6692,79.78638,94.29878
"61853",824.6825,79.569084,94.074814
"61854",824.6958,79.290764,93.78303
"61855",824.7091,78.97093,93.44103
"61856",824.7224,78.63157,93.06951
"61857",824.7357,78.28977,92.68495
"61858",824.749,77.95773,92.29947
"61859",824.7623,77.645226,91.92314
"61860",824.77563,77.36446,91.568794
"61861",824.78894,77.117874,91.239845
"61862",824.80225,76.90303,90.93494
"61863",824.81555,76.72724,90.66237
"61864",824.82886,76.5832,90.41605
"61865",824.84216,76.473335,90.19942
"61866",824.85547,76.39521,90.011086
"61867",824.8688,76.351265,89.85449
"61868",824.8821,76.32685,89.71606
"61869",824.8954,76.32441,89.59883
"61870",824.9087,76.32685,89.48641
"61871",824.922,76.33173,89.37651
"61872",824.9353,76.32929,89.25944
"61873",824.9486,76.32441,89.13985
"61874",824.9619,76.33662,89.03719
"61875",824.9752,76.42695,89.01305
"61876",824.9885,76.697945,89.172386
"61877",825.00183,77.25948,89.63074
"61878",825.01514,78.184784,90.4704
"61879",825.02844,79.46899,91.697876
"61880",825.04175,81.00954,93.22183
"61881",825.05505,82.61845,94.86229
"61882",825.06836,84.088196,96.413864
"61883",825.08167,85.23811,97.691536
"61884",825.095,85.97299,98.5901
"61885",825.1083,86.278175,99.08194
"61886",825.1216,86.19516,99.195114
"61887",825.1349,85.804535,98.998085
"61888",825.1482,85.21126,98.5862
"61889",825.1615,84.505684,98.04347
"61890",825.1748,83.775696,97.454285
"61891",825.1881,83.07744,96.874016
"61892",825.2014,82.44999,96.342735
"61893",825.2147,81.898224,95.86753
"61894",825.228,81.4197,95.448326
"61895",825.24133,81.004654,95.077644
"61896",825.25464,80.65064,94.75503
"61897",825.26794,80.36988,94.4946
"61898",825.28125,80.17456,94.31084
"61899",825.29456,80.076904,94.218636
"61900",825.30786,80.07446,94.2186
"61901",825.32117,80.15015,94.29661
"61902",825.3345,80.26734,94.418495
"61903",825.3478,80.38697,94.54648
"61904",825.3611,80.465096,94.636696
"61905",825.3744,80.47242,94.658554
"61906",825.3877,80.39185,94.59275
"61907",825.401,80.22339,94.43653
"61908",825.4143,79.97925,94.19937
"61909",825.4276,79.676506,93.89598
"61910",825.4409,79.33959,93.54896
"61911",825.4542,78.98558,93.17431
"61912",825.4675,78.624245,92.78127
"61913",825.48083,78.27024,92.38428
"61914",825.49414,77.9382,91.998184
"61915",825.50745,77.6379,91.63345
"61916",825.52075,77.366905,91.28864
"61917",825.53406,77.134964,90.97442
"61918",825.54736,76.93477,90.68469
"61919",825.56067,76.773636,90.42777
"61920",825.574,76.63935,90.192665
"61921",825.5873,76.541695,89.98999
"61922",825.6006,76.47578,89.816
"61923",825.6139,76.44404,89.67413
"61924",825.6272,76.439156,89.55813
"61925",825.6405,76.45136,89.45906
"61926",825.6538,76.473335,89.37014
"61927",825.6671,76.49287,89.279465
"61928",825.6804,76.50019,89.17719
"61929",825.6937,76.49775,89.065384
"61930",825.70703,76.4831,88.94129
"61931",825.72034,76.47822,88.82651
"61932",825.73364,76.53925,88.77749
"61933",825.74695,76.76875,88.89884
"61934",825.76025,77.2839,89.31301
"61935",825.77356,78.167694,90.11193
"61936",825.78687,79.4226,91.30958
"61937",825.8002,80.96315,92.832085
"61938",825.8135,82.60624,94.50527
"61939",825.8268,84.14679,96.127266
"61940",825.8401,85.39437,97.50443
"61941",825.8534,86.239105,98.51774
"61942",825.8667,86.64683,99.12043
"61943",825.88,86.64683,99.32814
"61944",825.8933,86.30991,99.19894
"61945",825.9066,85.73861,98.824814
"61946",825.9199,85.03548,98.30101
"61947",825.9332,84.283516,97.706406
"61948",825.94653,83.55352,97.11027
"61949",825.95984,82.88457,96.55236
"61950",825.97314,82.286415,96.04435
"61951",825.98645,81.75662,95.586006
"61952",825.99976,81.287865,95.17214
"61953",826.01306,80.885025,94.80955
"61954",826.02637,80.55543,94.50761
"61955",826.0397,80.31861,94.28815
"61956",826.053,80.18677,94.16626
"61957",826.0663,80.15991,94.14524
"61958",826.0796,80.216064,94.20639
"61959",826.0929,80.31861,94.31569
"61960",826.1062,80.43336,94.44039
"61961",826.1195,80.516365,94.53694
"61962",826.1328,80.54078,94.57749
"61963",826.1461,80.479744,94.533356
"61964",826.1594,80.33082,94.39942
"61965",826.1727,80.093994,94.172935
"61966",826.18604,79.78882,93.8707
"61967",826.19934,79.43725,93.51253
"61968",826.21265,79.06615,93.12384
"61969",826.22595,78.692604,92.721115
"61970",826.23926,78.328835,92.31649
"61971",826.25256,77.98459,91.92002
"61972",826.26587,77.662315,91.53477
"61973",826.2792,77.36446,91.163864
"61974",826.2925,77.09834,90.815384
"61975",826.3058,76.86641,90.492775
"61976",826.3191,76.67353,90.20197
"61977",826.3324,76.52705,89.95154
"61978",826.3457,76.41474,89.730705
"61979",826.359,76.33173,89.53566
"61980",826.3723,76.2707,89.35999
"61981",826.3856,76.23407,89.206825
"61982",826.3989,76.2121,89.06717
"61983",826.41223,76.20477,88.941475
"61984",826.42554,76.21942,88.837524
"61985",826.43884,76.25117,88.75113
"61986",826.45215,76.29023,88.67304
"61987",826.46545,76.32929,88.596176
"61988",826.47876,76.35615,88.50832
"61989",826.49207,76.36591,88.40422
"61990",826.5054,76.36103,88.285774
"61991",826.5187,76.34394,88.15497
"61992",826.532,76.351265,88.04804
"61993",826.5453,76.46357,88.046326
"61994",826.5586,76.79561,88.26785
"61995",826.5719,77.45724,88.829346
"61996",826.5852,78.502174,89.79482
"61997",826.5985,79.89624,91.14208
"61998",826.6118,81.512474,92.75507
"61999",826.6251,83.15312,94.442986
"62000",826.6384,84.6009,95.989296
"62001",826.65173,85.70199,97.23416
"62002",826.66504,86.37583,98.08619
"62003",826.67834,86.61997,98.52957
"62004",826.69165,86.485695,98.602165
"62005",826.70496,86.06088,98.38003
"62006",826.71826,85.44808,97.95663
"62007",826.73157,84.735176,97.41397
"62008",826.7449,84.000305,96.82707
"62009",826.7582,83.302055,96.25383
"62010",826.7715,82.669716,95.72468
"62011",826.7848,82.11795,95.25634
"62012",826.7981,81.64187,94.84644
"62013",826.8114,81.231705,94.48759
"62014",826.8247,80.885025,94.1794
"62015",826.838,80.61402,93.93605
"62016",826.8513,80.430916,93.77213
"62017",826.8646,80.33814,93.692825
"62018",826.8779,80.33814,93.70339
"62019",826.89124,80.4065,93.78232
"62020",826.90454,80.51881,93.907326
"62021",826.91785,80.635994,94.040726
"62022",826.93115,80.71412,94.138725
"62023",826.94446,80.73121,94.17813
"62024",826.95776,80.66773,94.137505
"62025",826.97107,80.51148,94.00212
"62026",826.9844,80.27711,93.78373
"62027",826.9977,79.97681,93.49209
"62028",827.011,79.639885,93.15444
"62029",827.0243,79.281,92.7843
"62030",827.0376,78.91966,92.4005
"62031",827.0509,78.56565,92.012726
"62032",827.0642,78.23117,91.63342
"62033",827.0775,77.91867,91.26565
"62034",827.0908,77.64034,90.92228
"62035",827.1041,77.39376,90.60196
"62036",827.11743,77.17891,90.305664
"62037",827.13074,77.00069,90.03928
"62038",827.14404,76.859085,89.803955
"62039",827.15735,76.74433,89.59105
"62040",827.17065,76.663765,89.408745
"62041",827.18396,76.612495,89.25322
"62042",827.19727,76.59052,89.12539
"62043",827.2106,76.5832,89.01152
"62044",827.2239,76.592964,88.91451
"62045",827.2372,76.60761,88.82269
"62046",827.2505,76.6247,88.73377
"62047",827.2638,76.64179,88.645386
"62048",827.2771,76.66132,88.559975
"62049",827.2904,76.68574,88.48006
"62050",827.3037,76.71259,88.40334
"62051",827.317,76.73701,88.32503
"62052",827.3303,76.749214,88.23527
"62053",827.3436,76.754105,88.13857
"62054",827.35693,76.74677,88.02981
"62055",827.37024,76.771194,87.95257
"62056",827.38354,76.92256,88.00304
"62057",827.39685,77.332726,88.31703
"62058",827.41016,78.101776,89.00273
"62059",827.42346,79.26635,90.10799
"62060",827.43677,80.765396,91.58411
"62061",827.4501,82.4329,93.27553
"62062",827.4634,84.051575,94.97023
"62063",827.4767,85.41634,96.46161
"62064",827.49,86.397804,97.61233
"62065",827.5033,86.94713,98.36158
"62066",827.5166,87.08385,98.71539
"62067",827.5299,86.871445,98.72436
"62068",827.5432,86.397804,98.46545
"62069",827.5565,85.76059,98.02816
"62070",827.5698,85.0428,97.49039
"62071",827.5831,84.315254,96.920425
"62072",827.59644,83.62676,96.36678
"62073",827.60974,83.00664,95.85999
"62074",827.62305,82.47196,95.41927
"62075",827.63635,82.01297,95.03753
"62076",827.64966,81.62478,94.71224
"62077",827.66296,81.30251,94.44075
"62078",827.6763,81.04616,94.2251
"62079",827.6896,80.86061,94.07224
"62080",827.7029,80.75807,93.9966
"62081",827.7162,80.73853,94.00075
"62082",827.7295,80.78493,94.07022
"62083",827.7428,80.87038,94.1802
"62084",827.7561,80.95827,94.29529
"62085",827.7694,81.01442,94.381386
"62086",827.7827,81.00954,94.4082
"62087",827.796,80.92653,94.35674
"62088",827.8093,80.76051,94.21968
"62089",827.82263,80.52369,94.00662
"62090",827.83594,80.235596,93.73489
"62091",827.84924,79.90845,93.41511
"62092",827.86255,79.55688,93.06068
"62093",827.87585,79.200424,92.69038
"62094",827.88916,78.853745,92.31871
"62095",827.90247,78.519264,91.94841
"62096",827.9158,78.21164,91.59451
"62097",827.9291,77.9382,91.26519
"62098",827.9424,77.69405,90.95661
"62099",827.9557,77.47677,90.66727
"62100",827.969,77.28634,90.39799
"62101",827.9823,77.1252,90.15205
"62102",827.9956,76.99092,89.92793
"62103",828.0089,76.88594,89.72892
"62104",828.0222,76.807816,89.55348
"62105",828.0355,76.756546,89.40246
"62106",828.0488,76.7248,89.269356
"62107",828.06213,76.70771,89.14992
"62108",828.07544,76.700386,89.03971
"62109",828.08875,76.700386,88.9366
"62110",828.10205,76.70527,88.83837
"62111",828.11536,76.71992,88.75006
"62112",828.12866,76.74189,88.66953
"62113",828.14197,76.76631,88.59214
"62114",828.1553,76.790726,88.5155
"62115",828.1686,76.81026,88.434746
"62116",828.1819,76.824905,88.34972
"62117",828.1952,76.83223,88.25782
"62118",828.2085,76.83223,88.15883
"62119",828.2218,76.824905,88.05251
"62120",828.2351,76.82735,87.955734
"62121",828.2484,76.89082,87.92007
"62122",828.2617,77.13985,88.07193
"62123",828.275,77.70626,88.548965
"62124",828.2883,78.67307,89.4441
"62125",828.30164,80.0354,90.76496
"62126",828.31494,81.685814,92.41648
"62127",828.32825,83.424126,94.20747
"62128",828.34155,85.02571,95.91606
"62129",828.35486,86.30991,97.357315
"62130",828.36816,87.17662,98.4212
"62131",828.3815,87.6112,99.08005
"62132",828.3948,87.64782,99.35452
"62133",828.4081,87.35241,99.29811
"62134",828.4214,86.81773,98.993195
"62135",828.4347,86.13901,98.52752
"62136",828.448,85.399254,97.97961
"62137",828.4613,84.65949,97.40857
"62138",828.4746,83.96857,96.86325
"62139",828.4879,83.35577,96.374466
"62140",828.5012,82.82353,95.9471
"62141",828.5145,82.36942,95.58122
"62142",828.52783,81.98123,95.267075
"62143",828.54114,81.654076,95.00183
"62144",828.55444,81.38552,94.784966
"62145",828.56775,81.197525,94.64027
"62146",828.58105,81.08766,94.567825
"62147",828.59436,81.06325,94.5774
"62148",828.60767,81.10475,94.65213
"62149",828.621,81.180435,94.76234
"62150",828.6343,81.253685,94.872475
"62151",828.6476,81.29275,94.950714
"62152",828.6609,81.27566,94.97402
"62153",828.6742,81.18532,94.923546
"62154",828.6875,81.01686,94.79213
"62155",828.7008,80.782486,94.58953
"62156",828.7141,80.49195,94.32345
"62157",828.7274,80.15991,94.00678
"62158",828.7407,79.80591,93.657776
"62159",828.754,79.447014,93.292816
"62160",828.76733,79.09544,92.923965
"62161",828.78064,78.75365,92.5539
"62162",828.79395,78.4387,92.200005
"62163",828.80725,78.150604,91.86312
"62164",828.82056,77.891815,91.54654
"62165",828.83386,77.66476,91.2536
"62166",828.84717,77.46456,90.98043
"62167",828.8605,77.29122,90.72786
"62168",828.8738,77.14717,90.49916
"62169",828.8871,77.02754,90.29038
"62170",828.9004,76.93477,90.10472
"62171",828.9137,76.86885,89.943016
"62172",828.927,76.82002,89.79634
"62173",828.9403,76.7834,89.66035
"62174",828.9536,76.76143,89.53786
"62175",828.9669,76.74677,89.422
"62176",828.9802,76.74189,89.31545
"62177",828.9935,76.73945,89.2112
"62178",829.00684,76.749214,89.11907
"62179",829.02014,76.76143,89.0297
"62180",829.03345,76.77608,88.943146
"62181",829.04675,76.788284,88.85461
"62182",829.06006,76.80049,88.76645
"62183",829.07336,76.80293,88.66891
"62184",829.0867,76.79561,88.561676
"62185",829.1,76.77852,88.44445
"62186",829.1133,76.77852,88.34378
"62187",829.1266,76.86153,88.32612
"62188",829.1399,77.15938,88.525894
"62189",829.1532,77.79904,89.07679
"62190",829.1665,78.84886,90.05783
"62191",829.1798,80.28443,91.45743
"62192",829.1931,81.98123,93.16312
"62193",829.2064,83.72686,94.97066
"62194",829.2197,85.29916,96.65942
"62195",829.23303,86.536964,98.06282
"62196",829.24634,87.35241,99.08254
"62197",829.25964,87.73327,99.69316
"62198",829.27295,87.71862,99.92018
"62199",829.28625,87.38415,99.82692
"62200",829.29956,86.81773,99.49126
"62201",829.31287,86.10483,98.9914
"62202",829.3262,85.333336,98.41068
"62203",829.3395,84.559395,97.803406
"62204",829.3528,83.82941,97.2159
"62205",829.3661,83.17021,96.67637
"62206",829.3794,82.59403,96.19926
"62207",829.3927,82.10086,95.78715
"62208",829.406,81.68093,95.43287
"62209",829.4193,81.33181,95.13628
"62210",829.4326,81.06325,94.90933
"62211",829.4459,80.88258,94.761894
"62212",829.4592,80.78981,94.6967
"62213",829.47253,80.78737,94.71894
"62214",829.48584,80.850845,94.80702
"62215",829.49915,80.9485,94.93127
"62216",829.51245,81.041275,95.05368
"62217",829.52576,81.09743,95.14237
"62218",829.53906,81.092545,95.17178
"62219",829.55237,81.01198,95.12536
"62220",829.5657,80.850845,94.99585
"62221",829.579,80.61646,94.788055
"62222",829.5923,80.32105,94.51191
"62223",829.6056,79.98657,94.18746
"62224",829.6189,79.63256,93.83303
"62225",829.6322,79.276115,93.4651
"62226",829.6455,78.92699,93.09335
"62227",829.6588,78.59983,92.732666
"62228",829.6721,78.29221,92.381294
"62229",829.6854,78.009,92.044716
"62230",829.6987,77.747765,91.72126
"62231",829.71204,77.51583,91.418945
"62232",829.72534,77.30831,91.1338
"62233",829.73865,77.13008,90.87145
"62234",829.75195,76.9836,90.635284
"62235",829.76526,76.86885,90.42628
"62236",829.77856,76.77852,90.2381
"62237",829.7919,76.71259,90.0715
"62238",829.8052,76.66621,89.922386
"62239",829.8185,76.63691,89.78891
"62240",829.8318,76.61738,89.66428
"62241",829.8451,76.60517,89.54637
"62242",829.8584,76.59785,89.43296
"62243",829.8717,76.595406,89.3242
"62244",829.885,76.59785,89.22025
"62245",829.8983,76.60029,89.11638
"62246",829.9116,76.60517,89.01502
"62247",829.9249,76.60517,88.908936
"62248",829.93823,76.610054,88.80773
"62249",829.95154,76.63935,88.731094
"62250",829.96484,76.7834,88.77013
"62251",829.97815,77.16426,89.05047
"62252",829.99146,77.89426,89.69185
"62253",830.00476,79.01488,90.746666
"62254",830.01807,80.4773,92.17831
"62255",830.0314,82.13016,93.84608
"62256",830.0447,83.76593,95.548416
"62257",830.058,85.17464,97.07481
"62258",830.0713,86.22446,98.28633
"62259",830.0846,86.84947,99.10586
"62260",830.0979,87.061874,99.5323
"62261",830.1112,86.905624,99.59673
"62262",830.1245,86.46372,99.37063
"62263",830.1378,85.81918,98.92808
"62264",830.1511,85.06233,98.35307
"62265",830.1644,84.263985,97.71292
"62266",830.17773,83.48272,97.0649
"62267",830.19104,82.760056,96.45107
"62268",830.20435,82.108185,95.88545
"62269",830.21765,81.53445,95.377594
"62270",830.23096,81.03639,94.92749
"62271",830.24426,80.61402,94.537506
"62272",830.25757,80.28199,94.22466
"62273",830.2709,80.05737,94.00886
"62274",830.2842,79.957275,93.91055
"62275",830.2975,79.97925,93.93119
"62276",830.3108,80.10376,94.05505
"62277",830.3241,80.291756,94.24629
"62278",830.3374,80.48951,94.45316
"62279",830.3507,80.65064,94.62959
"62280",830.364,80.740974,94.74026
"62281",830.3773,80.743416,94.765854
"62282",830.3906,80.6482,94.69387
"62283",830.40393,80.46998,94.535904
"62284",830.41724,80.22339,94.304
"62285",830.43054,79.92798,94.01557
"62286",830.44385,79.60082,93.686165
"62287",830.45715,79.259026,93.331894
"62288",830.47046,78.91966,92.969376
"62289",830.48376,78.59251,92.60846
"62290",830.4971,78.28489,92.25686
"62291",830.5104,78.00412,91.92249
"62292",830.5237,77.74532,91.601326
"62293",830.537,77.51095,91.29649
"62294",830.5503,77.30343,91.01119
"62295",830.5636,77.120316,90.74381
"62296",830.5769,76.964066,90.497574
"62297",830.5902,76.83711,90.27575
"62298",830.6035,76.73945,90.07925
"62299",830.6168,76.663765,89.90167
"62300",830.6301,76.612495,89.74615
"62301",830.64343,76.578316,89.60611
"62302",830.65674,76.558784,89.47965
"62303",830.67004,76.54902,89.36235
"62304",830.68335,76.544136,89.249626
"62305",830.69666,76.544136,89.14163
"62306",830.70996,76.541695,89.0312
"62307",830.72327,76.53925,88.920685
"62308",830.7366,76.54902,88.8223
"62309",830.7499,76.63203,88.79747
"62310",830.7632,76.88838,88.94858
"62311",830.7765,77.43282,89.39578
"62312",830.7898,78.34104,90.22378
"62313",830.8031,79.603264,91.43416
"62314",830.8164,81.112076,92.93057
"62315",830.8297,82.68192,94.53517
"62316",830.843,84.11505,96.05211
"62317",830.8563,85.240555,97.306206
"62318",830.8696,85.980316,98.20973
"62319",830.88293,86.312355,98.72865
"62320",830.89624,86.27329,98.88685
"62321",830.90955,85.926605,98.7362
"62322",830.92285,85.35531,98.350105
"62323",830.93616,84.63996,97.80211
"62324",830.94946,83.85626,97.16341
"62325",830.96277,83.06035,96.488
"62326",830.9761,82.29374,95.817024
"62327",830.9894,81.58816,95.18312
"62328",831.0027,80.9485,94.593094
"62329",831.016,80.38697,94.0612
"62330",831.0293,79.91333,93.599655
"62331",831.0426,79.54711,93.23073
"62332",831.0559,79.30785,92.97732
"62333",831.0692,79.217514,92.86535
"62334",831.0825,79.26879,92.89217
"62335",831.0958,79.44213,93.04266
"62336",831.10913,79.68871,93.27181
"62337",831.12244,79.957275,93.53065
"62338",831.13574,80.19165,93.76369
"62339",831.14905,80.36256,93.94058
"62340",831.16235,80.44068,94.03004
"62341",831.17566,80.42115,94.02428
"62342",831.18896,80.30396,93.92025
"62343",831.2023,80.10864,93.73443
"62344",831.2156,79.852295,93.481476
"62345",831.2289,79.554436,93.179
"62346",831.2422,79.23949,92.85013
"62347",831.2555,78.91966,92.50654
"62348",831.2688,78.61204,92.16515
"62349",831.2821,78.32151,91.83125
"62350",831.2954,78.048065,91.505356
"62351",831.3087,77.79904,91.195335
"62352",831.322,77.57198,90.8995
"62353",831.3353,77.37179,90.62343
"62354",831.34863,77.196,90.36551
"62355",831.36194,77.051956,90.13384
"62356",831.37524,76.93233,89.92209
"62357",831.38855,76.83223,89.72613
"62358",831.40186,76.756546,89.55145
"62359",831.41516,76.700386,89.393936
"62360",831.42847,76.66132,89.25176
"62361",831.4418,76.63935,89.12546
"62362",831.4551,76.629585,89.01067
"62363",831.4684,76.627144,88.90291
"62364",831.4817,76.6247,88.79507
"62365",831.495,76.63203,88.696915
"62366",831.5083,76.67841,88.638054
"62367",831.5216,76.85176,88.7076
"62368",831.5349,77.26925,89.02671
"62369",831.5482,78.009,89.68113
"62370",831.5615,79.10277,90.71268
"62371",831.5748,80.479744,92.061615
"62372",831.58813,81.991,93.58786
"62373",831.60144,83.43633,95.09541
"62374",831.61475,84.63752,96.403984
"62375",831.62805,85.47982,97.391205
"62376",831.64136,85.926605,98.00923
"62377",831.65466,85.99252,98.26035
"62378",831.66797,85.73617,98.19126
"62379",831.6813,85.22835,97.86269
"62380",831.6946,84.55695,97.35468
"62381",831.7079,83.79523,96.73536
"62382",831.7212,83.00664,96.06537
"62383",831.7345,82.24002,95.39271
"62384",831.7478,81.5198,94.742485
"62385",831.7611,80.86305,94.13323
"62386",831.7744,80.27955,93.5767
"62387",831.7877,79.781494,93.08738
"62388",831.801,79.3933,92.69236
"62389",831.81433,79.13695,92.417046
"62390",831.82764,79.027084,92.28021
"62391",831.84094,79.063705,92.28643
"62392",831.85425,79.22484,92.418304
"62393",831.86755,79.466545,92.63579
"62394",831.88086,79.73754,92.890114
"62395",831.89417,79.98657,93.13094
"62396",831.9075,80.177,93.32095
"62397",831.9208,80.28443,93.433914
"62398",831.9341,80.29664,93.45501
"62399",831.9474,80.21118,93.37882
"62400",831.9607,80.04028,93.21452
"62401",831.974,79.80835,92.98385
"62402",831.9873,79.53246,92.70197
"62403",832.0006,79.23949,92.39439
"62404",832.0139,78.94408,92.07521
"62405",832.0272,78.65598,91.75412
"62406",832.0405,78.380104,91.43624
"62407",832.05383,78.12375,91.129265
"62408",832.06714,77.88449,90.831375
"62409",832.08044,77.662315,90.54309
"62410",832.09375,77.46456,90.272285
"62411",832.10706,77.29122,90.019714
"62412",832.12036,77.137405,89.78125
"62413",832.13367,77.01289,89.56728
"62414",832.147,76.92012,89.381165
"62415",832.1603,76.85664,89.22144
"62416",832.1736,76.8127,89.07927
"62417",832.1869,76.78584,88.95281
"62418",832.2002,76.76875,88.83528
"62419",832.2135,76.756546,88.7221
"62420",832.2268,76.76143,88.625626
"62421",832.2401,76.83711,88.600105
"62422",832.2534,77.083694,88.74785
"62423",832.2667,77.5964,89.16942
"62424",832.28,78.433815,89.931725
"62425",832.29333,79.57885,91.02782
"62426",832.30664,80.93141,92.36722
"62427",832.31995,82.32304,93.78795
"62428",832.33325,83.56817,95.105675
"62429",832.34656,84.525215,96.174225
"62430",832.35986,85.11604,96.90646
"62431",832.37317,85.333336,97.28363
"62432",832.3865,85.21858,97.33554
"62433",832.3998,84.83284,97.11288
"62434",832.4131,84.2591,96.69016
"62435",832.4264,83.577934,96.14209
"62436",832.4397,82.847946,95.52391
"62437",832.453,82.12039,94.88535
"62438",832.4663,81.42458,94.255806
"62439",832.4796,80.7776,93.65334
"62440",832.4929,80.19165,93.09169
"62441",832.5062,79.68383,92.58986
"62442",832.51953,79.273674,92.16982
"62443",832.53284,78.98558,91.85903
"62444",832.54614,78.84398,91.68573
"62445",832.55945,78.86107,91.666695
"62446",832.57275,79.01732,91.78735
"62447",832.58606,79.273674,92.013
"62448",832.59937,79.58373,92.30036
"62449",832.6127,79.888916,92.59254
"62450",832.626,80.13794,92.83809
"62451",832.6393,80.30396,93.00842
"62452",832.6526,80.37232,93.08628
"62453",832.6659,80.343025,93.06862
"62454",832.6792,80.22583,92.96214
"62455",832.6925,80.045166,92.788536
"62456",832.7058,79.82056,92.56534
"62457",832.7191,79.5642,92.303375
"62458",832.7324,79.29809,92.02364
"62459",832.7457,79.03197,91.73559
"62460",832.75903,78.77074,91.44411
"62461",832.77234,78.52415,91.1591
"62462",832.78564,78.294655,90.88349
"62463",832.79895,78.08469,90.62023
"62464",832.81226,77.891815,90.36751
"62465",832.82556,77.72335,90.13316
"62466",832.83887,77.574425,89.91309
"62467",832.8522,77.44747,89.71034
"62468",832.8655,77.33761,89.52071
"62469",832.8788,77.25216,89.352066
"62470",832.8921,77.22041,89.23445
"62471",832.9054,77.32296,89.25014
"62472",832.9187,77.65255,89.49607
"62473",832.932,78.28733,90.057495
"62474",832.9453,79.234604,90.95125
"62475",832.9586,80.428474,92.1212
"62476",832.9719,81.72732,93.43343
"62477",832.9852,82.95537,94.71546
"62478",832.99854,83.95148,95.803925
"62479",833.01184,84.62043,96.59636
"62480",833.02515,84.93782,97.058136
"62481",833.03845,84.92317,97.19779
"62482",833.05176,84.63996,97.06843
"62483",833.06506,84.159,96.73246
"62484",833.07837,83.5584,96.26183
"62485",833.0917,82.899216,95.713844
"62486",833.105,82.230255,95.13548
"62487",833.1183,81.57839,94.553314
"62488",833.1316,80.95827,93.98251
"62489",833.1449,80.394295,93.44849
"62490",833.1582,79.89624,92.96275
"62491",833.1715,79.49096,92.55423
"62492",833.1848,79.20531,92.25267
"62493",833.1981,79.063705,92.086235
"62494",833.2114,79.07103,92.0643
"62495",833.22473,79.217514,92.181755
"62496",833.23804,79.46166,92.40145
"62497",833.25134,79.75708,92.680046
"62498",833.26465,80.045166,92.96054
"62499",833.27795,80.27955,93.196335
"62500",833.29126,80.430916,93.35644
"62501",833.30457,80.48463,93.423615
"62502",833.3179,80.44312,93.397255
"62503",833.3312,80.31617,93.28415
"62504",833.3445,80.12573,93.10359
"62505",833.3578,79.8938,92.87559
"62506",833.3711,79.63256,92.61103
"62507",833.3844,79.36645,92.333435
"62508",833.3977,79.10277,92.04996
"62509",833.411,78.84642,91.76557
"62510",833.4243,78.60471,91.487816
"62511",833.4376,78.380104,91.219604
"62512",833.4509,78.17258,90.96146
"62513",833.46423,77.979706,90.71148
"62514",833.47754,77.806366,90.475006
"62515",833.49084,77.65255,90.25264
"62516",833.50415,77.55001,90.076744
"62517",833.51746,77.574425,90.0246
"62518",833.53076,77.83322,90.207596
"62519",833.54407,78.41428,90.72095
"62520",833.5574,79.34203,91.599144
"62521",833.5707,80.56519,92.80174
"62522",833.584,81.94949,94.203705
"62523",833.5973,83.31182,95.62695
"62524",833.6106,84.46906,96.88769
"62525",833.6239,85.30404,97.86232
"62526",833.6372,85.76303,98.48706
"62527",833.6505,85.85336,98.757484
"62528",833.6638,85.626305,98.71334
"62529",833.6771,85.15999,98.422844
"62530",833.6904,84.542305,97.96641
"62531",833.70374,83.85626,97.42231
"62532",833.71704,83.16289,96.84944
"62533",833.73035,82.49882,96.28421
"62534",833.74365,81.88846,95.75194
"62535",833.75696,81.33669,95.259186
"62536",833.77026,80.85329,94.81755
"62537",833.78357,80.448006,94.438934
"62538",833.7969,80.14282,94.14775
"62539",833.8102,79.957275,93.96667
"62540",833.8235,79.89868,93.90674
"62541",833.8368,79.95972,93.96461
"62542",833.8501,80.11597,94.1196
"62543",833.8634,80.31617,94.323425
"62544",833.8767,80.51881,94.53594
"62545",833.89,80.68238,94.71573
"62546",833.9033,80.77272,94.82739
"62547",833.9166,80.77272,94.85154
"62548",833.92993,80.6775,94.780464
"62549",833.94324,80.50172,94.625854
"62550",833.95654,80.257576,94.39739
"62551",833.96985,79.974365,94.12223
"62552",833.98315,79.67162,93.81869
"62553",833.99646,79.36645,93.50325
"62554",834.00977,79.07103,93.188034
"62555",834.0231,78.79515,92.883125
"62556",834.0364,78.536354,92.58668
"62557",834.0497,78.28733,92.291916
"62558",834.063,78.05783,92.008896
"62559",834.0763,77.84787,91.73824
"62560",834.0896,77.659874,91.482994
"62561",834.1029,77.51583,91.26582
"62562",834.1162,77.48165,91.154015
"62563",834.1295,77.659874,91.25354
"62564",834.1428,78.150604,91.67114
"62565",834.1561,79.00755,92.4703
"62566",834.16943,80.216064,93.6478
"62567",834.18274,81.668724,95.10721
"62568",834.19604,83.18242,96.67305
"62569",834.20935,84.55451,98.14459
"62570",834.22266,85.62386,99.35627
"62571",834.23596,86.30259,100.21074
"62572",834.24927,86.5687,100.673805
"62573",834.2626,86.47105,100.78142
"62574",834.2759,86.08774,100.60033
"62575",834.2892,85.51888,100.22171
"62576",834.3025,84.857254,99.732544
"62577",834.3158,84.17609,99.20316
"62578",834.3291,83.52178,98.67936
"62579",834.3424,82.92363,98.19126
"62580",834.3557,82.38651,97.74551
"62581",834.369,81.900665,97.334236
"62582",834.3823,81.46853,96.961494
"62583",834.3956,81.09743,96.636284
"62584",834.40894,80.80446,96.37761
"62585",834.42224,80.59937,96.19766
"62586",834.43555,80.49195,96.10897
"62587",834.44885,80.47486,96.107254
"62588",834.46216,80.52125,96.16848
"62589",834.47546,80.59449,96.25801
"62590",834.4888,80.66285,96.34495
"62591",834.5021,80.689705,96.39252
"62592",834.5154,80.65064,96.37501
"62593",834.5287,80.52857,96.27327
"62594",834.542,80.31861,96.07983
"62595",834.5553,80.042725,95.813896
"62596",834.5686,79.72045,95.49296
"62597",834.5819,79.37377,95.13754
"62598",834.5952,79.01976,94.76396
"62599",834.6085,78.675514,94.389084
"62600",834.6218,78.348366,94.020546
"62601",834.63513,78.0383,93.65887
"62602",834.64844,77.75021,93.30948
"62603",834.66174,77.47921,92.96817
"62604",834.67505,77.23262,92.64281
"62605",834.68835,77.00557,92.32928
"62606",834.70166,76.822464,92.0526
"62607",834.71497,76.734566,91.8654
"62608",834.7283,76.83467,91.863464
"62609",834.7416,77.23506,92.16494
"62610",834.7549,78.01877,92.86224
"62611",834.7682,79.19066,93.97222
"62612",834.7815,80.672615,95.42889
"62613",834.7948,82.29374,97.07103
"62614",834.8081,83.83185,98.68082
"62615",834.8214,85.09407,100.06278
"62616",834.8347,85.9559,101.0838
"62617",834.848,86.37339,101.68741
"62618",834.8613,86.37827,101.89146
"62619",834.87463,86.056,101.7685
"62620",834.88794,85.514,101.41575
"62621",834.90125,84.857254,100.93131
"62622",834.91455,84.1712,100.39705
"62623",834.92786,83.52422,99.88042
"62624",834.94116,82.94072,99.40704
"62625",834.95447,82.42069,98.97891
"62626",834.9678,81.951935,98.5858
"62627",834.9811,81.51736,98.21222
"62628",834.9944,81.112076,97.854355
"62629",835.0077,80.743416,97.52045
"62630",835.021,80.428474,97.22874
"62631",835.0343,80.19653,97.010185
"62632",835.0476,80.04761,96.8674
"62633",835.0609,79.97925,96.80053
"62634",835.0742,79.96216,96.78279
"62635",835.0875,79.96216,96.78161
"62636",835.1008,79.94507,96.763336
"62637",835.11414,79.87915,96.6957
"62638",835.12744,79.74975,96.56252
"62639",835.14075,79.54711,96.352066
"62640",835.15405,79.27856,96.06936
"62641",835.16736,78.958725,95.72698
"62642",835.18066,78.6096,95.345314
"62643",835.194,78.24826,94.94053
"62644",835.2073,77.89426,94.531784
"62645",835.2206,77.557335,94.12906
"62646",835.2339,77.242386,93.73778
"62647",835.2472,76.94942,93.358635
"62648",835.2605,76.67841,92.9923
"62649",835.2738,76.43427,92.64436
"62650",835.2871,76.207214,92.30588
"62651",835.3004,76.00458,91.98472
"62652",835.3137,75.8288,91.68408
"62653",835.327,75.69695,91.42189
"62654",835.34033,75.665215,91.255684
"62655",835.35364,75.841,91.29601
"62656",835.36694,76.3415,91.66654
"62657",835.38025,77.24483,92.45554
"62658",835.39355,78.55833,93.682945
"62659",835.40686,80.184326,95.26389
"62660",835.42017,81.92508,97.01041
"62661",835.4335,83.54864,98.69412
"62662",835.4468,84.85237,100.10875
"62663",835.4601,85.711754,101.11977
"62664",835.4734,86.09262,101.67912
"62665",835.4867,86.04379,101.82069
"62666",835.5,85.67025,101.63601
"62667",835.5133,85.084305,101.22726
"62668",835.5266,84.40559,100.70742
"62669",835.5399,83.719536,100.15904
"62670",835.5532,83.07988,99.63562
"62671",835.5665,82.513466,99.16545
"62672",835.57983,82.005646,98.736176
"62673",835.59314,81.532005,98.32521
"62674",835.60645,81.075455,97.916534
"62675",835.61975,80.638435,97.51312
"62676",835.63306,80.22339,97.11803
"62677",835.64636,79.86694,96.76856
"62678",835.65967,79.5935,96.49096
"62679",835.673,79.412834,96.29759
"62680",835.6863,79.31518,96.18159
"62681",835.6996,79.273674,96.11868
"62682",835.7129,79.24925,96.07156
"62683",835.7262,79.20775,96.0066
"62684",835.7395,79.114975,95.88907
"62685",835.7528,78.95384,95.70028
"62686",835.7661,78.7219,95.435646
"62687",835.7794,78.43137,95.10518
"62688",835.7927,78.09201,94.7168
"62689",835.806,77.72823,94.293396
"62690",835.81934,77.35958,93.85375
"62691",835.83264,76.998245,93.409904
"62692",835.84595,76.654,92.971855
"62693",835.85925,76.32929,92.54259
"62694",835.87256,76.033875,92.13246
"62695",835.88586,75.775085,91.74973
"62696",835.8992,75.55779,91.40041
"62697",835.9125,75.37957,91.083374
"62698",835.9258,75.23796,90.79738
"62699",835.9391,75.13054,90.541145
"62700",835.9524,75.04509,90.30353
"62701",835.9657,74.97429,90.07789
"62702",835.979,74.91325,89.8598
"62703",835.9923,74.86931,89.6569
"62704",836.0056,74.861984,89.48924
"62705",836.0189,74.9572,89.4239
"62706",836.0322,75.267265,89.57638
"62707",836.04553,75.914246,90.07546
"62708",836.05884,76.96651,91.000046
"62709",836.07214,78.41428,92.35303
"62710",836.08545,80.13794,94.02713
"62711",836.09875,81.92508,95.81858
"62712",836.11206,83.54131,97.49497
"62713",836.12537,84.78645,98.85078
"62714",836.1387,85.56527,99.77917
"62715",836.152,85.855804,100.243614
"62716",836.1653,85.7264,100.2972
