"","Time..s.","PPG.trace","Preprocessed.PPG"
"91091",1260.9037,107.894714,189.87817
"91092",1260.917,102.521095,185.37627
"91093",1260.9303,96.84474,180.4037
"91094",1260.9436,91.20744,175.2928
"91095",1260.9569,85.87778,170.31337
"91096",1260.9702,81.05104,165.67032
"91097",1260.9835,76.84444,161.49657
"91098",1260.9968,73.35073,157.90425
"91099",1261.0101,70.69688,155.0426
"91100",1261.0234,69.05379,153.1088
"91101",1261.0367,68.58747,152.30042
"91102",1261.05,69.36385,152.72015
"91103",1261.0634,71.255974,154.27989
"91104",1261.0767,73.92203,156.6727
"91105",1261.09,76.86153,159.42226
"91106",1261.1033,79.551994,162.01465
"91107",1261.1166,81.57351,164.02216
"91108",1261.1299,82.69169,165.18951
"91109",1261.1432,82.86015,165.4421
"91110",1261.1565,82.19119,164.86252
"91111",1261.1698,80.86061,163.60042
"91112",1261.1831,79.078354,161.84506
"91113",1261.1964,77.0251,159.763
"91114",1261.2097,74.83757,157.4825
"91115",1261.223,72.620735,155.10434
"91116",1261.2363,70.469826,152.72282
"91117",1261.2496,68.4654,150.42058
"91118",1261.263,66.67094,148.26566
"91119",1261.2762,65.13283,146.31102
"91120",1261.2896,63.873043,144.58664
"91121",1261.3029,62.87205,143.08168
"91122",1261.3162,62.102997,141.77737
"91123",1261.3295,61.53414,140.64923
"91124",1261.3428,61.13863,139.67667
"91125",1261.3561,60.889603,138.83823
"91126",1261.3694,60.77241,138.12384
"91127",1261.3827,60.75532,137.50589
"91128",1261.396,60.816357,136.96553
"91129",1261.4093,61.016556,136.56624
"91130",1261.4226,61.68063,136.63708
"91131",1261.4359,63.567863,137.95184
"91132",1261.4492,67.701225,141.5717
"91133",1261.4625,74.71061,148.19675
"91134",1261.4758,84.2884,157.60924
"91135",1261.4891,95.17235,168.6272
"91136",1261.5024,105.57778,179.50677
"91137",1261.5157,113.761505,188.4898
"91138",1261.529,118.61997,194.40332
"91139",1261.5424,120.043335,197.03355
"91140",1261.5557,118.693214,196.93478
"91141",1261.569,115.4168,194.86754
"91142",1261.5823,110.84154,191.39905
"91143",1261.5956,105.40444,186.92575
"91144",1261.6089,99.48394,181.79913
"91145",1261.6222,93.44381,176.36787
"91146",1261.6355,87.60876,170.95294
"91147",1261.6488,82.22049,165.80244
"91148",1261.6621,77.437706,161.08905
"91149",1261.6754,73.38491,156.95618
"91150",1261.6887,70.17197,153.53651
"91151",1261.702,67.94293,151.00035
"91152",1261.7153,66.87602,149.55666
"91153",1261.7286,67.11528,149.38579
"91154",1261.742,68.65827,150.52614
"91155",1261.7552,71.27795,152.79138
"91156",1261.7686,74.54459,155.78546
"91157",1261.7819,77.89914,158.96953
"91158",1261.7952,80.797134,161.80186
"91159",1261.8085,82.83574,163.86539
"91160",1261.8218,83.82208,164.94035
"91161",1261.8351,83.76349,165.0012
"91162",1261.8484,82.82109,164.17642
"91163",1261.8617,81.22926,162.67276
"91164",1261.875,79.22972,160.71164
"91165",1261.8883,77.02754,158.48538
"91166",1261.9016,74.76921,156.13416
"91167",1261.9149,72.56214,153.76363
"91168",1261.9282,70.48203,151.45108
"91169",1261.9415,68.58503,149.25664
"91170",1261.9548,66.90044,147.21533
"91171",1261.9681,65.45022,145.35576
"91172",1261.9814,64.2417,143.69257
"91173",1261.9948,63.27245,142.23087
"91174",1262.008,62.522926,140.9586
"91175",1262.0214,61.97116,139.86069
"91176",1262.0347,61.592735,138.91885
"91177",1262.048,61.343708,138.0946
"91178",1262.0613,61.180134,137.34802
"91179",1262.0746,61.082474,136.66225
"91180",1262.0879,61.165485,136.15408
"91181",1262.1012,61.844204,136.24422
"91182",1262.1145,63.956055,137.7887
"91183",1262.1278,68.48493,141.8162
"91184",1262.1411,75.92157,148.89299
"91185",1262.1544,85.78989,158.63385
"91186",1262.1677,96.71046,169.73535
"91187",1262.181,106.847336,180.39444
"91188",1262.1943,114.51591,188.902
"91189",1262.2076,118.768906,194.23361
"91190",1262.221,119.63561,196.31184
"91191",1262.2343,117.855804,195.77065
"91192",1262.2476,114.269325,193.36716
"91193",1262.2609,109.4963,189.66504
"91194",1262.2742,103.94934,185.03984
"91195",1262.2875,97.98001,179.81892
"91196",1262.3008,91.90326,174.30405
"91197",1262.3141,85.994965,168.76773
"91198",1262.3274,80.479744,163.43985
"91199",1262.3407,75.528496,158.5036
"91200",1262.354,71.29015,154.12552
"91201",1262.3673,67.91852,150.4817
"91202",1262.3806,65.62356,147.8092
"91203",1262.3939,64.62501,146.36139
"91204",1262.4072,65.084,146.3399
"91205",1262.4205,66.97856,147.76834
"91206",1262.4338,70.064545,150.4474
"91207",1262.4471,73.846344,153.91872
"91208",1262.4604,77.70138,157.58145
"91209",1262.4738,81.01686,160.8251
"91210",1262.487,83.353325,163.19334
"91211",1262.5004,84.491035,164.43585
"91212",1262.5137,84.46174,164.5469
"91213",1262.527,83.46075,163.68535
"91214",1262.5403,81.76883,162.10158
"91215",1262.5536,79.65453,160.04256
"91216",1262.5669,77.34249,157.71971
"91217",1262.5802,74.9987,155.29288
"91218",1262.5935,72.73548,152.87337
"91219",1262.6068,70.6334,150.54427
"91220",1262.6201,68.74128,148.35944
"91221",1262.6334,67.09575,146.36208
"91222",1262.6467,65.71389,144.57697
"91223",1262.66,64.60059,143.01723
"91224",1262.6733,63.73144,141.66684
"91225",1262.6866,63.06981,140.49681
"91226",1262.7,62.557106,139.45505
"91227",1262.7133,62.161594,138.51445
"91228",1262.7266,61.9028,137.69821
"91229",1262.7399,62.034637,137.26451
"91230",1262.7532,63.196766,137.86522
"91231",1262.7665,66.34623,140.48958
"91232",1262.7798,72.28382,146.00049
"91233",1262.7931,81.04372,154.51926
"91234",1262.8064,91.646904,165.15506
"91235",1262.8197,102.39658,176.2687
"91236",1262.833,111.45434,186.02635
"91237",1262.8463,117.44564,193.00061
"91238",1262.8596,119.9115,196.63664
"91239",1262.8729,119.30358,197.27596
"91240",1262.8862,116.488594,195.68921
"91241",1262.8995,112.22583,192.56671
"91242",1262.9128,107.00847,188.35641
"91243",1262.9261,101.190506,183.38246
"91244",1262.9395,95.082016,177.93617
"91245",1262.9528,88.971085,172.29655
"91246",1262.9661,83.106735,166.71255
"91247",1262.9794,77.69894,161.40184
"91248",1262.9927,72.94057,156.57156
"91249",1263.006,69.02205,152.43243
"91250",1263.0193,66.160675,149.228
"91251",1263.0326,64.59571,147.23056
"91252",1263.0459,64.515144,146.66861
"91253",1263.0592,65.97757,147.64713
"91254",1263.0725,68.81453,150.04588
"91255",1263.0858,72.61341,153.49522
"91256",1263.0991,76.76143,157.41241
"91257",1263.1124,80.59937,161.14915
"91258",1263.1257,83.55596,164.12448
"91259",1263.139,85.296715,165.97636
"91260",1263.1523,85.753265,166.59843
"91261",1263.1656,85.07454,166.0995
"91262",1263.179,83.546196,164.72974
"91263",1263.1923,81.480736,162.7751
"91264",1263.2056,79.12962,160.47026
"91265",1263.2189,76.67841,157.99185
"91266",1263.2322,74.251625,155.46126
"91267",1263.2455,71.956665,152.98666
"91268",1263.2588,69.86191,150.64055
"91269",1263.2721,68.02594,148.48776
"91270",1263.2854,66.47318,146.56082
"91271",1263.2987,65.20607,144.871
"91272",1263.312,64.18555,143.38817
"91273",1263.3253,63.36278,142.0712
"91274",1263.3386,62.69383,140.88232
"91275",1263.3519,62.237278,139.88495
"91276",1263.3652,62.320286,139.41287
"91277",1263.3785,63.687496,140.2276
"91278",1263.3918,67.34234,143.37268
"91279",1263.4052,73.94644,149.58124
"91280",1263.4185,83.25811,158.70374
"91281",1263.4318,94.06882,169.61626
"91282",1263.4451,104.57679,180.56387
"91283",1263.4584,113.007095,189.7622
"91284",1263.4717,118.185394,195.97198
"91285",1263.485,119.923706,198.9036
"91286",1263.4983,118.82994,199.05745
"91287",1263.5116,115.77081,197.21176
"91288",1263.5249,111.41772,193.9765
"91289",1263.5382,106.212555,189.75314
"91290",1263.5515,100.50202,184.86176
"91291",1263.5648,94.61326,179.61368
"91292",1263.5781,88.82704,174.28412
"91293",1263.5914,83.36309,169.09601
"91294",1263.6047,78.382545,164.22057
"91295",1263.618,74.02701,159.81448
"91296",1263.6313,70.450294,156.05112
"91297",1263.6447,67.84039,153.14279
"91298",1263.658,66.43412,151.35654
"91299",1263.6713,66.424355,150.92284
"91300",1263.6846,67.859924,151.93417
"91301",1263.6979,70.54551,154.24039
"91302",1263.7112,74.04654,157.44597
"91303",1263.7245,77.75998,160.97336
"91304",1263.7378,81.06081,164.20418
"91305",1263.7511,83.46319,166.63971
"91306",1263.7644,84.701,167.98575
"91307",1263.7777,84.76204,168.1937
"91308",1263.791,83.82208,167.40256
"91309",1263.8043,82.15701,165.85693
"91310",1263.8176,80.045166,163.8125
"91311",1263.8309,77.71603,161.48477
"91312",1263.8442,75.34051,159.03787
"91313",1263.8575,73.040665,156.59242
"91314",1263.8708,70.89464,154.22891
"91315",1263.8842,68.9659,152.01562
"91316",1263.8975,67.2813,149.98622
"91317",1263.9108,65.848175,148.15564
"91318",1263.9241,64.6421,146.50732
"91319",1263.9374,63.638668,145.02396
"91320",1263.9507,62.828106,143.7021
"91321",1263.964,62.29587,142.63324
"91322",1263.9773,62.435036,142.21915
"91323",1263.9906,64.06348,143.29868
"91324",1264.0039,68.138245,146.87543
"91325",1264.0172,75.11833,153.48483
"91326",1264.0305,84.51789,162.73184
"91327",1264.0438,94.994125,173.34926
"91328",1264.0571,104.7892,183.6129
"91329",1264.0704,112.272224,191.87059
"91330",1264.0837,116.53254,197.1394
"91331",1264.097,117.6141,199.36261
"91332",1264.1104,116.21271,199.13666
"91333",1264.1237,113.10719,197.16278
"91334",1264.137,108.84688,193.93707
"91335",1264.1503,103.83215,189.8238
"91336",1264.1636,98.39994,185.13635
"91337",1264.1769,92.86275,180.17416
"91338",1264.1902,87.48913,175.2025
"91339",1264.2035,82.48173,170.42914
"91340",1264.2168,77.96994,165.9949
"91341",1264.2301,74.08072,162.04224
"91342",1264.2434,70.95567,158.73221
"91343",1264.2567,68.78035,156.27425
"91344",1264.27,67.76471,154.90799
"91345",1264.2833,68.050354,154.81128
"91346",1264.2966,69.61288,156.00038
"91347",1264.3099,72.20325,158.26616
"91348",1264.3232,75.36736,161.18663
"91349",1264.3365,78.53391,164.2084
"91350",1264.3499,81.163345,166.79202
"91351",1264.3632,82.8748,168.53984
"91352",1264.3765,83.49737,169.25224
"91353",1264.3898,83.06279,168.92696
"91354",1264.4031,81.76395,167.72383
"91355",1264.4164,79.852295,165.86731
"91356",1264.4297,77.58907,163.59947
"91357",1264.443,75.18425,161.11931
"91358",1264.4563,72.79164,158.5762
"91359",1264.4696,70.518654,156.07796
"91360",1264.4829,68.44587,153.70888
"91361",1264.4962,66.6392,151.54114
"91362",1264.5095,65.1255,149.60992
"91363",1264.5228,63.89746,147.91705
"91364",1264.5361,62.93065,146.44704
"91365",1264.5494,62.20798,145.19095
"91366",1264.5627,61.846645,144.27362
"91367",1264.576,62.317844,144.17752
"91368",1264.5894,64.50538,145.81248
"91369",1264.6027,69.278404,150.1013
"91370",1264.616,76.8127,157.30055
"91371",1264.6293,86.35874,166.747
"91372",1264.6426,96.46143,177.0484
"91373",1264.6559,105.43618,186.53757
"91374",1264.6692,111.869385,193.76566
"91375",1264.6825,115.160446,198.05264
"91376",1264.6958,115.58526,199.57622
"91377",1264.7091,113.8616,198.9646
"91378",1264.7224,110.63157,196.79274
"91379",1264.7357,106.37614,193.49454
"91380",1264.749,101.50301,189.44566
"91381",1264.7623,96.393074,185.00769
"91382",1264.7756,91.36858,180.49548
"91383",1264.789,86.68345,176.16562
"91384",1264.8022,82.47929,172.17032
"91385",1264.8156,78.81468,168.58319
"91386",1264.8289,75.73113,165.4626
"91387",1264.8422,73.321434,162.9195
"91388",1264.8555,71.72961,161.11896
"91389",1264.8688,71.08507,160.21597
"91390",1264.8821,71.44396,160.29628
"91391",1264.8954,72.69886,161.2838
"91392",1264.9087,74.57877,162.93555
"91393",1264.922,76.68574,164.8731
"91394",1264.9353,78.61692,166.7007
"91395",1264.9486,80.03052,168.07108
"91396",1264.9619,80.73121,168.77272
"91397",1264.9752,80.65308,168.71745
"91398",1264.9885,79.835205,167.91998
"91399",1265.0018,78.41428,166.49391
"91400",1265.0151,76.56855,164.59862
"91401",1265.0284,74.47135,162.39418
"91402",1265.0417,72.26917,160.01923
"91403",1265.055,70.08896,157.59743
"91404",1265.0684,68.02594,155.22469
"91405",1265.0817,66.16556,152.99011
"91406",1265.095,64.5713,150.96353
"91407",1265.1083,63.282215,149.1923
"91408",1265.1216,62.31296,147.70062
"91409",1265.1349,61.641567,146.4765
"91410",1265.1482,61.211872,145.4731
"91411",1265.1615,60.957962,144.63206
"91412",1265.1748,60.845654,143.9247
"91413",1265.1881,61.014114,143.49458
"91414",1265.2014,61.995575,143.88274
"91415",1265.2147,64.781265,146.10579
"91416",1265.228,70.24277,151.0917
"91417",1265.2413,78.45335,158.99738
"91418",1265.2546,88.54383,169.03952
"91419",1265.268,99.01274,179.77542
"91420",1265.2812,108.1535,189.51033
"91421",1265.2946,114.59403,196.83066
"91422",1265.3079,117.841156,201.15884
"91423",1265.3212,118.2855,202.78572
"91424",1265.3345,116.65461,202.35126
"91425",1265.3478,113.549095,200.3912
"91426",1265.3611,109.44747,197.33798
"91427",1265.3744,104.7892,193.59995
"91428",1265.3877,99.99664,189.58205
"91429",1265.401,95.4287,185.639
"91430",1265.4143,91.32708,182.01953
"91431",1265.4276,87.79431,178.84073
"91432",1265.4409,84.805984,176.09598
"91433",1265.4542,82.28397,173.72415
"91434",1265.4675,80.17212,171.68367
"91435",1265.4808,78.48997,170.0069
"91436",1265.4941,77.3254,168.79514
"91437",1265.5074,76.74677,168.13292
"91438",1265.5208,76.756546,168.04103
"91439",1265.534,77.23018,168.4133
"91440",1265.5474,77.960175,169.05673
"91441",1265.5607,78.692604,169.72542
"91442",1265.574,79.21019,170.20215
"91443",1265.5873,79.36645,170.33372
"91444",1265.6006,79.06859,170.01607
"91445",1265.6139,78.2971,169.21547
"91446",1265.6272,77.086136,167.9513
"91447",1265.6405,75.51873,166.29283
"91448",1265.6538,73.673,164.30705
"91449",1265.6671,71.64416,162.08049
"91450",1265.6804,69.522545,159.69775
"91451",1265.6937,67.39117,157.23895
"91452",1265.707,65.3428,154.79655
"91453",1265.7203,63.47265,152.46837
"91454",1265.7336,61.861294,150.34053
"91455",1265.747,60.56733,148.47974
"91456",1265.7603,59.627377,146.93251
"91457",1265.7736,59.034103,145.70259
"91458",1265.7869,58.75822,144.77153
"91459",1265.8002,58.733807,144.08331
"91460",1265.8135,58.880295,143.56523
"91461",1265.8268,59.11711,143.14206
"91462",1265.8401,59.410088,142.78244
"91463",1265.8534,59.915466,142.64438
"91464",1265.8667,61.1899,143.29117
"91465",1265.88,64.1709,145.68436
"91466",1265.8933,69.62264,150.64145
"91467",1265.9066,77.55978,158.25429
"91468",1265.9199,87.14244,167.7607
"91469",1265.9332,96.97414,177.8156
"91470",1265.9465,105.46792,186.83981
"91471",1265.9598,111.38354,193.5513
"91472",1265.9731,114.31327,197.46176
"91473",1265.9865,114.62821,198.849
"91474",1265.9998,112.972916,198.27583
"91475",1266.0131,109.91135,196.24466
"91476",1266.0264,105.919586,193.18762
"91477",1266.0397,101.4493,189.52733
"91478",1266.053,96.91066,185.65898
"91479",1266.0663,92.64057,181.91736
"91480",1266.0796,88.84413,178.51593
"91481",1266.0929,85.592125,175.5403
"91482",1266.1062,82.83086,172.95378
"91483",1266.1195,80.479744,170.69113
"91484",1266.1328,78.49729,168.72368
"91485",1266.1461,76.927444,167.10687
"91486",1266.1594,75.87518,165.95859
"91487",1266.1727,75.41863,165.37314
"91488",1266.186,75.562675,165.37401
"91489",1266.1993,76.17792,165.85059
"91490",1266.2126,77.02998,166.5832
"91491",1266.226,77.857635,167.31804
"91492",1266.2393,78.43626,167.82971
"91493",1266.2526,78.61204,167.95662
"91494",1266.2659,78.30198,167.60318
"91495",1266.2792,77.506065,166.7542
"91496",1266.2925,76.27558,165.44577
"91497",1266.3058,74.69108,163.74487
"91498",1266.3191,72.850235,161.73813
"91499",1266.3324,70.84825,159.51271
"91500",1266.3457,68.78035,157.15881
"91501",1266.359,66.739296,154.76715
"91502",1266.3723,64.815445,152.42891
"91503",1266.3856,63.082016,150.22096
"91504",1266.3989,61.59762,148.20789
"91505",1266.4122,60.401314,146.43651
"91506",1266.4255,59.510185,144.93292
"91507",1266.4388,58.936447,143.71887
"91508",1266.4521,58.663006,142.7872
"91509",1266.4655,58.67033,142.12775
"91510",1266.4788,58.9218,141.71266
"91511",1266.4921,59.361256,141.49342
"91512",1266.5054,59.925232,141.41245
"91513",1266.5187,60.5478,141.40767
"91514",1266.532,61.163044,141.41504
"91515",1266.5453,61.707485,141.37082
"91516",1266.5586,62.13474,141.22643
"91517",1266.5719,62.437477,140.97087
"91518",1266.5852,62.771954,140.75652
"91519",1266.5985,63.665524,141.11171
"91520",1266.6118,66.075226,143.01096
"91521",1266.6251,70.91905,147.41963
"91522",1266.6384,78.41184,154.62865
"91523",1266.6517,87.852905,164.02008
"91524",1266.665,97.87259,174.28517
"91525",1266.6783,106.81804,183.78914
"91526",1266.6917,113.29275,191.10191
"91527",1266.705,116.67414,195.52371
"91528",1266.7183,117.2137,197.20934
"91529",1266.7316,115.57549,196.73405
"91530",1266.7449,112.36744,194.63773
"91531",1266.7582,108.08026,191.36203
"91532",1266.7715,103.18761,187.34688
"91533",1266.7848,98.126495,183.01038
"91534",1266.7981,93.277794,178.72812
"91535",1266.8114,88.91737,174.78262
"91536",1266.8247,85.17952,171.32344
"91537",1266.838,82.08133,168.38712
"91538",1266.8513,79.59594,165.96677
"91539",1266.8646,77.72091,164.0791
"91540",1266.8779,76.507515,162.79448
"91541",1266.8912,76.033875,162.2117
"91542",1266.9045,76.317085,162.37097
"91543",1266.9178,77.25948,163.19827
"91544",1266.9312,78.62913,164.48227
"91545",1266.9445,80.09888,165.90918
"91546",1266.9578,81.341576,167.15497
"91547",1266.9711,82.125275,167.98059
"91548",1266.9844,82.320595,168.24232
"91549",1266.9977,81.898224,167.89247
"91550",1267.011,80.90456,166.95813
"91551",1267.0243,79.43969,165.52153
"91552",1267.0376,77.64034,163.70467
"91553",1267.0509,75.62615,161.61673
"91554",1267.0642,73.51675,159.37064
"91555",1267.0775,71.41955,157.07083
"91556",1267.0908,69.417564,154.8007
"91557",1267.1041,67.56695,152.61938
"91558",1267.1174,65.916534,150.58044
"91559",1267.1307,64.49561,148.71942
"91560",1267.144,63.32616,147.06546
"91561",1267.1573,62.41062,145.62886
"91562",1267.1707,61.758755,144.42732
"91563",1267.184,61.360798,143.45932
"91564",1267.1973,61.194782,142.71083
"91565",1267.2106,61.24361,142.172
"91566",1267.2239,61.47799,141.82024
"91567",1267.2372,61.866177,141.62961
"91568",1267.2505,62.376442,141.5732
"91569",1267.2638,62.974594,141.6206
"91570",1267.2771,63.61425,141.72821
"91571",1267.2904,64.24902,141.85092
"91572",1267.3037,64.82765,141.93733
"91573",1267.317,65.303734,141.93927
"91574",1267.3303,65.64309,141.81937
"91575",1267.3436,65.84329,141.57092
"91576",1267.3569,66.04837,141.3336
"91577",1267.3702,66.73197,141.58122
"91578",1267.3835,68.80476,143.2394
"91579",1267.3969,73.20424,147.28902
"91580",1267.4102,80.25269,154.1251
"91581",1267.4235,89.35195,163.23227
"91582",1267.4368,99.18608,173.35864
"91583",1267.4501,108.11932,182.89145
"91584",1267.4634,114.703896,190.35475
"91585",1267.4767,118.222015,194.95737
"91586",1267.49,118.83482,196.76462
"91587",1267.5033,117.186844,196.33023
"91588",1267.5166,113.900665,194.20615
"91589",1267.5299,109.469444,190.83432
"91590",1267.5432,104.32777,186.61356
"91591",1267.5565,98.88579,181.93182
"91592",1267.5698,93.504845,177.14107
"91593",1267.5831,88.47547,172.53372
"91594",1267.5964,83.98566,168.30876
"91595",1267.6097,80.13306,164.58072
"91596",1267.623,77.00313,161.45496
"91597",1267.6364,74.720375,159.07855
"91598",1267.6497,73.44106,157.63425
"91599",1267.663,73.27505,157.26326
"91600",1267.6763,74.21988,157.99794
"91601",1267.6896,76.08026,159.67769
"91602",1267.7029,78.47776,161.9527
"91603",1267.7162,80.92897,164.35634
"91604",1267.7295,82.97734,166.43375
"91605",1267.7428,84.30793,167.85738
"91606",1267.7561,84.78645,168.47052
"91607",1267.7694,84.43,168.26364
"91608",1267.7827,83.353325,167.32541
"91609",1267.796,81.72732,165.8042
"91610",1267.8093,79.7351,163.86597
"91611",1267.8226,77.53536,161.65794
"91612",1267.8359,75.25506,159.30061
"91613",1267.8492,73.0016,156.89888
"91614",1267.8625,70.86046,154.53903
"91615",1267.8759,68.895096,152.28806
"91616",1267.8892,67.159225,150.20515
"91617",1267.9025,65.687035,148.3317
"91618",1267.9158,64.498055,146.69543
"91619",1267.9291,63.58007,145.29301
"91620",1267.9424,62.908676,144.10849
"91621",1267.9557,62.46189,143.1276
"91622",1267.969,62.215305,142.33295
"91623",1267.9823,62.15183,141.7137
"91624",1267.9956,62.264133,141.26825
"91625",1268.0089,62.5449,140.99477
"91626",1268.0222,62.972153,140.87656
"91627",1268.0355,63.51171,140.884
"91628",1268.0488,64.12207,140.9791
"91629",1268.0621,64.74708,141.10791
"91630",1268.0754,65.32815,141.21233
"91631",1268.0887,65.811554,141.23724
"91632",1268.102,66.15823,141.14053
"91633",1268.1154,66.373085,140.92284
"91634",1268.1287,66.58793,140.71184
"91635",1268.142,67.227585,140.93237
"91636",1268.1553,69.119705,142.42535
"91637",1268.1686,73.216446,146.18208
"91638",1268.1819,79.95239,152.70604
"91639",1268.1952,88.868546,161.6207
"91640",1268.2085,98.722206,171.7515
"91641",1268.2218,107.90448,181.51884
"91642",1268.2351,114.913864,189.40024
"91643",1268.2484,118.88365,194.46109
"91644",1268.2617,119.835815,196.62837
"91645",1268.275,118.37339,196.41081
"91646",1268.2883,115.15312,194.38971
"91647",1268.3016,110.675514,191.01064
"91648",1268.315,105.35317,186.64691
"91649",1268.3282,99.58404,181.67006
"91650",1268.3416,93.729454,176.42747
"91651",1268.3549,88.10193,171.22899
"91652",1268.3682,82.92851,166.30876
"91653",1268.3815,78.365456,161.83722
"91654",1268.3948,74.53727,157.95795
"91655",1268.4081,71.59045,154.84041
"91656",1268.4214,69.71053,152.6977
"91657",1268.4347,69.09529,151.76091
"91658",1268.448,69.85947,152.18431
"91659",1268.4613,71.9176,153.92555
"91660",1268.4746,74.9279,156.68327
"91661",1268.4879,78.35813,159.955
"91662",1268.5012,81.58572,163.13127
"91663",1268.5145,84.08331,165.67842
"91664",1268.5278,85.53353,167.25624
"91665",1268.5411,85.86313,167.75876
"91666",1268.5544,85.19661,167.27547
"91667",1268.5677,83.758606,165.99986
"91668",1268.581,81.80545,164.16417
"91669",1268.5944,79.554436,161.96957
"91670",1268.6077,77.16914,159.57036
"91671",1268.621,74.76189,157.07463
"91672",1268.6343,72.43519,154.58424
"91673",1268.6476,70.26963,152.18228
"91674",1268.6609,68.3238,149.93237
"91675",1268.6742,66.64408,147.88777
"91676",1268.6875,65.25002,146.07634
"91677",1268.7008,64.1416,144.50699
"91678",1268.7141,63.299305,143.16911
"91679",1268.7274,62.701153,142.04907
"91680",1268.7407,62.337376,141.14471
"91681",1268.754,62.18601,140.44139
"91682",1268.7673,62.22507,139.92377
"91683",1268.7806,62.42527,139.5685
"91684",1268.794,62.759747,139.35376
"91685",1268.8073,63.187,139.24225
"91686",1268.8206,63.672848,139.2027
"91687",1268.8339,64.183105,139.20273
"91688",1268.8472,64.67872,139.20407
"91689",1268.8605,65.12062,139.16718
"91690",1268.8738,65.50637,139.08795
"91691",1268.8871,65.936066,139.06473
"91692",1268.9004,66.78325,139.47241
"91693",1268.9137,68.841385,141.11752
"91694",1268.927,73.077286,145.00471
"91695",1268.9403,79.991455,151.70255
"91696",1268.9536,89.17128,160.88211
"91697",1268.9669,99.369194,171.36662
"91698",1268.9802,108.92256,181.52528
"91699",1268.9935,116.26154,189.7681
"91700",1269.0068,120.448616,195.08835
"91701",1269.0201,121.461815,197.36557
"91702",1269.0334,119.93103,197.13046
"91703",1269.0468,116.576485,195.02376
"91704",1269.06,111.920654,191.51094
"91705",1269.0734,106.34684,186.93465
"91706",1269.0867,100.21637,181.62752
"91707",1269.1,93.873505,175.91641
"91708",1269.1133,87.640495,170.11694
"91709",1269.1266,81.78348,164.49869
"91710",1269.1399,76.51972,159.29066
"91711",1269.1532,72.01526,154.67744
"91712",1269.1665,68.438545,150.85121
"91713",1269.1798,65.98978,148.04115
"91714",1269.1931,64.88869,146.50224
"91715",1269.2064,65.31838,146.45972
"91716",1269.2197,67.3106,147.99313
"91717",1269.233,70.62852,150.9145
"91718",1269.2463,74.76433,154.75746
"91719",1269.2596,79.029526,158.85904
"91720",1269.273,82.73319,162.53238
"91721",1269.2863,85.36019,165.2448
"91722",1269.2996,86.67124,166.72336
"91723",1269.3129,86.70542,166.96602
"91724",1269.3262,85.70443,166.17458
"91725",1269.3395,83.97589,164.6243
"91726",1269.3528,81.80789,162.58055
"91727",1269.3661,79.42504,160.2542
"91728",1269.3794,76.97139,157.78258
"91729",1269.3927,74.55192,155.26846
"91730",1269.406,72.23743,152.78372
"91731",1269.4193,70.09384,150.39755
"91732",1269.4326,68.1651,148.15924
"91733",1269.4459,66.492714,146.11702
"91734",1269.4592,65.10597,144.30818
"91735",1269.4725,64.01709,142.75386
"91736",1269.4858,63.216297,141.4536
"91737",1269.4991,62.684063,140.39688
"91738",1269.5125,62.376442,139.54814
"91739",1269.5258,62.251926,138.8729
"91740",1269.5391,62.281223,138.34756
"91741",1269.5524,62.437477,137.9501
"91742",1269.5657,62.691387,137.65518
"91743",1269.579,63.02098,137.44388
"91744",1269.5923,63.394524,137.28683
"91745",1269.6056,63.77783,137.15121
"91746",1269.6189,64.15625,137.02269
"91747",1269.6322,64.61524,136.98657
"91748",1269.6455,65.50149,137.39204
"91749",1269.6588,67.56451,139.00198
"91750",1269.6721,71.78821,142.83708
"91751",1269.6854,78.79271,149.58496
"91752",1269.6987,88.27039,159.02492
"91753",1269.712,98.99565,170.00862
"91754",1269.7253,109.222855,180.82944
"91755",1269.7386,117.25765,189.77745
"91756",1269.752,122.01114,195.69524
"91757",1269.7653,123.351494,198.34843
"91758",1269.7786,121.91348,198.26515
"91759",1269.7919,118.522316,196.18378
"91760",1269.8052,113.78104,192.64632
"91761",1269.8185,108.087585,188.00851
"91762",1269.8318,101.786224,182.58488
"91763",1269.8451,95.201645,176.68112
"91764",1269.8584,88.653694,170.60822
"91765",1269.8717,82.41337,164.63832
"91766",1269.885,76.70771,159.00809
"91767",1269.8983,71.72228,153.91977
"91768",1269.9116,67.62554,149.56435
"91769",1269.9249,64.59327,146.14537
"91770",1269.9382,62.83543,143.90607
"91771",1269.9515,62.554665,143.08891
"91772",1269.9648,63.86816,143.85724
"91773",1269.9781,66.67582,146.16078
"91774",1269.9915,70.61387,149.68245
"91775",1270.0048,75.08415,153.85942
"91776",1270.0181,79.38354,158.00519
"91777",1270.0314,82.86748,161.46986
"91778",1270.0447,85.10628,163.79828
"91779",1270.058,85.97055,164.82213
"91780",1270.0713,85.58236,164.62051
"91781",1270.0846,84.2298,163.4424
"91782",1270.0979,82.2327,161.57748
"91783",1270.1112,79.86694,159.28151
"91784",1270.1245,77.34005,156.75046
"91785",1270.1378,74.79607,154.12335
"91786",1270.1511,72.34974,151.5144
"91787",1270.1644,70.08652,149.01212
"91788",1270.1777,68.065,146.6808
"91789",1270.191,66.32426,144.5671
"91790",1270.2043,64.883804,142.69928
"91791",1270.2177,63.74365,141.08675
"91792",1270.231,62.89891,139.734
"91793",1270.2443,62.32761,138.62828
"91794",1270.2576,62.012665,137.76108
"91795",1270.2709,61.91501,137.10132
"91796",1270.2842,62.00534,136.6265
"91797",1270.2975,62.247044,136.30586
"91798",1270.3108,62.593727,136.09776
"91799",1270.3241,62.99901,135.9591
"91800",1270.3374,63.42382,135.85263
"91801",1270.3507,63.85351,135.76431
"91802",1270.364,64.35645,135.76268
"91803",1270.3773,65.23537,136.15274
"91804",1270.3906,67.15434,137.61032
"91805",1270.4039,71.026474,141.08102
"91806",1270.4172,77.53048,147.30461
"91807",1270.4305,86.59312,156.29007
"91808",1270.4438,97.18898,167.09196
"91809",1270.4572,107.63348,178.07361
"91810",1270.4705,116.14923,187.45291
"91811",1270.4838,121.48623,193.91957
"91812",1270.4971,123.2929,197.02269
"91813",1270.5104,122.055084,197.13777
"91814",1270.5237,118.624855,195.02176
"91815",1270.537,113.74685,191.35078
"91816",1270.5503,107.91913,186.57765
"91817",1270.5636,101.48592,181.01692
"91818",1270.5769,94.7744,174.97684
"91819",1270.5902,88.094604,168.75874
"91820",1270.6035,81.71267,162.62976
"91821",1270.6168,75.84589,156.8165
"91822",1270.6301,70.657814,151.49861
"91823",1270.6434,66.29008,146.83893
"91824",1270.6567,62.91356,143.03398
"91825",1270.67,60.73335,140.31982
"91826",1270.6833,59.9765,138.96089
"91827",1270.6967,60.794384,139.15305
"91828",1270.71,63.18944,140.94792
"91829",1270.7233,66.934616,144.16777
"91830",1270.7366,71.568474,148.39334
"91831",1270.7499,76.44404,153.00542
"91832",1270.7632,80.89723,157.34749
"91833",1270.7765,84.35432,160.83261
"91834",1270.7898,86.49058,163.10495
"91835",1270.8031,87.25231,164.06952
"91836",1270.8164,86.8275,163.87134
"91837",1270.8297,85.51644,162.77364
"91838",1270.843,83.64629,161.07588
"91839",1270.8563,81.47341,159.01695
"91840",1270.8696,79.18089,156.77048
"91841",1270.8829,76.88838,154.45236
"91842",1270.8962,74.68131,152.14806
"91843",1270.9095,72.62318,149.9237
"91844",1270.9229,70.75792,147.82793
"91845",1270.9362,69.12215,145.90334
"91846",1270.9495,67.74029,144.18155
"91847",1270.9628,66.6099,142.66805
"91848",1270.9761,65.71877,141.35847
"91849",1270.9894,65.04494,140.23836
"91850",1271.0027,64.54688,139.27295
"91851",1271.016,64.17822,138.42139
"91852",1271.0293,63.904785,137.65352
"91853",1271.0426,63.77783,137.02359
"91854",1271.0559,64.05127,136.79008
"91855",1271.0692,65.34768,137.5881
"91856",1271.0825,68.61677,140.3993
"91857",1271.0958,74.69596,146.12277
"91858",1271.1091,83.70489,154.96594
"91859",1271.1224,94.73533,166.11217
"91860",1271.1357,106.06607,177.90338
"91861",1271.149,115.76349,188.41536
"91862",1271.1624,122.32365,196.09312
"91863",1271.1757,125.1606,200.25269
"91864",1271.189,124.647896,201.15125
"91865",1271.2023,121.67666,199.57526
"91866",1271.2156,117.09407,196.29506
"91867",1271.2289,111.4641,191.82428
"91868",1271.2422,105.17006,186.51349
"91869",1271.2555,98.529335,180.65933
"91870",1271.2688,91.844666,174.55371
"91871",1271.2821,85.37728,168.45647
"91872",1271.2954,79.34203,162.58926
"91873",1271.3087,73.91226,157.13893
"91874",1271.322,69.239334,152.27576
"91875",1271.3353,65.48928,148.18944
"91876",1271.3486,62.864727,145.11142
"91877",1271.3619,61.58297,143.29419
"91878",1271.3752,61.810024,142.94571
"91879",1271.3885,63.565422,144.13268
"91880",1271.4019,66.67094,146.72461
"91881",1271.4152,70.72617,150.36331
"91882",1271.4285,75.15007,154.4974
"91883",1271.4418,79.30541,158.50119
"91884",1271.4551,82.64774,161.82181
"91885",1271.4684,84.8304,164.0872
"91886",1271.4817,85.75815,165.16591
"91887",1271.495,85.55306,165.14076
"91888",1271.5083,84.473946,164.23518
"91889",1271.5216,82.80156,162.7026
"91890",1271.5349,80.79225,160.78085
"91891",1271.5482,78.6218,158.63516
"91892",1271.5615,76.42939,156.39967
"91893",1271.5748,74.302895,154.16159
"91894",1271.5881,72.31312,151.99377
"91895",1271.6014,70.50645,149.94688
"91896",1271.6147,68.91951,148.06328
"91897",1271.628,67.56451,146.36201
"91898",1271.6414,66.44877,144.85767
"91899",1271.6547,65.55276,143.53818
"91900",1271.668,64.852066,142.38602
"91901",1271.6813,64.30274,141.36331
"91902",1271.6946,63.860836,140.43086
"91903",1271.7079,63.536125,139.6018
"91904",1271.7212,63.54345,139.09464
"91905",1271.7345,64.5127,139.54962
"91906",1271.7478,67.49859,142.05153
"91907",1271.7611,73.5021,147.66437
"91908",1271.7744,82.74052,156.69972
"91909",1271.7877,94.28367,168.32852
"91910",1271.801,106.31266,180.80388
"91911",1271.8143,116.732735,192.04622
"91912",1271.8276,123.895935,200.35732
"91913",1271.841,127.14305,204.97618
"91914",1271.8542,126.89159,206.19794
"91915",1271.8676,124.11078,204.88249
"91916",1271.8809,119.68932,201.83951
"91917",1271.8942,114.196075,197.58655
"91918",1271.9075,107.99725,192.45636
"91919",1271.9208,101.420006,186.75403
"91920",1271.9341,94.77196,180.77536
"91921",1271.9474,88.343636,174.80865
"91922",1271.9607,82.36698,169.09274
"91923",1271.974,77.015335,163.81506
"91924",1271.9873,72.42054,159.127
"91925",1272.0006,68.72419,155.19379
"91926",1272.0139,66.09476,152.21199
"91927",1272.0272,64.71778,150.40048
"91928",1272.0405,64.75197,149.95709
"91929",1272.0538,66.21683,150.94545
"91930",1272.0671,68.93172,153.22961
"91931",1272.0804,72.49378,156.4458
"91932",1272.0938,76.34882,160.06627
"91933",1272.107,79.903564,163.50691
"91934",1272.1204,82.667274,166.26761
"91935",1272.1337,84.34455,168.02824
"91936",1272.147,84.8719,168.69136
"91937",1272.1603,84.38117,168.35287
"91938",1272.1736,83.10918,167.21779
"91939",1272.1869,81.30251,165.50829
"91940",1272.2002,79.17601,163.42249
"91941",1272.2135,76.895706,161.11642
"91942",1272.2268,74.57877,158.70248
"91943",1272.2401,72.318,156.2723
"91944",1272.2534,70.19394,153.90817
"91945",1272.2667,68.27009,151.67789
"91946",1272.28,66.57816,149.6194
"91947",1272.2933,65.13527,147.75708
"91948",1272.3066,63.934082,146.09137
"91949",1272.32,62.96483,144.62006
"91950",1272.3333,62.195774,143.31865
"91951",1272.3466,61.592735,142.15923
"91952",1272.3599,61.126423,141.11769
"91953",1272.3732,60.865185,140.26665
"91954",1272.3865,61.15328,139.95677
"91955",1272.3998,62.80369,141.01822
"91956",1272.4131,66.89555,144.5727
"91957",1272.4264,74.13199,151.39961
"91958",1272.4397,84.22247,161.30672
"91959",1272.453,95.8291,173.0453
"91960",1272.4663,107.001144,184.712
"91961",1272.4796,115.8465,194.40114
"91962",1272.4929,121.15663,200.83148
"91963",1272.5062,122.79729,203.75829
"91964",1272.5195,121.48379,203.7822
"91965",1272.5328,118.16098,201.75575
"91966",1272.5461,113.52224,198.30954
"91967",1272.5594,107.99481,193.82968
"91968",1272.5728,101.91562,188.62532
"91969",1272.586,95.61913,183.0137
"91970",1272.5994,89.408104,177.29077
"91971",1272.6127,83.543755,171.72043
"91972",1272.626,78.21896,166.50638
"91973",1272.6393,73.58755,161.8193
"91974",1272.6526,69.771576,157.80295
"91975",1272.6659,66.90288,154.61461
"91976",1272.6792,65.15236,152.4548
"91977",1272.6925,64.6836,151.52206
"91978",1272.7058,65.56985,151.92967
"91979",1272.7191,67.70855,153.61743
"91980",1272.7324,70.804306,156.32909
"91981",1272.7457,74.36393,159.60135
"91982",1272.759,77.82834,162.88963
"91983",1272.7723,80.672615,165.66605
"91984",1272.7856,82.55741,167.57187
"91985",1272.799,83.34112,168.4355
"91986",1272.8123,83.09209,168.29088
"91987",1272.8256,82.01541,167.31084
"91988",1272.8389,80.360115,165.71852
"91989",1272.8522,78.36057,163.73024
"91990",1272.8655,76.19745,161.51588
"91991",1272.8788,73.99771,159.19731
"91992",1272.8921,71.84436,156.85638
"91993",1272.9054,69.79843,154.55559
"91994",1272.9187,67.90875,152.3471
"91995",1272.932,66.2095,150.27
"91996",1272.9453,64.72755,148.3571
"91997",1272.9586,63.470207,146.6225
"91998",1272.9719,62.44236,145.0781
"91999",1272.9852,61.62692,143.71397
"92000",1272.9985,60.984818,142.49771
"92001",1273.0118,60.491646,141.41031
"92002",1273.0251,60.205997,140.51503
"92003",1273.0385,60.459908,140.15038
"92004",1273.0518,62.03952,141.11935
"92005",1273.0651,65.99466,144.51323
"92006",1273.0784,72.99672,151.07762
"92007",1273.0917,82.738075,160.60013
"92008",1273.105,93.91257,171.86018
"92009",1273.1183,104.64515,183.02753
"92010",1273.1316,113.1194,192.27194
"92011",1273.1449,118.17807,198.3656
"92012",1273.1582,119.70641,201.087
"92013",1273.1715,118.40757,201.02899
"92014",1273.1848,115.17265,198.99431
"92015",1273.1981,110.660866,195.58167
"92016",1273.2114,105.29214,191.17108
"92017",1273.2247,99.41314,186.08246
"92018",1273.238,93.3608,180.63678
"92019",1273.2513,87.43786,175.13136
"92020",1273.2646,81.87869,169.80463
"92021",1273.278,76.86153,164.84618
"92022",1273.2913,72.515755,160.40233
"92023",1273.3046,68.97078,156.62347
"92024",1273.3179,66.38041,153.68845
"92025",1273.3312,64.937515,151.81995
"92026",1273.3445,64.798355,151.21008
"92027",1273.3578,66.01663,151.95331
"92028",1273.3711,68.43366,153.93336
"92029",1273.3844,71.68322,156.82147
"92030",1273.3977,75.23308,160.11143
"92031",1273.411,78.52415,163.25354
"92032",1273.4243,81.08278,165.76605
"92033",1273.4376,82.62089,167.338
"92034",1273.4509,83.06767,167.86668
"92035",1273.4642,82.54276,167.43764
"92036",1273.4775,81.26833,166.24268
"92037",1273.4908,79.500725,164.51471
"92038",1273.5042,77.44991,162.44829
"92039",1273.5175,75.27947,160.19815
"92040",1273.5308,73.094376,157.86554
"92041",1273.5441,70.98253,155.53789
"92042",1273.5574,69.00252,153.27608
"92043",1273.5707,67.20561,151.1355
"92044",1273.584,65.626,149.15607
"92045",1273.5973,64.273445,147.35432
"92046",1273.6106,63.145496,145.73492
"92047",1273.6239,62.227512,144.29024
"92048",1273.6372,61.49508,143.00241
"92049",1273.6505,60.91646,141.8455
"92050",1273.6638,60.47944,140.81212
"92051",1273.6771,60.323185,140.04585
"92052",1273.6904,60.95308,140.06085
"92053",1273.7037,63.296864,141.80942
"92054",1273.717,68.31892,146.3095
"92055",1273.7303,76.33906,153.9646
"92056",1273.7437,86.64439,164.15552
"92057",1273.757,97.66018,175.37895
"92058",1273.7703,107.4992,185.76985
"92059",1273.7836,114.56718,193.69717
"92060",1273.7969,118.12436,198.33458
"92061",1273.8102,118.4271,199.8287
"92062",1273.8235,116.29572,198.89818
"92063",1273.8368,112.52125,196.25795
"92064",1273.8501,107.65301,192.406
"92065",1273.8634,102.07187,187.68903
"92066",1273.8767,96.11719,182.42409
"92067",1273.89,90.108795,176.91936
"92068",1273.9033,84.32258,171.44904
"92069",1273.9166,78.975815,166.23735
"92070",1273.9299,74.23453,161.46405
"92071",1273.9432,70.240326,157.28967
"92072",1273.9565,67.14702,153.89137
"92073",1273.9698,65.14015,151.48285
"92074",1273.9832,64.40284,150.28116
"92075",1273.9965,65.04982,150.44073
"92076",1274.0098,67.02251,151.94623
"92077",1274.0231,70.03525,154.55342
"92078",1274.0364,73.60708,157.81386
"92079",1274.0497,77.15694,161.16394
"92080",1274.063,80.13794,164.05609
"92081",1274.0763,82.17166,166.09412
"92082",1274.0896,83.09941,167.08974
"92083",1274.1029,82.97246,167.05965
"92084",1274.1162,81.99344,166.17352
"92085",1274.1295,80.41871,164.66109
"92086",1274.1428,78.487526,162.743
"92087",1274.1561,76.40009,160.60829
"92088",1274.1694,74.28336,158.37906
"92089",1274.1827,72.22278,156.13983
"92090",1274.196,70.279396,153.95341
"92091",1274.2094,68.489815,151.86006
"92092",1274.2227,66.88579,149.89635
"92093",1274.236,65.4844,148.08514
"92094",1274.2493,64.28809,146.43523
"92095",1274.2626,63.28954,144.94568
"92096",1274.2759,62.4741,143.60803
"92097",1274.2892,61.81979,142.40604
"92098",1274.3025,61.319294,141.3374
"92099",1274.3158,61.065384,140.49973
"92100",1274.3291,61.451134,140.29376
"92101",1274.3424,63.301746,141.56473
"92102",1274.3557,67.59869,145.33984
"92103",1274.369,74.84001,152.19363
"92104",1274.3823,84.54719,161.73956
"92105",1274.3956,95.34081,172.6753
"92106",1274.4089,105.39712,183.211
"92107",1274.4222,113.04616,191.6537
"92108",1274.4355,117.333336,196.97357
"92109",1274.4489,118.30747,199.11438
"92110",1274.4622,116.701,198.70502
"92111",1274.4755,113.33181,196.48274
"92112",1274.4888,108.77852,192.97107
"92113",1274.5021,103.44396,188.53584
"92114",1274.5154,97.66506,183.48956
"92115",1274.5287,91.7641,178.14062
"92116",1274.542,86.01938,172.76353
"92117",1274.5553,80.65064,167.5829
"92118",1274.5686,75.83124,162.78383
"92119",1274.5819,71.71496,158.53728
"92120",1274.5952,68.47517,155.03857
"92121",1274.6085,66.31205,152.5153
"92122",1274.6218,65.42336,151.19887
"92123",1274.6351,65.92142,151.24141
"92124",1274.6484,67.754944,152.63498
"92125",1274.6617,70.6334,155.13078
"92126",1274.675,74.075836,158.28052
"92127",1274.6884,77.50118,161.52074
"92128",1274.7017,80.38209,164.32355
"92129",1274.715,82.34989,166.3033
"92130",1274.7283,83.243454,167.2703
"92131",1274.7416,83.11162,167.23982
"92132",1274.7549,82.142365,166.36781
"92133",1274.7682,80.57984,164.87224
"92134",1274.7815,78.65598,162.9665
"92135",1274.7948,76.558784,160.8273
"92136",1274.8081,74.42985,158.59082
"92137",1274.8214,72.361946,156.34885
"92138",1274.8347,70.41856,154.16676
"92139",1274.848,68.64118,152.08997
"92140",1274.8613,67.05913,150.15295
"92141",1274.8746,65.689476,148.3789
"92142",1274.888,64.52491,146.76714
"92143",1274.9012,63.553215,145.31184
"92144",1274.9146,62.757305,144.00197
"92145",1274.9279,62.102997,142.80882
"92146",1274.9412,61.587852,141.7344
"92147",1274.9545,61.29732,140.8685
"92148",1274.9678,61.6025,140.58922
"92149",1274.9811,63.301746,141.71355
"92150",1274.9944,67.37652,145.2665
"92151",1275.0077,74.3444,151.83989
"92152",1275.021,83.790344,161.1091
"92153",1275.0343,94.38621,171.82341
"92154",1275.0476,104.35706,182.24384
"92155",1275.0609,112.02319,190.67113
"92156",1275.0742,116.4007,196.04936
"92157",1275.0875,117.487144,198.27333
"92158",1275.1008,115.980774,197.93843
"92159",1275.1141,112.69215,195.7742
"92160",1275.1274,108.21454,192.31822
"92161",1275.1407,102.96788,187.95326
"92162",1275.154,97.29641,182.99954
"92163",1275.1674,91.51507,177.75871
"92164",1275.1807,85.89975,172.50323
"92165",1275.194,80.65308,167.44093
"92166",1275.2073,75.93622,162.74448
"92167",1275.2206,71.8761,158.55736
"92168",1275.2339,68.62653,155.05392
"92169",1275.2472,66.37553,152.4475
"92170",1275.2605,65.33303,150.97923
"92171",1275.2738,65.618675,150.80653
"92172",1275.2871,67.210495,151.94894
"92173",1275.3004,69.857025,154.1958
"92174",1275.3137,73.1017,157.1235
"92175",1275.327,76.37812,160.18436
"92176",1275.3403,79.16136,162.85442
"92177",1275.3536,81.07301,164.73985
"92178",1275.367,81.969025,165.6694
"92179",1275.3802,81.88602,165.64793
"92180",1275.3936,81.007095,164.82796
"92181",1275.4069,79.57397,163.4263
"92182",1275.4202,77.81369,161.65271
"92183",1275.4335,75.88739,159.65808
"92184",1275.4468,73.9147,157.55687
"92185",1275.4601,71.99817,155.45016
"92186",1275.4734,70.20126,153.4032
"92187",1275.4867,68.560616,151.45634
"92188",1275.5,67.11772,149.65598
"92189",1275.5133,65.882355,148.01804
"92190",1275.5266,64.84718,146.54169
"92191",1275.5399,63.98535,145.20633
"92192",1275.5532,63.27489,143.9954
"92193",1275.5665,62.686504,142.88437
"92194",1275.5798,62.2031,141.85992
"92195",1275.5931,61.910126,141.0108
"92196",1275.6064,62.183567,140.71893
"92197",1275.6198,63.826656,141.80527
"92198",1275.633,67.81842,145.29161
"92199",1275.6464,74.69352,151.78604
"92200",1275.6597,84.03693,160.96362
"92201",1275.673,94.537575,171.59042
"92202",1275.6863,104.427864,181.93501
"92203",1275.6996,112.042725,190.31325
"92204",1275.7129,116.39094,195.6628
"92205",1275.7262,117.472496,197.88158
"92206",1275.7395,115.966125,197.54622
"92207",1275.7528,112.672615,195.37665
"92208",1275.7661,108.16815,191.8932
"92209",1275.7794,102.872665,187.47797
"92210",1275.7927,97.13771,182.45778
"92211",1275.806,91.285576,177.1412
"92212",1275.8193,85.58968,171.79799
"92213",1275.8326,80.27955,166.66254
"92214",1275.846,75.51629,161.90802
"92215",1275.8593,71.45861,157.71022
"92216",1275.8726,68.279854,154.26454
"92217",1275.8859,66.194855,151.8133
"92218",1275.8992,65.40139,150.58842
"92219",1275.9125,66.004425,150.73526
"92220",1275.9258,67.94049,152.23396
"92221",1275.9391,70.89952,154.81613
"92222",1275.9524,74.38346,158.01569
"92223",1275.9657,77.81125,161.26796
"92224",1275.979,80.65308,164.0414
"92225",1275.9923,82.53788,165.94661
"92226",1276.0056,83.319145,166.80719
"92227",1276.0189,83.06035,166.65211
"92228",1276.0322,81.95438,165.64178
"92229",1276.0455,80.25269,164.00117
"92230",1276.0588,78.20187,161.95825
"92231",1276.0721,75.99481,159.69499
"92232",1276.0854,73.77066,157.34567
"92233",1276.0988,71.622185,155.00253
"92234",1276.112,69.60555,152.72409
"92235",1276.1254,67.76715,150.56087
"92236",1276.1387,66.13382,148.54526
"92237",1276.152,64.73487,146.713
"92238",1276.1653,63.565422,145.06651
"92239",1276.1786,62.61326,143.60077
"92240",1276.1919,61.829556,142.27373
"92241",1276.2052,61.1899,141.06624
"92242",1276.2185,60.711376,139.9999
"92243",1276.2318,60.613716,139.29947
"92244",1276.2451,61.502403,139.58234
"92245",1276.2584,64.30274,141.80463
"92246",1276.2717,69.822845,146.8342
"92247",1276.285,78.11398,154.8073
"92248",1276.2983,88.26795,164.90233
"92249",1276.3116,98.69535,175.5881
"92250",1276.325,107.63348,185.11046
"92251",1276.3383,113.722435,192.06296
"92252",1276.3516,116.473946,195.86829
"92253",1276.3649,116.27375,196.8079
"92254",1276.3782,113.89578,195.56349
"92255",1276.3915,110.01633,192.74329
"92256",1276.4048,105.1017,188.76666
"92257",1276.4181,99.510796,183.96019
"92258",1276.4314,93.575645,178.63475
"92259",1276.4447,87.606316,173.08966
"92260",1276.458,81.881134,167.60217
"92261",1276.4713,76.61982,162.39964
"92262",1276.4979,68.26765,153.69247
"92263",1276.5112,65.57473,150.63292
"92264",1276.5245,64.15137,148.75877
"92265",1276.5378,64.16113,148.27327
"92266",1276.5511,65.626,149.24316
"92267",1276.5645,68.353096,151.52107
"92268",1276.5778,71.9176,154.72162
"92269",1276.5911,75.73846,158.2899
"92270",1276.6044,79.202866,161.62114
"92271",1276.6177,81.80057,164.19392
"92272",1276.631,83.25323,165.70285
"92273",1276.6443,83.51934,166.07063
"92274",1276.6576,82.7625,165.42377
"92275",1276.6709,81.248795,163.9964
"92276",1276.6842,79.26635,162.05298
"92277",1276.6975,77.05684,159.82054
"92278",1276.7108,74.80095,157.47267
"92279",1276.7241,72.61097,155.12022
"92280",1276.7374,70.56504,152.84338
"92281",1276.7507,68.70466,150.68816
"92282",1276.764,67.04692,148.67744
"92283",1276.7773,65.599144,146.82489
"92284",1276.7906,64.341805,145.11752
"92285",1276.804,63.2578,143.5442
"92286",1276.8173,62.332493,142.0957
"92287",1276.8306,61.636684,140.84778
"92288",1276.8439,61.473106,140.11035
"92289",1276.8572,62.542458,140.60074
"92290",1276.8705,65.794464,143.30719
"92291",1276.8838,71.88098,148.94978
"92292",1276.8971,80.60914,157.42422
"92293",1276.9104,90.85588,167.69
"92294",1276.9237,100.929276,178.10265
"92295",1276.937,109.120316,186.94772
"92296",1276.9503,114.269325,193.00674
"92297",1276.9636,116.13458,195.94292
"92298",1276.9769,115.24834,196.18588
"92299",1276.9902,112.40894,194.448
"92300",1277.0035,108.243835,191.29567
"92301",1277.0168,103.182724,187.11717
"92302",1277.0302,97.57473,182.23364
"92303",1277.0435,91.74456,176.95268
"92304",1277.0568,85.98276,171.55789
"92305",1277.0701,80.52613,166.28822
"92306",1277.0834,75.57,161.34854
"92307",1277.0967,71.29992,156.94002
"92308",1277.11,67.92096,153.28918
"92309",1277.1233,65.66506,150.65582
"92310",1277.1366,64.75441,149.29721
"92311",1277.1499,65.340355,149.40674
"92312",1277.1632,67.36187,150.97014
"92313",1277.1765,70.52354,153.73686
"92314",1277.1898,74.29313,157.21031
"92315",1277.2031,78.02609,160.76494
"92316",1277.2164,81.11452,163.79167
"92317",1277.2297,83.13359,165.84558
"92318",1277.243,83.93439,166.74431
"92319",1277.2563,83.60967,166.54254
"92320",1277.2697,82.41337,165.45905
"92321",1277.283,80.64332,163.76442
"92322",1277.2963,78.553444,161.69466
"92323",1277.3096,76.33662,159.43262
"92324",1277.3229,74.110016,157.09154
"92325",1277.3362,71.956665,154.75412
"92326",1277.3495,69.944916,152.49101
"92327",1277.3628,68.12604,150.35791
"92328",1277.3761,66.51957,148.38039
"92329",1277.3894,65.1255,146.56506
"92330",1277.4027,63.938965,144.9137
"92331",1277.416,62.957504,143.43033
"92332",1277.4293,62.32761,142.26785
"92333",1277.4426,62.51072,141.8987
"92334",1277.4559,64.358894,143.20033
"92335",1277.4692,68.748604,147.10126
"92336",1277.4825,75.97284,153.97389
"92337",1277.4958,85.384605,163.25981
"92338",1277.5092,95.56786,173.61134
"92339",1277.5225,104.796524,183.3265
"92340",1277.5358,111.57641,190.88129
"92341",1277.5491,115.17021,195.46185
"92342",1277.5624,115.74639,197.1371
"92343",1277.5757,114.005646,196.51343
"92344",1277.589,110.64866,194.21912
"92345",1277.6023,106.175934,190.70416
"92346",1277.6156,100.97566,186.32188
"92347",1277.6289,95.39452,181.39624
"92348",1277.6422,89.74502,176.22781
"92349",1277.6555,84.2884,171.07573
"92350",1277.6688,79.22972,166.15106
"92351",1277.6821,74.73991,161.63718
"92352",1277.6954,70.98985,157.72275
"92353",1277.7087,68.191956,154.64328
"92354",1277.722,66.57328,152.65561
"92355",1277.7354,66.3267,151.98944
"92356",1277.7487,67.50103,152.73648
"92357",1277.762,69.927826,154.77269
"92358",1277.7753,73.19203,157.72214
"92359",1277.7886,76.715034,161.0324
"92360",1277.8019,79.89624,164.11095
"92361",1277.8152,82.25468,166.46614
"92362",1277.8285,83.52422,167.80615
"92363",1277.8418,83.67315,168.06522
"92364",1277.8551,82.84306,167.34991
"92365",1277.8684,81.28542,165.88112
"92366",1277.8817,79.259026,163.8949
"92367",1277.895,76.995804,161.60852
"92368",1277.9083,74.666664,159.1855
"92369",1277.9216,72.40345,156.75562
"92370",1277.9349,70.28428,154.39905
"92371",1277.9482,68.350655,152.1618
"92372",1277.9615,66.617226,150.06433
"92373",1277.9749,65.07912,148.10802
"92374",1277.9882,63.73144,146.29407
"92375",1278.0015,62.608376,144.66261
"92376",1278.0148,61.905243,143.41599
"92377",1278.0281,62.198215,143.1435
"92378",1278.0414,64.4004,144.78937
"92379",1278.0547,69.3077,149.20918
"92380",1278.068,76.98848,156.55583
"92381",1278.0813,86.58579,166.05904
"92382",1278.0946,96.5835,176.26256
"92383",1278.1079,105.28481,185.4821
"92384",1278.1212,111.3518,192.33923
"92385",1278.1345,114.27909,196.24628
"92386",1278.1478,114.41337,197.45178
"92387",1278.1611,112.47242,196.58624
"92388",1278.1744,109.09102,194.2196
"92389",1278.1877,104.725716,190.7634
"92390",1278.201,99.74273,186.55309
"92391",1278.2144,94.48875,181.91606
"92392",1278.2277,89.24696,177.12704
"92393",1278.241,84.23956,172.40862
"92394",1278.2543,79.61303,167.91457
"92395",1278.2676,75.50408,163.79352
"92396",1278.2809,72.06653,160.21547
"92397",1278.2942,69.522545,157.42357
"92398",1278.3075,68.10651,155.68011
"92399",1278.3208,68.00397,155.2059
"92400",1278.3341,69.224686,156.05174
"92401",1278.3474,71.534294,158.02463
"92402",1278.3607,74.48844,160.71422
"92403",1278.374,77.523155,163.57669
"92404",1278.3873,80.10132,166.07745
"92405",1278.4006,81.83475,167.81406
"92406",1278.414,82.55741,168.59406
"92407",1278.4272,82.28886,168.40543
"92408",1278.4406,81.18776,167.37585
"92409",1278.4539,79.48608,165.71129
"92410",1278.4672,77.41573,163.62488
"92411",1278.4805,75.159836,161.28822
"92412",1278.4938,72.86488,158.84201
"92413",1278.5071,70.63584,156.39
"92414",1278.5204,68.55085,154.01237
"92415",1278.5337,66.648964,151.7527
"92416",1278.547,64.94972,149.63625
"92417",1278.5603,63.458,147.6742
"92418",1278.5736,62.183567,145.88283
"92419",1278.5869,61.250935,144.39343
"92420",1278.6002,61.09468,143.65128
"92421",1278.6135,62.54978,144.51558
"92422",1278.6268,66.50248,147.92296
"92423",1278.6401,73.26528,154.26396
"92424",1278.6534,82.252235,163.04045
"92425",1278.6667,92.140076,172.99867
"92426",1278.68,101.28329,182.52126
"92427",1278.6934,108.20477,190.10785
"92428",1278.7067,112.13794,194.92241
"92429",1278.72,113.18776,196.97653
"92430",1278.7333,111.974365,196.80026
"92431",1278.7466,109.14229,194.96738
"92432",1278.7599,105.17494,191.91072
"92433",1278.7732,100.48493,188.00743
"92434",1278.7865,95.448235,183.61089
"92435",1278.7998,90.40177,179.04718
"92436",1278.8131,85.60677,174.57724
"92437",1278.8264,81.234146,170.37982
"92438",1278.8397,77.39132,166.57556
"92439",1278.853,74.18326,163.28598
"92440",1278.8663,71.75159,160.67253
"92441",1278.8796,70.259865,158.92305
"92442",1278.893,69.857025,158.21584
"92443",1278.9062,70.56748,158.60933
"92444",1278.9196,72.23987,159.98695
"92445",1278.9329,74.53971,162.0443
"92446",1278.9462,77.015335,164.34929
"92447",1278.9595,79.202866,166.44354
"92448",1278.9728,80.7483,167.96407
"92449",1278.9861,81.45876,168.69792
"92450",1278.9994,81.29275,168.5775
"92451",1279.0127,80.35035,167.6755
"92452",1279.026,78.80736,166.14346
"92453",1279.0393,76.87862,164.17744
"92454",1279.0526,74.75456,161.95584
"92455",1279.0659,72.58167,159.61903
"92456",1279.0792,70.46494,157.27048
"92457",1279.0925,68.47517,154.98273
"92458",1279.1058,66.65873,152.80614
"92459",1279.1191,65.03273,150.76323
"92460",1279.1324,63.5996,148.86237
"92461",1279.1458,62.366673,147.11693
"92462",1279.159,61.370564,145.56978
"92463",1279.1724,60.82368,144.44072
"92464",1279.1857,61.31441,144.33218
"92465",1279.199,63.733883,146.16772
"92466",1279.2123,68.75838,150.6839
"92467",1279.2256,76.31953,157.89375
"92468",1279.2389,85.523766,166.98297
"92469",1279.2522,94.94774,176.57956
"92470",1279.2655,103.0338,185.13274
"92471",1279.2788,108.59785,191.4166
"92472",1279.2921,111.26635,194.97878
"92473",1279.3054,111.40063,196.09012
"92474",1279.3187,109.628136,195.29889
"92475",1279.332,106.495766,193.09239
"92476",1279.3453,102.467384,189.892
"92477",1279.3586,97.96536,186.09209
"92478",1279.372,93.37057,182.05872
"92479",1279.3853,88.96864,178.07462
"92480",1279.3986,84.92561,174.31186
"92481",1279.4119,81.307396,170.84756
"92482",1279.4252,78.12863,167.70966
"92483",1279.4385,75.440605,164.96315
"92484",1279.4518,73.37026,162.75032
"92485",1279.4651,72.0885,161.26138
"92486",1279.4784,71.73449,160.66014
"92487",1279.4917,72.33265,161
"92488",1279.505,73.7145,162.14224
"92489",1279.5183,75.54803,163.77934
"92490",1279.5316,77.4255,165.51768
"92491",1279.5449,78.9807,166.99243
"92492",1279.5582,79.95972,167.93959
"92493",1279.5715,80.235596,168.2142
"92494",1279.5848,79.79126,167.77722
"92495",1279.5981,78.712135,166.69157
"92496",1279.6115,77.13985,165.07904
"92497",1279.6248,75.22087,163.07068
"92498",1279.6381,73.111465,160.81192
"92499",1279.6514,70.9337,158.41888
"92500",1279.6647,68.79744,155.9993
"92501",1279.678,66.79057,153.64235
"92502",1279.6913,64.98634,151.42532
"92503",1279.7046,63.436028,149.40582
"92504",1279.7179,62.161594,147.61377
"92505",1279.7312,61.160603,146.05533
"92506",1279.7445,60.408638,144.71463
"92507",1279.7578,59.97162,143.66537
"92508",1279.7711,60.17426,143.24213
"92509",1279.7844,61.763638,144.21194
"92510",1279.7977,65.57717,147.4556
"92511",1279.811,71.9762,153.40392
"92512",1279.8243,80.5066,161.68358
"92513",1279.8376,90.02823,171.22104
"92514",1279.851,99.04448,180.55067
"92515",1279.8643,106.127106,188.22844
"92516",1279.8776,110.44358,193.36139
"92517",1279.8909,111.97925,195.84842
"92518",1279.9042,111.259026,196.12755
"92519",1279.9175,108.86641,194.71178
"92520",1279.9308,105.323875,192.07132
"92521",1279.9441,101.11238,188.6512
"92522",1279.9574,96.66651,184.8651
"92523",1279.9707,92.3476,181.06702
"92524",1279.984,88.40711,177.51239
"92525",1279.9973,84.95247,174.32047
"92526",1280.0106,81.97391,171.49667
"92527",1280.0239,79.43725,169.0217
"92528",1280.0372,77.33761,166.90446
"92529",1280.0505,75.74578,165.22943
"92530",1280.0638,74.77409,164.1248
"92531",1280.0771,74.495766,163.68317
"92532",1280.0905,74.88884,163.90424
"92533",1280.1038,75.79706,164.65273
"92534",1280.1171,76.95674,165.68106
"92535",1280.1304,78.07492,166.70413
"92536",1280.1437,78.905014,167.47406
"92537",1280.157,79.273674,167.8085
"92538",1280.1703,79.097885,167.61002
"92539",1280.1836,78.37766,166.8616
"92540",1280.1969,77.16182,165.59506
"92541",1280.2102,75.55535,163.8999
"92542",1280.2235,73.67788,161.88353
"92543",1280.2368,71.64904,159.65712
"92544",1280.2501,69.573814,157.32092
"92545",1280.2634,67.55718,154.97847
"92546",1280.2767,65.69192,152.72437
"92547",1280.29,64.06592,150.65125
"92548",1280.3033,62.742657,148.83005
"92549",1280.3167,61.761196,147.3093
"92550",1280.33,61.131306,146.10944
"92551",1280.3433,60.831005,145.21948
"92552",1280.3566,60.82368,144.61313
"92553",1280.3699,61.05806,144.24825
"92554",1280.3832,61.465782,144.06403
"92555",1280.3965,61.990692,144.00974
"92556",1280.4098,62.554665,144.01093
"92557",1280.4231,63.09178,144.00287
"92558",1280.4364,63.54345,143.92615
"92559",1280.4497,63.88037,143.74881
"92560",1280.463,64.200195,143.5649
"92561",1280.4763,64.937515,143.80847
"92562",1280.4896,66.98833,145.38858
"92563",1280.5029,71.29992,149.29356
"92564",1280.5162,78.22873,155.9505
"92565",1280.5295,87.26208,164.9285
"92566",1280.5428,97.198746,175.0921
"92567",1280.5562,106.46403,184.89484
"92568",1280.5695,113.583275,192.84108
"92569",1280.5828,117.767914,198.0752
"92570",1280.5961,119.096054,200.58359
"92571",1280.6094,118.14145,200.85074
"92572",1280.6227,115.51202,199.41322
"92573",1280.636,111.764404,196.77536
"92574",1280.6493,107.44305,193.44664
"92575",1280.6626,103.046005,189.9072
"92576",1280.6759,98.96147,186.54285
"92577",1280.6892,95.42138,183.5953
"92578",1280.7025,92.472115,181.12796
"92579",1280.7158,90.00137,179.04697
"92580",1280.7291,87.83826,177.1964
"92581",1280.7424,85.85092,175.45401
"92582",1280.7557,84.017395,173.80333
"92583",1280.769,82.4329,172.34438
"92584",1280.7823,81.234146,171.22165
"92585",1280.7957,80.50904,170.53511
"92586",1280.809,80.233154,170.27513
"92587",1280.8223,80.27711,170.32637
"92588",1280.8356,80.448006,170.50594
"92589",1280.8489,80.55787,170.6298
"92590",1280.8622,80.46021,170.54959
"92591",1280.8755,80.05249,170.15625
"92592",1280.8888,79.276115,169.38152
"92593",1280.9021,78.118866,168.20164
"92594",1280.9154,76.59052,166.61452
"92595",1280.9287,74.74479,164.66223
"92596",1280.942,72.674446,162.42766
"92597",1280.9553,70.48936,160.01364
"92598",1280.9686,68.31159,157.53867
"92599",1280.9819,66.253456,155.11526
"92600",1280.9952,64.40528,152.83751
"92601",1281.0085,62.83543,150.78032
"92602",1281.0219,61.58297,148.99147
"92603",1281.0352,60.66499,147.49796
"92604",1281.0485,60.083923,146.31267
"92605",1281.0618,59.82757,145.43394
"92606",1281.0751,59.854427,144.83041
"92607",1281.0884,60.105896,144.45233
"92608",1281.1017,60.520943,144.24568
"92609",1281.115,61.02632,144.14233
"92610",1281.1283,61.56344,144.08652
"92611",1281.1416,62.08835,144.03528
"92612",1281.1549,62.574196,143.9614
"92613",1281.1682,62.99901,143.84164
"92614",1281.1815,63.355457,143.66681
"92615",1281.1948,63.638668,143.42987
"92616",1281.2081,63.841305,143.12122
"92617",1281.2214,63.96826,142.74321
"92618",1281.2347,64.03174,142.3057
"92619",1281.248,64.04883,141.82378
"92620",1281.2614,64.03174,141.30821
"92621",1281.2747,64.009766,140.78723
"92622",1281.288,64.009766,140.28754
"92623",1281.3013,64.03174,139.80981
"92624",1281.3146,64.06348,139.34254
"92625",1281.3279,64.08545,138.8665
"92626",1281.3412,64.08545,138.36917
"92627",1281.3545,64.13428,137.92067
"92628",1281.3678,64.63233,137.92291
"92629",1281.3811,66.51469,139.32503
"92630",1281.3944,70.92882,143.31775
"92631",1281.4077,78.44114,150.5466
"92632",1281.421,88.58045,160.63719
"92633",1281.4343,100.00885,172.33372
"92634",1281.4476,110.91478,183.86493
"92635",1281.4609,119.52819,193.44443
"92636",1281.4742,124.78706,199.93855
"92637",1281.4875,126.696266,203.24734
"92638",1281.5009,125.93454,203.94489
"92639",1281.5142,123.25872,202.70453
"92640",1281.5275,119.28893,200.08658
"92641",1281.5408,114.59403,196.61946
"92642",1281.5541,109.7087,192.81519
"92643",1281.5674,105.08461,189.11949
"92644",1281.5807,101.02449,185.84326
"92645",1281.594,97.64553,183.12132
"92646",1281.6073,94.89159,180.9188
"92647",1281.6206,92.59174,179.08432
"92648",1281.6339,90.57511,177.46118
"92649",1281.6472,88.741585,175.95813
"92650",1281.6605,87.12047,174.61018
"92651",1281.6738,85.80698,173.51921
"92652",1281.6871,84.90364,172.79735
"92653",1281.7004,84.42756,172.4745
"92654",1281.7137,84.29084,172.47615
"92655",1281.727,84.317696,172.6371
"92656",1281.7404,84.32014,172.77448
"92657",1281.7537,84.14191,172.73125
"92658",1281.767,83.66094,172.37971
"92659",1281.7803,82.82109,171.65427
"92660",1281.7936,81.60769,170.52902
"92661",1281.8069,80.05005,169.02162
"92662",1281.8202,78.19211,167.16525
"92663",1281.8335,76.11688,165.03352
"92664",1281.8468,73.92691,162.7222
"92665",1281.8601,71.71984,160.32535
"92666",1281.8734,69.58114,157.92789
"92667",1281.8867,67.58892,155.61008
"92668",1281.9,65.80911,153.44243
"92669",1281.9133,64.28321,151.47307
"92670",1281.9266,63.05516,149.75388
"92671",1281.94,62.13718,148.30637
"92672",1281.9532,61.55123,147.1622
"92673",1281.9666,61.27779,146.31224
"92674",1281.9799,61.27779,145.72717
"92675",1281.9932,61.485313,145.34962
"92676",1282.0065,61.844204,145.12993
"92677",1282.0198,62.288548,145.0069
"92678",1282.0331,62.757305,144.92218
"92679",1282.0464,63.191883,144.81793
"92680",1282.0597,63.567863,144.66866
"92681",1282.073,63.87549,144.46277
"92682",1282.0863,64.10742,144.19081
"92683",1282.0996,64.273445,143.8602
"92684",1282.1129,64.38087,143.47617
"92685",1282.1262,64.446785,143.05399
"92686",1282.1395,64.47852,142.59969
"92687",1282.1528,64.48585,142.12196
"92688",1282.1661,64.47608,141.62738
"92689",1282.1794,64.46876,141.13493
"92690",1282.1927,64.46876,140.64958
"92691",1282.206,64.47852,140.174
"92692",1282.2194,64.500496,139.71092
"92693",1282.2327,64.52247,139.24854
"92694",1282.246,64.52735,138.76974
"92695",1282.2593,64.48829,138.24716
"92696",1282.2726,64.412605,137.68674
"92697",1282.2859,64.42237,137.2094
"92698",1282.2992,64.97414,137.27435
"92699",1282.3125,67.0518,138.88246
"92700",1282.3258,71.75891,143.18494
"92701",1282.3391,79.534904,150.7034
"92702",1282.3524,89.779205,160.93317
"92703",1282.3657,101.06111,172.52068
"92704",1282.379,111.55688,183.6746
"92705",1282.3923,119.57458,192.67847
"92706",1282.4056,124.20355,198.54414
"92707",1282.419,125.573204,201.29517
"92708",1282.4323,124.39887,201.545
"92709",1282.4456,121.41299,199.94658
"92710",1282.4589,117.172195,196.99994
"92711",1282.4722,112.177,193.16638
"92712",1282.4855,106.91081,188.90573
"92713",1282.4988,101.8082,184.64407
"92714",1282.5121,97.20363,180.72101
"92715",1282.5254,93.28756,177.34256
"92716",1282.5387,90.10147,174.5717
"92717",1282.552,87.555046,172.34094
"92718",1282.5653,85.538414,170.56041
"92719",1282.5786,83.98566,169.18073
"92720",1282.5919,82.899216,168.21884
"92721",1282.6052,82.31571,167.72594
"92722",1282.6185,82.25468,167.73727
"92723",1282.6318,82.63065,168.18372
"92724",1282.6451,83.26055,168.89583
"92725",1282.6584,83.90509,169.64226
"92726",1282.6718,84.34211,170.20131
"92727",1282.685,84.40803,170.40292
"92728",1282.6984,84.00519,170.13783
"92729",1282.7117,83.11894,169.37675
"92730",1282.725,81.78592,168.1412
"92731",1282.7383,80.08423,166.49533
"92732",1282.7516,78.1091,164.52283
"92733",1282.7649,75.96063,162.31526
"92734",1282.7782,73.738914,159.96732
"92735",1282.7915,71.52209,157.55482
"92736",1282.8048,69.38827,155.15607
"92737",1282.8181,67.40337,152.83955
"92738",1282.8314,65.62356,150.66609
"92739",1282.8447,64.09277,148.68605
"92740",1282.858,62.845196,146.94138
"92741",1282.8713,61.90036,145.46045
"92742",1282.8846,61.25826,144.25273
"92743",1282.898,60.909134,143.31793
"92744",1282.9113,60.82368,142.6359
"92745",1282.9246,60.962845,142.1758
"92746",1282.9379,61.287556,141.9056
"92747",1282.9512,61.746548,141.77982
"92748",1282.9645,62.286106,141.74895
"92749",1282.9778,62.862286,141.77158
"92750",1282.9911,63.42138,141.79512
"92751",1283.0044,63.924316,141.77997
"92752",1283.0177,64.344246,141.69754
"92753",1283.031,64.671394,141.53545
"92754",1283.0443,64.90578,141.2908
"92755",1283.0576,65.06691,140.98024
"92756",1283.0709,65.181656,140.62833
"92757",1283.0842,65.27688,140.26047
"92758",1283.0975,65.359886,139.88338
"92759",1283.1108,65.43801,139.504
"92760",1283.1241,65.49416,139.10509
"92761",1283.1375,65.513695,138.67131
"92762",1283.1508,65.47219,138.17711
"92763",1283.1641,65.359886,137.61081
"92764",1283.1774,65.17677,136.9702
"92765",1283.1907,64.97414,136.30434
"92766",1283.204,64.96681,135.82745
"92767",1283.2173,65.76761,136.15846
"92768",1283.2306,68.438545,138.38464
"92769",1283.2439,73.96597,143.55078
"92770",1283.2572,82.528114,151.92436
"92771",1283.2705,93.24605,162.7213
"92772",1283.2838,104.481575,174.37076
"92773",1283.2971,114.36942,185.02365
"92774",1283.3104,121.38369,193.11197
"92775",1283.3237,124.909134,197.93065
"92776",1283.337,125.30221,199.72714
"92777",1283.3503,123.34661,199.18724
"92778",1283.3636,119.72106,196.91628
"92779",1283.377,114.899216,193.33571
"92780",1283.3903,109.30831,188.8354
"92781",1283.4036,103.363396,183.80637
"92782",1283.4169,97.46975,178.64282
"92783",1283.4302,91.95697,173.67596
"92784",1283.4435,87.05699,169.14964
"92785",1283.4568,82.88701,165.2002
"92786",1283.4701,79.49828,161.90169
"92787",1283.4834,76.95186,159.33958
"92788",1283.4967,75.34539,157.63786
"92789",1283.51,74.78142,156.92844
"92790",1283.5233,75.29656,157.2805
"92791",1283.5366,76.80049,158.63745
"92792",1283.5499,78.99779,160.73476
"92793",1283.5632,81.45876,163.16441
"92794",1283.5765,83.7293,165.48055
"92795",1283.5898,85.42855,167.29634
"92796",1283.6031,86.33189,168.36932
"92797",1283.6165,86.363625,168.59894
"92798",1283.6298,85.58724,168.02142
"92799",1283.6431,84.14679,166.75557
"92800",1283.6564,82.20828,164.94666
"92801",1283.6697,79.94507,162.75246
"92802",1283.683,77.52071,160.32639
"92803",1283.6963,75.054855,157.78305
"92804",1283.7096,72.64759,155.22125
"92805",1283.7229,70.38438,152.72827
"92806",1283.7362,68.333565,150.37697
"92807",1283.7495,66.53666,148.21548
"92808",1283.7628,65.01564,146.27374
"92809",1283.7761,63.768063,144.5579
"92810",1283.7894,62.78416,143.06676
"92811",1283.8027,62.05905,141.80365
"92812",1283.816,61.578087,140.76202
"92813",1283.8293,61.341267,139.94952
"92814",1283.8427,61.333942,139.35912
"92815",1283.856,61.536583,138.97844
"92816",1283.8693,61.910126,138.775
"92817",1283.8826,62.415504,138.71506
"92818",1283.8959,63.006332,138.75638
"92819",1283.9092,63.645992,138.86499
"92820",1283.9225,64.307625,139.01556
"92821",1283.9358,64.95949,139.17703
"92822",1283.9491,65.584496,139.33203
"92823",1283.9624,66.177765,139.47482
"92824",1283.9757,66.72953,139.59465
"92825",1283.989,67.227585,139.67801
"92826",1284.0023,67.664604,139.7159
"92827",1284.0156,68.00641,139.67223
"92828",1284.0289,68.21637,139.50739
"92829",1284.0422,68.27741,139.2002
"92830",1284.0555,68.21881,138.77527
"92831",1284.0688,68.23102,138.41931
"92832",1284.0822,68.84627,138.66678
"92833",1284.0955,71.011826,140.48378
"92834",1284.1088,75.73113,144.92221
"92835",1284.1221,83.36309,152.42076
"92836",1284.1354,93.25338,162.41615
"92837",1284.1487,103.92981,173.50674
"92838",1284.162,113.58816,183.9129
"92839",1284.1753,120.65858,192.03296
"92840",1284.1886,124.36469,197.00966
"92841",1284.2019,124.88472,198.91608
"92842",1284.2152,122.9633,198.39731
"92843",1284.2285,119.33044,196.10704
"92844",1284.2418,114.47929,192.48497
"92845",1284.2551,108.771194,187.85435
"92846",1284.2684,102.54795,182.53021
"92847",1284.2817,96.15869,176.84558
"92848",1284.295,89.92813,171.11998
"92849",1284.3083,84.13214,165.63425
"92850",1284.3217,78.97093,160.60217
"92851",1284.335,74.600746,156.19983
"92852",1284.3483,71.16319,152.59355
"92853",1284.3616,68.824295,149.9785
"92854",1284.3749,67.77692,148.58188
"92855",1284.3882,68.18707,148.61006
"92856",1284.4015,70.0621,150.11594
"92857",1284.4148,73.17738,152.92065
"92858",1284.4281,77.04707,156.57713
"92859",1284.4414,81.02174,160.45952
"92860",1284.4547,84.4593,163.929
"92861",1284.468,86.87633,166.48538
"92862",1284.4813,88.03845,167.8624
"92863",1284.4946,87.97742,168.05257
"92864",1284.5079,86.90074,167.22519
"92865",1284.5212,85.09651,165.63661
"92866",1284.5345,82.828415,163.52779
"92867",1284.5479,80.31373,161.10149
"92868",1284.5612,77.70382,158.50139
"92869",1284.5745,75.10857,155.83438
"92870",1284.5878,72.60609,153.17905
"92871",1284.6011,70.28184,150.62373
"92872",1284.6144,68.191956,148.23016
"92873",1284.6277,66.39262,146.06183
"92874",1284.641,64.9131,144.15709
"92875",1284.6543,63.74853,142.52106
"92876",1284.6676,62.88182,141.14648
"92877",1284.6809,62.281223,140.01094
"92878",1284.6942,61.910126,139.08614
"92879",1284.7075,61.727016,138.33772
"92880",1284.7208,61.705044,137.74472
"92881",1284.7341,61.807583,137.27554
"92882",1284.7474,62.0029,136.90234
"92883",1284.7607,62.264133,136.60117
"92884",1284.774,62.58152,136.3643
"92885",1284.7874,62.95262,136.19107
"92886",1284.8007,63.382317,136.08804
"92887",1284.814,63.863277,136.0497
"92888",1284.8273,64.38575,136.0679
"92889",1284.8406,64.9131,136.1073
"92890",1284.8539,65.40383,136.12656
"92891",1284.8672,65.82864,136.09525
"92892",1284.8805,66.24368,136.06743
"92893",1284.8938,66.949265,136.34312
"92894",1284.9071,68.64362,137.62965
"92895",1284.9204,72.308235,140.93938
"92896",1284.9337,78.69993,147.0907
"92897",1284.947,87.765015,156.11516
"92898",1284.9603,98.45609,167.04889
"92899",1284.9736,109.066605,178.23616
"92900",1284.9869,117.79965,187.87753
"92901",1285.0002,123.37591,194.63503
"92902",1285.0135,125.43893,198.05354
"92903",1285.0269,124.48432,198.5189
"92904",1285.0402,121.359276,196.784
"92905",1285.0535,116.76204,193.47923
"92906",1285.0668,111.13939,189.0054
"92907",1285.0801,104.84047,183.6796
"92908",1285.0934,98.19974,177.81512
"92909",1285.1067,91.53704,171.72116
"92910",1285.12,85.14534,165.68999
"92911",1285.1333,79.259026,159.96446
"92912",1285.1466,74.0441,154.72638
"92913",1285.1599,69.62264,150.1188
"92914",1285.1732,66.11673,146.2886
"92915",1285.1865,63.71435,143.45238
"92916",1285.1998,62.62791,141.85701
"92917",1285.2131,63.047836,141.73405
"92918",1285.2264,65.04738,143.20384
"92919",1285.2397,68.46052,146.14972
"92920",1285.253,72.85756,150.18616
"92921",1285.2664,77.593956,154.69936
"92922",1285.2797,81.96414,158.99435
"92923",1285.293,85.35287,162.44446
"92924",1285.3063,87.396355,164.65523
"92925",1285.3196,88.01404,165.50404
"92926",1285.3329,87.38415,165.12459
"92927",1285.3462,85.81674,163.78793
"92928",1285.3595,83.64385,161.79681
"92929",1285.3728,81.143814,159.41064
"92930",1285.3861,78.51438,156.81696
"92931",1285.3994,75.897156,154.1533
"92932",1285.4127,73.40444,151.53238
"92933",1285.426,71.1046,149.02643
"92934",1285.4393,69.05623,146.70007
"92935",1285.4526,67.29107,144.59293
"92936",1285.466,65.8262,142.73091
"92937",1285.4792,64.654305,141.11609
"92938",1285.4926,63.768063,139.75029
"92939",1285.5059,63.15038,138.62537
"92940",1285.5192,62.776836,137.72528
"92941",1285.5325,62.6157,137.02592
"92942",1285.5458,62.637676,136.50464
"92943",1285.5591,62.80369,136.12808
"92944",1285.5724,63.079575,135.86658
"92945",1285.5857,63.428703,135.68695
"92946",1285.599,63.809566,135.54996
"92947",1285.6123,64.19043,135.42487
"92948",1285.6256,64.55421,135.29459
"92949",1285.6389,64.94484,135.20255
"92950",1285.6522,65.56985,135.35709
"92951",1285.6655,66.949265,136.28557
"92952",1285.6788,69.908295,138.83676
"92953",1285.6921,75.28191,143.89502
"92954",1285.7054,83.387505,151.85316
"92955",1285.7188,93.6318,162.20332
"92956",1285.732,104.57191,173.56943
"92957",1285.7454,114.39872,184.16411
"92958",1285.7587,121.53506,192.3754
"92959",1285.772,125.15816,197.29646
"92960",1285.7853,125.38033,198.92984
"92961",1285.7986,122.93889,197.90652
"92962",1285.8119,118.69077,195.00024
"92963",1285.8252,113.28298,190.80154
"92964",1285.8385,107.13786,185.69652
"92965",1285.8518,100.577705,179.98442
"92966",1285.8651,93.88815,173.93793
"92967",1285.8784,87.3402,167.82397
"92968",1285.8917,81.1487,161.86185
"92969",1285.905,75.494316,156.24336
"92970",1285.9183,70.521095,151.12933
"92971",1285.9316,66.373085,146.6851
"92972",1285.945,63.230946,143.11713
"92973",1285.9583,61.30953,140.67168
"92974",1285.9716,60.796825,139.57489
"92975",1285.9849,61.792934,139.9709
"92976",1285.9982,64.22949,141.83849
"92977",1286.0115,67.83551,144.95168
"92978",1286.0248,72.15198,148.888
"92979",1286.0381,76.60273,153.0935
"92980",1286.0514,80.6067,156.9913
"92981",1286.0647,83.700005,160.10358
"92982",1286.078,85.61654,162.13574
"92983",1286.0913,86.32212,163.01685
"92984",1286.1046,85.94614,162.83842
"92985",1286.1179,84.7425,161.8206
"92986",1286.1312,82.97734,160.20364
"92987",1286.1445,80.89723,158.21658
"92988",1286.1578,78.68528,156.03267
"92989",1286.1711,76.48554,153.79184
"92990",1286.1844,74.39811,151.59457
"92991",1286.1978,72.48646,149.50786
"92992",1286.211,70.784775,147.57138
"92993",1286.2244,69.312584,145.81122
"92994",1286.2377,68.07233,144.23698
"92995",1286.251,67.0518,142.84372
"92996",1286.2643,66.23636,141.62364
"92997",1286.2776,65.60647,140.56364
"92998",1286.2909,65.14259,139.64998
"92999",1286.3042,64.82765,138.87074
"93000",1286.3175,64.63477,138.20374
"93001",1286.3308,64.55665,137.64545
"93002",1286.3441,64.57374,137.17993
"93003",1286.3574,64.6836,136.80772
"93004",1286.3707,64.937515,136.58301
"93005",1286.384,65.63821,136.81299
"93006",1286.3973,67.49615,138.22212
"93007",1286.4106,71.55627,141.8915
"93008",1286.424,78.68284,148.7542
"93009",1286.4373,88.90517,158.93536
"93010",1286.4506,101.12459,171.43307
"93011",1286.4639,113.41726,184.3859
"93012",1286.4772,123.7055,195.71841
"93013",1286.4905,130.46829,203.847
"93014",1286.5038,133.22224,208.17809
"93015",1286.5171,132.49225,209.11128
"93016",1286.5304,129.28175,207.54117
"93017",1286.5437,124.477,204.27646
"93018",1286.557,118.63706,199.82643
"93019",1286.5703,112.113525,194.5103
"93020",1286.5836,105.22133,188.62164
"93021",1286.5969,98.27787,182.46635
"93022",1286.6102,91.57366,176.33333
"93023",1286.6235,85.34554,170.46689
"93024",1286.6368,79.75952,165.04791
"93025",1286.6501,74.91814,160.199
"93026",1286.6635,70.89952,156.02158
"93027",1286.6768,67.81598,152.65364
"93028",1286.6901,65.83597,150.29288
"93029",1286.7034,65.127945,149.14223
"93030",1286.7167,65.80423,149.35376
"93031",1286.73,67.82086,150.92677
"93032",1286.7433,70.92882,153.65413
"93033",1286.7566,74.69596,157.1378
"93034",1286.7699,78.55833,160.83441
"93035",1286.7832,81.96414,164.19518
"93036",1286.7965,84.473946,166.76636
"93037",1286.8098,85.85092,168.28314
"93038",1286.8231,86.082855,168.69792
"93039",1286.8364,85.30892,168.11407
"93040",1286.8497,83.775696,166.74675
"93041",1286.863,81.73708,164.82613
"93042",1286.8763,79.41772,162.56105
"93043",1286.8896,76.9836,160.10873
"93044",1286.903,74.55924,157.59012
"93045",1286.9163,72.23987,155.10072
"93046",1286.9296,70.0914,152.70975
"93047",1286.9429,68.16754,150.47624
"93048",1286.9562,66.49027,148.42921
"93049",1286.9695,65.07912,146.59589
"93050",1286.9828,63.941406,144.9919
"93051",1286.9961,63.064926,143.61359
"93052",1287.0094,62.420387,142.43982
"93053",1287.0227,61.963837,141.4339
"93054",1287.036,61.653774,140.56021
"93055",1287.0493,61.438927,139.77205
"93056",1287.0626,61.302204,139.0553
"93057",1287.0759,61.316853,138.48564
"93058",1287.0892,61.844204,138.42914
"93059",1287.1025,63.667965,139.68553
"93060",1287.1158,67.85504,143.36223
"93061",1287.1292,75.18913,150.31679
"93062",1287.1425,85.52865,160.50597
"93063",1287.1558,97.62356,172.77365
"93064",1287.1691,109.523155,185.22398
"93065",1287.1824,119.22789,195.85132
"93066",1287.1957,125.38033,203.22963
"93067",1287.209,127.66552,206.93295
"93068",1287.2223,126.713356,207.47034
"93069",1287.2356,123.5053,205.72208
"93070",1287.2489,118.83971,202.41602
"93071",1287.2622,113.20729,197.99734
"93072",1287.2755,106.949875,192.77765
"93073",1287.2888,100.38972,187.05968
"93074",1287.3021,93.84665,181.1538
"93075",1287.3154,87.603874,175.34372
"93076",1287.3287,81.87869,169.85616
"93077",1287.342,76.822464,164.85864
"93078",1287.3553,72.50843,160.44531
"93079",1287.3687,68.99519,156.69797
"93080",1287.382,66.38041,153.73929
"93081",1287.3953,64.815445,151.74872
"93082",1287.4086,64.45655,150.91531
"93083",1287.4219,65.38674,151.35977
"93084",1287.4352,67.51812,153.03448
"93085",1287.4485,70.56992,155.69623
"93086",1287.4618,74.08316,158.91478
"93087",1287.4751,77.51827,162.165
"93088",1287.4884,80.377205,164.94637
"93089",1287.5017,82.29862,166.87958
"93090",1287.515,83.12871,167.7815
"93091",1287.5283,82.91142,167.66199
"93092",1287.5416,81.829865,166.67142
"93093",1287.5549,80.1355,165.03424
"93094",1287.5682,78.07492,162.9779
"93095",1287.5815,75.84589,160.6887
"93096",1287.5948,73.5729,158.2859
"93097",1287.6082,71.35851,155.87067
"93098",1287.6215,69.263756,153.50586
"93099",1287.6348,67.34234,151.24893
"93100",1287.6481,65.62112,149.13216
"93101",1287.6614,64.12207,147.18378
"93102",1287.6747,62.857403,145.42293
"93103",1287.688,61.82223,143.85205
"93104",1287.7013,61.014114,142.47588
"93105",1287.7146,60.406197,141.27464
"93106",1287.7279,59.978943,140.23508
"93107",1287.7412,59.690853,139.32133
"93108",1287.7545,59.544365,138.54019
"93109",1287.7678,59.698177,138.05476
"93110",1287.7811,60.689404,138.41156
"93111",1287.7944,63.462883,140.58159
"93112",1287.8077,69.014725,145.61664
"93113",1287.821,77.70626,153.96489
"93114",1287.8344,88.834366,165.02132
"93115",1287.8477,100.75105,177.21408
"93116",1287.861,111.44213,188.55363
"93117",1287.8743,119.19615,197.29022
"93118",1287.8876,123.19035,202.50931
"93119",1287.9009,123.64202,204.31067
"93120",1287.9142,121.42275,203.45522
"93121",1287.9275,117.4432,200.77013
"93122",1287.9408,112.31373,196.81076
"93123",1287.9541,106.424965,191.9318
"93124",1287.9674,100.104065,186.43668
"93125",1287.9807,93.66842,180.62929
"93126",1287.994,87.413445,174.80145
"93127",1288.0073,81.58083,169.20052
"93128",1288.0206,76.33662,164.0057
"93129",1288.0339,71.79065,159.34526
"93130",1288.0472,68.04547,155.34354
"93131",1288.0605,65.215836,152.14032
"93132",1288.0739,63.453117,149.91559
"93133",1288.0872,62.91844,148.86383
"93134",1288.1005,63.699703,149.1113
"93135",1288.1138,65.72854,150.63075
"93136",1288.1271,68.72907,153.1853
"93137",1288.1404,72.26917,156.37318
"93138",1288.1537,75.81903,159.68146
"93139",1288.167,78.87572,162.60748
"93140",1288.1803,81.06813,164.76476
"93141",1288.1936,82.20584,165.93585
"93142",1288.2069,82.30595,166.10489
"93143",1288.2202,81.52224,165.39325
"93144",1288.2335,80.08911,164.00769
"93145",1288.2468,78.238495,162.15985
"93146",1288.2601,76.16815,160.03445
"93147",1288.2734,74.02945,157.776
"93148",1288.2867,71.920044,155.48001
"93149",1288.3,69.90341,153.21088
"93150",1288.3134,68.02594,151.01788
"93151",1288.3267,66.321815,148.93958
"93152",1288.34,64.815445,147.00577
"93153",1288.3533,63.514153,145.22995
"93154",1288.3666,62.42771,143.62833
"93155",1288.3799,61.56344,142.21492
"93156",1288.3932,60.90425,140.97958
"93157",1288.4065,60.41352,139.8921
"93158",1288.4198,60.064392,138.9309
"93159",1288.4331,59.92035,138.16386
"93160",1288.4464,60.31342,137.92944
"93161",1288.4597,62.010223,139.01105
"93162",1288.473,66.04349,142.48213
"93163",1288.4863,73.13588,149.13838
"93164",1288.4996,83.07988,158.86787
"93165",1288.513,94.62058,170.50482
"93166",1288.5262,105.86099,182.20212
"93167",1288.5396,114.899216,192.0485
"93168",1288.5529,120.480354,198.72023
"93169",1288.5662,122.37003,201.87492
"93170",1288.5795,121.21767,202.04662
"93171",1288.5928,117.95834,200.07535
"93172",1288.6061,113.339134,196.64233
"93173",1288.6194,107.82391,192.16896
"93174",1288.6327,101.749596,186.96414
"93175",1288.646,95.42138,181.3156
"93176",1288.6593,89.13466,175.5108
"93177",1288.6726,83.1458,169.8074
"93178",1288.6859,77.65255,164.41246
"93179",1288.6992,72.80629,159.49284
"93180",1288.7125,68.733955,155.19571
"93181",1288.7258,65.57229,151.68198
"93182",1288.7391,63.479973,149.1388
"93183",1288.7524,62.623024,147.7656
"93184",1288.7657,63.10887,147.7084
"93185",1288.779,64.89113,148.96281
"93186",1288.7924,67.735405,151.33493
"93187",1288.8057,71.22667,154.44293
"93188",1288.819,74.84001,157.7821
"93189",1288.8323,78.05295,160.83379
"93190",1288.8456,80.46021,163.1802
"93191",1288.8589,81.83963,164.574
"93192",1288.8722,82.17166,164.96353
"93193",1288.8855,81.59548,164.45522
"93194",1288.8988,80.33814,163.24774
"93195",1288.9121,78.641335,161.56151
"93196",1288.9254,76.71259,159.5903
"93197",1288.9387,74.703285,157.47826
"93198",1288.952,72.71839,155.32784
"93199",1288.9653,70.821396,153.2033
"93200",1288.9786,69.05623,151.15129
"93201",1288.992,67.45464,149.20772
"93202",1289.0052,66.02884,147.38988
"93203",1289.0186,64.79347,145.71791
"93204",1289.0319,63.74609,144.19533
"93205",1289.0452,62.874493,142.8158
"93206",1289.0585,62.15671,141.56284
"93207",1289.0718,61.573204,140.42172
"93208",1289.0851,61.15816,139.43085
"93209",1289.0984,61.160603,138.84448
"93210",1289.1117,62.234837,139.32999
"93211",1289.125,65.36233,141.90231
"93212",1289.1383,71.378044,147.4606
"93213",1289.1516,80.35035,156.16347
"93214",1289.1649,91.302666,167.12674
"93215",1289.1782,102.48936,178.66664
"93216",1289.1915,111.98413,188.86421
"93217",1289.2048,118.33189,196.21147
"93218",1289.2181,121.024796,200.10225
"93219",1289.2314,120.50721,200.86668
"93220",1289.2448,117.677574,199.3029
"93221",1289.258,113.35134,196.1541
"93222",1289.2714,108.06317,191.90816
"93223",1289.2847,102.18173,186.90369
"93224",1289.298,96.01709,181.43222
"93225",1289.3113,89.84512,175.76079
"93226",1289.3246,83.90753,170.13086
"93227",1289.3379,78.4094,164.75484
"93228",1289.3512,73.50454,159.80026
"93229",1289.3645,69.33944,155.43217
"93230",1289.3778,66.06546,151.82506
"93231",1289.3911,63.87549,149.19963
"93232",1289.4044,62.945297,147.76555
"93233",1289.4177,63.399406,147.6867
"93234",1289.431,65.19386,148.9624
"93235",1289.4443,68.09186,151.3977
"93236",1289.4576,71.65148,154.5852
"93237",1289.471,75.3283,158.00113
"93238",1289.4843,78.58274,161.10957
"93239",1289.4976,80.99489,163.47743
"93240",1289.5109,82.34989,164.86353
"93241",1289.5242,82.63798,165.22505
"93242",1289.5375,82.00809,164.6776
"93243",1289.5508,80.689705,163.42197
"93244",1289.5641,78.93431,161.68813
"93245",1289.5774,76.93965,159.66016
"93246",1289.5907,74.861984,157.48685
"93247",1289.604,72.80873,155.27303
"93248",1289.6173,70.86046,153.10002
"93249",1289.6306,69.065994,151.01994
"93250",1289.6439,67.45464,149.06691
"93251",1289.6572,66.04837,147.2686
"93252",1289.6705,64.85451,145.63875
"93253",1289.6838,63.86572,144.17667
"93254",1289.6971,63.062485,142.86923
"93255",1289.7104,62.413063,141.69052
"93256",1289.7238,61.907684,140.63556
"93257",1289.737,61.61715,139.77963
"93258",1289.7504,61.927216,139.51523
"93259",1289.7637,63.636227,140.65947
"93260",1289.777,67.735405,144.24728
"93261",1289.7903,74.82536,150.95398
"93262",1289.8036,84.5716,160.53851
"93263",1289.8169,95.66064,171.77042
"93264",1289.8302,106.22232,182.8215
"93265",1289.8435,114.47196,191.8906
"93266",1289.8568,119.2987,197.79459
"93267",1289.8701,120.59754,200.32152
"93268",1289.8834,119.05455,200.0472
"93269",1289.8967,115.57549,197.78859
"93270",1289.91,110.853745,194.17857
"93271",1289.9233,105.338524,189.62753
"93272",1289.9366,99.36187,184.4427
"93273",1289.95,93.221634,178.90753
"93274",1289.9633,87.166855,173.26593
"93275",1289.9766,81.427025,167.75006
"93276",1289.9899,76.17059,162.53822
"93277",1290.0032,71.56603,157.814
"93278",1290.0165,67.77692,153.76132
"93279",1290.0298,64.98634,150.58878
"93280",1290.0431,63.3872,148.52045
"93281",1290.0564,63.147938,147.76204
"93282",1290.0697,64.31007,148.39754
"93283",1290.083,66.72709,150.32425
"93284",1290.0963,70.04257,153.22496
"93285",1290.1096,73.738914,156.61014
"93286",1290.1229,77.25704,159.9326
"93287",1290.1362,80.09888,162.68872
"93288",1290.1495,81.94705,164.53998
"93289",1290.1628,82.703896,165.35767
"93290",1290.1761,82.4622,165.20047
"93291",1290.1895,81.427025,164.24225
"93292",1290.2028,79.85474,162.71455
"93293",1290.2161,77.97238,160.82767
"93294",1290.2294,75.948425,158.74034
"93295",1290.2427,73.90494,156.57024
"93296",1290.256,71.922485,154.39731
"93297",1290.2693,70.064545,152.28694
"93298",1290.2826,68.370186,150.2821
"93299",1290.2959,66.863815,148.41231
"93300",1290.3092,65.547874,146.68587
"93301",1290.3225,64.41993,145.1063
"93302",1290.3358,63.45556,143.65504
"93303",1290.3491,62.635235,142.3177
"93304",1290.3624,61.958954,141.09877
"93305",1290.3757,61.47799,140.05402
"93306",1290.389,61.448692,139.4459
"93307",1290.4023,62.498512,139.916
"93308",1290.4156,65.564964,142.43553
"93309",1290.429,71.431755,147.85123
"93310",1290.4423,80.14282,156.29454
"93311",1290.4556,90.74601,166.90219
"93312",1290.4689,101.559166,178.05116
"93313",1290.4822,110.72434,187.89006
"93314",1290.4955,116.84993,194.97578
"93315",1290.5088,119.44274,198.72015
"93316",1290.5221,118.922714,199.43271
"93317",1290.5354,116.14923,197.87556
"93318",1290.5487,111.89868,194.75467
"93319",1290.562,106.67399,190.52681
"93320",1290.5753,100.82918,185.51556
"93321",1290.5886,94.65232,179.98962
"93322",1290.6019,88.42664,174.22183
"93323",1290.6152,82.40116,168.45969
"93324",1290.6285,76.79805,162.93161
"93325",1290.6418,71.80774,157.84123
"93326",1290.6552,67.60845,153.38594
"93327",1290.6685,64.37354,149.7638
"93328",1290.6818,62.286106,147.18803
"93329",1290.6951,61.51461,145.86298
"93330",1290.7084,62.149387,145.92009
"93331",1290.7217,64.114746,147.32762
"93332",1290.735,67.139694,149.85616
"93333",1290.7483,70.767685,153.08226
"93334",1290.7616,74.45426,156.48033
"93335",1290.7749,77.659874,159.51263
"93336",1290.7882,79.97925,161.75888
"93337",1290.8015,81.2195,162.99847
"93338",1290.8148,81.392845,163.20993
"93339",1290.8281,80.672615,162.53323
"93340",1290.8414,79.30541,161.18706
"93341",1290.8547,77.5378,159.39774
"93342",1290.868,75.58221,157.36519
"93343",1290.8813,73.57534,155.22026
"93344",1290.8947,71.60754,153.05168
"93345",1290.908,69.74471,150.92659
"93346",1290.9213,68.03082,148.89223
"93347",1290.9346,66.4976,146.98497
"93348",1290.9479,65.14992,145.21535
"93349",1290.9612,63.992676,143.59404
"93350",1290.9745,63.006332,142.10747
"93351",1290.9878,62.178684,140.74876
"93352",1291.0011,61.49508,139.50824
"93353",1291.0144,61.016556,138.45143
"93354",1291.0277,61.011673,137.85332
"93355",1291.041,62.11032,138.35858
"93356",1291.0543,65.22804,140.91725
"93357",1291.0676,71.133896,146.36148
"93358",1291.0809,79.888916,154.83943
"93359",1291.0942,90.57511,165.52216
"93360",1291.1075,101.51278,176.7903
"93361",1291.1208,110.836655,186.78645
"93362",1291.1342,117.13313,194.04657
"93363",1291.1475,119.87488,197.94873
"93364",1291.1608,119.43786,198.7578
"93365",1291.1741,116.66682,197.2192
"93366",1291.1874,112.36988,194.0681
"93367",1291.2007,107.09148,189.80125
"93368",1291.214,101.205154,184.76154
"93369",1291.2273,95.00877,179.22781
"93370",1291.2406,88.78798,173.47604
"93371",1291.2539,82.791794,167.75449
"93372",1291.2672,77.222855,162.2728
"93373",1291.2805,72.25941,157.22256
"93374",1291.2938,68.07477,152.79604
"93375",1291.3071,64.85939,149.208
"93376",1291.3204,62.813457,146.68892
"93377",1291.3337,62.12497,145.46335
"93378",1291.347,62.889145,145.66893
"93379",1291.3604,65.025406,147.27048
"93380",1291.3737,68.23346,150.01057
"93381",1291.387,72.03235,153.44176
"93382",1291.4003,75.83856,156.99898
"93383",1291.4136,79.10033,160.13069
"93384",1291.4269,81.41238,162.41463
"93385",1291.4402,82.59159,163.63799
"93386",1291.4535,82.67216,163.79955
"93387",1291.4668,81.849396,163.06029
"93388",1291.4801,80.38453,161.65321
"93389",1291.4934,78.53147,159.81218
"93390",1291.5067,76.48798,157.7228
"93391",1291.52,74.39323,155.51828
"93392",1291.5333,72.33753,153.28737
"93393",1291.5466,70.38438,151.09476
"93394",1291.5599,68.577705,148.9876
"93395",1291.5732,66.949265,147.00221
"93396",1291.5865,65.51858,145.1637
"93397",1291.5999,64.28077,143.47334
"93398",1291.6132,63.233387,141.93474
"93399",1291.6265,62.415504,140.5929
"93400",1291.6398,62.05905,139.68692
"93401",1291.6531,62.74998,139.8172
"93402",1291.6664,65.36965,141.89781
"93403",1291.6797,70.70176,146.77272
"93404",1291.693,78.88548,154.66588
"93405",1291.7063,89.09804,164.8436
"93406",1291.7196,99.74273,175.7726
"93407",1291.7329,109.00069,185.64752
"93408",1291.7462,115.41192,192.96503
"93409",1291.7595,118.37827,197.038
"93410",1291.7728,118.185394,198.04443
"93411",1291.7861,115.63897,196.6913
"93412",1291.7994,111.54467,193.71072
"93413",1291.8127,106.459145,189.61096
"93414",1291.826,100.755936,184.7346
"93415",1291.8394,94.74265,179.36995
"93416",1291.8527,88.670784,173.75879
"93417",1291.866,82.76982,168.12878
"93418",1291.8793,77.2375,162.68303
"93419",1291.8926,72.256966,157.61617
"93420",1291.9059,68.02594,153.14317
"93421",1291.9192,64.75441,149.49745
"93422",1291.9325,62.674297,146.94092
"93423",1291.9458,61.990692,145.71588
"93424",1291.9591,62.789043,145.95145
"93425",1291.9724,64.96681,147.59137
"93426",1291.9857,68.21393,150.3687
"93427",1291.999,72.03235,153.8188
"93428",1292.0123,75.83856,157.37602
"93429",1292.0256,79.08812,160.49553
"93430",1292.039,81.38064,162.75955
"93431",1292.0522,82.54276,163.96483
"93432",1292.0656,82.60624,164.10777
"93433",1292.0789,81.76639,163.34937
"93434",1292.0922,80.27711,161.91528
"93435",1292.1055,78.39231,160.03915
"93436",1292.1188,76.32441,157.921
"93437",1292.1321,74.22232,155.70406
"93438",1292.1454,72.19104,153.49222
"93439",1292.1587,70.29893,151.35608
"93440",1292.172,68.575264,149.32925
"93441",1292.1853,67.03227,147.42924
"93442",1292.1986,65.6675,145.65924
"93443",1292.2119,64.48585,144.0297
"93444",1292.2252,63.553215,142.61224
"93445",1292.2385,63.179676,141.72475
"93446",1292.2518,64.03418,142.05362
"93447",1292.2651,67.0518,144.57231
"93448",1292.2784,72.92592,150.0418
"93449",1292.2917,81.5906,158.48541
"93450",1292.305,92.00824,168.95276
"93451",1292.3184,102.48203,179.8018
"93452",1292.3317,111.21019,189.23253
"93453",1292.345,116.90852,195.90619
"93454",1292.3583,119.19371,199.34477
"93455",1292.3716,118.52964,199.9055
"93456",1292.3849,115.75372,198.33363
"93457",1292.3982,111.59838,195.2956
"93458",1292.4115,106.55192,191.23657
"93459",1292.4248,100.963455,186.47786
"93460",1292.4381,95.12596,181.29547
"93461",1292.4514,89.29336,175.93555
"93462",1292.4647,83.68047,170.61308
"93463",1292.478,78.46311,165.51074
"93464",1292.4913,73.80728,160.80688
"93465",1292.5046,69.891205,156.69728
"93466",1292.518,66.91753,153.4077
"93467",1292.5312,65.10841,151.18976
"93468",1292.5446,64.654305,150.2703
"93469",1292.5579,65.618675,150.75511
"93470",1292.5712,67.86969,152.55672
"93471",1292.5845,71.05089,155.35884
"93472",1292.5978,74.63981,158.6681
"93473",1292.6111,78.05539,161.91618
"93474",1292.6244,80.78493,164.58495
"93475",1292.6377,82.496376,166.32092
"93476",1292.651,83.087204,166.98976
"93477",1292.6643,82.65507,166.6541
"93478",1292.6776,81.42458,165.50659
"93479",1292.6909,79.65942,163.78595
"93480",1292.7042,77.60128,161.71716
"93481",1292.7175,75.43084,159.47176
"93482",1292.7308,73.26284,157.16096
"93483",1292.7441,71.17784,154.86543
"93484",1292.7574,69.222244,152.63414
"93485",1292.7708,67.41802,150.49312
"93486",1292.784,65.779816,148.46173
"93487",1292.7974,64.31739,146.55493
"93488",1292.8107,63.096664,144.84412
"93489",1292.824,62.376442,143.59567
"93490",1292.8373,62.793926,143.46242
"93491",1292.8506,65.28176,145.41257
"93492",1292.8639,70.61387,150.28473
"93493",1292.8772,78.7805,158.15805
"93494",1292.8905,88.82216,168.16159
"93495",1292.9038,99.107956,178.72308
"93496",1292.9171,107.87518,188.08743
"93497",1292.9304,113.79324,194.87659
"93498",1292.9437,116.422676,198.56206
"93499",1292.957,116.18097,199.45856
"93500",1292.9703,113.85672,198.26495
"93501",1292.9836,110.12863,195.59488
"93502",1292.997,105.44839,191.85616
"93503",1293.0103,100.157776,187.36081
"93504",1293.0236,94.554665,182.38763
"93505",1293.0369,88.91737,177.20517
"93506",1293.0502,83.48272,172.04918
"93507",1293.0635,78.44114,167.11644
"93508",1293.0768,73.95621,162.5828
"93509",1293.0901,70.1915,158.62921
"93510",1293.1034,67.32769,155.4589
"93511",1293.1167,65.567406,153.3026
"93512",1293.13,65.09621,152.38039
"93513",1293.1433,65.98245,152.80089
"93514",1293.1566,68.09918,154.47957
"93515",1293.1699,71.09972,157.1082
"93516",1293.1832,74.46647,160.19682
"93517",1293.1965,77.625694,163.18312
"93518",1293.2098,80.08667,165.5699
"93519",1293.2231,81.53933,167.02527
"93520",1293.2365,81.89578,167.42982
"93521",1293.2498,81.27322,166.8665
"93522",1293.2631,79.90112,165.5342
"93523",1293.2764,78.05539,163.68536
"93524",1293.2897,75.96307,161.53227
"93525",1293.303,73.797516,159.24055
"93526",1293.3163,71.67101,156.92023
"93527",1293.3296,69.63729,154.62622
"93528",1293.3429,67.72564,152.39073
"93529",1293.3562,65.950714,150.23224
"93530",1293.3695,64.33936,148.18185
"93531",1293.3828,62.928207,146.28131
"93532",1293.3961,61.858852,144.67847
"93533",1293.4094,61.560997,143.8137
"93534",1293.4227,62.847637,144.52412
"93535",1293.436,66.6392,147.77968
"93536",1293.4493,73.34341,154.06636
"93537",1293.4626,82.45243,162.96736
"93538",1293.476,92.63325,173.22482
"93539",1293.4893,102.17929,183.16565
"93540",1293.5026,109.51583,191.1953
"93541",1293.5159,113.76395,196.36578
"93542",1293.5292,114.97246,198.62943
"93543",1293.5425,113.80057,198.55042
"93544",1293.5558,110.97826,196.78436
"93545",1293.5691,107.02556,193.79974
"93546",1293.5824,102.32334,189.94208
"93547",1293.5957,97.198746,185.51509
"93548",1293.609,91.95209,180.8059
"93549",1293.6223,86.82994,176.05725
"93550",1293.6356,82.020294,171.46104
"93551",1293.6489,77.65499,167.15887
"93552",1293.6622,73.846344,163.27695
"93553",1293.6755,70.73106,159.96936
"93554",1293.6888,68.4947,157.44334
"93555",1293.7021,67.34478,155.93388
"93556",1293.7155,67.422905,155.61653
"93557",1293.7288,68.714424,156.51501
"93558",1293.7421,70.98497,158.43289
"93559",1293.7554,73.80728,160.97348
"93560",1293.7687,76.65644,163.62912
"93561",1293.782,79.03197,165.90016
"93562",1293.7953,80.59205,167.43
"93563",1293.8086,81.19264,168.04909
"93564",1293.8219,80.86549,167.75922
"93565",1293.8352,79.76929,166.69006
"93566",1293.8485,78.12619,165.03976
"93567",1293.8618,76.1535,163.00851
"93568",1293.8751,74.02701,160.76181
"93569",1293.8884,71.88098,158.42912
"93570",1293.9017,69.803314,156.09773
"93571",1293.915,67.85504,153.83081
"93572",1293.9283,66.08011,151.67635
"93573",1293.9417,64.49317,149.65442
"93574",1293.955,63.101547,147.7782
"93575",1293.9683,61.929657,146.07823
"93576",1293.9816,61.123978,144.70786
"93577",1293.9949,61.180134,144.17413
"93578",1294.0082,63.03807,145.44395
"93579",1294.0215,67.60601,149.48184
"93580",1294.0348,75.09148,156.58
"93581",1294.0481,84.73762,166.07275
"93582",1294.0614,95.07713,176.56032
"93583",1294.0747,104.36927,186.32361
"93584",1294.088,111.149155,193.86504
"93585",1294.1013,114.777145,198.46643
"93586",1294.1146,115.52178,200.29785
"93587",1294.1279,114.1033,199.98943
"93588",1294.1412,111.15404,198.1059
"93589",1294.1545,107.14519,195.07062
"93590",1294.1678,102.46494,191.23866
"93591",1294.1812,97.46731,186.94305
"93592",1294.1945,92.46967,182.49127
"93593",1294.2078,87.711296,178.12257
"93594",1294.2211,83.35088,174.00314
"93595",1294.2344,79.47143,170.22841
"93596",1294.2477,76.138855,166.87932
"93597",1294.261,73.45083,164.07063
"93598",1294.2743,71.53918,161.95432
"93599",1294.2876,70.54551,160.69624
"93600",1294.3009,70.54307,160.39835
"93601",1294.3142,71.465935,161.02568
"93602",1294.3275,73.074844,162.3679
"93603",1294.3408,75.00847,164.08511
"93604",1294.3541,76.86153,165.78218
"93605",1294.3674,78.294655,167.11723
"93606",1294.3807,79.08568,167.85497
"93607",1294.394,79.149155,167.88986
"93608",1294.4073,78.51194,167.22606
"93609",1294.4207,77.281456,165.94907
"93610",1294.434,75.60906,164.19171
"93611",1294.4473,73.651024,162.09645
"93612",1294.4606,71.54894,159.79596
"93613",1294.4739,69.42245,157.40536
"93614",1294.4872,67.37408,155.02644
"93615",1294.5005,65.48196,152.73976
"93616",1294.5138,63.804684,150.6088
"93617",1294.5271,62.383766,148.68178
"93618",1294.5404,61.238728,146.98624
"93619",1294.5537,60.357365,145.51859
"93620",1294.567,59.698177,144.24556
"93621",1294.5803,59.234303,143.14725
"93622",1294.5936,59.019455,142.28348
"93623",1294.6069,59.424736,142.03311
"93624",1294.6202,61.319294,143.2847
"93625",1294.6335,65.71145,147.09308
"93626",1294.6469,73.02113,153.95625
"93627",1294.6602,82.69901,163.41605
"93628",1294.6735,93.40963,174.21101
"93629",1294.6868,103.448845,184.66928
"93630",1294.7001,111.22972,193.18294
"93631",1294.7134,115.88068,198.80981
"93632",1294.7267,117.49691,201.54732
"93633",1294.74,116.74006,201.96225
"93634",1294.7533,114.26444,200.63477
"93635",1294.7666,110.56321,198.0043
"93636",1294.7799,106.06363,194.45982
"93637",1294.7932,101.18074,190.39142
"93638",1294.8065,96.28809,186.16068
"93639",1294.8198,91.6762,182.05779
"93640",1294.8331,87.518425,178.2649
"93641",1294.8464,83.88068,174.86209
"93642",1294.8597,80.762955,171.86565
"93643",1294.873,78.17746,169.304
"93644",1294.8864,76.17059,167.24017
"93645",1294.8997,74.82292,165.77283
"93646",1294.913,74.20767,164.99579
"93647",1294.9263,74.32487,164.93198
"93648",1294.9396,75.04265,165.47241
"93649",1294.9529,76.112,166.38684
"93650",1294.9662,77.242386,167.39572
"93651",1294.9795,78.16037,168.22752
"93652",1294.9928,78.67307,168.68274
"93653",1295.0061,78.66575,168.63394
"93654",1295.0194,78.11398,168.04048
"93655",1295.0327,77.06172,166.92928
"93656",1295.046,75.59197,165.3677
"93657",1295.0593,73.797516,163.4355
"93658",1295.0726,71.783325,161.22748
"93659",1295.0859,69.65926,158.84665
"93660",1295.0992,67.52056,156.3848
"93661",1295.1125,65.46487,153.93912
"93662",1295.1259,63.575188,151.59521
"93663",1295.1392,61.927216,149.43396
"93664",1295.1525,60.56733,147.50931
"93665",1295.1658,59.507744,145.84245
"93666",1295.1791,58.733807,144.42813
"93667",1295.1924,58.225986,143.25574
"93668",1295.2057,57.950104,142.29942
"93669",1295.219,57.852444,141.5127
"93670",1295.2323,57.89151,140.85965
"93671",1295.2456,58.077057,140.35431
"93672",1295.2589,58.631268,140.22342
"93673",1295.2722,60.218204,141.14258
"93674",1295.2855,63.824215,144.1304
"93675",1295.2988,70.13779,149.93848
"93676",1295.3121,78.99779,158.49028
"93677",1295.3254,89.38857,168.84975
"93678",1295.3387,99.75983,179.51439
"93679",1295.352,108.453804,188.82587
"93680",1295.3654,114.28886,195.5501
"93681",1295.3787,116.99397,199.32674
"93682",1295.392,117.0428,200.53163
"93683",1295.4053,115.09697,199.7434
"93684",1295.4186,111.71801,197.46121
"93685",1295.4319,107.37713,194.11151
"93686",1295.4452,102.51377,190.10368
"93687",1295.4585,97.51858,185.81204
"93688",1295.4718,92.72602,181.56694
"93689",1295.4851,88.36561,177.60422
"93690",1295.4984,84.53742,174.03746
"93691",1295.5117,81.253685,170.89552
"93692",1295.525,78.519264,168.20029
"93693",1295.5383,76.3708,166.00554
"93694",1295.5516,74.879074,164.4004
"93695",1295.565,74.11978,163.48108
"93696",1295.5782,74.12222,163.29976
"93697",1295.5916,74.79118,163.78503
"93698",1295.6049,75.897156,164.72823
"93699",1295.6182,77.14717,165.85002
"93700",1295.6315,78.238495,166.85219
"93701",1295.6448,78.94896,167.5076
"93702",1295.6581,79.149155,167.67494
"93703",1295.6714,78.79515,167.29434
"93704",1295.6847,77.92111,166.38264
"93705",1295.698,76.60761,165.00418
"93706",1295.7113,74.966965,163.25752
"93707",1295.7246,73.094376,161.22765
"93708",1295.7379,71.08751,159.00497
"93709",1295.7512,69.04402,156.68297
"93710",1295.7645,67.04204,154.33861
"93711",1295.7778,65.14992,152.04155
"93712",1295.7911,63.431145,149.8587
"93713",1295.8044,61.944305,147.8541
"93714",1295.8177,60.723583,146.06914
"93715",1295.831,59.79095,144.53412
"93716",1295.8444,59.156178,143.2678
"93717",1295.8577,58.80949,142.26974
"93718",1295.871,58.711834,141.50989
"93719",1295.8843,58.816814,140.94962
"93720",1295.8976,59.0634,140.53423
"93721",1295.9109,59.385674,140.20222
"93722",1295.9242,59.727474,139.89983
"93723",1295.9375,60.071716,139.61055
"93724",1295.9508,60.58442,139.50049
"93725",1295.9641,61.82223,140.13156
"93726",1295.9774,64.75441,142.49568
"93727",1295.9907,70.22812,147.49297
"93728",1296.004,78.3386,155.29808
"93729",1296.0173,88.26063,165.16818
"93730",1296.0306,98.55131,175.71701
"93731",1296.044,107.55291,185.29834
"93732",1296.0573,113.917755,192.52422
"93733",1296.0706,117.13313,196.79953
"93734",1296.0839,117.523766,198.35057
"93735",1296.0972,115.756165,197.75558
"93736",1296.1105,112.4065,195.5233
"93737",1296.1238,107.928894,192.0584
"93738",1296.1371,102.77013,187.7724
"93739",1296.1504,97.357445,183.07129
"93740",1296.1637,92.04974,178.306
"93741",1296.177,87.11803,173.75084
"93742",1296.1903,82.73075,169.586
"93743",1296.2036,78.975815,165.9164
"93744",1296.2169,75.92157,162.83014
"93745",1296.2302,73.65835,160.43947
"93746",1296.2435,72.308235,158.89117
"93747",1296.2568,71.973755,158.31633
"93748",1296.2701,72.64027,158.73203
"93749",1296.2834,74.141754,160.00352
"93750",1296.2968,76.14374,161.82243
"93751",1296.31,78.22385,163.78203
"93752",1296.3234,79.98413,165.4868
"93753",1296.3367,81.14137,166.64355
"93754",1296.35,81.55642,167.09427
"93755",1296.3633,81.22682,166.81331
"93756",1296.3766,80.255135,165.87996
"93757",1296.3899,78.78783,164.42062
"93758",1296.4032,76.98848,162.58339
"93759",1296.4165,75.001144,160.50194
"93760",1296.4298,72.94789,158.29247
"93761",1296.4431,70.90196,156.02615
"93762",1296.4564,68.93172,153.77159
"93763",1296.4697,67.0811,151.57509
"93764",1296.483,65.394066,149.48434
"93765",1296.4963,63.916992,147.55084
"93766",1296.5096,62.691387,145.82265
"93767",1296.523,61.736782,144.32715
"93768",1296.5363,61.05806,143.0777
"93769",1296.5496,60.640575,142.06828
"93770",1296.5629,60.455025,141.27776
"93771",1296.5762,60.474556,140.68651
"93772",1296.5895,60.662548,140.26433
"93773",1296.6028,60.999466,139.99695
"93774",1296.6161,61.44137,139.84508
"93775",1296.6294,61.939423,139.76317
"93776",1296.6427,62.435036,139.6944
"93777",1296.656,62.87938,139.58984
"93778",1296.6693,63.25292,139.42836
"93779",1296.6826,63.69726,139.34937
"93780",1296.6959,64.725105,139.86775
"93781",1296.7092,67.27642,141.94173
"93782",1296.7225,72.26673,146.53442
"93783",1296.7358,79.92554,153.95157
"93784",1296.7491,89.54238,163.56609
"93785",1296.7625,99.71587,174.03778
"93786",1296.7758,108.76631,183.70435
"93787",1296.7891,115.27276,191.10974
"93788",1296.8024,118.607765,195.54703
"93789",1296.8157,119.01793,197.16368
"93790",1296.829,117.17952,196.54459
"93791",1296.8423,113.71755,194.24448
"93792",1296.8556,109.0959,190.6765
"93793",1296.8689,103.71496,186.2048
"93794",1296.8822,97.970245,181.20119
"93795",1296.8955,92.20111,175.99362
"93796",1296.9088,86.68833,170.86212
"93797",1296.9221,81.6321,166.01491
"93798",1296.9354,77.18623,161.62004
"93799",1296.9487,73.48745,157.83333
"93800",1296.962,70.71885,154.8612
"93801",1296.9753,69.09041,152.94273
"93802",1296.9886,68.78523,152.29663
"93803",1297.002,69.837494,152.99843
"93804",1297.0153,72.059204,154.90256
"93805",1297.0286,75.03288,157.62808
"93806",1297.0419,78.19211,160.63208
"93807",1297.0552,80.970474,163.35394
"93808",1297.0685,82.950485,165.36429
"93809",1297.0818,83.931946,166.43796
"93810",1297.0951,83.912415,166.5413
"93811",1297.1084,83.04326,165.79442
"93812",1297.1217,81.532005,164.37827
"93813",1297.135,79.60082,162.49496
"93814",1297.1483,77.4255,160.30716
"93815",1297.1616,75.157394,157.9586
"93816",1297.1749,72.903946,155.55382
"93817",1297.1882,70.750595,153.17871
"93818",1297.2015,68.75838,150.89745
"93819",1297.2148,66.983444,148.77121
"93820",1297.2281,65.4551,146.8361
"93821",1297.2415,64.18555,145.11203
"93822",1297.2548,63.179676,143.61195
"93823",1297.2681,62.432594,142.33923
"93824",1297.2814,61.93454,141.2922
"93825",1297.2947,61.668423,140.46155
"93826",1297.308,61.609825,139.8301
"93827",1297.3213,61.736782,139.38235
"93828",1297.3346,62.010223,139.08507
"93829",1297.3479,62.39353,138.90619
"93830",1297.3612,62.83543,138.79788
"93831",1297.3745,63.29198,138.71805
"93832",1297.3878,63.716793,138.62073
"93833",1297.4011,64.08301,138.47809
"93834",1297.4144,64.45167,138.34933
"93835",1297.4277,65.127945,138.53973
"93836",1297.441,66.83452,139.78156
"93837",1297.4543,70.56992,143.10555
"93838",1297.4677,76.98604,149.22697
"93839",1297.481,85.86557,158.01231
"93840",1297.4943,96.08301,168.41306
"93841",1297.5076,106.002594,178.83524
"93842",1297.5209,113.98123,187.62645
"93843",1297.5342,118.91539,193.62253
"93844",1297.5475,120.619514,196.54276
"93845",1297.5608,119.65026,196.84286
"93846",1297.5741,116.74738,195.17906
"93847",1297.5874,112.45289,192.03293
"93848",1297.6007,107.176926,187.77112
"93849",1297.614,101.26864,182.71211
"93850",1297.6273,95.07469,177.18282
"93851",1297.6406,88.90761,171.48682
"93852",1297.6539,83.03349,165.89107
"93853",1297.6672,77.662315,160.61469
"93854",1297.6805,72.99184,155.87115
"93855",1297.6938,69.224686,151.885
"93856",1297.7072,66.59037,148.91396
"93857",1297.7205,65.32571,147.23024
"93858",1297.7338,65.601585,147.04755
"93859",1297.7471,67.4107,148.40671
"93860",1297.7604,70.47959,151.08218
"93861",1297.7737,74.29313,154.5982
"93862",1297.787,78.19455,158.32129
"93863",1297.8003,81.55642,161.62674
"93864",1297.8136,83.9173,164.03625
"93865",1297.8269,85.07942,165.3208
"93866",1297.8402,85.08186,165.48198
"93867",1297.8535,84.13214,164.69107
"93868",1297.8668,82.5037,163.19176
"93869",1297.8801,80.45533,161.22163
"93870",1297.8934,78.187225,158.96776
"93871",1297.9067,75.85321,156.57709
"93872",1297.92,73.56069,154.15498
"93873",1297.9333,71.39269,151.78575
"93874",1297.9467,69.4078,149.53188
"93875",1297.96,67.65484,147.4479
"93876",1297.9733,66.15335,145.56064
"93877",1297.9866,64.9131,143.88768
"93878",1297.9999,63.926758,142.42987
"93879",1298.0132,63.182117,141.18294
"93880",1298.0265,62.657207,140.13248
"93881",1298.0398,62.337376,139.27069
"93882",1298.0531,62.2031,138.58446
"93883",1298.0664,62.23972,138.06493
"93884",1298.0797,62.42283,137.69302
"93885",1298.093,62.71336,137.43427
"93886",1298.1063,63.064926,137.24562
"93887",1298.1196,63.42626,137.07773
"93888",1298.1329,63.772945,136.90648
"93889",1298.1462,64.16113,136.78757
"93890",1298.1595,64.92531,137.05678
"93891",1298.1729,66.81499,138.47537
"93892",1298.1862,70.84093,142.08928
"93893",1298.1995,77.67208,148.63422
"93894",1298.2128,87.06676,157.95615
"93895",1298.2261,97.82132,168.93155
"93896",1298.2394,108.18768,179.85483
"93897",1298.2527,116.43244,188.98045
"93898",1298.266,121.427635,195.11417
"93899",1298.2793,123.002365,197.9835
"93900",1298.2926,121.77188,198.09685
"93901",1298.3059,118.56626,196.1966
"93902",1298.3192,113.98367,192.8192
"93903",1298.3325,108.422066,188.31958
"93904",1298.3458,102.20859,182.9943
"93905",1298.3591,95.66796,177.14769
"93906",1298.3724,89.10536,171.0747
"93907",1298.3857,82.79668,165.05057
"93908",1298.399,76.964066,159.30536
"93909",1298.4124,71.82483,154.07124
"93910",1298.4257,67.5938,149.58475
"93911",1298.439,64.50294,146.10619
"93912",1298.4523,62.796368,143.91533
"93913",1298.4656,62.67918,143.26053
"93914",1298.4789,64.21973,144.2598
"93915",1298.4922,67.25201,146.79895
"93916",1298.5055,71.329216,150.47778
"93917",1298.5188,75.81171,154.68932
"93918",1298.5321,79.991455,158.73817
"93919",1298.5454,83.27764,162.0241
"93920",1298.5587,85.31136,164.16025
"93921",1298.572,86.02182,165.03668
"93922",1298.5853,85.575035,164.77808
"93923",1298.5986,84.266426,163.64369
"93924",1298.6119,82.38407,161.89467
"93925",1298.6252,80.181885,159.76698
"93926",1298.6385,77.83322,157.42401
"93927",1298.6519,75.46258,154.98566
"93928",1298.6652,73.16762,152.5489
"93929",1298.6785,71.028915,150.19669
"93930",1298.6918,69.100174,147.9876
"93931",1298.7051,67.422905,145.96971
"93932",1298.7184,66.021515,144.1753
"93933",1298.7317,64.89113,142.60808
"93934",1298.745,64.01465,141.25945
"93935",1298.7583,63.36034,140.10559
"93936",1298.7716,62.908676,139.13394
"93937",1298.7849,62.635235,138.3264
"93938",1298.7982,62.522926,137.67145
"93939",1298.8115,62.552223,137.15459
"93940",1298.8248,62.69871,136.75583
"93941",1298.8381,62.93065,136.4471
"93942",1298.8514,63.20409,136.18712
"93943",1298.8647,63.487297,135.94545
"93944",1298.878,63.79736,135.73949
"93945",1298.8914,64.33204,135.76784
"93946",1298.9047,65.652855,136.59903
"93947",1298.918,68.72907,139.2269
"93948",1298.9313,74.510414,144.65602
"93949",1298.9446,83.26055,153.2346
"93950",1298.9579,94.15915,164.23509
"93951",1298.9712,105.54604,176.06445
"93952",1298.9845,115.47295,186.78967
"93953",1298.9978,122.36027,194.78552
"93954",1299.0111,125.521935,199.27095
"93955",1299.0244,125.297325,200.4689
"93956",1299.0377,122.57755,199.16467
"93957",1299.051,118.20981,196.12747
"93958",1299.0643,112.723885,191.8356
"93959",1299.0776,106.461586,186.59592
"93960",1299.091,99.7232,180.68445
"93961",1299.1042,92.81392,174.39153
"93962",1299.1176,86.02426,168.0023
"93963",1299.1309,79.62035,161.78665
"93964",1299.1442,73.82437,155.9788
"93965",1299.1575,68.8365,150.79794
"93966",1299.1708,64.852066,146.46465
"93967",1299.1841,62.083466,143.22267
"93968",1299.1974,60.76753,141.34685
"93969",1299.2107,61.082474,141.06078
"93970",1299.224,63.064926,142.45206
"93971",1299.2373,66.512245,145.37015
"93972",1299.2506,70.96788,149.4043
"93973",1299.2639,75.789734,153.9439
"93974",1299.2772,80.26978,158.29237
"93975",1299.2905,83.807434,161.83846
"93976",1299.3038,86.04379,164.1938
"93977",1299.3171,86.890976,165.22986
"93978",1299.3304,86.51255,165.06677
"93979",1299.3438,85.20882,163.96655
"93980",1299.357,83.30694,162.22745
"93981",1299.3704,81.0901,160.11395
"93982",1299.3837,78.751205,157.80913
"93983",1299.397,76.4123,155.4312
"93984",1299.4103,74.1564,153.06319
"93985",1299.4236,72.03967,150.76384
"93986",1299.4369,70.10361,148.57901
"93987",1299.4502,68.38972,146.55586
"93988",1299.4635,66.92973,144.73306
"93989",1299.4768,65.72854,143.12343
"93990",1299.4901,64.778824,141.72774
"93991",1299.5034,64.06592,140.53917
"93992",1299.5167,63.570305,139.54562
"93993",1299.53,63.262684,138.72458
"93994",1299.5433,63.10643,138.04529
"93995",1299.5566,63.077133,137.48807
"93996",1299.57,63.143055,137.02515
"93997",1299.5833,63.267567,136.62288
"93998",1299.5966,63.450676,136.2831
"93999",1299.6099,63.841305,136.15656
"94000",1299.6232,64.903336,136.71362
"94001",1299.6365,67.50347,138.84198
"94002",1299.6498,72.60609,143.55408
"94003",1299.6631,80.68726,151.40419
"94004",1299.6764,91.22453,161.96294
"94005",1299.6897,102.7335,173.82266
"94006",1299.703,113.26101,185.0606
"94007",1299.7163,121.06142,193.9004
"94008",1299.7296,125.18257,199.30473
"94009",1299.7429,125.695274,201.2294
"94010",1299.7562,123.41009,200.3722
"94011",1299.7695,119.257195,197.57587
"94012",1299.7828,113.8909,193.43636
"94013",1299.7961,107.72381,188.32835
"94014",1299.8094,101.05379,182.5247
"94015",1299.8228,94.168915,176.29776
"94016",1299.836,87.345085,169.9167
"94017",1299.8494,80.8362,163.63734
"94018",1299.8627,74.844894,157.67218
"94019",1299.876,69.55428,152.22047
"94020",1299.8893,65.14748,147.48724
"94021",1299.9026,61.82223,143.69786
"94022",1299.9159,59.803158,141.11073
"94023",1299.9292,59.295338,139.97176
"94024",1299.9425,60.384224,140.41362
"94025",1299.9558,62.974594,142.39099
"94026",1299.9691,66.739296,145.62366
"94027",1299.9824,71.16319,149.63316
"94028",1299.9957,75.62127,153.8151
"94029",1300.009,79.520256,157.57724
"94030",1300.0223,82.40116,160.44315
"94031",1300.0356,84.054016,162.17104
"94032",1300.049,84.49592,162.73962
"94033",1300.0623,83.91974,162.30394
"94034",1300.0756,82.59647,161.10316
"94035",1300.0889,80.80202,159.38985
"94036",1300.1022,78.768295,157.3812
"94037",1300.1155,76.654,155.22841
"94038",1300.1288,74.57633,153.04617
"94039",1300.1421,72.60853,150.90887
"94040",1300.1554,70.80675,148.87611
"94041",1300.1687,69.19539,146.97746
"94042",1300.182,67.79401,145.23843
"94043",1300.1953,66.59525,143.65825
"94044",1300.2086,65.61379,142.25789
"94045",1300.2219,64.84474,141.03928
"94046",1300.2352,64.28077,140.00171
"94047",1300.2485,63.89746,139.12717
"94048",1300.2618,63.67529,138.4018
"94049",1300.2751,63.572746,137.78911
"94050",1300.2885,63.553215,137.25623
"94051",1300.3018,63.609367,136.79842
"94052",1300.3151,63.86572,136.54256
"94053",1300.3284,64.74708,136.91972
"94054",1300.3417,67.07378,138.76978
"94055",1300.355,71.81995,143.112
"94056",1300.3683,79.534904,150.57133
"94057",1300.3816,89.847565,160.86946
"94058",1300.3949,101.37118,172.7008
"94059",1300.4082,112.15991,184.1574
"94060",1300.4215,120.36805,193.37053
"94061",1300.4348,124.89937,199.16335
"94062",1300.4481,125.69039,201.35748
"94063",1300.4614,123.48333,200.57825
"94064",1300.4747,119.24986,197.70363
"94065",1300.488,113.73708,193.4174
"94066",1300.5013,107.386894,188.12149
"94067",1300.5146,100.51179,182.10222
"94068",1300.528,93.39498,175.6264
"94069",1300.5413,86.327,168.97702
"94070",1300.5546,79.57885,162.42659
"94071",1300.5679,73.39956,156.23413
"94072",1300.5812,67.984436,150.61275
"94073",1300.5945,63.501945,145.75478
"94074",1300.6078,60.127872,141.86514
"94075",1300.6211,58.052643,139.16891
"94076",1300.6344,57.449608,137.88002
"94077",1300.6477,58.41886,138.14458
"94078",1300.661,60.9189,139.9702
"94079",1300.6743,64.70313,143.15814
"94080",1300.6876,69.33456,147.31154
"94081",1300.7009,74.215,151.85869
"94082",1300.7142,78.72434,156.18726
"94083",1300.7275,82.32548,159.74852
"94084",1300.7408,84.681465,162.17719
"94085",1300.7542,85.69222,163.33424
"94086",1300.7675,85.49203,163.31194
"94087",1300.7808,84.349434,162.34097
"94088",1300.7941,82.56962,160.69708
"94089",1300.8074,80.43336,158.64113
"94090",1300.8207,78.15549,156.3768
"94091",1300.834,75.877625,154.04129
"94092",1300.8473,73.70229,151.73714
"94093",1300.8606,71.69543,149.53346
"94094",1300.8739,69.89853,147.47705
"94095",1300.8872,68.353096,145.61595
"94096",1300.9005,67.071335,143.97023
"94097",1300.9138,66.04837,142.54324
"94098",1300.9271,65.25979,141.31868
"94099",1300.9404,64.67628,140.27454
"94100",1300.9537,64.253914,139.3733
"94101",1300.967,63.96338,138.5907
"94102",1300.9803,63.787594,137.91377
"94103",1300.9937,63.83154,137.45108
"94104",1301.007,64.45167,137.56595
"94105",1301.0203,66.3267,138.9551
"94106",1301.0336,70.30381,142.50491
"94107",1301.0469,76.97627,148.87437
"94108",1301.0602,86.20737,158.01097
"94109",1301.0735,96.94484,168.94243
"94110",1301.0868,107.4699,179.99701
"94111",1301.1001,115.99298,189.37852
"94112",1301.1134,121.2665,195.77682
"94113",1301.1267,122.934006,198.7339
"94114",1301.14,121.45937,198.60095
"94115",1301.1533,117.71664,196.15382
"94116",1301.1666,112.53101,192.14685
"94117",1301.1799,106.476234,187.10867
"94118",1301.1932,99.92096,181.38078
"94119",1301.2065,93.16304,175.24539
"94120",1301.2198,86.468605,168.9623
"94121",1301.2332,80.079346,162.77518
"94122",1301.2465,74.212555,156.91086
"94123",1301.2598,69.05379,151.57123
"94124",1301.2731,64.76906,146.94443
"94125",1301.2864,61.526817,143.22623
"94126",1301.2997,59.495537,140.61766
"94127",1301.313,58.82414,139.3055
"94128",1301.3263,59.57366,139.39328
"94129",1301.3396,61.673306,140.8546
"94130",1301.3529,64.89601,143.5046
"94131",1301.3662,68.858475,146.99506
"94132",1301.3795,73.07973,150.86813
"94133",1301.3928,77.04463,154.61678
"94134",1301.4061,80.323494,157.80328
"94135",1301.4194,82.616005,160.10591
"94136",1301.4327,83.81476,161.38641
"94137",1301.446,83.98566,161.67653
"94138",1301.4594,83.32403,161.13945
"94139",1301.4727,82.06668,159.98598
"94140",1301.486,80.45045,158.43433
"94141",1301.4993,78.65598,156.65395
"94142",1301.5126,76.81758,154.77354
"94143",1301.5259,75.018234,152.87474
"94144",1301.5392,73.31655,151.01738
"94145",1301.5525,71.75647,149.24844
"94146",1301.5658,70.37461,147.60898
"94147",1301.5791,69.188065,146.12164
"94148",1301.5924,68.20416,144.79987
"94149",1301.6057,67.40826,143.63535
"94150",1301.619,66.77104,142.60464
"94151",1301.6323,66.268105,141.68831
"94152",1301.6456,65.90677,140.89786
"94153",1301.6589,65.90433,140.455
"94154",1301.6722,66.87114,140.98132
"94155",1301.6855,69.788666,143.48857
"94156",1301.6989,75.61639,148.9972
"94157",1301.7122,84.644844,157.88866
"94158",1301.7255,96.08301,169.47197
"94159",1301.7388,108.18524,182.0768
"94160",1301.7521,118.84947,193.62181
"94161",1301.7654,126.35447,202.34085
"94162",1301.7787,129.9141,207.34906
"94163",1301.792,129.7969,208.79169
"94164",1301.8053,126.92088,207.47182
"94165",1301.8186,122.26017,204.27737
"94166",1301.8319,116.471504,199.80934
"94167",1301.8452,109.960175,194.43774
"94168",1301.8585,103.04112,188.45496
"94169",1301.8718,96.01953,182.1534
"94170",1301.8851,89.17616,175.81064
"94171",1301.8984,82.77226,169.6935
"94172",1301.9117,77.00069,164.00856
"94173",1301.925,72.010376,158.92451
"94174",1301.9384,67.94049,154.60495
"94175",1301.9517,64.94728,151.23488
"94176",1301.965,63.20409,149.02129
"94177",1301.9783,62.874493,148.16681
"94178",1301.9916,64.01953,148.77667
"94179",1302.0049,66.53178,150.78952
"94180",1302.0182,70.09384,153.93071
"94181",1302.0315,74.212555,157.73985
"94182",1302.0448,78.311745,161.65819
"94183",1302.0581,81.83719,165.13087
"94184",1302.0714,84.368965,167.72006
"94185",1302.0847,85.69955,169.18718
"94186",1302.098,85.8436,169.50934
"94187",1302.1113,84.979324,168.82768
"94188",1302.1246,83.36797,167.37193
"94189",1302.138,81.290306,165.39952
"94190",1302.1512,78.98314,163.13268
"94191",1302.1646,76.61494,160.7327
"94192",1302.1779,74.305336,158.3173
"94193",1302.1912,72.12512,155.95914
"94194",1302.2045,70.132904,153.72083
"94195",1302.2178,68.353096,151.63268
"94196",1302.2311,66.80522,149.72084
"94197",1302.2444,65.496605,147.9999
"94198",1302.2577,64.41993,146.46999
"94199",1302.271,63.548332,145.11151
"94200",1302.2843,62.847637,143.8967
"94201",1302.2976,62.303196,142.81625
"94202",1302.3109,62.010223,141.97026
"94203",1302.3242,62.398415,141.79626
"94204",1302.3375,64.35645,143.20425
"94205",1302.3508,68.96101,147.31995
"94206",1302.3641,76.83711,154.85107
"94207",1302.3774,87.55749,165.47261
"94208",1302.3907,99.62066,177.77196
"94209",1302.404,110.98314,189.74759
"94210",1302.4174,119.74059,199.47327
"94211",1302.4307,124.77486,205.74942
"94212",1302.444,126.049286,208.42307
"94213",1302.4573,124.36469,208.17752
"94214",1302.4706,120.70008,205.8993
"94215",1302.4839,115.74883,202.21994
"94216",1302.4972,109.92355,197.51181
"94217",1302.5105,103.5465,192.06987
"94218",1302.5238,96.92531,186.18451
"94219",1302.5371,90.36027,180.14838
"94220",1302.5504,84.1004,174.21227
"94221",1302.5637,78.365456,168.60545
"94222",1302.577,73.321434,163.51035
"94223",1302.5903,69.12215,159.10236
"94224",1302.6036,65.9263,155.56657
"94225",1302.617,63.916992,153.11746
"94226",1302.6302,63.25536,151.95323
"94227",1302.6436,64.01709,152.1917
"94228",1302.6569,66.10452,153.77966
"94229",1302.6702,69.23201,156.47292
"94230",1302.6835,72.92592,159.83032
"94231",1302.6968,76.6247,163.30804
"94232",1302.7101,79.801025,166.37889
"94233",1302.7234,82.04959,168.62125
"94234",1302.7367,83.18242,169.81813
"94235",1302.75,83.211716,169.94688
"94236",1302.7633,82.31571,169.15125
"94237",1302.7766,80.73853,167.64644
"94238",1302.7899,78.74143,165.67242
