"","Time..s.","PPG.trace","Preprocessed.PPG"
"71524",1000.432,76.65888,161.31976
"71525",1000.4453,78.184784,162.74126
"71526",1000.4586,79.31274,163.81248
"71527",1000.4719,79.886475,164.36475
"71528",1000.4852,79.85962,164.33435
"71529",1000.49854,79.26391,163.73425
"71530",1000.51184,78.19943,162.64677
"71531",1000.52515,76.76875,161.15982
"71532",1000.53845,75.09392,159.384
"71533",1000.55176,73.28481,157.42159
"71534",1000.56506,71.43908,155.366
"71535",1000.57837,69.627525,153.28691
"71536",1000.5917,67.9234,151.25865
"71537",1000.605,66.37064,149.3285
"71538",1000.6183,65.00099,147.53294
"71539",1000.6316,63.824215,145.88745
"71540",1000.6449,62.825665,144.3834
"71541",1000.6582,61.978485,142.99953
"71542",1000.6715,61.255817,141.71368
"71543",1000.6848,60.68452,140.55663
"71544",1000.6981,60.5185,139.787
"71545",1000.7114,61.451134,140.11084
"71546",1000.72473,64.38331,142.46336
"71547",1000.73804,69.822845,147.41489
"71548",1000.75134,77.51827,154.79228
"71549",1000.76465,86.5272,163.72365
"71550",1000.77795,95.458,172.85843
"71551",1000.79126,102.84337,180.72687
"71552",1000.80457,107.70428,186.30164
"71553",1000.8179,109.86496,189.32808
"71554",1000.8312,109.72335,190.11975
"71555",1000.8445,107.78729,189.11255
"71556",1000.8578,104.518196,186.7118
"71557",1000.8711,100.36286,183.32266
"71558",1000.8844,95.73388,179.33002
"71559",1000.8977,90.99504,175.08286
"71560",1000.911,86.42222,170.85362
"71561",1000.9243,82.21561,166.8477
"71562",1000.9376,78.49485,163.19618
"71563",1000.9509,75.36004,160.01433
"71564",1000.96423,72.93324,157.44254
"71565",1000.97754,71.37072,155.65918
"71566",1000.99084,70.79698,154.81578
"71567",1001.00415,71.23888,154.97008
"71568",1001.01746,72.549934,156.00735
"71569",1001.03076,74.424965,157.64957
"71570",1001.04407,76.453804,159.50418
"71571",1001.0574,78.24826,161.18782
"71572",1001.0707,79.52514,162.40996
"71573",1001.084,80.14038,163.01036
"71574",1001.0973,80.08179,162.95615
"71575",1001.1106,79.415276,162.29219
"71576",1001.1239,78.24826,161.1069
"71577",1001.1372,76.71992,159.52382
"71578",1001.1505,74.95232,157.65372
"71579",1001.1638,73.06508,155.60873
"71580",1001.1771,71.16319,153.49013
"71581",1001.1904,69.32723,151.37802
"71582",1001.20374,67.61822,149.33548
"71583",1001.21704,66.075226,147.40556
"71584",1001.23035,64.725105,145.6203
"71585",1001.24365,63.558098,143.97595
"71586",1001.25696,62.552223,142.45627
"71587",1001.27026,61.670864,141.02966
"71588",1001.28357,60.909134,139.69514
"71589",1001.2969,60.36957,138.55899
"71590",1001.3102,60.51362,138.08958
"71591",1001.3235,62.22019,139.18721
"71592",1001.3368,66.302284,142.71368
"71593",1001.3501,72.952774,148.93613
"71594",1001.3634,81.56374,157.32687
"71595",1001.3767,90.92668,166.73868
"71596",1001.39,99.53033,175.68378
"71597",1001.4033,106.03433,182.79811
"71598",1001.4166,109.80148,187.37883
"71599",1001.42993,110.97826,189.48691
"71600",1001.44324,110.065155,189.54187
"71601",1001.45654,107.5407,187.95695
"71602",1001.46985,103.8468,185.1237
"71603",1001.48315,99.39605,181.41817
"71604",1001.49646,94.554665,177.1829
"71605",1001.50977,89.64004,172.72311
"71606",1001.5231,84.90852,168.29285
"71607",1001.5364,80.54566,164.08337
"71608",1001.5497,76.71259,160.26736
"71609",1001.563,73.582664,157.0347
"71610",1001.5763,71.360954,154.61244
"71611",1001.5896,70.25742,153.23894
"71612",1001.6029,70.39414,153.0712
"71613",1001.6162,71.710075,154.08694
"71614",1001.6295,73.90738,156.02519
"71615",1001.6428,76.51484,158.44226
"71616",1001.6561,79.012436,160.83095
"71617",1001.66943,80.970474,162.75812
"71618",1001.68274,82.13016,163.94814
"71619",1001.69604,82.4329,164.31744
"71620",1001.70935,81.96414,163.92471
"71621",1001.72266,80.87038,162.89233
"71622",1001.73596,79.3225,161.37166
"71623",1001.74927,77.48409,159.51207
"71624",1001.7626,75.491875,157.44122
"71625",1001.7759,73.46548,155.27394
"71626",1001.7892,71.505,153.10925
"71627",1001.8025,69.67635,151.01514
"71628",1001.8158,68.0235,149.03967
"71629",1001.8291,66.55863,147.20055
"71630",1001.8424,65.27932,145.50119
"71631",1001.8557,64.15625,143.9181
"71632",1001.869,63.174793,142.44153
"71633",1001.8823,62.40574,141.14668
"71634",1001.8956,62.24216,140.43329
"71635",1001.90894,63.487297,141.12349
"71636",1001.92224,66.99321,144.11337
"71637",1001.93555,73.04555,149.75925
"71638",1001.94885,81.15602,157.65239
"71639",1001.96216,90.20645,166.73895
"71640",1001.97546,98.73197,175.58342
"71641",1001.9888,105.35561,182.79243
"71642",1002.0021,109.34249,187.57167
"71643",1002.0154,110.751205,189.89734
"71644",1002.0287,110.05539,190.1625
"71645",1002.042,107.74822,188.79457
"71646",1002.0553,104.25208,186.16556
"71647",1002.0686,99.96979,182.64114
"71648",1002.0819,95.26269,178.5581
"71649",1002.0952,90.43595,174.20833
"71650",1002.1085,85.7264,169.8249
"71651",1002.1218,81.322044,165.5995
"71652",1002.13513,77.38155,161.70033
"71653",1002.14844,74.0856,158.32256
"71654",1002.16174,71.65148,155.70361
"71655",1002.17505,70.3209,154.11214
"71656",1002.18835,70.2501,153.73886
"71657",1002.20166,71.41711,154.60118
"71658",1002.21497,73.55825,156.4741
"71659",1002.2283,76.21454,158.9291
"71660",1002.2416,78.84886,161.44511
"71661",1002.2549,80.990005,163.55028
"71662",1002.2682,82.34745,164.93866
"71663",1002.2815,82.83086,165.49542
"71664",1002.2948,82.50126,165.25429
"71665",1002.3081,81.514915,164.34612
"71666",1002.3214,80.03784,162.91638
"71667",1002.3347,78.23605,161.11578
"71668",1002.348,76.25117,159.07578
"71669",1002.3613,74.212555,156.92001
"71670",1002.37463,72.22034,154.74693
"71671",1002.38794,70.3502,152.63368
"71672",1002.40125,68.64362,150.62555
"71673",1002.41455,67.11528,148.74232
"71674",1002.42786,65.760284,146.98468
"71675",1002.44116,64.568855,145.34827
"71676",1002.45447,63.59716,143.89435
"71677",1002.4678,63.16747,142.95207
"71678",1002.4811,64.02197,143.28056
"71679",1002.4944,66.99321,145.75249
"71680",1002.5077,72.45716,150.80998
"71681",1002.521,80.03052,158.14763
"71682",1002.5343,88.71229,166.83035
"71683",1002.5476,97.10353,175.49385
"71684",1002.5609,103.83215,182.75696
"71685",1002.5742,108.07294,187.7425
"71686",1002.5875,109.78439,190.33122
"71687",1002.6008,109.37911,190.8567
"71688",1002.61414,107.34051,189.73619
"71689",1002.62744,104.112915,187.36299
"71690",1002.64075,100.11627,184.11987
"71691",1002.65405,95.729,180.36124
"71692",1002.66736,91.2636,176.38737
"71693",1002.68066,86.956894,172.43265
"71694",1002.694,82.96269,168.65585
"71695",1002.7073,79.3933,165.17905
"71696",1002.7206,76.37568,162.14246
"71697",1002.7339,74.07095,159.72447
"71698",1002.7472,72.66956,158.1378
"71699",1002.7605,72.30335,157.54251
"71700",1002.7738,72.96498,157.96362
"71701",1002.7871,74.45182,159.23062
"71702",1002.8004,76.40009,161.00551
"71703",1002.8137,78.37766,162.87057
"71704",1002.827,79.99634,164.43855
"71705",1002.84033,81.0193,165.4614
"71706",1002.85364,81.341576,165.81552
"71707",1002.86694,80.99733,165.5132
"71708",1002.88025,80.076904,164.62395
"71709",1002.89355,78.70725,163.2567
"71710",1002.90686,77.0251,161.53415
"71711",1002.92017,75.16716,159.58324
"71712",1002.9335,73.25063,157.51569
"71713",1002.9468,71.37072,155.42485
"71714",1002.9601,69.60311,153.38757
"71715",1002.9734,67.98688,151.44644
"71716",1002.9867,66.54398,149.62814
"71717",1003,65.269554,147.93321
"71718",1003.0133,64.1709,146.37424
"71719",1003.0266,63.416496,145.12518
"71720",1003.0399,63.533684,144.72414
"71721",1003.0532,65.30129,145.97717
"71722",1003.0665,69.2662,149.48274
"71723",1003.07983,75.36492,155.24603
"71724",1003.09314,82.90166,162.63792
"71725",1003.10645,90.736244,170.56319
"71726",1003.11975,97.56252,177.72498
"71727",1003.13306,102.39658,183.10786
"71728",1003.14636,104.918594,186.32977
"71729",1003.15967,105.38003,187.56992
"71730",1003.173,104.20813,187.19115
"71731",1003.1863,101.822845,185.56236
"71732",1003.1996,98.631874,183.05336
"71733",1003.2129,95.00633,180.01007
"71734",1003.2262,91.27093,176.74362
"71735",1003.2395,87.657585,173.4825
"71736",1003.2528,84.317696,170.38191
"71737",1003.2661,81.324486,167.52364
"71738",1003.2794,78.729225,164.96977
"71739",1003.2927,76.59785,162.79868
"71740",1003.306,75.04265,161.13716
"71741",1003.31934,74.161285,160.10088
"71742",1003.33264,74.002594,159.75972
"71743",1003.34595,74.50797,160.07768
"71744",1003.35925,75.494316,160.8924
"71745",1003.37256,76.69062,161.94789
"71746",1003.38586,77.806366,162.96022
"71747",1003.3992,78.61448,163.69978
"71748",1003.4125,78.98314,164.02515
"71749",1003.4258,78.86351,163.87373
"71750",1003.4391,78.277565,163.25227
"71751",1003.4524,77.30099,162.22186
"71752",1003.4657,76.03143,160.86797
"71753",1003.479,74.5568,159.26932
"71754",1003.4923,72.96742,157.50984
"71755",1003.5056,71.35119,155.67384
"71756",1003.5189,69.77646,153.82884
"71757",1003.5322,68.2945,152.0274
"71758",1003.54553,66.94438,150.3115
"71759",1003.55884,65.738304,148.69743
"71760",1003.57214,64.68604,147.1995
"71761",1003.58545,63.89746,145.93234
"71762",1003.59875,63.772945,145.30463
"71763",1003.61206,64.94728,145.97186
"71764",1003.62537,67.94293,148.49712
"71765",1003.6387,72.79408,152.97148
"71766",1003.652,79.012436,158.96465
"71767",1003.6653,85.694664,165.61601
"71768",1003.6786,91.734795,171.8341
"71769",1003.6919,96.22705,176.69307
"71770",1003.7052,98.795456,179.76857
"71771",1003.7185,99.58648,181.14696
"71772",1003.7318,98.9395,181.11206
"71773",1003.7451,97.21828,179.9827
"71774",1003.7584,94.77196,178.07445
"71775",1003.7717,91.94232,175.70644
"71776",1003.78503,89.005264,173.14258
"71777",1003.79834,86.17807,170.5968
"71778",1003.81165,83.59258,168.20438
"71779",1003.82495,81.30007,166.02414
"71780",1003.83826,79.29565,164.06035
"71781",1003.85156,77.58175,162.32443
"71782",1003.86487,76.19501,160.86212
"71783",1003.8782,75.21355,159.76175
"71784",1003.8915,74.70084,159.09947
"71785",1003.9048,74.68131,158.91434
"71786",1003.9181,75.08659,159.15341
"71787",1003.9314,75.76288,159.67615
"71788",1003.9447,76.49775,160.27861
"71789",1003.958,77.103226,160.77464
"71790",1003.9713,77.435265,161.01616
"71791",1003.9846,77.420616,160.92136
"71792",1003.9979,77.04219,160.46233
"71793",1004.0112,76.32929,159.657
"71794",1004.02454,75.34783,158.56082
"71795",1004.03784,74.17105,157.23866
"71796",1004.05115,72.884415,155.76987
"71797",1004.06445,71.55627,154.21936
"71798",1004.07776,70.259865,152.65909
"71799",1004.09106,69.04402,151.13887
"71800",1004.1044,67.947815,149.70029
"71801",1004.1177,66.981,148.35684
"71802",1004.131,66.14847,147.11746
"71803",1004.1443,65.46731,146.00345
"71804",1004.1576,65.091324,145.17332
"71805",1004.1709,65.42336,145.03946
"71806",1004.1842,67.01274,146.17332
"71807",1004.1975,70.19394,148.94867
"71808",1004.2108,74.85954,153.30783
"71809",1004.2241,80.465096,158.75275
"71810",1004.2374,86.14389,164.44608
"71811",1004.25073,90.95598,169.45016
"71812",1004.26404,94.23483,173.0714
"71813",1004.27734,95.833984,175.11539
"71814",1004.29065,95.98047,175.75668
"71815",1004.30396,95.02586,175.30147
"71816",1004.31726,93.314415,174.05957
"71817",1004.33057,91.16594,172.32716
"71818",1004.3439,88.85634,170.3665
"71819",1004.3572,86.588234,168.37515
"71820",1004.3705,84.5008,166.4936
"71821",1004.3838,82.652626,164.78609
"71822",1004.3971,81.02663,163.24298
"71823",1004.4104,79.57885,161.82729
"71824",1004.4237,78.294655,160.52992
"71825",1004.437,77.205765,159.38774
"71826",1004.4503,76.385445,158.4801
"71827",1004.4636,75.911804,157.89351
"71828",1004.4769,75.8288,157.68274
"71829",1004.49023,76.102234,157.82582
"71830",1004.50354,76.61494,158.21672
"71831",1004.51685,77.20088,158.69688
"71832",1004.53015,77.696495,159.10503
"71833",1004.54346,77.9675,159.30405
"71834",1004.55676,77.945526,159.21855
"71835",1004.57007,77.61349,158.82231
"71836",1004.5834,76.99092,158.12517
"71837",1004.5967,76.13641,157.17662
"71838",1004.61,75.11345,156.03291
"71839",1004.6233,73.987946,154.7547
"71840",1004.6366,72.8185,153.39737
"71841",1004.6499,71.673454,152.02791
"71842",1004.6632,70.61875,150.713
"71843",1004.6765,69.70809,149.50917
"71844",1004.6898,68.97322,148.45268
"71845",1004.7031,68.421455,147.55634
"71846",1004.71643,68.03815,146.8112
"71847",1004.72974,67.7818,146.18105
"71848",1004.74304,67.632866,145.6503
"71849",1004.75635,67.718315,145.34927
"71850",1004.76965,68.421455,145.66861
"71851",1004.78296,70.237885,147.12321
"71852",1004.79626,73.45327,150.03354
"71853",1004.8096,77.93576,154.31145
"71854",1004.8229,83.14336,159.45453
"71855",1004.8362,88.24597,164.65538
"71856",1004.8495,92.38911,169.0562
"71857",1004.8628,95.011215,172.06546
"71858",1004.8761,96.04883,173.57217
"71859",1004.8894,95.77539,173.80026
"71860",1004.9027,94.554665,173.07251
"71861",1004.916,92.74067,171.71335
"71862",1004.9293,90.64835,170.01918
"71863",1004.9426,88.516975,168.22057
"71864",1004.95593,86.522316,166.49207
"71865",1004.96924,84.77425,164.94781
"71866",1004.98254,83.284966,163.60773
"71867",1004.99585,82.01541,162.44083
"71868",1005.00916,80.89723,161.38564
"71869",1005.02246,79.88159,160.39804
"71870",1005.03577,78.98314,159.49588
"71871",1005.0491,78.2678,158.74876
"71872",1005.0624,77.81857,158.2454
"71873",1005.0757,77.69161,158.05028
"71874",1005.089,77.8674,158.15393
"71875",1005.1023,78.26292,158.4828
"71876",1005.1156,78.73167,158.89726
"71877",1005.1289,79.13695,159.26291
"71878",1005.1422,79.361565,159.46056
"71879",1005.1555,79.32983,159.40886
"71880",1005.1688,79.00755,159.06564
"71881",1005.1821,78.41428,158.44136
"71882",1005.19543,77.591515,157.56903
"71883",1005.20874,76.610054,156.5123
"71884",1005.22205,75.53338,155.32968
"71885",1005.23535,74.42985,154.08656
"71886",1005.24866,73.35561,152.83826
"71887",1005.26196,72.36439,151.63939
"71888",1005.27527,71.502556,150.53894
"71889",1005.2886,70.81651,149.58736
"71890",1005.3019,70.33799,148.82185
"71891",1005.3152,70.064545,148.24648
"71892",1005.3285,69.979095,147.85054
"71893",1005.3418,70.03769,147.59598
"71894",1005.3551,70.18906,147.43602
"71895",1005.3684,70.39658,147.33696
"71896",1005.3817,70.63584,147.27611
"71897",1005.395,70.887314,147.23495
"71898",1005.4083,71.14366,147.20653
"71899",1005.42163,71.39269,147.1788
"71900",1005.43494,71.60754,147.12466
"71901",1005.44824,71.763794,147.01866
"71902",1005.46155,71.8468,146.84428
"71903",1005.47485,71.87854,146.62123
"71904",1005.48816,72.076294,146.56519
"71905",1005.50146,72.90883,147.1501
"71906",1005.5148,74.90349,148.92316
"71907",1005.5281,78.29954,152.15994
"71908",1005.5414,82.896774,156.70404
"71909",1005.5547,88.08728,161.98508
"71910",1005.568,92.999466,167.15
"71911",1005.5813,96.781265,171.33803
"71912",1005.5946,98.96147,174.04265
"71913",1005.6079,99.562065,175.2358
"71914",1005.6212,98.90532,175.19037
"71915",1005.6345,97.394066,174.26991
"71916",1005.6478,95.40917,172.82858
"71917",1005.66113,93.260704,171.16165
"71918",1005.67444,91.205,169.52034
"71919",1005.68774,89.40078,168.06627
"71920",1005.70105,87.93103,166.89029
"71921",1005.71436,86.768906,165.97601
"71922",1005.72766,85.83139,165.25003
"71923",1005.74097,84.99397,164.59485
"71924",1005.7543,84.17609,163.93303
"71925",1005.7676,83.370415,163.25786
"71926",1005.7809,82.62333,162.6161
"71927",1005.7942,82.022736,162.09749
"71928",1005.8075,81.634544,161.7725
"71929",1005.8208,81.47341,161.66246
"71930",1005.8341,81.48318,161.71828
"71931",1005.8474,81.57839,161.85985
"71932",1005.8607,81.65652,161.9873
"71933",1005.874,81.62722,162.00978
"71934",1005.8873,81.427025,161.86044
"71935",1005.90063,81.02907,161.50708
"71936",1005.91394,80.43336,160.94353
"71937",1005.92725,79.66674,160.19046
"71938",1005.94055,78.77562,159.28893
"71939",1005.95386,77.80881,158.28384
"71940",1005.96716,76.8127,157.21925
"71941",1005.98047,75.83612,156.14307
"71942",1005.9938,74.91814,155.09496
"71943",1006.0071,74.10025,154.11826
"71944",1006.0204,73.409325,153.24297
"71945",1006.0337,72.86,152.48769
"71946",1006.047,72.45716,151.86172
"71947",1006.0603,72.1886,151.35745
"71948",1006.0736,72.03235,150.95709
"71949",1006.0869,71.96643,150.64218
"71950",1006.1002,71.96399,150.38869
"71951",1006.1135,72.00061,150.17418
"71952",1006.12683,72.06409,149.98767
"71953",1006.14014,72.14221,149.8178
"71954",1006.15344,72.22034,149.65036
"71955",1006.16675,72.29603,149.48294
"71956",1006.18005,72.359505,149.30566
"71957",1006.19336,72.40589,149.11328
"71958",1006.20667,72.42298,148.89305
"71959",1006.22,72.41566,148.64894
"71960",1006.2333,72.3888,148.38507
"71961",1006.2466,72.34486,148.10327
"71962",1006.2599,72.27894,147.79813
"71963",1006.2732,72.20813,147.48604
"71964",1006.2865,72.13245,147.16685
"71965",1006.2998,72.05676,146.8453
"71966",1006.3131,71.9762,146.51651
"71967",1006.3264,71.888306,146.17787
"71968",1006.3397,71.78577,145.82184
"71969",1006.353,71.66125,145.44063
"71970",1006.36633,71.58556,145.10435
"71971",1006.37964,71.87854,145.13438
"71972",1006.39294,73.11879,146.12083
"71973",1006.40625,75.8288,148.6158
"71974",1006.41956,80.12329,152.77994
"71975",1006.43286,85.61898,158.27948
"71976",1006.44617,91.52239,164.35849
"71977",1006.4595,96.82765,170.02382
"71978",1006.4728,100.67536,174.3974
"71979",1006.4861,102.70176,177.0699
"71980",1006.4994,103.07774,178.15532
"71981",1006.5127,102.19638,177.99513
"71982",1006.526,100.472725,176.96512
"71983",1006.5393,98.28275,175.41492
"71984",1006.5526,95.94141,173.64491
"71985",1006.5659,93.695274,171.89694
"71986",1006.5792,91.71526,170.34491
"71987",1006.5925,90.09659,169.09233
"71988",1006.60583,88.831924,168.14319
"71989",1006.61914,87.833374,167.42064
"71990",1006.63245,86.99107,166.82314
"71991",1006.64575,86.21225,166.26279
"71992",1006.65906,85.45052,165.69519
"71993",1006.67236,84.72541,165.14041
"71994",1006.68567,84.09308,164.65575
"71995",1006.699,83.60967,164.30025
"71996",1006.7123,83.28741,164.09079
"71997",1006.7256,83.09941,164.00552
"71998",1006.7389,82.98711,163.99008
"71999",1006.7522,82.87724,163.97357
"72000",1006.7655,82.70634,163.89258
"72001",1006.7788,82.41337,163.68419
"72002",1006.7921,81.971466,163.3177
"72003",1006.8054,81.3782,162.78604
"72004",1006.8187,80.638435,162.08936
"72005",1006.83203,79.77417,161.24504
"72006",1006.84534,78.819565,160.28339
"72007",1006.85864,77.81369,159.24062
"72008",1006.87195,76.80049,158.15909
"72009",1006.88525,75.82391,157.08252
"72010",1006.89856,74.92546,156.05356
"72011",1006.91187,74.13687,155.10638
"72012",1006.9252,73.480125,154.26642
"72013",1006.9385,72.96254,153.54509
"72014",1006.9518,72.57923,152.94186
"72015",1006.9651,72.32288,152.45361
"72016",1006.9784,72.17395,152.06477
"72017",1006.9917,72.10803,151.75429
"72018",1007.005,72.10559,151.50522
"72019",1007.0183,72.149536,151.30246
"72020",1007.0316,72.215454,151.12305
"72021",1007.0449,72.27894,150.94327
"72022",1007.0582,72.33265,150.75569
"72023",1007.07153,72.36439,150.54782
"72024",1007.08484,72.36683,150.31165
"72025",1007.09814,72.33997,150.04625
"72026",1007.11145,72.28626,149.75316
"72027",1007.12476,72.21301,149.43886
"72028",1007.13806,72.1178,149.1003
"72029",1007.15137,72.007935,148.74411
"72030",1007.1647,71.888306,148.37473
"72031",1007.178,71.76868,148.0016
"72032",1007.1913,71.64904,147.62474
"72033",1007.2046,71.534294,147.24902
"72034",1007.2179,71.4342,146.88437
"72035",1007.2312,71.33166,146.51414
"72036",1007.2445,71.2169,146.12851
"72037",1007.2578,71.09239,145.72952
"72038",1007.2711,70.963,145.32176
"72039",1007.2844,70.91661,144.99297
"72040",1007.2977,71.292595,145.0851
"72041",1007.31104,72.68177,146.20216
"72042",1007.32434,75.57488,148.86658
"72043",1007.33765,80.02319,153.1766
"72044",1007.35095,85.59457,158.7487
"72045",1007.36426,91.49798,164.82695
"72046",1007.37756,96.74464,170.43292
"72047",1007.39087,100.526436,174.73799
"72048",1007.4042,102.52598,177.37898
"72049",1007.4175,102.93126,178.4882
"72050",1007.4308,102.115814,178.38936
"72051",1007.4441,100.44587,177.41054
"72052",1007.4574,98.26322,175.86682
"72053",1007.4707,95.86572,174.04005
"72054",1007.484,93.5024,172.17255
"72055",1007.4973,91.35638,170.44847
"72056",1007.5106,89.549706,168.99669
"72057",1007.5239,88.12146,167.86687
"72058",1007.53723,87.03502,167.03423
"72059",1007.55054,86.18051,166.39957
"72060",1007.56384,85.46273,165.87492
"72061",1007.57715,84.81575,165.39865
"72062",1007.59045,84.2298,164.9632
"72063",1007.60376,83.73174,164.59732
"72064",1007.61707,83.36309,164.34529
"72065",1007.6304,83.1458,164.2331
"72066",1007.6437,83.053024,164.23863
"72067",1007.657,83.02617,164.30719
"72068",1007.6703,82.99199,164.36758
"72069",1007.6836,82.879684,164.34879
"72070",1007.6969,82.64042,164.19951
"72071",1007.7102,82.23514,163.87674
"72072",1007.7235,81.65652,163.36797
"72073",1007.7368,80.91432,162.67754
"72074",1007.7501,80.03784,161.82964
"72075",1007.7634,79.06615,160.85913
"72076",1007.77673,78.03342,159.79721
"72077",1007.79004,76.978714,158.68105
"72078",1007.80334,75.948425,157.55634
"72079",1007.81665,74.97185,156.45314
"72080",1007.82996,74.090485,155.41464
"72081",1007.84326,73.321434,154.46092
"72082",1007.85657,72.689095,153.61987
"72083",1007.8699,72.19104,152.89336
"72084",1007.8832,71.82727,152.28555
"72085",1007.8965,71.59045,151.79333
"72086",1007.9098,71.468376,151.40846
"72087",1007.9231,71.4342,151.10767
"72088",1007.9364,71.47082,150.8766
"72089",1007.9497,71.551384,150.69063
"72090",1007.963,71.65392,150.52914
"72091",1007.9763,71.75647,150.37088
"72092",1007.9896,71.84436,150.20116
"72093",1008.0029,71.91028,150.0122
"72094",1008.01624,71.94934,149.79846
"72095",1008.02954,71.96887,149.5664
"72096",1008.04285,71.96399,149.31055
"72097",1008.05615,71.93713,149.03256
"72098",1008.06946,71.89075,148.7342
"72099",1008.08276,71.82239,148.41243
"72100",1008.09607,71.73449,148.06898
"72101",1008.1094,71.63439,147.71059
"72102",1008.1227,71.536736,147.3515
"72103",1008.136,71.4464,146.99669
"72104",1008.1493,71.35119,146.63417
"72105",1008.1626,71.24376,146.25647
"72106",1008.1759,71.11925,145.85832
"72107",1008.1892,70.977646,145.4392
"72108",1008.2025,70.855576,145.03517
"72109",1008.2158,70.98253,144.87636
"72110",1008.2291,71.888306,145.50034
"72111",1008.24243,74.161285,147.51982
"72112",1008.25574,78.0798,151.25587
"72113",1008.26904,83.407036,156.5231
"72114",1008.28235,89.478905,162.70145
"72115",1008.29565,95.35058,168.86934
"72116",1008.30896,100.065,174.06348
"72117",1008.32227,103.06554,177.69104
"72118",1008.3356,104.33753,179.68384
"72119",1008.3489,104.1886,180.29546
"72120",1008.3622,102.963,179.82574
"72121",1008.3755,101.00008,178.58041
"72122",1008.3888,98.597694,176.83429
"72123",1008.4021,96.02197,174.83975
"72124",1008.4154,93.49264,172.8111
"72125",1008.4287,91.19035,170.93045
"72126",1008.442,89.215225,169.30502
"72127",1008.4553,87.606316,167.98409
"72128",1008.4686,86.327,166.94247
"72129",1008.48193,85.30648,166.11967
"72130",1008.49524,84.48371,165.46274
"72131",1008.50854,83.83917,164.95831
"72132",1008.52185,83.37774,164.61685
"72133",1008.53516,83.11406,164.45872
"72134",1008.54846,83.053024,164.49501
"72135",1008.56177,83.15556,164.69296
"72136",1008.5751,83.336235,164.97224
"72137",1008.5884,83.49981,165.24008
"72138",1008.6017,83.563286,165.41293
"72139",1008.615,83.46807,165.42908
"72140",1008.6283,83.17021,165.2396
"72141",1008.6416,82.66483,164.83328
"72142",1008.6549,81.9617,164.21342
"72143",1008.6682,81.09743,163.41046
"72144",1008.6815,80.10864,162.45598
"72145",1008.6948,79.03441,161.38513
"72146",1008.7081,77.92111,160.24165
"72147",1008.72144,76.80049,159.05606
"72148",1008.73474,75.7116,157.86719
"72149",1008.74805,74.683754,156.70532
"72150",1008.76135,73.741356,155.59679
"72151",1008.77466,72.91127,154.57112
"72152",1008.78796,72.21057,153.6489
"72153",1008.8013,71.641716,152.83662
"72154",1008.8146,71.2047,152.13841
"72155",1008.8279,70.89708,151.55594
"72156",1008.8412,70.711525,151.08592
"72157",1008.8545,70.626076,150.7102
"72158",1008.8678,70.623634,150.41483
"72159",1008.8811,70.68467,150.18285
"72160",1008.8944,70.79454,150.00162
"72161",1008.9077,70.93126,149.85066
"72162",1008.921,71.08263,149.71863
"72163",1008.9343,71.23399,149.59132
"72164",1008.94763,71.3756,149.459
"72165",1008.96094,71.49279,149.30667
"72166",1008.97424,71.58312,149.13115
"72167",1008.98755,71.639275,148.92427
"72168",1009.00085,71.66613,148.68985
"72169",1009.01416,71.66613,148.42941
"72170",1009.02747,71.63683,148.13968
"72171",1009.0408,71.58556,147.82706
"72172",1009.0541,71.51232,147.49086
"72173",1009.0674,71.412224,147.12552
"72174",1009.0807,71.28039,146.72531
"72175",1009.094,71.12169,146.29413
"72176",1009.1073,70.98253,145.87752
"72177",1009.1206,71.08263,145.69582
"72178",1009.1339,71.9469,146.28142
"72179",1009.1472,74.17105,148.2539
"72180",1009.1605,78.04562,151.94632
"72181",1009.1738,83.35577,157.19539
"72182",1009.18713,89.44961,163.3941
"72183",1009.20044,95.38964,169.62944
"72184",1009.21375,100.23102,174.95175
"72185",1009.22705,103.395134,178.7481
"72186",1009.24036,104.83559,180.91965
"72187",1009.25366,104.82338,181.68355
"72188",1009.26697,103.6881,181.324
"72189",1009.2803,101.73739,180.11354
"72190",1009.2936,99.25689,178.31233
"72191",1009.3069,96.50538,176.1626
"72192",1009.3202,93.712364,173.88538
"72193",1009.3335,91.06096,171.66248
"72194",1009.3468,88.68055,169.62772
"72195",1009.3601,86.64683,167.86526
"72196",1009.3734,84.96712,166.39326
"72197",1009.3867,83.617,165.19836
"72198",1009.4,82.581825,164.27623
"72199",1009.4133,81.866486,163.64157
"72200",1009.42664,81.49294,163.32635
"72201",1009.43994,81.46609,163.34616
"72202",1009.45325,81.74685,163.67274
"72203",1009.46655,82.2449,164.22539
"72204",1009.47986,82.82109,164.87173
"72205",1009.49316,83.32647,165.46527
"72206",1009.5065,83.64385,165.88661
"72207",1009.5198,83.70733,166.06396
"72208",1009.5331,83.48272,165.95522
"72209",1009.5464,82.97978,165.56111
"72210",1009.5597,82.23514,164.90959
"72211",1009.573,81.30007,164.04437
"72212",1009.5863,80.22827,163.0132
"72213",1009.5996,79.06615,161.85822
"72214",1009.6129,77.857635,160.62051
"72215",1009.6262,76.63691,159.33284
"72216",1009.6395,75.43816,158.02899
"72217",1009.65283,74.29313,156.7414
"72218",1009.66614,73.23598,155.5059
"72219",1009.67944,72.288704,154.34726
"72220",1009.69275,71.46349,153.28107
"72221",1009.70605,70.77501,152.32582
"72222",1009.71936,70.223236,151.48576
"72223",1009.73267,69.81308,150.77008
"72224",1009.746,69.539635,150.1783
"72225",1009.7593,69.39315,149.70493
"72226",1009.7726,69.35165,149.33195
"72227",1009.7859,69.39803,149.04558
"72228",1009.7992,69.51522,148.83145
"72229",1009.8125,69.68124,148.66982
"72230",1009.8258,69.879,148.54512
"72231",1009.8391,70.09628,148.44612
"72232",1009.8524,70.31846,148.35881
"72233",1009.8657,70.53086,148.26866
"72234",1009.879,70.7335,148.17538
"72235",1009.89233,70.906845,148.05916
"72236",1009.90564,71.05577,147.92392
"72237",1009.91895,71.168076,147.75671
"72238",1009.93225,71.24132,147.55396
"72239",1009.94556,71.26574,147.30467
"72240",1009.95886,71.23888,147.00487
"72241",1009.97217,71.15587,146.64807
"72242",1009.9855,71.02159,146.23741
"72243",1009.9988,70.92149,145.85674
"72244",1010.0121,71.2047,145.85623
"72245",1010.0254,72.49378,146.87047
"72246",1010.0387,75.34051,149.48262
"72247",1010.052,79.87427,153.87077
"72248",1010.0653,85.69955,159.69212
"72249",1010.0786,92.02045,166.19113
"72250",1010.0919,97.82864,172.37497
"72251",1010.1052,102.24765,177.35112
"72252",1010.1185,104.89418,180.69289
"72253",1010.13184,105.863434,182.44008
"72254",1010.14514,105.46792,182.8528
"72255",1010.15845,104.02258,182.20334
"72256",1010.17175,101.8082,180.73965
"72257",1010.18506,99.088425,178.70139
"72258",1010.19836,96.08545,176.29492
"72259",1010.2117,92.99214,173.70428
"72260",1010.225,89.97696,171.09511
"72261",1010.2383,87.1693,168.59923
"72262",1010.2516,84.65705,166.31102
"72263",1010.2649,82.49882,164.29832
"72264",1010.2782,80.73365,162.61125
"72265",1010.2915,79.41772,161.31825
"72266",1010.3048,78.63645,160.51878
"72267",1010.3181,78.45335,160.29306
"72268",1010.3314,78.8806,160.67198
"72269",1010.3447,79.82788,161.58427
"72270",1010.35803,81.09987,162.85089
"72271",1010.37134,82.43046,164.21585
"72272",1010.38464,83.57061,165.43196
"72273",1010.39795,84.34455,166.31749
"72274",1010.41125,84.661934,166.77065
"72275",1010.42456,84.52033,166.77473
"72276",1010.43787,83.96857,166.36423
"72277",1010.4512,83.09209,165.61177
"72278",1010.4645,81.969025,164.58534
"72279",1010.4778,80.69215,163.37
"72280",1010.4911,79.33227,162.03175
"72281",1010.5044,77.93576,160.61438
"72282",1010.5177,76.53681,159.15092
"72283",1010.531,75.176926,157.68282
"72284",1010.5443,73.89029,156.24545
"72285",1010.5576,72.7013,154.86554
"72286",1010.5709,71.639275,153.57542
"72287",1010.5842,70.71397,152.38884
"72288",1010.59753,69.93027,151.31496
"72289",1010.61084,69.278404,150.34842
"72290",1010.62415,68.76326,149.49823
"72291",1010.63745,68.37263,148.75645
"72292",1010.65076,68.10895,148.12943
"72293",1010.66406,67.96002,147.6089
"72294",1010.67737,67.911194,147.18382
"72295",1010.6907,67.947815,146.84267
"72296",1010.704,68.05768,146.5759
"72297",1010.7173,68.22125,146.36627
"72298",1010.7306,68.44587,146.22281
"72299",1010.7439,68.716866,146.13274
"72300",1010.7572,69.02449,146.08777
"72301",1010.7705,69.349205,146.0695
"72302",1010.7838,69.66659,146.05405
"72303",1010.7971,69.942474,146.00702
"72304",1010.8104,70.14023,145.89047
"72305",1010.8237,70.2501,145.69223
"72306",1010.83704,70.294044,145.43149
"72307",1010.85034,70.4918,145.32593
"72308",1010.86365,71.35119,145.88818
"72309",1010.87695,73.52163,147.78835
"72310",1010.89026,77.35958,151.42384
"72311",1010.90356,82.701454,156.6832
"72312",1010.9169,88.90028,162.96645
"72313",1010.9302,95.0161,169.3604
"72314",1010.9435,100.07721,174.89076
"72315",1010.9568,103.45617,178.89714
"72316",1010.9701,105.074844,181.24883
"72317",1010.9834,105.214005,182.17157
"72318",1010.9967,104.20325,181.94875
"72319",1011.01,102.3209,180.82275
"72320",1011.0233,99.79645,178.99583
"72321",1011.0366,96.82277,176.6408
"72322",1011.0499,93.56588,173.9096
"72323",1011.06323,90.16495,170.9326
"72324",1011.07654,86.75426,167.83957
"72325",1011.08984,83.458305,164.75468
"72326",1011.10315,80.37232,161.77678
"72327",1011.11646,77.61349,159.02959
"72328",1011.12976,75.32098,156.66249
"72329",1011.14307,73.68032,154.87561
"72330",1011.1564,72.8893,153.8871
"72331",1011.1697,73.10658,153.88217
"72332",1011.183,74.3444,154.90457
"72333",1011.1963,76.40742,156.79085
"72334",1011.2096,78.907455,159.17862
"72335",1011.2229,81.38308,161.6201
"72336",1011.2362,83.42657,163.70682
"72337",1011.2495,84.79378,165.1811
"72338",1011.2628,85.42123,165.95836
"72339",1011.2761,85.384605,166.09116
"72340",1011.2894,84.83284,165.70766
"72341",1011.30273,83.90265,164.9285
"72342",1011.31604,82.701454,163.84926
"72343",1011.32935,81.30984,162.54207
"72344",1011.34265,79.78882,161.06198
"72345",1011.35596,78.19943,159.466
"72346",1011.36926,76.59052,157.80083
"72347",1011.38257,75.01335,156.11711
"72348",1011.3959,73.50698,154.45491
"72349",1011.4092,72.112915,152.85794
"72350",1011.4225,70.8629,151.36145
"72351",1011.4358,69.7789,149.99191
"72352",1011.4491,68.87312,148.76672
"72353",1011.4624,68.14557,147.69145
"72354",1011.4757,67.59136,146.7668
"72355",1011.489,67.19829,145.98596
"72356",1011.5023,66.951706,145.33932
"72357",1011.5156,66.84184,144.8217
"72358",1011.52893,66.863815,144.43248
"72359",1011.54224,67.0103,144.16846
"72360",1011.55554,67.266655,144.01889
"72361",1011.56885,67.62066,143.97498
"72362",1011.58215,68.04791,144.01538
"72363",1011.59546,68.51911,144.11308
"72364",1011.60876,69.00008,144.23528
"72365",1011.6221,69.4786,144.37006
"72366",1011.6354,70.05966,144.62233
"72367",1011.6487,71.15831,145.41034
"72368",1011.662,73.4728,147.44853
"72369",1011.6753,77.54757,151.31932
"72370",1011.6886,83.372856,157.06796
"72371",1011.7019,90.3798,164.18031
"72372",1011.7152,97.60647,171.73135
"72373",1011.7285,103.95422,178.6293
"72374",1011.7418,108.57343,183.99709
"72375",1011.7551,111.20531,187.52188
"72376",1011.76843,112.093994,189.38574
"72377",1011.78174,111.603264,189.89795
"72378",1011.79504,110.030975,189.31326
"72379",1011.80835,107.61639,187.83714
"72380",1011.82166,104.59144,185.6752
"72381",1011.83496,101.16121,183.01346
"72382",1011.84827,97.5259,180.03944
"72383",1011.8616,93.85886,176.92007
"72384",1011.8749,90.31388,173.80818
"72385",1011.8882,87.01549,170.83209
"72386",1011.9015,84.04181,168.07765
"72387",1011.9148,81.45388,165.61603
"72388",1011.9281,79.31274,163.52032
"72389",1011.9414,77.72335,161.90945
"72390",1011.9547,76.82002,160.93498
"72391",1011.968,76.71015,160.72574
"72392",1011.9813,77.38644,161.29921
"72393",1011.9946,78.69749,162.52858
"72394",1012.00793,80.36256,164.15294
"72395",1012.02124,82.037384,165.8391
"72396",1012.03455,83.4168,167.28218
"72397",1012.04785,84.31037,168.28253
"72398",1012.06116,84.65217,168.75903
"72399",1012.07446,84.47883,168.73108
"72400",1012.08777,83.85382,168.24603
"72401",1012.1011,82.879684,167.39233
"72402",1012.1144,81.636986,166.23962
"72403",1012.1277,80.20386,164.85765
"72404",1012.141,78.64622,163.30638
"72405",1012.1543,77.015335,161.6332
"72406",1012.1676,75.36248,159.88707
"72407",1012.1809,73.7438,158.12346
"72408",1012.1942,72.20325,156.3874
"72409",1012.2075,70.78966,154.73016
"72410",1012.2208,69.542076,153.19476
"72411",1012.23413,68.47028,151.79616
"72412",1012.24744,67.57427,150.53984
"72413",1012.26074,66.846725,149.424
"72414",1012.27405,66.27787,148.4441
"72415",1012.28735,65.85794,147.59537
"72416",1012.30066,65.57961,146.8751
"72417",1012.31396,65.43069,146.27554
"72418",1012.3273,65.40627,145.79584
"72419",1012.3406,65.48684,145.42035
"72420",1012.3539,65.652855,145.13283
"72421",1012.3672,65.882355,144.91399
"72422",1012.3805,66.17044,144.7609
"72423",1012.3938,66.634315,144.7926
"72424",1012.4071,67.72564,145.46625
"72425",1012.4204,70.149994,147.50703
"72426",1012.4337,74.42252,151.47176
"72427",1012.447,80.49683,157.37177
"72428",1012.4603,87.7699,164.66035
"72429",1012.47363,95.24803,172.3813
"72430",1012.48694,101.8082,179.41797
"72431",1012.50024,106.62028,184.91156
"72432",1012.51355,109.435265,188.55843
"72433",1012.52686,110.485085,190.52809
"72434",1012.54016,110.11154,191.10721
"72435",1012.55347,108.595406,190.53206
"72436",1012.5668,106.18814,189.0184
"72437",1012.5801,103.13634,186.78497
"72438",1012.5934,99.681694,184.05334
"72439",1012.6067,96.05615,181.04286
"72440",1012.62,92.455025,177.94348
"72441",1012.6333,89.041885,174.91956
"72442",1012.6466,85.91684,172.07707
"72443",1012.6599,83.13603,169.48117
"72444",1012.6732,80.726326,167.16946
"72445",1012.6865,78.73411,165.19995
"72446",1012.6998,77.24727,163.67355
"72447",1012.71313,76.383,162.72327
"72448",1012.72644,76.224304,162.45154
"72449",1012.73975,76.749214,162.85846
"72450",1012.75305,77.81125,163.81891
"72451",1012.76636,79.149155,165.08841
"72452",1012.77966,80.46998,166.38264
"72453",1012.79297,81.5198,167.44716
"72454",1012.8063,82.14725,168.1221
"72455",1012.8196,82.30839,168.35034
"72456",1012.8329,82.020294,168.13438
"72457",1012.8462,81.34402,167.52124
"72458",1012.8595,80.35523,166.57446
"72459",1012.8728,79.132065,165.3624
"72460",1012.8861,77.7551,163.9583
"72461",1012.8994,76.27558,162.40863
"72462",1012.9127,74.75212,160.76878
"72463",1012.926,73.22865,159.08131
"72464",1012.93933,71.744255,157.38531
"72465",1012.95264,70.32578,155.70885
"72466",1012.96594,69.017166,154.09792
"72467",1012.97925,67.84772,152.58525
"72468",1012.99255,66.83452,151.19229
"72469",1013.00586,65.99466,149.94101
"72470",1013.01917,65.32571,148.8344
"72471",1013.0325,64.82033,147.87045
"72472",1013.0458,64.46143,147.0372
"72473",1013.0591,64.22949,146.31967
"72474",1013.0724,64.10742,145.70477
"72475",1013.0857,64.078125,145.17883
"72476",1013.099,64.129395,144.73254
"72477",1013.1123,64.26124,144.36844
"72478",1013.1389,65.60403,144.73831
"72479",1013.1522,67.95026,146.63467
"72480",1013.1655,72.149536,150.4574
"72481",1013.17883,78.16037,156.2229
"72482",1013.19214,85.37972,163.38477
"72483",1013.20544,92.840775,171.01393
"72484",1013.21875,99.42535,177.99977
"72485",1013.23206,104.291145,183.47261
"72486",1013.24536,107.16228,187.10284
"72487",1013.25867,108.25361,189.043
"72488",1013.272,107.894714,189.56703
"72489",1013.2853,106.36637,188.9104
"72490",1013.2986,103.93713,187.30511
"72491",1013.3119,100.87068,184.9867
"72492",1013.3252,97.43069,182.19891
"72493",1013.3385,93.85397,179.1669
"72494",1013.3518,90.3505,176.09636
"72495",1013.3651,87.06676,173.13606
"72496",1013.3784,84.09796,170.3881
"72497",1013.3917,81.48318,167.90138
"72498",1013.405,79.256584,165.72115
"72499",1013.41833,77.46456,163.90588
"72500",1013.43164,76.19989,162.56198
"72501",1013.44495,75.58465,161.82799
"72502",1013.45825,75.67254,161.7779
"72503",1013.47156,76.40742,162.37753
"72504",1013.48486,77.5964,163.45424
"72505",1013.49817,78.97337,164.7561
"72506",1013.5115,80.25269,166.00334
"72507",1013.5248,81.21217,166.97072
"72508",1013.5381,81.7322,167.52863
"72509",1013.5514,81.78592,167.63647
"72510",1013.5647,81.40017,167.30653
"72511",1013.578,80.63355,166.58368
"72512",1013.5913,79.56664,165.53658
"72513",1013.6046,78.27512,164.2315
"72514",1013.6179,76.83711,162.7396
"72515",1013.6312,75.31609,161.11974
"72516",1013.64453,73.76578,159.42305
"72517",1013.65784,72.22522,157.68767
"72518",1013.67114,70.73838,155.95787
"72519",1013.68445,69.35165,154.28171
"72520",1013.69775,68.0943,152.6916
"72521",1013.71106,66.99809,151.22334
"72522",1013.72437,66.07767,149.8966
"72523",1013.7377,65.33303,148.7169
"72524",1013.751,64.74952,147.67505
"72525",1013.7643,64.30274,146.7517
"72526",1013.7776,63.975586,145.93399
"72527",1013.7909,63.74853,145.20618
"72528",1013.8042,63.609367,144.55916
"72529",1013.8175,63.58007,144.01765
"72530",1013.8308,63.85107,143.77553
"72531",1013.8441,64.95949,144.37929
"72532",1013.8574,67.5938,146.54358
"72533",1013.8707,72.149536,150.71162
"72534",1013.88403,78.433815,156.75058
"72535",1013.89734,85.73861,164.00642
"72536",1013.91064,93.019,171.46614
"72537",1013.92395,99.18364,178.03763
"72538",1013.93726,103.49279,182.94627
"72539",1013.95056,105.82681,186.01445
"72540",1013.96387,106.461586,187.45631
"72541",1013.9772,105.71938,187.54103
"72542",1013.9905,103.88098,186.50636
"72543",1014.0038,101.21492,184.58658
"72544",1014.0171,97.987335,182.02196
"72545",1014.0304,94.435036,179.03177
"72546",1014.0437,90.78508,175.8329
"72547",1014.057,87.21568,172.60054
"72548",1014.0703,83.86359,169.47394
"72549",1014.0836,80.81911,166.5502
"72550",1014.0969,78.14084,163.89754
"72551",1014.1102,75.90204,161.60063
"72552",1014.12354,74.21011,159.78064
"72553",1014.13684,73.2018,158.59138
"72554",1014.15015,72.99428,158.17142
"72555",1014.16345,73.582664,158.54088
"72556",1014.17676,74.81804,159.57571
"72557",1014.19006,76.43183,161.02757
"72558",1014.20337,78.08713,162.57137
"72559",1014.2167,79.48852,163.91298
"72560",1014.23,80.44312,164.8516
"72561",1014.2433,80.89235,165.31467
"72562",1014.2566,80.84352,165.29373
"72563",1014.2699,80.360115,164.83669
"72564",1014.2832,79.51049,163.99832
"72565",1014.2965,78.380104,162.85263
"72566",1014.3098,77.051956,161.47386
"72567",1014.3231,75.596855,159.92664
"72568",1014.3364,74.073395,158.26558
"72569",1014.34973,72.54017,156.54715
"72570",1014.36304,71.04845,154.82231
"72571",1014.37634,69.64706,153.14119
"72572",1014.38965,68.370186,151.54079
"72573",1014.40295,67.25445,150.06161
"72574",1014.41626,66.304726,148.7136
"72575",1014.42957,65.52102,147.5019
"72576",1014.4429,64.883804,146.41223
"72577",1014.4562,64.38331,145.43936
"72578",1014.4695,63.995117,144.56314
"72579",1014.4828,63.721676,143.78955
"72580",1014.4961,63.584953,143.14413
"72581",1014.5094,63.790035,142.83624
"72582",1014.5227,64.900894,143.44054
"72583",1014.536,67.630424,145.69821
"72584",1014.5493,72.33509,150.01633
"72585",1014.5626,78.7805,156.22221
"72586",1014.5759,86.219574,163.62317
"72587",1014.58923,93.575645,171.1736
"72588",1014.60254,99.73785,177.76004
"72589",1014.61584,104.00061,182.63962
"72590",1014.62915,106.27116,185.66019
"72591",1014.64246,106.85222,187.06223
"72592",1014.65576,106.06363,187.11276
"72593",1014.66907,104.183716,186.04733
"72594",1014.6824,101.471275,184.09064
"72595",1014.6957,98.19241,181.48276
"72596",1014.709,94.60105,178.4599
"72597",1014.7223,90.91203,175.22716
"72598",1014.7356,87.310905,171.96703
"72599",1014.7489,83.92462,168.8092
"72600",1014.7622,80.8362,165.84343
"72601",1014.7755,78.11398,163.14735
"72602",1014.7888,75.86786,160.84229
"72603",1014.8021,74.24185,159.08714
"72604",1014.8154,73.411766,158.07712
"72605",1014.82874,73.47036,157.92982
"72606",1014.84204,74.36149,158.6169
"72607",1014.85535,75.862976,159.94218
"72608",1014.86865,77.64034,161.59027
"72609",1014.88196,79.32983,163.20601
"72610",1014.89526,80.64576,164.50099
"72611",1014.90857,81.43923,165.31465
"72612",1014.9219,81.685814,165.60622
"72613",1014.9352,81.43679,165.40988
"72614",1014.9485,80.762955,164.78094
"72615",1014.9618,79.74975,163.79158
"72616",1014.9751,78.4802,162.5142
"72617",1014.9884,77.015335,161.00185
"72618",1015.0017,75.42596,159.3192
"72619",1015.015,73.780426,157.53073
"72620",1015.0283,72.147095,155.70303
"72621",1015.0416,70.591896,153.90244
"72622",1015.05493,69.15144,152.16798
"72623",1015.06824,67.859924,150.53745
"72624",1015.08154,66.73197,149.03012
"72625",1015.09485,65.75784,147.64137
"72626",1015.10815,64.935074,146.37354
"72627",1015.12146,64.24658,145.21426
"72628",1015.13477,63.685055,144.16045
"72629",1015.1481,63.299305,143.26486
"72630",1015.1614,63.377434,142.82109
"72631",1015.1747,64.5713,143.4955
"72632",1015.188,67.562065,146.00412
"72633",1015.2013,72.58167,150.63504
"72634",1015.2146,79.24437,157.06592
"72635",1015.2279,86.70298,164.50092
"72636",1015.2412,93.82468,171.83208
"72637",1015.2545,99.54009,177.9795
"72638",1015.2678,103.27795,182.32799
"72639",1015.2811,105.077286,184.85477
"72640",1015.29443,105.26284,185.82399
"72641",1015.30774,104.13733,185.48795
"72642",1015.32104,101.976654,184.08156
"72643",1015.33435,99.0518,181.84348
"72644",1015.34766,95.638664,179.02571
"72645",1015.36096,91.96918,175.84494
"72646",1015.37427,88.26063,172.51042
"72647",1015.3876,84.66926,169.1772
"72648",1015.4009,81.31228,165.96614
"72649",1015.4142,78.26536,162.96024
"72650",1015.4275,75.631035,160.2717
"72651",1015.4408,73.5436,158.04773
"72652",1015.4541,72.181274,156.48364
"72653",1015.4674,71.70519,155.76323
"72654",1015.4807,72.17151,155.97034
"72655",1015.494,73.45815,157.01234
"72656",1015.5073,75.28191,158.63167
"72657",1015.5206,77.2546,160.45691
"72658",1015.53394,79.00511,162.12163
"72659",1015.54724,80.26978,163.35521
"72660",1015.56055,80.938736,164.0326
"72661",1015.57385,81.02663,164.14983
"72662",1015.58716,80.61646,163.77174
"72663",1015.60046,79.80835,162.9829
"72664",1015.6138,78.69993,161.86848
"72665",1015.6271,77.37423,160.50215
"72666",1015.6404,75.894714,158.94058
"72667",1015.6537,74.337074,157.25465
"72668",1015.667,72.75502,155.49564
"72669",1015.6803,71.20714,153.72134
"72670",1015.6936,69.73739,151.97682
"72671",1015.7069,68.37995,150.29868
"72672",1015.7202,67.16167,148.71727
"72673",1015.7335,66.09476,147.24916
"72674",1015.7468,65.18654,145.9064
"72675",1015.76013,64.429695,144.68665
"72676",1015.77344,63.804684,143.57506
"72677",1015.78674,63.370106,142.63437
"72678",1015.80005,63.47265,142.21722
"72679",1015.81335,64.82765,143.05576
"72680",1015.82666,68.11139,145.86536
"72681",1015.83997,73.50454,150.887
"72682",1015.8533,80.53101,157.71048
"72683",1015.8666,88.24353,165.43959
"72684",1015.8799,95.4287,172.88237
"72685",1015.8932,101.00496,178.94077
"72686",1015.9065,104.47425,183.06647
"72687",1015.9198,105.96597,185.32301
"72688",1015.9331,105.86099,186.02946
"72689",1015.9464,104.49134,185.46797
"72690",1015.9597,102.14023,183.88222
"72691",1015.973,99.07378,181.50764
"72692",1015.9863,95.53124,178.56117
"72693",1015.99963,91.72991,175.2452
"72694",1016.01294,87.86511,171.74695
"72695",1016.02625,84.09796,168.22559
"72696",1016.03955,80.56031,164.816
"72697",1016.05286,77.37911,161.65231
"72698",1016.06616,74.6984,158.8897
"72699",1016.07947,72.706184,156.7318
"72700",1016.0928,71.60265,155.40033
"72701",1016.1061,71.52941,155.06467
"72702",1016.1194,72.46204,155.73259
"72703",1016.1327,74.18814,157.22313
"72704",1016.146,76.334175,159.18755
"72705",1016.1593,78.467995,161.2068
"72706",1016.1726,80.216064,162.907
"72707",1016.1859,81.35134,164.04903
"72708",1016.1992,81.82254,164.56245
"72709",1016.2125,81.67361,164.47047
"72710",1016.2258,81.0193,163.86847
"72711",1016.23914,79.971924,162.85295
"72712",1016.25244,78.63645,161.5166
"72713",1016.26575,77.11055,159.94809
"72714",1016.27905,75.47723,158.22447
"72715",1016.29236,73.80972,156.41563
"72716",1016.30566,72.17883,154.5913
"72717",1016.319,70.6334,152.80145
"72718",1016.3323,69.21004,151.08539
"72719",1016.3456,67.92828,149.46645
"72720",1016.3589,66.78569,147.94661
"72721",1016.3722,65.777374,146.52534
"72722",1016.3855,64.89601,145.19952
"72723",1016.3988,64.22705,144.05856
"72724",1016.4121,64.17822,143.51683
"72725",1016.4254,65.48196,144.32614
"72726",1016.4387,68.773026,147.16353
"72727",1016.452,74.141754,152.18141
"72728",1016.46533,81.05348,158.91006
"72729",1016.47864,88.52186,166.41136
"72730",1016.49194,95.35058,173.5064
"72731",1016.50525,100.53132,179.16684
"72732",1016.51855,103.6466,182.92372
"72733",1016.53186,104.86488,184.88097
"72734",1016.54517,104.55726,185.35037
"72735",1016.5585,103.04112,184.60165
"72736",1016.5718,100.58503,182.8656
"72737",1016.5851,97.442894,180.36674
"72738",1016.5984,93.856415,177.32535
"72739",1016.6117,90.03311,173.93506
"72740",1016.625,86.14633,170.36182
"72741",1016.6383,82.34745,166.755
"72742",1016.6516,78.76341,163.24432
"72743",1016.6649,75.54803,159.9903
"72744",1016.6782,72.8893,157.19244
"72745",1016.6915,71.009384,155.09032
"72746",1016.70483,70.135345,153.93532
"72747",1016.71814,70.39414,153.88585
"72748",1016.73145,71.7174,154.90892
"72749",1016.74475,73.81949,156.75218
"72750",1016.75806,76.265816,159.00537
"72751",1016.77136,78.58518,161.20804
"72752",1016.78467,80.39918,162.97781
"72753",1016.798,81.50271,164.09383
"72754",1016.8113,81.866486,164.50456
"72755",1016.8246,81.58816,164.28456
"72756",1016.8379,80.799576,163.54561
"72757",1016.8512,79.63012,162.40114
"72758",1016.8645,78.19943,160.9589
"72759",1016.8778,76.60761,159.3108
"72760",1016.8911,74.93767,157.53485
"72761",1016.9044,73.26284,155.70183
"72762",1016.9177,71.63683,153.86528
"72763",1016.931,70.101166,152.06827
"72764",1016.94434,68.682686,150.34045
"72765",1016.95764,67.39361,148.69771
"72766",1016.97095,66.2388,147.14896
"72767",1016.98425,65.271996,145.75212
"72768",1016.99756,64.77638,144.79626
"72769",1017.01086,65.40139,144.94553
"72770",1017.0242,67.86725,146.95518
"72771",1017.0375,72.48402,151.19281
"72772",1017.0508,78.91722,157.39114
"72773",1017.0641,86.31724,164.75732
"72774",1017.0774,93.51217,172.14967
"72775",1017.0907,99.36187,178.42163
"72776",1017.104,103.20958,182.8744
"72777",1017.1173,105.043106,185.43323
"72778",1017.1306,105.196915,186.36963
"72779",1017.1439,104.01282,185.97293
"72780",1017.1572,101.79843,184.50894
"72781",1017.17053,98.827194,182.2189
"72782",1017.18384,95.35302,179.33308
"72783",1017.19714,91.60784,176.06769
"72784",1017.21045,87.79187,172.61446
"72785",1017.22375,84.04669,169.11278
"72786",1017.23706,80.50172,165.69426
"72787",1017.25037,77.2839,162.49213
"72788",1017.2637,74.55192,159.67526
"72789",1017.277,72.50599,157.45908
"72790",1017.2903,71.35607,156.07497
"72791",1017.3036,71.25353,155.7023
"72792",1017.3169,72.18616,156.3616
"72793",1017.3302,73.92935,157.86061
"72794",1017.3435,76.09735,159.8389
"72795",1017.3568,78.26292,161.8825
"72796",1017.3701,80.042725,163.60803
"72797",1017.3834,81.197525,164.76416
"72798",1017.3967,81.65896,165.26302
"72799",1017.41003,81.48318,165.13908
"72800",1017.42334,80.7776,164.47986
"72801",1017.43665,79.66674,163.3933
"72802",1017.44995,78.2678,161.98393
"72803",1017.46326,76.68818,160.35017
"72804",1017.47656,75.01579,158.5743
"72805",1017.48987,73.32876,156.7315
"72806",1017.5032,71.68078,154.87505
"72807",1017.5165,70.118256,153.05255
"72808",1017.5298,68.663155,151.28865
"72809",1017.5431,67.335014,149.60623
"72810",1017.5564,66.15335,148.0288
"72811",1017.5697,65.29153,146.73427
"72812",1017.583,65.28176,146.26486
"72813",1017.5963,66.87358,147.39674
"72814",1017.6096,70.56748,150.68045
"72815",1017.6229,76.2707,156.0889
"72816",1017.6362,83.32647,163.02812
"72817",1017.64954,90.667885,170.4735
"72818",1017.66284,97.10353,177.24251
"72819",1017.67615,101.747154,182.42062
"72820",1017.68945,104.35218,185.70525
"72821",1017.70276,105.145645,187.25972
"72822",1017.71606,104.4596,187.35948
"72823",1017.7294,102.606544,186.27078
"72824",1017.7427,99.89166,184.26236
"72825",1017.756,96.60059,181.59291
"72826",1017.7693,92.999466,178.51056
"72827",1017.7826,89.31289,175.23021
"72828",1017.7959,85.714195,171.92255
"72829",1017.8092,82.31327,168.7002
"72830",1017.8225,79.19554,165.65475
"72831",1017.8358,76.46845,162.90253
"72832",1017.8491,74.29069,160.6144
"72833",1017.8624,72.84535,158.99065
"72834",1017.87573,72.28626,158.20798
"72835",1017.88904,72.66224,158.3429
"72836",1017.90234,73.83902,159.29037
"72837",1017.91565,75.51873,160.77756
"72838",1017.92896,77.31808,162.43686
"72839",1017.94226,78.887924,163.9229
"72840",1017.95557,79.97681,164.97702
"72841",1017.9689,80.47486,165.47435
"72842",1017.9822,80.38941,165.40375
"72843",1017.9955,79.79126,164.81776
"72844",1018.0088,78.78294,163.80292
"72845",1018.0221,77.467,162.44894
"72846",1018.0354,75.95575,160.85854
"72847",1018.0487,74.33219,159.1086
"72848",1018.062,72.67933,157.27861
"72849",1018.0753,71.046005,155.41652
"72850",1018.0886,69.471275,153.56198
"72851",1018.1019,67.984436,151.74612
"72852",1018.11523,66.6099,149.99611
"72853",1018.12854,65.40383,148.3716
"72854",1018.14185,64.65186,147.1635
"72855",1018.15515,64.99123,147.02322
"72856",1018.16846,67.14702,148.70999
"72857",1018.18176,71.42931,152.59064
"72858",1018.19507,77.56954,158.46303
"72859",1018.2084,84.78157,165.5991
"72860",1018.2217,91.94476,172.91173
"72861",1018.235,97.91165,179.25189
"72862",1018.2483,101.98154,183.88152
"72863",1018.2616,104.06409,186.65099
"72864",1018.2749,104.43275,187.77165
"72865",1018.2882,103.40002,187.50244
"72866",1018.3015,101.28573,186.1194
"72867",1018.3148,98.407265,183.90611
"72868",1018.3281,95.07469,181.14877
"72869",1018.34143,91.54925,178.09442
"72870",1018.35474,88.043335,174.94942
"72871",1018.36804,84.701,171.85843
"72872",1018.38135,81.600365,168.90471
"72873",1018.39465,78.79515,166.1495
"72874",1018.40796,76.37568,163.69238
"72875",1018.42126,74.476234,161.67967
"72876",1018.4346,73.26772,160.29854
"72877",1018.4479,72.86488,159.68532
"72878",1018.4612,73.26528,159.86275
"72879",1018.4745,74.31754,160.70454
"72880",1018.4878,75.736015,161.94543
"72881",1018.5011,77.19844,163.27461
"72882",1018.5144,78.41184,164.40047
"72883",1018.5277,79.1931,165.1321
"72884",1018.541,79.466545,165.38033
"72885",1018.5543,79.23216,165.12927
"72886",1018.5676,78.54368,164.4168
"72887",1018.58093,77.488976,163.31657
"72888",1018.59424,76.16083,161.90996
"72889",1018.60754,74.64713,160.27629
"72890",1018.62085,73.023575,158.48546
"72891",1018.63416,71.34875,156.59262
"72892",1018.64746,69.68124,154.65475
"72893",1018.66077,68.065,152.71606
"72894",1018.6741,66.54154,150.81964
"72895",1018.6874,65.16701,149.02454
"72896",1018.7007,64.11963,147.51363
"72897",1018.714,63.919434,146.81717
"72898",1018.7273,65.303734,147.69894
"72899",1018.7406,68.77547,150.71143
"72900",1018.7539,74.288246,155.87344
"72901",1018.7672,81.24635,162.65306
"72902",1018.7805,88.62928,170.07494
"72903",1018.7938,95.24559,176.9609
"72904",1018.8071,100.174866,182.36661
"72905",1018.82043,103.08507,185.90727
"72906",1018.83374,104.130005,187.67361
"72907",1018.84705,103.6173,187.91498
"72908",1018.86035,101.87656,186.91228
"72909",1018.87366,99.25689,184.97626
"72910",1018.88696,96.1001,182.42125
"72911",1018.90027,92.70893,179.5332
"72912",1018.9136,89.32754,176.54897
"72913",1018.9269,86.12192,173.63483
"72914",1018.9402,83.177536,170.88176
"72915",1018.9535,80.53101,168.33453
"72916",1018.9668,78.21408,166.0342
"72917",1018.9801,76.28779,164.0521
"72918",1018.9934,74.87175,162.52005
"72919",1019.0067,74.07095,161.55899
"72920",1019.02,73.92935,161.2321
"72921",1019.0333,74.39323,161.50627
"72922",1019.04663,75.29656,162.23439
"72923",1019.05994,76.387886,163.17873
"72924",1019.07324,77.41573,164.09369
"72925",1019.08655,78.17746,164.77466
"72926",1019.09985,78.54124,165.08148
"72927",1019.11316,78.450905,164.94556
"72928",1019.12646,77.92355,164.3698
"72929",1019.1398,77.01289,163.39424
"72930",1019.1531,75.80194,162.08994
"72931",1019.1664,74.38834,160.54515
"72932",1019.1797,72.85512,158.83656
"72933",1019.193,71.2633,157.02147
"72934",1019.2063,69.67391,155.15906
"72935",1019.2196,68.1358,153.29826
"72936",1019.2329,66.702675,151.49438
"72937",1019.2462,65.40627,149.78244
"72938",1019.2595,64.30274,148.22285
"72939",1019.2728,63.59472,147.02429
"72940",1019.28613,63.821774,146.73868
"72941",1019.29944,65.672386,148.08372
"72942",1019.31274,69.56161,151.5252
"72943",1019.32605,75.369804,157.0072
"72944",1019.33936,82.45731,163.95001
"72945",1019.35266,89.79385,171.36334
"72946",1019.36597,96.20996,178.08551
"72947",1019.3793,100.87068,183.25279
"72948",1019.3926,103.50744,186.54176
"72949",1019.4059,104.288704,188.05763
"72950",1019.4192,103.52697,188.05492
"72951",1019.4325,101.5787,186.84186
"72952",1019.4458,98.81743,184.75493
"72953",1019.4591,95.59716,182.12271
"72954",1019.4724,92.22797,179.24094
"72955",1019.4857,88.94179,176.33688
"72956",1019.499,85.88022,173.55475
"72957",1019.5123,83.106735,170.96503
"72958",1019.52563,80.635994,168.59137
"72959",1019.53894,78.49485,166.47011
"72960",1019.55225,76.75166,164.67989
"72961",1019.56555,75.508965,163.33568
"72962",1019.57886,74.84978,162.53615
"72963",1019.59216,74.80583,162.33125
"72964",1019.60547,75.30389,162.66699
"72965",1019.6188,76.16083,163.37718
"72966",1019.6321,77.14229,164.23866
"72967",1019.6454,78.02121,165.02827
"72968",1019.6587,78.61936,165.56459
"72969",1019.672,78.83177,165.73386
"72970",1019.6853,78.6096,165.47517
"72971",1019.6986,77.962616,164.78474
"72972",1019.7119,76.95186,163.71031
"72973",1019.7252,75.66033,162.32353
"72974",1019.7385,74.18326,160.71085
"72975",1019.75183,72.60853,158.95435
"72976",1019.76514,71.028915,157.14375
"72977",1019.77844,69.51766,155.35216
"72978",1019.79175,68.138245,153.64517
"72979",1019.80505,66.92729,152.06354
"72980",1019.81836,65.89212,150.61984
"72981",1019.83167,65.025406,149.31226
"72982",1019.845,64.33692,148.15582
"72983",1019.8583,64.02197,147.35141
"72984",1019.8716,64.60548,147.43561
"72985",1019.8849,66.77104,149.12009
"72986",1019.8982,70.93126,152.8669
"72987",1019.9115,76.964066,158.6163
"72988",1019.9248,84.23956,165.79692
"72989",1019.9381,91.717705,173.40755
"72990",1019.9514,98.2388,180.29482
"72991",1019.9647,102.95323,185.57921
"72992",1019.978,105.582664,188.92593
"72993",1019.99133,106.28092,190.42365
"72994",1020.00464,105.36782,190.33182
"72995",1020.01794,103.255974,189.01271
"72996",1020.03125,100.367744,186.85123
"72997",1020.04456,97.10841,184.2284
"72998",1020.05786,93.805145,181.45976
"72999",1020.07117,90.6923,178.77832
"73000",1020.0845,87.8822,176.30235
"73001",1020.0978,85.39437,174.06084
"73002",1020.1111,83.192184,172.02722
"73003",1020.1244,81.234146,170.16895
"73004",1020.1377,79.51537,168.48874
"73005",1020.151,78.08469,167.04291
"73006",1020.1643,77.0251,165.92346
"73007",1020.1776,76.387886,165.19328
"73008",1020.1909,76.175476,164.868
"73009",1020.2042,76.314644,164.88765
"73010",1020.2175,76.66621,165.12404
"73011",1020.23083,77.0544,165.40805
"73012",1020.24414,77.3254,165.587
"73013",1020.25745,77.36202,165.54004
"73014",1020.27075,77.0959,165.19148
"73015",1020.28406,76.50019,164.50502
"73016",1020.29736,75.59441,163.48987
"73017",1020.31067,74.41764,162.17542
"73018",1020.324,73.0309,160.61423
"73019",1020.3373,71.505,158.87054
"73020",1020.3506,69.90585,157.00594
"73021",1020.3639,68.31403,155.09868
"73022",1020.3772,66.7979,153.21736
"73023",1020.3905,65.425804,151.43271
"73024",1020.4038,64.25147,149.80293
"73025",1020.4171,63.304188,148.36351
"73026",1020.4304,62.610817,147.14839
"73027",1020.4437,62.164036,146.1582
"73028",1020.45703,61.93698,145.37378
"73029",1020.47034,61.893036,144.76537
"73030",1020.48364,61.993134,144.29962
"73031",1020.49695,62.19089,143.93466
"73032",1020.51025,62.43992,143.62715
"73033",1020.52356,62.701153,143.33963
"73034",1020.53687,62.994125,143.09201
"73035",1020.5502,63.61181,143.17825
"73036",1020.5635,65.21095,144.26526
"73037",1020.5768,68.52888,147.12103
"73038",1020.5901,73.934235,152.16792
"73039",1020.6034,81.19997,159.2441
"73040",1020.6167,89.547264,167.62889
"73041",1020.63,97.796906,176.17688
"73042",1020.6433,104.71595,183.65207
"73043",1020.6566,109.50118,189.20967
"73044",1020.6699,111.96948,192.59988
"73045",1020.6832,112.35035,193.9798
"73046",1020.69653,111.029526,193.66992
"73047",1020.70984,108.470894,192.08096
"73048",1020.72314,105.16029,189.66008
"73049",1020.73645,101.556725,186.84277
"73050",1020.74976,98.02396,183.98366
"73051",1020.76306,94.8159,181.33885
"73052",1020.77637,92.04242,179.02837
"73053",1020.7897,89.69375,177.05602
"73054",1020.803,87.67712,175.34232
"73055",1020.8163,85.889984,173.79509
"73056",1020.8296,84.263985,172.35315
"73057",1020.8429,82.811325,171.03374
"73058",1020.8562,81.59548,169.90575
"73059",1020.8695,80.68726,169.0474
"73060",1020.8828,80.11597,168.49757
"73061",1020.8961,79.84253,168.22775
"73062",1020.9094,79.764404,168.14471
"73063",1020.9227,79.75708,168.13004
"73064",1020.93604,79.693596,168.05896
"73065",1020.94934,79.466545,167.82233
"73066",1020.96265,79.00267,167.34178
"73067",1020.97595,78.26536,166.5733
"73068",1020.98926,77.24971,165.50345
"73069",1021.00256,75.982605,164.15039
"73070",1021.01587,74.5153,162.55754
"73071",1021.0292,72.91615,160.787
"73072",1021.0425,71.2462,158.89568
"73073",1021.0558,69.57137,156.9473
"73074",1021.0691,67.96246,155.0125
"73075",1021.0824,66.478065,153.15193
"73076",1021.0957,65.16701,151.41832
"73077",1021.109,64.06836,149.85614
"73078",1021.1223,63.20653,148.49644
"73079",1021.1356,62.58396,147.34908
"73080",1021.1489,62.18845,146.40932
"73081",1021.16223,61.995575,145.65984
"73082",1021.17554,61.973602,145.07523
"73083",1021.18884,62.09323,144.63153
"73084",1021.20215,62.315403,144.29411
"73085",1021.21545,62.608376,144.03444
"73086",1021.22876,62.940414,143.823
"73087",1021.24207,63.284657,143.63412
"73088",1021.2554,63.628902,143.45602
"73089",1021.2687,63.96338,143.2789
"73090",1021.282,64.26612,143.0805
"73091",1021.2953,64.52979,142.8525
"73092",1021.3086,64.73731,142.57657
"73093",1021.3219,64.8716,142.23389
"73094",1021.3352,64.935074,141.8246
"73095",1021.3485,65.14015,141.5589
"73096",1021.3618,66.09476,142.04913
"73097",1021.3751,68.648506,144.16835
"73098",1021.3884,73.38735,148.55246
"73099",1021.40173,80.27711,155.23557
"73100",1021.41504,88.67567,163.64279
"73101",1021.42834,97.43557,172.67381
"73102",1021.44165,105.20668,180.98978
"73103",1021.45496,110.94408,187.51488
"73104",1021.46826,114.262,191.7998
"73105",1021.48157,115.31426,193.92276
"73106",1021.4949,114.46464,194.1767
"73107",1021.5082,112.147705,192.93678
"73108",1021.5215,108.841995,190.63568
"73109",1021.5348,105.023575,187.71857
"73110",1021.5481,101.11482,184.5918
"73111",1021.5614,97.43069,181.5675
"73112",1021.5747,94.1738,178.85532
"73113",1021.588,91.41009,176.53453
"73114",1021.6013,89.10048,174.58148
"73115",1021.6146,87.15221,172.9176
"73116",1021.6279,85.489586,171.47849
"73117",1021.64124,84.09308,170.25352
"73118",1021.65454,82.98222,169.27058
"73119",1021.66785,82.196075,168.57764
"73120",1021.68115,81.75906,168.20926
"73121",1021.69446,81.619896,168.12506
"73122",1021.70776,81.66384,168.21964
"73123",1021.72107,81.75906,168.36685
"73124",1021.7344,81.77127,168.43404
"73125",1021.7477,81.59792,168.31604
"73126",1021.761,81.15846,167.92651
"73127",1021.7743,80.41871,167.22296
"73128",1021.7876,79.38598,166.20332
"73129",1021.8009,78.09201,164.89017
"73130",1021.8142,76.58808,163.32661
"73131",1021.8275,74.93767,161.56958
"73132",1021.8408,73.214005,159.68771
"73133",1021.8541,71.483025,157.74467
"73134",1021.86743,69.805756,155.80125
"73135",1021.88074,68.23102,153.90794
"73136",1021.89404,66.810104,152.11925
"73137",1021.90735,65.56985,150.46681
"73138",1021.92065,64.532234,148.97826
"73139",1021.93396,63.716793,147.67944
"73140",1021.94727,63.13329,146.5871
"73141",1021.9606,62.774395,145.70111
"73142",1021.9739,62.61814,145.00656
"73143",1021.9872,62.635235,144.48047
"73144",1022.0005,62.78416,144.08675
"73145",1022.0138,63.033188,143.79778
"73146",1022.0271,63.348133,143.5825
"73147",1022.0404,63.69482,143.40881
"73148",1022.0537,64.05127,143.25572
"73149",1022.067,64.393074,143.09912
"73150",1022.0803,64.70069,142.91902
"73151",1022.0936,64.96437,142.70459
"73152",1022.10693,65.18898,142.45934
"73153",1022.12024,65.37942,142.18692
"73154",1022.13354,65.533226,141.88383
"73155",1022.14685,65.652855,141.55138
"73156",1022.16016,65.73342,141.1836
"73157",1022.17346,65.760284,140.76463
"73158",1022.18677,65.73342,140.29279
"73159",1022.2001,65.69436,139.80789
"73160",1022.2134,65.94583,139.61232
"73161",1022.2267,67.24956,140.47685
"73162",1022.24,70.50645,143.3353
"73163",1022.2533,76.17792,148.7101
"73164",1022.2666,83.9881,156.40083
"73165",1022.2799,93.048294,165.58566
"73166",1022.2932,102.03769,174.98282
"73167",1022.3065,109.557335,183.19115
"73168",1022.3198,114.701454,189.25893
"73169",1022.3331,117.32113,192.96301
"73170",1022.34644,117.72884,194.53702
"73171",1022.35974,116.30793,194.29514
"73172",1022.37305,113.478294,192.60013
"73173",1022.38635,109.68429,189.85233
"73174",1022.39966,105.36538,186.46104
"73175",1022.41296,100.909744,182.79808
"73176",1022.4263,96.62501,179.16678
"73177",1022.4396,92.7309,175.7922
"73178",1022.4529,89.33486,172.794
"73179",1022.4662,86.46372,170.21458
"73180",1022.4795,84.11261,168.06546
"73181",1022.4928,82.29374,166.3751
"73182",1022.5061,81.041275,165.19432
"73183",1022.5194,80.37476,164.56035
"73184",1022.5327,80.28443,164.48174
"73185",1022.546,80.67994,164.88614
"73186",1022.5593,81.392845,165.6203
"73187",1022.57263,82.193634,166.46461
"73188",1022.58594,82.87724,167.21678
"73189",1022.59924,83.27764,167.70709
"73190",1022.61255,83.29473,167.82661
"73191",1022.62585,82.88457,167.51941
"73192",1022.63916,82.054474,166.77946
"73193",1022.65247,80.86061,165.64981
"73194",1022.6658,79.37621,164.1923
"73195",1022.6791,77.679405,162.476
"73196",1022.6924,75.85077,160.57484
"73197",1022.7057,73.968414,158.56282
"73198",1022.719,72.09338,156.4993
"73199",1022.7323,70.27451,154.43335
"73200",1022.7456,68.57038,152.4253
"73201",1022.7589,67.02495,150.52269
"73202",1022.7722,65.66506,148.75734
"73203",1022.7855,64.5127,147.15701
"73204",1022.7988,63.58251,145.74284
"73205",1022.81213,62.874493,144.52177
"73206",1022.82544,62.386208,143.49832
"73207",1022.83875,62.10544,142.66711
"73208",1022.85205,62.015106,142.01758
"73209",1022.86536,62.08835,141.5288
"73210",1022.87866,62.298313,141.17902
"73211",1022.89197,62.608376,140.9359
"73212",1022.9053,62.98192,140.76596
"73213",1022.9186,63.392082,140.64432
"73214",1022.9319,63.81445,140.54768
"73215",1022.9452,64.23682,140.46425
"73216",1022.9585,64.6421,140.37692
"73217",1022.9718,65.025406,140.2803
"73218",1022.9851,65.374535,140.16147
"73219",1022.9984,65.68215,140.01204
"73220",1023.0117,65.9263,139.80876
"73221",1023.025,66.09964,139.5423
"73222",1023.0383,66.197296,139.20557
"73223",1023.05164,66.29496,138.8719
"73224",1023.06494,66.78569,138.93436
"73225",1023.07825,68.51179,140.24751
"73226",1023.09155,72.3473,143.72401
"73227",1023.10486,78.61448,149.75204
"73228",1023.11816,86.86412,157.95839
"73229",1023.1315,96.04639,167.35516
"73230",1023.1448,104.764786,176.57501
"73231",1023.1581,111.68383,184.26796
"73232",1023.1714,116.08087,189.65512
"73233",1023.1847,117.99252,192.6943
"73234",1023.198,117.82895,193.718
"73235",1023.2113,115.983215,193.05443
"73236",1023.2246,112.82643,191.02213
"73237",1023.2379,108.73701,187.95853
"73238",1023.2512,104.0885,184.20805
"73239",1023.2645,99.21782,180.09013
"73240",1023.27783,94.415504,175.88838
"73241",1023.29114,89.901276,171.82463
"73242",1023.30444,85.82895,168.06172
"73243",1023.31775,82.28886,164.70378
"73244",1023.33105,79.38354,161.87
"73245",1023.34436,77.24483,159.71202
"73246",1023.35767,76.02899,158.41008
"73247",1023.371,75.83856,158.09555
"73248",1023.3843,76.64423,158.77118
"73249",1023.3976,78.24582,160.2679
"73250",1023.4109,80.27955,162.24681
"73251",1023.4242,82.31571,164.29172
"73252",1023.4375,83.97345,166.02182
"73253",1023.4508,85.01106,167.18361
"73254",1023.4641,85.34066,167.6698
"73255",1023.4774,84.98909,167.48512
"73256",1023.4907,84.054016,166.70596
"73257",1023.504,82.65751,165.43614
"73258",1023.51733,80.921646,163.78333
"73259",1023.53064,78.96117,161.85165
"73260",1023.54395,76.87862,159.73663
"73261",1023.55725,74.76433,157.5248
"73262",1023.57056,72.69886,155.29572
"73263",1023.58386,70.75548,153.12418
"73264",1023.59717,68.98543,151.06523
"73265",1023.6105,67.42535,149.16095
"73266",1023.6238,66.092316,147.43497
"73267",1023.6371,64.98634,145.89438
"73268",1023.6504,64.095215,144.53407
"73269",1023.6637,63.40673,143.34857
"73270",1023.677,62.908676,142.33197
"73271",1023.6903,62.593727,141.48291
"73272",1023.7036,62.449684,140.79492
"73273",1023.7169,62.466774,140.26357
"73274",1023.7302,62.632793,139.88167
"73275",1023.7435,62.925766,139.63191
"73276",1023.75684,63.32372,139.49629
"73277",1023.77014,63.794918,139.44635
"73278",1023.78345,64.327156,139.47218
"73279",1023.79675,64.88869,139.54395
"73280",1023.81006,65.4551,139.63812
"73281",1023.82336,65.98978,139.71828
"73282",1023.8367,66.460976,139.75166
"73283",1023.85,66.83696,139.70456
"73284",1023.8633,67.13481,139.59106
"73285",1023.8766,67.54742,139.60164
"73286",1023.8899,68.67536,140.34044
"73287",1023.9032,71.448845,142.76003
"73288",1023.9165,76.52949,147.57344
"73289",1023.9298,83.85382,154.78932
"73290",1023.9431,92.613716,163.66965
"73291",1023.9564,101.54452,172.99463
"73292",1023.9697,109.22774,181.35112
"73293",1023.98303,114.616005,187.65276
"73294",1023.99634,117.42611,191.54462
"73295",1024.0096,117.99252,193.2806
"73296",1024.023,116.79378,193.26912
"73297",1024.0363,114.193634,191.81879
"73298",1024.0496,110.49973,189.19344
"73299",1024.0629,106.002594,185.64941
"73300",1024.0762,100.98299,181.44238
"73301",1024.0895,95.71435,176.82947
"73302",1024.1028,90.460365,172.06656
"73303",1024.1161,85.44564,167.37872
"73304",1024.1294,80.86549,162.96875
"73305",1024.1427,76.89082,159.02113
"73306",1024.156,73.704735,155.73788
"73307",1024.1693,71.49523,153.33165
"73308",1024.1826,70.467384,152.03802
"73309",1024.1959,70.77501,152.04776
"73310",1024.2092,72.40589,153.39037
"73311",1024.2225,75.09636,155.84352
"73312",1024.2358,78.36057,158.9545
"73313",1024.2491,81.60525,162.14793
"73314",1024.2625,84.29328,164.88614
"73315",1024.2758,86.07065,166.79767
"73316",1024.2891,86.82994,167.74667
"73317",1024.3024,86.64927,167.77943
"73318",1024.3157,85.72152,167.05948
"73319",1024.329,84.23468,165.75143
"73320",1024.3423,82.35233,164.00142
"73321",1024.3556,80.2063,161.9289
"73322",1024.3689,77.92111,159.65015
"73323",1024.3822,75.58709,157.25116
"73324",1024.3955,73.3019,154.82806
"73325",1024.4088,71.133896,152.45074
"73326",1024.4221,69.13924,150.17902
"73327",1024.4354,67.36431,148.0647
"73328",1024.4487,65.83597,146.1415
"73329",1024.462,64.566414,144.42932
"73330",1024.4753,63.56054,142.94115
"73331",1024.4886,62.796368,141.66324
"73332",1024.502,62.25925,140.5885
"73333",1024.5153,61.93454,139.7094
"73334",1024.5286,61.8027,139.01302
"73335",1024.5419,61.841763,138.48341
"73336",1024.5552,62.032196,138.1064
"73337",1024.5685,62.354465,137.86717
"73338",1024.5818,62.779278,137.74057
"73339",1024.5951,63.279774,137.70291
"73340",1024.6084,63.83154,137.73218
"73341",1024.6217,64.40772,137.8031
"73342",1024.635,64.97414,137.88226
"73343",1024.6483,65.516136,137.95471
"73344",1024.6616,66.14847,138.13443
"73345",1024.6749,67.32769,138.8808
"73346",1024.6882,69.91318,141.07028
"73347",1024.7015,74.73258,145.57448
"73348",1024.7148,81.95682,152.63411
"73349",1024.7281,90.916916,161.65536
"73350",1024.7415,100.35798,171.43758
"73351",1024.7548,108.79317,180.50896
"73352",1024.7681,114.98955,187.60512
"73353",1024.7814,118.434425,192.14342
"73354",1024.7947,119.398796,194.30887
"73355",1024.808,118.45396,194.59525
"73356",1024.8213,116.06378,193.40675
"73357",1024.8346,112.52857,190.99854
"73358",1024.8479,108.09247,187.57895
"73359",1024.8612,102.99962,183.36398
"73360",1024.8745,97.49905,178.58215
"73361",1024.8878,91.85443,173.48438
"73362",1024.9011,86.31968,168.32007
"73363",1024.9144,81.11696,163.31483
"73364",1024.9277,76.44648,158.67926
"73365",1024.941,72.49134,154.61307
"73366",1024.9543,69.42733,151.3144
"73367",1024.9677,67.46685,149.02353
"73368",1024.981,66.829636,147.99466
"73369",1024.9943,67.65728,148.41074
"73370",1025.0076,69.90585,150.2736
"73371",1025.0209,73.26284,153.31516
"73372",1025.0342,77.18379,157.02557
"73373",1025.0475,81.01198,160.76575
"73374",1025.0608,84.15411,163.93951
"73375",1025.0741,86.22934,166.14456
"73376",1025.0874,87.115585,167.22548
"73377",1025.1007,86.922714,167.25497
"73378",1025.114,85.87778,166.42638
"73379",1025.1273,84.23224,164.96452
"73380",1025.1406,82.18875,163.0533
"73381",1025.1539,79.89624,160.8292
"73382",1025.1672,77.45724,158.38695
"73383",1025.1805,74.96208,155.81233
"73384",1025.1938,72.48646,153.17928
"73385",1025.2072,70.10849,150.56651
"73386",1025.2205,67.89899,148.0479
"73387",1025.2338,65.91409,145.68484
"73388",1025.2471,64.19287,143.52344
"73389",1025.2604,62.74998,141.58658
"73390",1025.2737,61.575645,139.87318
"73391",1025.287,60.652782,138.37456
"73392",1025.3003,59.97406,137.09123
"73393",1025.3136,59.53704,136.0284
"73394",1025.3269,59.34905,135.20094
"73395",1025.3402,59.41253,134.61908
"73396",1025.3535,59.715267,134.27846
"73397",1025.3668,60.22797,134.15726
"73398",1025.3801,60.9189,134.23032
"73399",1025.3934,61.756313,134.47145
"73400",1025.4067,62.776836,134.92186
"73401",1025.42,64.271,135.8778
"73402",1025.4333,66.90044,138.01572
"73403",1025.4467,71.505,142.21092
"73404",1025.46,78.48997,148.93042
"73405",1025.4733,87.44518,157.83844
"73406",1025.4866,97.2256,167.85152
"73407",1025.4999,106.34684,177.51105
"73408",1025.5132,113.42458,185.41212
"73409",1025.5265,117.67269,190.70474
"73410",1025.5398,119.14732,193.35664
"73411",1025.5531,118.44175,193.87442
"73412",1025.5664,116.16876,192.80273
"73413",1025.5797,112.70191,190.46616
"73414",1025.593,108.27314,187.05933
"73415",1025.6063,103.08995,182.75967
"73416",1025.6196,97.39651,177.7878
"73417",1025.6329,91.46136,172.39629
"73418",1025.6462,85.56039,166.85349
"73419",1025.6595,79.95239,161.41925
"73420",1025.6729,74.84245,156.30783
"73421",1025.6862,70.38926,151.69347
"73422",1025.6995,66.74418,147.74805
"73423",1025.7128,64.08545,144.67508
"73424",1025.7261,62.632793,142.7251
"73425",1025.7394,62.591286,142.14087
"73426",1025.7527,64.07324,143.0788
"73427",1025.766,66.98833,145.49617
"73428",1025.7793,70.99962,149.10085
"73429",1025.7926,75.545586,153.36555
"73430",1025.8059,79.95972,157.64049
"73431",1025.8192,83.62432,161.30383
"73432",1025.8325,86.12192,163.91469
"73433",1025.8458,87.30358,165.28766
"73434",1025.8591,87.259636,165.47195
"73435",1025.8724,86.25132,164.6905
"73436",1025.8857,84.576485,163.21103
"73437",1025.899,82.50126,161.27882
"73438",1025.9124,80.21118,159.06691
"73439",1025.9257,77.84299,156.70532
"73440",1025.939,75.50164,154.29657
"73441",1025.9523,73.272606,151.92696
"73442",1025.9656,71.21446,149.65858
"73443",1025.9789,69.38094,147.55052
"73444",1025.9922,67.80377,145.64151
"73445",1026.0055,66.49027,143.94688
"73446",1026.0188,65.43801,142.47244
"73447",1026.0321,64.639656,141.21902
"73448",1026.0454,64.08301,140.18237
"73449",1026.0587,63.733883,139.33585
"73450",1026.072,63.56054,138.65419
"73451",1026.0853,63.519035,138.09895
"73452",1026.0986,63.589836,137.65472
"73453",1026.1119,63.863277,137.41534
"73454",1026.1252,64.75441,137.8022
"73455",1026.1385,67.06889,139.64026
"73456",1026.1519,71.70519,143.87247
"73457",1026.1652,79.00755,150.91562
"73458",1026.1785,88.40223,160.27928
"73459",1026.1918,98.54154,170.68117
"73460",1026.2051,107.78729,180.50635
"73461",1026.2184,114.701454,188.28886
"73462",1026.2317,118.58579,193.25763
"73463",1026.245,119.63073,195.50838
"73464",1026.2583,118.54185,195.65796
"73465",1026.2716,115.97345,194.29399
"73466",1026.2849,112.31129,191.756
"73467",1026.2982,107.80194,188.25638
"73468",1026.3115,102.65537,183.97862
"73469",1026.3248,97.10841,179.13965
"73470",1026.3381,91.40032,173.96619
"73471",1026.3514,85.75815,168.68027
"73472",1026.3647,80.38209,163.48415
"73473",1026.378,75.44793,158.56192
"73474",1026.3914,71.12901,154.10075
"73475",1026.4047,67.62554,150.32007
"73476",1026.418,65.179214,147.48705
"73477",1026.4313,64.009766,145.85445
"73478",1026.4446,64.27589,145.62088
"73479",1026.4579,65.97757,146.83118
"73480",1026.4712,68.9073,149.32271
"73481",1026.4845,72.64515,152.71391
"73482",1026.4978,76.63691,156.47583
"73483",1026.5111,80.308846,160.04266
"73484",1026.5244,83.18486,162.92833
"73485",1026.5377,84.979324,164.82233
"73486",1026.551,85.63851,165.63712
"73487",1026.5643,85.28939,165.4642
"73488",1026.5776,84.16144,164.50154
"73489",1026.591,82.49882,162.96896
"73490",1026.6042,80.52125,161.06949
"73491",1026.6176,78.38499,158.94952
"73492",1026.6309,76.19745,156.71152
"73493",1026.6442,74.05386,154.4491
"73494",1026.6575,72.01282,152.22223
"73495",1026.6708,70.13046,150.09027
"73496",1026.6841,68.45075,148.10214
"73497",1026.6974,67.002975,146.29346
"73498",1026.7107,65.80423,144.68855
"73499",1026.724,64.83986,143.28056
"73500",1026.7373,64.10498,142.07193
"73501",1026.7506,63.570305,141.04053
"73502",1026.7639,63.20653,140.16333
"73503",1026.7772,62.98436,139.41637
"73504",1026.7905,62.923325,138.8236
"73505",1026.8038,63.2578,138.62442
"73506",1026.8171,64.65919,139.50261
"73507",1026.8304,68.157776,142.52179
"73508",1026.8438,74.495766,148.48972
"73509",1026.857,83.51446,157.3364
"73510",1026.8704,94.10788,168.03964
"73511",1026.8837,104.61585,178.98848
"73512",1026.897,113.33181,188.47368
"73513",1026.9103,119.098495,195.28198
"73514",1026.9236,121.720604,199.12592
"73515",1026.9369,121.79141,200.50049
"73516",1026.9502,120.079956,200.09502
"73517",1026.9635,117.09895,198.36652
"73518",1026.9768,113.13893,195.56584
"73519",1026.9901,108.436714,191.89922
"73520",1027.0034,103.22667,187.57782
"73521",1027.0167,97.75784,182.83482
"73522",1027.03,92.28413,177.91605
"73523",1027.0433,87.027695,173.04349
"73524",1027.0566,82.16678,168.40219
"73525",1027.07,77.84787,164.151
"73526",1027.0833,74.212555,160.44843
"73527",1027.0966,71.414665,157.46968
"73528",1027.1099,69.644615,155.43134
"73529",1027.1232,69.08064,154.54376
"73530",1027.1365,69.81552,154.93741
"73531",1027.1498,71.75647,156.56009
"73532",1027.1631,74.59586,159.14188
"73533",1027.1764,77.84299,162.22012
"73534",1027.1897,80.9485,165.25822
"73535",1027.203,83.43145,167.77081
"73536",1027.2163,84.98665,169.43324
"73537",1027.2296,85.514,170.11642
"73538",1027.2429,85.101395,169.87613
"73539",1027.2562,83.95148,168.88564
"73540",1027.2695,82.269325,167.32697
"73541",1027.2828,80.25025,165.37881
"73542",1027.2961,78.0383,163.17468
"73543",1027.3094,75.74578,160.82086
"73544",1027.3228,73.460594,158.40273
"73545",1027.336,71.255974,155.99374
"73546",1027.3494,69.20027,153.6648
"73547",1027.3627,67.34234,151.46938
"73548",1027.376,65.71877,149.45026
"73549",1027.3893,64.34669,147.63188
"73550",1027.4026,63.230946,146.02698
"73551",1027.4159,62.352024,144.62402
"73552",1027.4292,61.685513,143.406
"73553",1027.4425,61.1899,142.33806
"73554",1027.4558,60.843212,141.40355
"73555",1027.4691,60.713818,140.6755
"73556",1027.4824,61.20943,140.56842
"73557",1027.4957,63.20165,141.97343
"73558",1027.509,67.64507,145.8919
"73559",1027.5223,74.87175,152.7325
"73560",1027.5356,84.27131,161.9718
"73561",1027.549,94.49851,172.33249
"73562",1027.5623,103.91272,182.19977
"73563",1027.5756,111.06859,190.1029
"73564",1027.5889,115.27276,195.27797
"73565",1027.6022,116.7425,197.84998
"73566",1027.6155,116.16388,198.41956
"73567",1027.6288,114.108185,197.49399
"73568",1027.6421,110.92699,195.37866
"73569",1027.6554,106.879074,192.29721
"73570",1027.6687,102.21347,188.47157
"73571",1027.682,97.179214,184.13148
"73572",1027.6953,92.02777,179.51689
"73573",1027.7086,86.98863,174.85362
"73574",1027.7219,82.262,170.34538
"73575",1027.7352,78.00168,166.15575
"73576",1027.7485,74.35172,162.44334
"73577",1027.7618,71.47326,159.38837
"73578",1027.7751,69.54452,157.19316
"73579",1027.7885,68.73884,156.06075
"73580",1027.8018,69.14656,156.11656
"73581",1027.8151,70.69688,157.32771
"73582",1027.8284,73.109024,159.44914
"73583",1027.8417,75.945984,162.07076
"73584",1027.855,78.70481,164.7029
"73585",1027.8683,80.9485,166.90611
"73586",1027.8816,82.39628,168.38353
"73587",1027.8949,82.948044,169.01018
"73588",1027.9082,82.65751,168.81177
"73589",1027.9215,81.685814,167.92313
"73590",1027.9348,80.20874,166.49873
"73591",1027.9481,78.39475,164.69127
"73592",1027.9614,76.385445,162.63179
"73593",1027.9747,74.288246,160.42163
"73594",1027.988,72.1886,158.1435
"73595",1028.0013,70.149994,155.86078
"73596",1028.0146,68.243225,153.6462
"73597",1028.028,66.5098,151.54538
"73598",1028.0413,64.98634,149.60036
"73599",1028.0546,63.680172,147.82501
"73600",1028.0679,62.591286,146.22614
"73601",1028.0812,61.69772,144.78854
"73602",1028.0945,60.97261,143.49149
"73603",1028.1078,60.406197,142.33046
"73604",1028.1211,60.074158,141.38611
"73605",1028.1344,60.35004,141.0393
"73606",1028.1477,62.05417,142.12938
"73607",1028.161,66.09964,145.61404
"73608",1028.1743,72.813614,151.89363
"73609",1028.1876,81.636986,160.49243
"73610",1028.2009,91.32952,170.23613
"73611",1028.2142,100.34089,179.60155
"73612",1028.2275,107.26971,187.16602
"73613",1028.2408,111.415276,192.16376
"73614",1028.2542,112.9485,194.67871
"73615",1028.2675,112.482185,195.24203
"73616",1028.2808,110.54856,194.32349
"73617",1028.2941,107.49676,192.22632
"73618",1028.3074,103.59777,189.1866
"73619",1028.3207,99.11772,185.44398
"73620",1028.334,94.32029,181.24399
"73621",1028.3473,89.45205,176.82326
"73622",1028.3606,84.73762,172.4042
"73623",1028.3739,80.35523,168.16988
"73624",1028.3872,76.439156,164.26491
"73625",1028.4005,73.128555,160.84303
"73626",1028.4138,70.57969,158.07944
"73627",1028.4271,68.97566,156.18103
"73628",1028.4404,68.489815,155.35068
"73629",1028.4537,69.19539,155.69656
"73630",1028.467,70.97032,157.13385
"73631",1028.4803,73.48745,159.3688
"73632",1028.4937,76.27314,161.95097
"73633",1028.507,78.82933,164.3907
"73634",1028.5203,80.75807,166.28285
"73635",1028.5336,81.846954,167.39543
"73636",1028.5469,82.074005,167.6802
"73637",1028.5602,81.55154,167.22255
"73638",1028.5735,80.43824,166.15775
"73639",1028.5868,78.90013,164.63333
"73640",1028.6001,77.083694,162.78252
"73641",1028.6134,75.10857,160.71625
"73642",1028.6267,73.06508,158.5199
"73643",1028.64,71.043564,156.28166
"73644",1028.6533,69.11482,154.07303
"73645",1028.6666,67.32525,151.9433
"73646",1028.6799,65.71389,149.93585
"73647",1028.6932,64.29542,148.07094
"73648",1028.7065,63.07469,146.35944
"73649",1028.7198,62.044403,144.80023
"73650",1028.7332,61.1899,143.38461
"73651",1028.7465,60.50141,142.1083
"73652",1028.7598,60.09613,141.09369
"73653",1028.7731,60.41108,140.78664
"73654",1028.7864,62.303196,142.0666
"73655",1028.7997,66.617226,145.8276
"73656",1028.813,73.51919,152.31136
"73657",1028.8263,82.32548,160.91512
"73658",1028.8396,91.74212,170.40443
"73659",1028.8529,100.24811,179.27736
"73660",1028.8662,106.547035,186.20905
"73661",1028.8795,110.10422,190.59583
"73662",1028.8928,111.19798,192.63034
"73663",1028.9061,110.433815,192.84111
"73664",1028.9194,108.29511,191.65347
"73665",1028.9327,105.10658,189.34917
"73666",1028.946,101.14412,186.17128
"73667",1028.9594,96.67872,182.36664
"73668",1028.9727,91.966736,178.17587
"73669",1028.986,87.259636,173.84273
"73670",1028.9993,82.75273,169.56268
"73671",1029.0126,78.60227,165.49825
"73672",1029.0259,74.95232,161.80461
"73673",1029.0392,71.96155,158.6561
"73674",1029.0525,69.81552,156.25887
"73675",1029.0658,68.70954,154.83463
"73676",1029.0791,68.787674,154.55994
"73677",1029.0924,70.04013,155.462
"73678",1029.1057,72.2301,157.34073
"73679",1029.119,74.949875,159.81769
"73680",1029.1323,77.69894,162.40894
"73681",1029.1456,80.01831,164.6564
"73682",1029.1589,81.583275,166.22194
"73683",1029.1722,82.27421,166.96236
"73684",1029.1855,82.13016,166.88937
"73685",1029.1989,81.29275,166.11853
"73686",1029.2122,79.9353,164.80148
"73687",1029.2255,78.23117,163.09534
"73688",1029.2388,76.32685,161.13574
"73689",1029.2521,74.33463,159.02873
"73690",1029.2654,72.3473,156.86435
"73691",1029.2787,70.43809,154.71599
"73692",1029.292,68.663155,152.64224
"73693",1029.3053,67.05913,150.68394
"73694",1029.3186,65.64553,148.86595
"73695",1029.3319,64.429695,147.20154
"73696",1029.3452,63.40429,145.68956
"73697",1029.3585,62.559547,144.3262
"73698",1029.3718,61.87106,143.0927
"73699",1029.3851,61.351032,142.00613
"73700",1029.3984,61.197224,141.26955
"73701",1029.4117,62.02487,141.50961
"73702",1029.425,64.778824,143.70184
"73703",1029.4384,70.09384,148.5412
"73704",1029.4517,77.80148,155.93927
"73705",1029.465,86.94957,165.01865
"73706",1029.4783,96.129395,174.41565
"73707",1029.4916,103.84192,182.63222
"73708",1029.5049,109.049515,188.58487
"73709",1029.5182,111.56664,192.0098
"73710",1029.5315,111.8645,193.29411
"73711",1029.5448,110.50706,192.93243
"73712",1029.5581,107.89227,191.271
"73713",1029.5714,104.32044,188.5708
"73714",1029.5847,100.069885,185.08026
"73715",1029.598,95.414055,181.05162
"73716",1029.6113,90.6215,176.74075
"73717",1029.6246,85.91928,172.37045
"73718",1029.638,81.48806,168.1242
"73719",1029.6512,77.488976,164.17163
"73720",1029.6646,74.08316,160.68735
"73721",1029.6779,71.45129,157.87057
"73722",1029.6912,69.79355,155.9457
"73723",1029.7045,69.28817,155.12137
"73724",1029.7178,69.9913,155.48976
"73725",1029.7311,71.75403,156.93971
"73726",1029.7444,74.22476,159.15276
"73727",1029.7577,76.91524,161.66275
"73728",1029.771,79.33959,163.9907
"73729",1029.7843,81.12428,165.75476
"73730",1029.7976,82.08377,166.74939
"73731",1029.8109,82.22049,166.95123
"73732",1029.8242,81.64187,166.442
"73733",1029.8375,80.51392,165.36537
"73734",1029.8508,78.99779,163.8653
"73735",1029.8641,77.225296,162.06148
"73736",1029.8774,75.31609,160.06557
"73737",1029.8907,73.358055,157.96115
"73738",1029.904,71.42931,155.82484
"73739",1029.9174,69.59579,153.72348
"73740",1029.9307,67.90143,151.704
"73741",1029.944,66.38529,149.80978
"73742",1029.9573,65.06203,148.06107
"73743",1029.9706,63.934082,146.46631
"73744",1029.9839,62.9868,145.01697
"73745",1029.9972,62.20554,143.70404
"73746",1030.0105,61.56588,142.5083
"73747",1030.0238,61.099564,141.46591
"73748",1030.0371,61.05806,140.83377
"73749",1030.0504,62.129856,141.31363
"73750",1030.0637,65.23537,143.8607
"73751",1030.077,70.906845,149.07079
"73752",1030.0903,78.8513,156.73108
"73753",1030.1036,88.03113,165.875
"73754",1030.117,97.02052,175.11537
"73755",1030.1302,104.361946,182.98868
"73756",1030.1436,109.13252,188.52057
"73757",1030.1569,111.25414,191.55258
"73758",1030.1702,111.23216,192.5073
"73759",1030.1835,109.608604,191.85974
"73760",1030.1968,106.759445,189.93585
"73761",1030.2101,102.99962,187.01225
"73762",1030.2234,98.62211,183.35349
"73763",1030.2367,93.91745,179.23077
"73764",1030.25,89.13954,174.88779
"73765",1030.2633,84.508125,170.54198
"73766",1030.2766,80.18677,166.3615
"73767",1030.2899,76.32441,162.50497
"73768",1030.3032,73.074844,159.14055
"73769",1030.3165,70.6334,156.4827
"73770",1030.3298,69.21492,154.77151
"73771",1030.3431,68.9781,154.19766
"73772",1030.3564,69.942474,154.8176
"73773",1030.3698,71.91028,156.4711
"73774",1030.383,74.476234,158.78426
"73775",1030.3964,77.13252,161.26793
"73776",1030.4097,79.412834,163.45863
"73777",1030.423,80.98024,165.00769
"73778",1030.4363,81.688255,165.74634
"73779",1030.4496,81.57107,165.68192
"73780",1030.4629,80.765396,164.92534
"73781",1030.4762,79.4519,163.63576
"73782",1030.4895,77.79904,161.96577
"73783",1030.5028,75.95575,160.0537
"73784",1030.5161,74.02457,157.99612
"73785",1030.5294,72.09338,155.8782
"73786",1030.5427,70.21591,153.75365
"73787",1030.556,68.44587,151.67786
"73788",1030.5693,66.82475,149.69568
"73789",1030.5826,65.374535,147.83374
"73790",1030.596,64.1001,146.10226
"73791",1030.6093,62.996567,144.50186
"73792",1030.6226,62.044403,143.01834
"73793",1030.6359,61.22652,141.63934
"73794",1030.6492,60.528267,140.35442
"73795",1030.6625,59.99359,139.21124
"73796",1030.6758,59.869076,138.46153
"73797",1030.6891,60.831005,138.79437
"73798",1030.7024,63.841305,141.20564
"73799",1030.7157,69.50057,146.35995
"73800",1030.729,77.591515,154.12279
"73801",1030.7423,87.07652,163.53253
"73802",1030.7556,96.45899,173.13614
"73803",1030.7689,104.21057,181.40207
"73804",1030.7822,109.313194,187.26128
"73805",1030.7955,111.61791,190.48203
"73806",1030.8088,111.65209,191.50427
"73807",1030.8221,110.02609,190.8674
"73808",1030.8354,107.15495,188.93457
"73809",1030.8488,103.360954,185.98917
"73810",1030.862,98.91753,182.27577
"73811",1030.8754,94.09079,178.0402
"73812",1030.8887,89.144424,173.53418
"73813",1030.902,84.315254,168.99077
"73814",1030.9153,79.798584,164.60895
"73815",1030.9286,75.76776,160.57184
"73816",1030.9419,72.41566,157.08748
"73817",1030.9552,69.93759,154.3724
"73818",1030.9685,68.52888,152.64925
"73819",1030.9818,68.34821,152.1101
"73820",1030.9951,69.400475,152.79825
"73821",1031.0084,71.49035,154.55688
"73822",1031.0217,74.212555,157.01317
"73823",1031.035,77.06416,159.68391
"73824",1031.0483,79.54955,162.07756
"73825",1031.0616,81.31472,163.82864
"73826",1031.075,82.20584,164.76085
"73827",1031.0883,82.24246,164.86641
"73828",1031.1016,81.566185,164.26021
"73829",1031.1149,80.35035,163.09332
"73830",1031.1282,78.75365,161.50757
"73831",1031.1415,76.91768,159.63264
"73832",1031.1548,74.94743,157.56607
"73833",1031.1681,72.94301,155.40375
"73834",1031.1814,70.98009,153.22029
"73835",1031.1947,69.13435,151.09268
"73836",1031.208,67.44976,149.06854
"73837",1031.2213,65.95804,147.18463
"73838",1031.2346,64.656746,145.44453
"73839",1031.2479,63.54589,143.8542
"73840",1031.2612,62.603493,142.39761
"73841",1031.2745,61.807583,141.05806
"73842",1031.2878,61.19234,139.8743
"73843",1031.3011,61.033646,139.12787
"73844",1031.3145,62.01999,139.52151
"73845",1031.3278,65.08156,142.02121
"73846",1031.3411,70.76524,147.2387
"73847",1031.3544,78.79515,154.98001
"73848",1031.3677,88.10925,164.25647
"73849",1031.381,97.22316,173.6238
"73850",1031.3943,104.654915,181.59378
"73851",1031.4076,109.44991,187.15924
"73852",1031.4209,111.5227,190.15233
"73853",1031.4342,111.38598,191.0007
"73854",1031.4475,109.63058,190.2261
"73855",1031.4608,106.669106,188.19058
"73856",1031.4741,102.7921,185.14699
"73857",1031.4874,98.26566,181.33281
"73858",1031.5007,93.33639,176.97433
"73859",1031.514,88.25086,172.30557
"73860",1031.5273,83.228806,167.54135
"73861",1031.5406,78.4802,162.89365
"73862",1031.554,74.21988,158.58583
"73863",1031.5673,70.67979,154.86511
"73864",1031.5806,68.10651,152.00058
"73865",1031.5939,66.74662,150.26903
"73866",1031.6072,66.75639,149.86464
"73867",1031.6205,68.138245,150.83263
"73868",1031.6338,70.660255,152.98396
"73869",1031.6471,73.863434,155.89528
"73870",1031.6604,77.1667,159.00677
"73871",1031.6737,80.03052,161.78204
"73872",1031.687,82.04959,163.80206
"73873",1031.7003,83.04814,164.86467
"73874",1031.7136,83.055466,164.96725
"73875",1031.7269,82.24246,164.24974
"73876",1031.7402,80.82887,162.90623
"73877",1031.7535,79.027084,161.13036
"73878",1031.7668,77.015335,159.0882
"73879",1031.7802,74.915695,156.89528
"73880",1031.7935,72.82826,154.64896
"73881",1031.8068,70.82872,152.4253
"73882",1031.8201,68.963455,150.27342
"73883",1031.8334,67.26421,148.2293
"73884",1031.8467,65.74807,146.31516
"73885",1031.86,64.42237,144.54408
"73886",1031.8733,63.277332,142.91225
"73887",1031.8866,62.337376,141.4497
"73888",1031.8999,61.780727,140.3411
"73889",1031.9132,62.16892,140.15993
"73890",1031.9265,64.4004,141.83418
"73891",1031.9398,69.19295,146.13925
"73892",1031.9531,76.50996,153.11855
"73893",1031.9664,85.49203,161.99155
"73894",1031.9797,94.74021,171.41136
"73895",1031.993,102.728615,179.8604
"73896",1032.0063,108.299995,186.14204
"73897",1032.0197,111.11742,189.84384
"73898",1032.033,111.569084,191.26793
"73899",1032.0463,110.26292,190.9483
"73900",1032.0596,107.65545,189.28656
"73901",1032.0729,104.05676,186.55211
"73902",1032.0862,99.73052,182.97765
"73903",1032.0995,94.93553,178.79924
"73904",1032.1128,89.92813,174.25858
"73905",1032.1261,84.93782,169.57852
"73906",1032.1394,80.17212,164.96713
"73907",1032.1527,75.83368,160.63406
"73908",1032.166,72.130005,156.80019
"73909",1032.1793,69.29305,153.7173
"73910",1032.1926,67.562065,151.65172
"73911",1032.2059,67.12993,150.8309
"73912",1032.2192,68.067444,151.36623
"73913",1032.2325,70.23056,153.15645
"73914",1032.2458,73.23842,155.85901
"73915",1032.2592,76.53437,158.94366
"73916",1032.2725,79.54711,161.8481
"73917",1032.2858,81.812775,164.09961
"73918",1032.2991,83.070114,165.4136
"73919",1032.3124,83.29229,165.73172
"73920",1032.3257,82.62577,165.16809
"73921",1032.339,81.29763,163.92201
"73922",1032.3523,79.53002,162.19496
"73923",1032.3656,77.50851,160.15875
"73924",1032.3789,75.372246,157.94463
"73925",1032.3922,73.22865,155.65642
"73926",1032.4055,71.1461,153.36226
"73927",1032.4188,69.19539,151.13486
"73928",1032.4321,67.4107,149.01253
"73929",1032.4454,65.80911,147.01753
"73930",1032.4587,64.395515,145.16048
"73931",1032.472,63.194324,143.47165
"73932",1032.4854,62.35935,142.1115
"73933",1032.4987,62.400856,141.60173
"73934",1032.512,64.20752,142.85843
"73935",1032.5253,68.54597,146.70337
"73936",1032.5386,75.46258,153.26204
"73937",1032.5519,84.19562,161.85329
"73938",1032.5652,93.40963,171.19841
"73939",1032.5785,101.57137,179.7792
"73940",1032.5918,107.46014,186.34207
"73941",1032.6051,110.63401,190.37407
"73942",1032.6184,111.415276,192.11264
"73943",1032.6317,110.38743,192.06653
"73944",1032.645,108.00946,190.63817
"73945",1032.6583,104.62318,188.12718
"73946",1032.6716,100.51423,184.7877
"73947",1032.6849,95.95361,180.86816
"73948",1032.6982,91.18791,176.60101
"73949",1032.7115,86.44663,172.20935
"73950",1032.7249,81.92996,167.89413
"73951",1032.7382,77.806366,163.83086
"73952",1032.7515,74.26383,160.21977
"73953",1032.7648,71.50744,157.28412
"73954",1032.7781,69.74471,155.256
"73955",1032.7914,69.15877,154.34958
"73956",1032.8047,69.805756,154.65778
"73957",1032.818,71.553825,156.08728
"73958",1032.8313,74.056305,158.32582
"73959",1032.8446,76.82735,160.91112
"73960",1032.8579,79.361565,163.34619
"73961",1032.8712,81.253685,165.21835
"73962",1032.8845,82.28886,166.29271
"73963",1032.8978,82.43534,166.51073
"73964",1032.9111,81.79813,165.94962
"73965",1032.9244,80.56275,164.77043
"73966",1032.9377,78.9099,163.13516
"73967",1032.951,77.00069,161.19188
"73968",1032.9644,74.969406,159.06686
"73969",1032.9777,72.92836,156.8686
"73970",1032.991,70.93858,154.65784
"73971",1033.0043,69.051346,152.48743
"73972",1033.0176,67.28863,150.38257
"73973",1033.0309,65.669945,148.36665
"73974",1033.0442,64.21484,146.46375
"73975",1033.0575,63.03563,144.79124
"73976",1033.0708,62.54734,143.77283
"73977",1033.0841,63.575188,144.25528
"73978",1033.0974,66.949265,147.11609
"73979",1033.1107,72.90883,152.66782
"73980",1033.124,80.89967,160.43706
"73981",1033.1373,89.762115,169.3276
"73982",1033.1506,98.04593,177.91649
"73983",1033.164,104.44251,184.87701
"73984",1033.1772,108.30732,189.50565
"73985",1033.1906,109.769745,191.85268
"73986",1033.2039,109.332726,192.34596
"73987",1033.2172,107.44305,191.37292
"73988",1033.2305,104.45716,189.24463
"73989",1033.2438,100.69001,186.24176
"73990",1033.2571,96.44434,182.64265
"73991",1033.2704,91.99115,178.70334
"73992",1033.2837,87.56481,174.65172
"73993",1033.297,83.336235,170.65955
"73994",1033.3103,79.43725,166.86482
"73995",1033.3236,75.99237,163.40236
"73996",1033.3369,73.14809,160.43283
"73997",1033.3502,71.097275,158.1679
"73998",1033.3635,70.03281,156.82521
"73999",1033.3768,70.07187,156.5528
"74000",1033.3901,71.17052,157.34119
"74001",1033.4034,73.077286,158.97203
"74002",1033.4167,75.38201,161.06042
"74003",1033.43,77.61837,163.15247
"74004",1033.4434,79.38598,164.84564
"74005",1033.4567,80.44068,165.88115
"74006",1033.47,80.706795,166.16104
"74007",1033.4833,80.24048,165.71681
"74008",1033.4966,79.17357,164.65741
"74009",1033.5099,77.66964,163.12766
"74010",1033.5232,75.88983,161.27502
"74011",1033.5365,73.95865,159.2154
"74012",1033.5498,71.97131,157.03926
"74013",1033.5631,70.00107,154.81812
"74014",1033.5764,68.0943,152.59888
"74015",1033.5897,66.27787,150.4104
"74016",1033.603,64.5835,148.28722
"74017",1033.6163,63.064926,146.28687
"74018",1033.6296,61.946747,144.63947
"74019",1033.643,61.81979,143.94835
"74020",1033.6562,63.575188,145.13562
"74021",1033.6696,67.8526,148.89975
"74022",1033.6829,74.58366,155.2512
"74023",1033.6962,82.97002,163.4683
"74024",1033.7095,91.720146,172.31125
"74025",1033.7228,99.39605,180.35341
"74026",1033.7361,104.89418,186.45767
"74027",1033.7494,107.87518,190.21661
"74028",1033.7627,108.629585,191.84212
"74029",1033.776,107.63836,191.74556
"74030",1033.7893,105.31655,190.28745
"74031",1033.8026,102.030365,187.7924
"74032",1033.8159,98.126495,184.57698
"74033",1033.8292,93.92233,180.93927
"74034",1033.8425,89.68398,177.13599
"74035",1033.8558,85.6141,173.36873
"74036",1033.8691,81.83963,169.7697
"74037",1033.8824,78.44358,166.43114
"74038",1033.8958,75.526054,163.46497
"74039",1033.909,73.22621,161.02531
"74040",1033.9224,71.707634,159.29506
"74041",1033.9357,71.10948,158.43777
"74042",1033.949,71.47082,158.52129
"74043",1033.9623,72.66224,159.44617
"74044",1033.9756,74.390785,160.9454
"74045",1033.9889,76.27314,162.65247
"74046",1034.0022,77.93332,164.19618
"74047",1034.0155,79.097885,165.29616
"74048",1034.0288,79.62035,165.79044
"74049",1034.0421,79.483635,165.64185
"74050",1034.0554,78.75365,164.89572
"74051",1034.0687,77.54513,163.64825
"74052",1034.082,75.98505,162.01146
"74053",1034.0953,74.19791,160.09885
"74054",1034.1086,72.28138,158.001
"74055",1034.122,70.328224,155.80664
"74056",1034.1353,68.40925,153.58542
"74057",1034.1486,66.58549,151.39944
"74058",1034.1619,64.91066,149.30542
"74059",1034.1752,63.418938,147.34216
"74060",1034.1885,62.18601,145.59108
"74061",1034.2018,61.526817,144.3752
"74062",1034.2151,62.1738,144.4449
"74063",1034.2284,64.96437,146.6784
"74064",1034.2417,70.259865,151.50403
"74065",1034.255,77.70138,158.64116
"74066",1034.2683,86.30747,167.17542
"74067",1034.2816,94.72556,175.79062
"74068",1034.2949,101.607994,183.13322
"74069",1034.3082,106.141754,188.34224
"74070",1034.3215,108.27314,191.29056
"74071",1034.3348,108.387886,192.28883
"74072",1034.3481,106.91814,191.7062
"74073",1034.3615,104.25941,189.88867
"74074",1034.3748,100.79988,187.18726
"74075",1034.3881,96.90822,183.94559
"74076",1034.4014,92.90181,180.46756
"74077",1034.4147,89.022354,176.99129
"74078",1034.428,85.42123,173.6721
"74079",1034.4413,82.178986,170.59927
"74080",1034.4546,79.33715,167.82553
"74081",1034.4679,76.9543,165.42197
"74082",1034.4812,75.13786,163.51035
"74083",1034.4945,74.00992,162.23045
"74084",1034.5078,73.651024,161.68437
"74085",1034.5211,74.0441,161.87904
"74086",1034.5344,75.04021,162.68903
"74087",1034.5477,76.36347,163.8573
"74088",1034.561,77.71114,165.09132
"74089",1034.5743,78.80492,166.11357
"74090",1034.5876,79.45922,166.73053
"74091",1034.601,79.586174,166.84058
"74092",1034.6143,79.17601,166.41748
"74093",1034.6276,78.27268,165.4884
"74094",1034.6409,76.97139,164.13313
"74095",1034.6542,75.38201,162.44911
"74096",1034.6675,73.60708,160.52986
"74097",1034.6808,71.74914,158.47214
"74098",1034.6941,69.89609,156.36125
"74099",1034.7074,68.11139,154.2608
"74100",1034.7207,66.441444,152.21935
"74101",1034.734,64.920425,150.27463
"74102",1034.7473,63.570305,148.45328
"74103",1034.7606,62.42527,146.79482
"74104",1034.7739,61.690395,145.51073
"74105",1034.7872,61.96872,145.21687
"74106",1034.8005,64.10986,146.79454
"74107",1034.8138,68.663155,150.85126
"74108",1034.8271,75.508965,157.34279
"74109",1034.8405,83.87579,165.56927
"74110",1034.8538,92.52827,174.34286
"74111",1034.8671,100.08453,182.29063
"74112",1034.8804,105.51675,188.3505
"74113",1034.8937,108.5124,192.14354
"74114",1034.907,109.33517,193.85732
"74115",1034.9203,108.40009,193.83896
"74116",1034.9336,106.1149,192.44127
"74117",1034.9469,102.9044,190.04686
"74118",1034.9602,99.18364,187.04185
"74119",1034.9735,95.326164,183.78387
"74120",1034.9868,91.62493,180.56158
"74121",1035.0001,88.26307,177.563
"74122",1035.0134,85.30404,174.8622
"74123",1035.0267,82.73075,172.45467
"74124",1035.04,80.499275,170.30853
"74125",1035.0533,78.60227,168.42714
"74126",1035.0667,77.086136,166.86732
"74127",1035.08,76.02411,165.71423
"74128",1035.0933,75.457695,165.02357
"74129",1035.1066,75.37957,164.8035
"74130",1035.1199,75.67742,164.95695
"74131",1035.1332,76.1828,165.32726
"74132",1035.1465,76.71015,165.73532
"74133",1035.1598,77.09346,166.01582
"74134",1035.1731,77.205765,166.0373
"74135",1035.1864,76.97139,165.71559
"74136",1035.1997,76.35859,165.00815
"74137",1035.213,75.37469,163.91045
"74138",1035.2263,74.06607,162.45729
"74139",1035.2396,72.49134,160.69713
"74140",1035.2529,70.745705,158.71684
"74141",1035.2662,68.90242,156.58437
"74142",1035.2795,67.05669,154.39183
"74143",1035.2928,65.29885,152.22952
"74144",1035.3062,63.707027,150.17828
"74145",1035.3195,62.337376,148.29947
"74146",1035.3328,61.233845,146.64398
"74147",1035.3461,60.406197,145.22989
"74148",1035.3594,59.851986,144.06337
"74149",1035.3727,59.529716,143.11148
"74150",1035.386,59.388115,142.33018
"74151",1035.3993,59.373463,141.67142
"74152",1035.4126,59.524834,141.1782
"74153",1035.4259,60.198673,141.2122
"74154",1035.4392,62.181126,142.57587
"74155",1035.4525,66.27299,146.11089
"74156",1035.4658,72.762344,152.17128
"74157",1035.4791,81.21217,160.39493
"74158",1035.4924,90.60197,169.8226
"74159",1035.5057,99.527885,179.07983
"74160",1035.519,106.66178,186.82397
"74161",1035.5323,111.26635,192.26172
"74162",1035.5457,113.32937,195.30182
"74163",1035.559,113.23659,196.25058
"74164",1035.5723,111.45922,195.51186
"74165",1035.5856,108.4831,193.51883
"74166",1035.5989,104.796524,190.72235
"74167",1035.6122,100.85359,187.5543
"74168",1035.6255,97.0132,184.36559
"74169",1035.6388,93.51705,181.4011
"74170",1035.6521,90.46769,178.77414
"74171",1035.6654,87.852905,176.48647
"74172",1035.6787,85.5848,174.46376
"74173",1035.692,83.580376,172.63387
"74174",1035.7053,81.80789,170.97327
"74175",1035.7186,80.30396,169.52583
"74176",1035.7319,79.13695,168.36832
"74177",1035.7452,78.37034,167.57474
"74178",1035.7585,78.00412,167.1576
"74179",1035.7719,77.9675,167.0586
"74180",1035.7852,78.118866,167.14644
"74181",1035.7985,78.30442,167.27321
"74182",1035.8118,78.37766,167.29346
"74183",1035.8251,78.221405,167.0865
"74184",1035.8384,77.75998,166.56949
"74185",1035.8517,76.961624,165.70113
"74186",1035.865,75.83124,164.47578
"74187",1035.8783,74.41032,162.92459
"74188",1035.8916,72.75502,161.09462
"74189",1035.9049,70.93858,159.05177
"74190",1035.9182,69.048904,156.87892
"74191",1035.9315,67.16899,154.65678
"74192",1035.9448,65.376976,152.4638
"74193",1035.9581,63.733883,150.36374
"74194",1035.9714,62.288548,148.4101
"74195",1035.9847,61.07759,146.64566
"74196",1035.998,60.122986,145.09973
"74197",1036.0114,59.436943,143.79253
"74198",1036.0247,59.021896,142.73488
"74199",1036.038,58.855877,141.9133
"74200",1036.0513,58.912033,141.3087
"74201",1036.0646,59.151295,140.88896
"74202",1036.0779,59.53704,140.62318
"74203",1036.0912,60.02289,140.46956
"74204",1036.1045,60.564888,140.38727
"74205",1036.1178,61.106888,140.32191
"74206",1036.1311,61.59762,140.22223
"74207",1036.1444,61.998016,140.04755
"74208",1036.1577,62.378883,139.86584
"74209",1036.171,63.13329,140.0696
"74210",1036.1843,65.10109,141.51031
"74211",1036.1976,69.149,145.09264
"74212",1036.2109,75.60906,151.21361
"74213",1036.2242,84.06622,159.53355
"74214",1036.2375,93.49264,169.08704
"74215",1036.2509,102.469826,178.48587
"74216",1036.2642,109.63058,186.3488
"74217",1036.2775,114.2034,191.84758
"74218",1036.2908,116.17609,194.88913
"74219",1036.3041,115.93439,195.77792
"74220",1036.3174,113.95438,194.92087
"74221",1036.3307,110.712135,192.7397
"74222",1036.344,106.70084,189.68817
"74223",1036.3573,102.381935,186.20366
"74224",1036.3706,98.15091,182.67207
"74225",1036.3839,94.28855,179.37692
"74226",1036.3972,90.95354,176.48842
"74227",1036.4105,88.162964,174.04015
"74228",1036.4238,85.85336,171.98564
"74229",1036.4371,83.949036,170.26424
"74230",1036.4504,82.41093,168.84953
"74231",1036.4637,81.24391,167.75786
"74232",1036.477,80.482185,167.035
"74233",1036.4904,80.1355,166.70338
"74234",1036.5037,80.14526,166.71738
"74235",1036.517,80.38697,166.96362
"74236",1036.5303,80.69215,167.2809
"74237",1036.5436,80.89967,167.51006
"74238",1036.5569,80.885025,167.52353
"74239",1036.5702,80.570076,167.23624
"74240",1036.5835,79.91821,166.60219
"74241",1036.5968,78.92699,165.6084
"74242",1036.6101,77.63058,164.27846
"74243",1036.6234,76.085144,162.65898
"74244",1036.6367,74.34196,160.79346
"74245",1036.65,72.46693,158.74161
"74246",1036.6633,70.54551,156.58478
"74247",1036.6766,68.65095,154.39476
"74248",1036.69,66.85405,152.24321
"74249",1036.7032,65.213394,150.19174
"74250",1036.7166,63.77783,148.2941
"74251",1036.7299,62.56687,146.5762
"74252",1036.7432,61.604942,145.06949
"74253",1036.7565,60.896927,143.78662
"74254",1036.7698,60.437935,142.73065
"74255",1036.7831,60.218204,141.89961
"74256",1036.7964,60.20844,141.27167
"74257",1036.8097,60.374454,140.8192
"74258",1036.823,60.689404,140.52084
"74259",1036.8363,61.114212,140.3422
"74260",1036.8496,61.607384,140.24518
"74261",1036.8629,62.142063,140.2051
"74262",1036.8762,62.68162,140.18658
"74263",1036.8895,63.20165,140.1654
"74264",1036.9028,63.682613,140.12143
"74265",1036.9161,64.10254,140.03143
"74266",1036.9294,64.43702,139.86911
"74267",1036.9427,64.66895,139.6147
"74268",1036.956,64.8008,139.26746
"74269",1036.9694,64.94972,138.9414
"74270",1036.9827,65.63332,139.1547
"74271",1036.996,67.78424,140.85666
"74272",1037.0093,72.26185,144.95253
"74273",1037.0226,79.26391,151.71277
"74274",1037.0359,88.18982,160.61568
"74275",1037.0492,97.831085,170.51288
"74276",1037.0625,106.67887,179.91788
"74277",1037.0758,113.39773,187.47044
"74278",1037.0891,117.37972,192.49612
"74279",1037.1024,118.76402,195.04854
"74280",1037.1157,118.0267,195.5226
"74281",1037.129,115.62188,194.3061
"74282",1037.1423,111.98413,191.78154
"74283",1037.1556,107.54803,188.34494
"74284",1037.169,102.72617,184.38396
"74285",1037.1823,97.88724,180.25522
"74286",1037.1956,93.32174,176.24869
"74287",1037.2089,89.22743,172.57068
"74288",1037.2222,85.694664,169.32626
"74289",1037.2355,82.774704,166.58426
"74290",1037.2488,80.51392,164.41019
"74291",1037.2621,78.97826,162.89058
"74292",1037.2754,78.2092,162.08958
"74293",1037.2887,78.2092,162.03362
"74294",1037.302,78.873276,162.64172
"74295",1037.3153,79.98169,163.71492
"74296",1037.3286,81.234146,164.9668
"74297",1037.3419,82.34257,166.11378
"74298",1037.3552,83.08476,166.92918
"74299",1037.3685,83.33379,167.27461
"74300",1037.3818,83.0457,167.0907
"74301",1037.3951,82.24246,166.38264
"74302",1037.4084,80.99489,165.20515
"74303",1037.4218,79.39086,163.63222
"74304",1037.435,77.53536,161.75768
"74305",1037.4484,75.52361,159.6689
"74306",1037.4617,73.45083,157.45622
"74307",1037.475,71.38781,155.18854
"74308",1037.4883,69.4078,152.93939
"74309",1037.5016,67.55962,150.76021
"74310",1037.5149,65.89456,148.70639
"74311",1037.5282,64.44923,146.82027
"74312",1037.5415,63.23827,145.12335
"74313",1037.5548,62.266575,143.62785
"74314",1037.5681,61.521935,142.32904
"74315",1037.5814,60.994583,141.22424
"74316",1037.5947,60.672314,140.30806
"74317",1037.608,60.5478,139.57956
"74318",1037.6213,60.60395,139.02783
"74319",1037.6346,60.82368,138.64143
"74320",1037.648,61.17525,138.39374
"74321",1037.6613,61.62936,138.25957
"74322",1037.6746,62.15427,138.21039
"74323",1037.6879,62.71336,138.21179
"74324",1037.7012,63.284657,138.24289
"74325",1037.7145,63.838863,138.27475
"74326",1037.7278,64.341805,138.27266
"74327",1037.7411,64.75441,138.19595
"74328",1037.7544,65.0547,138.01982
"74329",1037.7677,65.27444,137.77252
"74330",1037.781,65.704124,137.74203
"74331",1037.7943,67.090866,138.68204
"74332",1037.8076,70.433205,141.62097
"74333",1037.8209,76.32929,147.2181
"74334",1037.8342,84.55695,155.33104
"74335",1037.8475,94.12741,165.0439
"74336",1037.8608,103.605095,174.96306
"74337",1037.8741,111.4934,183.58902
"74338",1037.8875,116.77913,189.85892
"74339",1037.9008,119.28161,193.51074
"74340",1037.9141,119.42321,194.8799
"74341",1037.9274,117.70931,194.39798
"74342",1037.9407,114.533,192.40009
"74343",1037.954,110.25315,189.1994
"74344",1037.9673,105.23842,185.13008
"74345",1037.9806,99.842834,180.5232
"74346",1037.9939,94.398415,175.69887
"74347",1038.0072,89.178604,170.929
"74348",1038.0205,84.39094,166.42816
"74349",1038.0338,80.18921,162.36365
"74350",1038.0471,76.717476,158.89783
"74351",1038.0604,74.127106,156.20488
"74352",1038.0737,72.60609,154.50034
"74353",1038.087,72.31068,153.97386
"74354",1038.1003,73.253075,154.67596
"74355",1038.1136,75.24773,156.45978
"74356",1038.127,77.87961,158.94315
"74357",1038.1403,80.63355,161.63083
"74358",1038.1536,83.001755,164.01883
"74359",1038.1669,84.63508,165.74596
"74360",1038.1802,85.37972,166.63545
"74361",1038.1935,85.25277,166.67662
"74362",1038.2068,84.38117,165.96918
"74363",1038.2201,82.92851,164.65343
"74364",1038.2334,81.058365,162.8748
"74365",1038.2467,78.92699,160.7765
"74366",1038.26,76.663765,158.47975
"74367",1038.2733,74.38102,156.09274
"74368",1038.2866,72.1593,153.69543
"74369",1038.2999,70.064545,151.35565
"74370",1038.3132,68.14801,149.12863
"74371",1038.3265,66.44633,147.05658
"74372",1038.3398,64.97902,145.16573
"74373",1038.3531,63.750973,143.46828
"74374",1038.3665,62.762188,141.97171
"74375",1038.3798,62.0029,140.67374
"74376",1038.3931,61.456017,139.56445
"74377",1038.4064,61.104446,138.63338
"74378",1038.4197,60.93599,137.87444
"74379",1038.433,60.93843,137.28113
"74380",1038.4463,61.102005,136.84903
"74381",1038.4596,61.40719,136.56364
"74382",1038.4729,61.841763,136.41719
"74383",1038.4862,62.383766,136.39175
"74384",1038.4995,63.00145,136.45892
"74385",1038.5128,63.648434,136.5747
"74386",1038.5261,64.290535,136.70583
"74387",1038.5394,64.883804,136.80817
"74388",1038.5527,65.40627,136.85825
"74389",1038.566,65.9556,136.95152
"74390",1038.5793,66.96147,137.51851
"74391",1038.5927,69.31014,139.45973
"74392",1038.606,73.94888,143.76442
"74393",1038.6193,81.21217,150.83861
"74394",1038.6326,90.52628,160.1906
"74395",1038.6459,100.607,170.60027
"74396",1038.6592,109.857635,180.49487
"74397",1038.6725,116.85237,188.42267
"74398",1038.6858,120.87831,193.60025
"74399",1038.6991,122.10391,196.1033
"74400",1038.7124,121.1371,196.45224
"74401",1038.7257,118.519875,195.12054
"74402",1038.739,114.616005,192.42043
"74403",1038.7523,109.730675,188.61685
"74404",1038.7656,104.166626,183.98189
"74405",1038.7789,98.22659,178.79706
"74406",1038.7922,92.225525,173.36557
"74407",1038.8055,86.43687,167.95895
"74408",1038.8188,81.0901,162.81334
"74409",1038.8322,76.39033,158.14763
"74410",1038.8455,72.52064,154.16513
"74411",1038.8588,69.66903,151.07979
"74412",1038.8721,68.04791,149.13583
"74413",1038.8854,67.85504,148.56946
"74414",1038.8987,69.15877,149.49365
"74415",1038.912,71.78577,151.78186
"74416",1038.9253,75.30633,155.04573
"74417",1038.9386,79.11253,158.70526
"74418",1038.9519,82.562294,162.12729
"74419",1038.9652,85.14534,164.7904
"74420",1038.9785,86.590675,166.39653
"74421",1038.9918,86.873886,166.8857
"74422",1039.0051,86.168304,166.39493
"74423",1039.0184,84.715645,165.13503
"74424",1039.0317,82.75273,163.31947
"74425",1039.045,80.47242,161.12518
"74426",1039.0583,78.02365,158.69118
"74427",1039.0717,75.52117,156.12694
"74428",1039.085,73.057755,153.52356
"74429",1039.0983,70.71397,150.96283
"74430",1039.1116,68.55573,148.5144
"74431",1039.1249,66.634315,146.23535
"74432",1039.1382,64.97902,144.16238
"74433",1039.1515,63.606926,142.32089
"74434",1039.1648,62.51072,140.7124
"74435",1039.1781,61.67819,139.33333
"74436",1039.1914,61.09224,138.17482
"74437",1039.2047,60.730907,137.22263
"74438",1039.218,60.572212,136.46178
"74439",1039.2313,60.58686,135.86931
"74440",1039.2446,60.75288,135.42867
"74441",1039.2579,61.04097,135.11528
"74442",1039.2712,61.438927,134.92076
"74443",1039.2845,61.91989,134.82169
"74444",1039.2979,62.464333,134.80112
"74445",1039.3112,63.03563,134.82443
"74446",1039.3245,63.650875,134.90955
"74447",1039.3378,64.5127,135.26047
"74448",1039.3511,66.23636,136.50015
"74449",1039.3644,69.822845,139.65652
"74450",1039.3777,76.06073,145.57637
"74451",1039.391,84.89143,154.28397
"74452",1039.4043,95.311516,164.8569
"74453",1039.4176,105.7438,175.76767
"74454",1039.4309,114.50614,185.3345
"74455",1039.4442,120.36561,192.27228
"74456",1039.4575,123.0219,196.18999
"74457",1039.4708,122.985275,197.4978
"74458",1039.4841,120.988174,196.844
"74459",1039.4974,117.55306,194.68976
"74460",1039.5107,112.99733,191.30756
"74461",1039.524,107.58221,186.9236
"74462",1039.5374,101.576256,181.77959
"74463",1039.5507,95.274895,176.15248
"74464",1039.564,88.988174,170.34311
"74465",1039.5773,82.99199,164.6278
"74466",1039.5906,77.51583,159.24515
"74467",1039.6039,72.74525,154.39693
"74468",1039.6172,68.858475,150.28345
"74469",1039.6305,66.04349,147.12029
"74470",1039.6438,64.52491,145.16557
"74471",1039.6571,64.51026,144.66733
"74472",1039.6704,66.08011,145.75311
"74473",1039.6837,69.08064,148.31865
"74474",1039.697,73.08217,151.97894
"74475",1039.7103,77.44503,156.12563
"74476",1039.7236,81.48318,160.08392
"74477",1039.7369,84.613106,163.26021
"74478",1039.7502,86.49302,165.28429
"74479",1039.7635,87.07652,166.0707
"74480",1039.7769,86.5272,165.74251
"74481",1039.7902,85.13069,164.54997
"74482",1039.8035,83.16533,162.74495
"74483",1039.8168,80.86061,160.53915
"74484",1039.8301,78.37766,158.0831
"74485",1039.8434,75.83368,155.48842
"74486",1039.8567,73.33364,152.85818
"74487",1039.87,70.958115,150.27434
"74488",1039.8833,68.790115,147.82378
"74489",1039.8966,66.87358,145.55693
"74490",1039.9099,65.247574,143.52072
"74491",1039.9232,63.916992,141.72913
"74492",1039.9365,62.86961,140.17915
"74493",1039.9498,62.085907,138.86012
"74494",1039.9631,61.539024,137.75342
"74495",1039.9764,61.204548,136.84204
"74496",1039.9897,61.048294,136.09843
"74497",1040.003,61.050735,135.50864
"74498",1040.0164,61.17525,135.04099
"74499",1040.0297,61.402306,134.67976
"74500",1040.043,61.705044,134.40132
"74501",1040.0563,62.068817,134.19337
"74502",1040.0696,62.54734,134.11154
"74503",1040.0829,63.47753,134.49634
"74504",1040.0962,65.64797,136.15045
"74505",1040.1095,70.10361,140.1576
"74506",1040.1228,77.471886,147.21661
"74507",1040.1361,87.411,157.07672
"74508",1040.1494,98.60502,168.50233
"74509",1040.1627,109.25216,179.73088
"74510",1040.176,117.628746,189.02159
"74511",1040.1893,122.68986,195.2586
"74512",1040.2026,124.39887,198.30168
"74513",1040.216,123.48333,198.7736
"74514",1040.2292,120.75624,197.40536
"74515",1040.2426,116.73029,194.65305
"74516",1040.2559,111.693596,190.76418
"74517",1040.2692,105.89273,185.95374
"74518",1040.2825,99.59869,180.46884
"74519",1040.2958,93.11177,174.59439
"74520",1040.3091,86.71519,168.60754
"74521",1040.3224,80.6775,162.77971
"74522",1040.3357,75.20622,157.3296
"74523",1040.349,70.467384,152.44096
"74524",1040.3623,66.6099,148.28558
"74525",1040.3756,63.807125,145.06436
"74526",1040.3889,62.25925,143.01047
"74527",1040.4022,62.15671,142.35353
"74528",1040.4155,63.58251,143.22173
"74529",1040.4288,66.424355,145.55052
"74530",1040.4421,70.33311,149.03503
"74531",1040.4554,74.74235,153.14218
"74532",1040.4688,79.00023,157.23576
"74533",1040.482,82.50126,160.70555
"74534",1040.4954,84.84993,163.13239
"74535",1040.5087,85.9144,164.34842
"74536",1040.522,85.80209,164.42094
"74537",1040.5353,84.76692,163.5671
"74538",1040.5486,83.11406,162.0632
"74539",1040.5619,81.094986,160.14145
"74540",1040.5752,78.89281,157.9735
"74541",1040.5885,76.63203,155.67812
"74542",1040.6018,74.38834,153.32918
"74543",1040.6151,72.22766,150.99313
"74544",1040.6284,70.203705,148.72629
"74545",1040.6417,68.353096,146.56955
"74546",1040.655,66.70512,144.5576
"74547",1040.6683,65.27688,142.7139
"74548",1040.6816,64.05859,141.03552
"74549",1040.695,63.047836,139.5266
"74550",1040.7083,62.232395,138.1814
"74551",1040.7216,61.59762,136.99138
"74552",1040.7349,61.126423,135.94511
"74553",1040.7482,60.794384,135.02327
"74554",1040.7615,60.574654,134.20337
"74555",1040.7748,60.459908,133.48158
"74556",1040.7881,60.53315,132.9442
"74557",1040.8014,61.163044,132.96576
"74558",1040.8147,63.125965,134.34003
"74559",1040.828,67.42779,138.11453
"74560",1040.8413,74.720375,145.01424
"74561",1040.8546,84.70832,154.83719
"74562",1040.8679,96.09277,166.36877
"74563",1040.8812,107.01335,177.79225
"74564",1040.8945,115.67315,187.29622
"74565",1040.9078,120.93935,193.6772
"74566",1040.9211,122.69474,196.71194
"74567",1040.9344,121.62051,196.97192
"74568",1040.9478,118.598,195.25006
"74569",1040.961,114.25956,192.11781
"74570",1040.9744,108.964066,187.89293
"74571",1040.9877,102.98741,182.8214
"74572",1041.001,96.59815,177.1505
"74573",1041.0143,90.09659,171.16763
"74574",1041.0276,83.758606,165.14517
"74575",1041.0409,77.821014,159.32504
"74576",1041.0542,72.47181,153.90775
"74577",1041.0675,67.87457,149.07526
"74578",1041.0808,64.18799,145.00975
"74579",1041.0941,61.595177,141.92282
"74580",1041.1074,60.27924,140.03174
"74581",1041.1207,60.39155,139.52777
"74582",1041.134,61.956512,140.47997
"74583",1041.1473,64.83009,142.78969
"74584",1041.1606,68.682686,146.16821
"74585",1041.174,73.02113,150.153
"74586",1041.1873,77.281456,154.19524
"74587",1041.2006,80.93141,157.76024
"74588",1041.2139,83.58282,160.44075
"74589",1041.2272,85.05501,162.0249
"74590",1041.2405,85.37484,162.5027
"74591",1041.2538,84.72785,162.02368
"74592",1041.2671,83.372856,160.81644
"74593",1041.2804,81.55398,159.10297
"74594",1041.2937,79.48608,157.08363
"74595",1041.307,77.3254,154.90689
"74596",1041.3203,75.18425,152.68216
"74597",1041.3336,73.13832,150.48573
"74598",1041.3469,71.26086,148.39384
"74599",1041.3602,69.593346,146.45323
"74600",1041.3735,68.15045,144.68513
"74601",1041.3868,66.9395,143.10388
"74602",1041.4001,65.94827,141.70451
"74603",1041.4135,65.15724,140.47437
"74604",1041.4268,64.52979,139.38309
"74605",1041.4401,64.041504,138.41135
"74606",1041.4534,63.71191,137.58305
"74607",1041.4667,63.775387,137.13753
"74608",1041.48,64.883804,137.73892
"74609",1041.4933,68.08453,140.46727
"74610",1041.5066,74.288246,146.29863
"74611",1041.5199,83.57061,155.4025
"74612",1041.5332,94.90135,166.84482
"74613",1041.5465,106.46647,178.87561
"74614",1041.5598,116.31037,189.54659
"74615",1041.5731,122.97063,197.34154
"74616",1041.5864,125.98581,201.69955
"74617",1041.5997,125.87839,203.02919
"74618",1041.613,123.57366,202.15817
"74619",1041.6263,119.816284,199.76247
"74620",1041.6396,115.0164,196.20685
"74621",1041.653,109.435265,191.71997
"74622",1041.6663,103.309685,186.51424
"74623",1041.6796,96.91066,180.84364
"74624",1041.6929,90.50675,174.9682
"74625",1041.7062,84.36408,169.15387
"74626",1041.7195,78.695045,163.62122
"74627",1041.7328,73.68276,158.56815
"74628",1041.7461,69.48348,154.17145
"74629",1041.7594,66.268105,150.62743
"74630",1041.7727,64.234375,148.16458
"74631",1041.786,63.56298,147.00052
"74632",1041.7993,64.341805,147.26569
"74633",1041.8126,66.50248,148.93704
"74634",1041.8259,69.75937,151.77214
"74635",1041.8392,73.64858,155.34134
"74636",1041.8525,77.5964,159.09067
"74637",1041.8658,81.041275,162.46043
"74638",1041.8792,83.560844,165.01254
"74639",1041.8925,84.93538,166.49835
"74640",1041.9058,85.15755,166.87476
"74641",1041.9191,84.4007,166.27908
"74642",1041.9324,82.913864,164.92976
"74643",1041.9457,80.955826,163.06279
"74644",1041.959,78.73411,160.87094
"74645",1041.9723,76.41474,158.51201
"74646",1041.9856,74.10269,156.08792
"74647",1041.9989,71.89075,153.69168
"74648",1042.0122,69.84482,151.39233
"74649",1042.0255,68.01129,149.24146
"74650",1042.0388,66.41459,147.27011
"74651",1042.0521,65.06935,145.50034
"74652",1042.0654,63.956055,143.92046
"74653",1042.0787,63.05272,142.51575
"74654",1042.092,62.32517,141.25859
"74655",1042.1053,61.780727,140.1618
"74656",1042.1187,61.614708,139.42644
