"","Time..s.","PPG.trace","Preprocessed.PPG"
"40098",582.062,78.011444,153.8565
"40099",582.0753,78.4802,154.26312
"40100",582.0886,79.0515,154.78693
"40101",582.1019,79.635,155.34079
"40102",582.11523,80.147705,155.84209
"40103",582.12854,80.52125,156.22025
"40104",582.14185,80.72877,156.44406
"40105",582.15515,80.76784,156.5059
"40106",582.16846,80.67017,156.43224
"40107",582.18176,80.462654,156.24567
"40108",582.19507,80.17212,155.96959
"40109",582.2084,79.82544,155.6283
"40110",582.2217,79.44457,155.24197
"40111",582.235,79.05394,154.83398
"40112",582.2483,78.677956,154.42844
"40113",582.2616,78.34104,154.0502
"40114",582.2749,78.06027,153.71759
"40115",582.2882,77.84299,153.43968
"40116",582.3015,77.68429,153.21358
"40117",582.3148,77.5671,153.02402
"40118",582.3281,77.471886,152.85277
"40119",582.34143,77.38644,152.68831
"40120",582.35474,77.30587,152.52606
"40121",582.36804,77.281456,152.41745
"40122",582.38135,77.45968,152.51071
"40123",582.39465,78.06027,153.03192
"40124",582.40796,79.234604,154.14563
"40125",582.42126,80.96071,155.84781
"40126",582.4346,83.03349,157.95062
"40127",582.4479,85.11604,160.12798
"40128",582.4612,86.81773,161.98955
"40129",582.4745,87.85779,163.24266
"40130",582.4878,88.15076,163.78119
"40131",582.5011,87.79187,163.67702
"40132",582.5144,86.942245,163.07089
"40133",582.5277,85.770355,162.11595
"40134",582.541,84.437325,160.96324
"40135",582.5543,83.08232,159.7469
"40136",582.5676,81.812775,158.57368
"40137",582.58093,80.709236,157.5268
"40138",582.59424,79.80347,156.64319
"40139",582.60754,79.08812,155.92169
"40140",582.62085,78.551,155.35608
"40141",582.63416,78.17746,154.93726
"40142",582.64746,77.96994,154.67278
"40143",582.66077,77.95041,154.5898
"40144",582.6741,78.133514,154.70885
"40145",582.6874,78.502174,155.01918
"40146",582.7007,79.00023,155.47043
"40147",582.714,79.54711,155.98607
"40148",582.7273,80.05493,156.47974
"40149",582.7406,80.45289,156.87941
"40150",582.7539,80.69947,157.14015
"40151",582.7672,80.78493,157.24747
"40152",582.7805,80.726326,157.2134
"40153",582.7938,80.550545,157.06032
"40154",582.8071,80.28687,156.81386
"40155",582.82043,79.96948,156.50543
"40156",582.83374,79.622795,156.15779
"40157",582.84705,79.26147,155.78467
"40158",582.86035,78.907455,155.40758
"40159",582.87366,78.56565,155.03163
"40160",582.88696,78.24582,154.66698
"40161",582.90027,77.9675,154.33383
"40162",582.9136,77.730675,154.0335
"40163",582.9269,77.53292,153.76482
"40164",582.9402,77.36935,153.52414
"40165",582.9535,77.239944,153.31253
"40166",582.9668,77.15694,153.14326
"40167",582.9801,77.23018,153.12766
"40168",582.9934,77.662315,153.47324
"40169",583.0067,78.64622,154.38408
"40170",583.02,80.216064,155.91162
"40171",583.0333,82.230255,157.93256
"40172",583.04663,84.37629,160.14828
"40173",583.05994,86.258644,162.1674
"40174",583.07324,87.53796,163.6423
"40175",583.08655,88.06287,164.40277
"40176",583.09985,87.88953,164.4814
"40177",583.11316,87.16441,164.00284
"40178",583.12646,86.07065,163.13297
"40179",583.1398,84.76692,162.01895
"40180",583.1531,83.404594,160.80559
"40181",583.1664,82.09598,159.60336
"40182",583.1797,80.93385,158.50674
"40183",583.193,79.96704,157.56912
"40184",583.2063,79.20775,156.8088
"40185",583.2196,78.63157,156.20787
"40186",583.2329,78.21896,155.7525
"40187",583.2462,77.96506,155.44293
"40188",583.2595,77.88205,155.29633
"40189",583.2728,77.98215,155.33023
"40190",583.28613,78.26292,155.54794
"40191",583.29944,78.695045,155.92578
"40192",583.31274,79.19798,156.38794
"40193",583.32605,79.69604,156.86093
"40194",583.33936,80.11597,157.27136
"40195",583.35266,80.4065,157.56552
"40196",583.36597,80.54078,157.71251
"40197",583.3793,80.52613,157.71477
"40198",583.3926,80.38697,157.59206
"40199",583.4059,80.15259,157.36977
"40200",583.4192,79.85718,157.07913
"40201",583.4325,79.53246,156.74995
"40202",583.4458,79.200424,156.4033
"40203",583.4591,78.87816,156.05605
"40204",583.4724,78.57542,155.71825
"40205",583.4857,78.2971,155.3954
"40206",583.499,78.04074,155.08583
"40207",583.5123,77.80881,154.79266
"40208",583.52563,77.59884,154.51422
"40209",583.53894,77.41085,154.25119
"40210",583.55225,77.28878,154.0482
"40211",583.56555,77.3547,154.02939
"40212",583.57886,77.81369,154.40572
"40213",583.59216,78.82933,155.35303
"40214",583.60547,80.41627,156.90338
"40215",583.6188,82.408485,158.90862
"40216",583.6321,84.48127,161.05667
"40217",583.6454,86.24643,162.96187
"40218",583.6587,87.39391,164.30455
"40219",583.672,87.8114,164.9531
"40220",583.6853,87.57458,164.96037
"40221",583.6986,86.82994,164.45244
"40222",583.7119,85.753265,163.5892
"40223",583.7252,84.48371,162.49944
"40224",583.7385,83.15068,161.30652
"40225",583.75183,81.849396,160.1037
"40226",583.76514,80.67506,158.98715
"40227",583.77844,79.66918,158.00238
"40228",583.79175,78.853745,157.1766
"40229",583.80505,78.22385,156.51088
"40230",583.81836,77.77219,156.00371
"40231",583.83167,77.503624,155.66553
"40232",583.845,77.437706,155.52159
"40233",583.8583,77.591515,155.59532
"40234",583.8716,77.95041,155.87895
"40235",583.8849,78.45823,156.32272
"40236",583.8982,79.03197,156.84828
"40237",583.9115,79.57885,157.36491
"40238",583.9248,80.01831,157.79121
"40239",583.9381,80.30396,158.07744
"40240",583.9514,80.42115,158.20413
"40241",583.9647,80.38697,158.18312
"40242",583.978,80.22827,158.03651
"40243",583.99133,79.98413,157.7995
"40244",584.00464,79.68871,157.50359
"40245",584.01794,79.37621,157.18135
"40246",584.03125,79.063705,156.84935
"40247",584.04456,78.76097,156.51735
"40248",584.05786,78.47532,156.19298
"40249",584.07117,78.20676,155.87677
"40250",584.0845,77.94797,155.56194
"40251",584.0978,77.70382,155.25366
"40252",584.1111,77.486534,154.96461
"40253",584.1244,77.38155,154.78108
"40254",584.1377,77.57931,154.897
"40255",584.151,78.277565,155.5196
"40256",584.1643,79.5642,156.75241
"40257",584.1776,81.34646,158.52104
"40258",584.1909,83.372856,160.58952
"40259",584.2042,85.27474,162.59682
"40260",584.2175,86.69077,164.17769
"40261",584.23083,87.42565,165.12166
"40262",584.24414,87.47692,165.40498
"40263",584.25745,86.97154,165.13326
"40264",584.27075,86.06821,164.44778
"40265",584.28406,84.91585,163.48506
"40266",584.29736,83.64385,162.36668
"40267",584.31067,82.35966,161.19637
"40268",584.324,81.14137,160.05182
"40269",584.3373,80.04761,158.99373
"40270",584.3506,79.10277,158.05038
"40271",584.3639,78.32639,157.24597
"40272",584.3772,77.72823,156.5955
"40273",584.3905,77.33761,156.13388
"40274",584.4038,77.188675,155.90175
"40275",584.4171,77.298546,155.92377
"40276",584.4304,77.65743,156.19823
"40277",584.4437,78.204315,156.6719
"40278",584.45703,78.84642,157.25789
"40279",584.47034,79.47143,157.84685
"40280",584.48364,79.98657,158.34547
"40281",584.49695,80.3357,158.69418
"40282",584.51025,80.50172,158.8707
"40283",584.52356,80.499275,158.88394
"40284",584.53687,80.36256,158.76283
"40285",584.5502,80.13794,158.54955
"40286",584.5635,79.86206,158.27798
"40287",584.5768,79.56176,157.97337
"40288",584.5901,79.24681,157.64473
"40289",584.6034,78.93675,157.31113
"40290",584.6167,78.63889,156.98004
"40291",584.63,78.348366,156.64697
"40292",584.6433,78.07248,156.31947
"40293",584.6566,77.84787,156.03462
"40294",584.6699,77.789276,155.90877
"40295",584.6832,78.09689,156.1473
"40296",584.69653,78.92943,156.92035
"40297",584.70984,80.31617,158.27364
"40298",584.72314,82.108185,160.07553
"40299",584.73645,84.02228,162.05551
"40300",584.74976,85.69955,163.85847
"40301",584.76306,86.84459,165.18163
"40302",584.77637,87.33288,165.8838
"40303",584.7897,87.20836,165.98843
"40304",584.803,86.59556,165.60089
"40305",584.8163,85.63363,164.84508
"40306",584.8296,84.46418,163.85168
"40307",584.8429,83.209274,162.73628
"40308",584.8562,81.96414,161.59145
"40309",584.8695,80.8069,160.49559
"40310",584.8828,79.77661,159.49052
"40311",584.8961,78.90257,158.6095
"40312",584.9094,78.19211,157.86473
"40313",584.9227,77.66964,157.28577
"40314",584.93604,77.36446,156.90776
"40315",584.94934,77.31075,156.77168
"40316",584.96265,77.51095,156.88783
"40317",584.97595,77.9382,157.2373
"40318",584.98926,78.51194,157.74661
"40319",585.00256,79.12718,158.31535
"40320",585.01587,79.67895,158.83984
"40321",585.0292,80.096436,159.2473
"40322",585.0425,80.343025,159.4969
"40323",585.0558,80.41627,159.58087
"40324",585.0691,80.343025,159.52065
"40325",585.0824,80.15991,159.34825
"40326",585.0957,79.903564,159.0969
"40327",585.109,79.60815,158.79846
"40328",585.1223,79.29809,158.47615
"40329",585.1356,78.98558,158.14171
"40330",585.1489,78.6804,157.80482
"40331",585.16223,78.38499,157.46817
"40332",585.17554,78.1091,157.14182
"40333",585.18884,77.908905,156.88252
"40334",585.20215,77.92844,156.8367
"40335",585.21545,78.37766,157.22119
"40336",585.22876,79.39086,158.18369
"40337",585.24207,80.936295,159.71008
"40338",585.2554,82.8333,161.63635
"40339",585.2687,84.76204,163.65364
"40340",585.282,86.3563,165.39671
"40341",585.2953,87.35485,166.5939
"40342",585.3086,87.68688,167.15578
"40343",585.3219,87.430534,167.13965
"40344",585.3352,86.72251,166.66383
"40345",585.3485,85.70931,165.86072
"40346",585.3618,84.52277,164.8526
"40347",585.3751,83.282524,163.7537
"40348",585.3884,82.08377,162.65752
"40349",585.40173,80.99489,161.63376
"40350",585.41504,80.05493,160.7249
"40351",585.42834,79.276115,159.9478
"40352",585.44165,78.65598,159.30504
"40353",585.45496,78.20676,158.81381
"40354",585.46826,77.94797,158.49898
"40355",585.48157,77.90402,158.3909
"40356",585.4949,78.0676,158.48897
"40357",585.5082,78.41184,158.77283
"40358",585.5215,78.85863,159.16998
"40359",585.5348,79.3225,159.59819
"40360",585.5481,79.72045,159.97496
"40361",585.5614,79.9939,160.23967
"40362",585.5747,80.12329,160.36887
"40363",585.588,80.113525,160.36295
"40364",585.6013,79.98657,160.23953
"40365",585.6146,79.77417,160.0267
"40366",585.6279,79.49584,159.74132
"40367",585.64124,79.18822,159.41794
"40368",585.65454,78.86351,159.06786
"40369",585.66785,78.538795,158.70763
"40370",585.68115,78.21896,158.34213
"40371",585.69446,77.925995,157.9935
"40372",585.70776,77.68917,157.69186
"40373",585.72107,77.625694,157.55617
"40374",585.7344,77.92355,157.77983
"40375",585.7477,78.73411,158.5255
"40376",585.761,80.09155,159.84338
"40377",585.7743,81.849396,161.6041
"40378",585.7876,83.73174,163.54424
"40379",585.8009,85.382164,165.31128
"40380",585.8142,86.51255,166.60986
"40381",585.8275,86.993515,167.29434
"40382",585.8408,86.86656,167.38594
"40383",585.8541,86.26841,167.00237
"40384",585.86743,85.35287,166.28271
"40385",585.88074,84.2591,165.35623
"40386",585.89404,83.09453,164.32475
"40387",585.90735,81.95682,163.28375
"40388",585.92065,80.91188,162.29997
"40389",585.93396,79.9939,161.41049
"40390",585.94727,79.21263,160.62903
"40391",585.9606,78.5803,159.97209
"40392",585.9739,78.09689,159.44432
"40393",585.9872,77.77219,159.06013
"40394",586.0005,77.628136,158.84647
"40395",586.0138,77.67208,158.81628
"40396",586.0271,77.88937,158.96083
"40397",586.0404,78.23117,159.23666
"40398",586.0537,78.62913,159.57935
"40399",586.067,79.009995,159.91737
"40400",586.0803,79.31274,160.18918
"40401",586.0936,79.500725,160.35568
"40402",586.10693,79.55688,160.39622
"40403",586.12024,79.49584,160.32133
"40404",586.13354,79.327385,160.13712
"40405",586.14685,79.080795,159.8695
"40406",586.16016,78.77318,159.53316
"40407",586.17346,78.42649,159.14813
"40408",586.18677,78.06271,158.73518
"40409",586.2001,77.70138,158.31331
"40410",586.2134,77.35958,157.89967
"40411",586.2267,77.06172,157.5193
"40412",586.24,76.90791,157.27367
"40413",586.2533,77.069046,157.33817
"40414",586.2666,77.72091,157.89844
"40415",586.2799,78.93675,159.04306
"40416",586.2932,80.621346,160.69443
"40417",586.3065,82.530556,162.62306
"40418",586.3198,84.32014,164.49173
"40419",586.3331,85.660484,165.96709
"40420",586.34644,86.36851,166.852
"40421",586.35974,86.43687,167.11938
"40422",586.37305,85.97055,166.85422
"40423",586.38635,85.1136,166.18385
"40424",586.39966,84.017395,165.24745
"40425",586.41296,82.811325,164.16693
"40426",586.4263,81.602806,163.04626
"40427",586.4396,80.4773,161.97086
"40428",586.4529,79.48119,160.98967
"40429",586.4662,78.624245,160.1165
"40430",586.4795,77.90402,159.35329
"40431",586.4928,77.32784,158.71161
"40432",586.5061,76.912796,158.21306
"40433",586.5194,76.68818,157.89197
"40434",586.5327,76.67109,157.77138
"40435",586.546,76.85664,157.8529
"40436",586.5593,77.19112,158.08914
"40437",586.57263,77.60128,158.41153
"40438",586.58594,78.00168,158.73697
"40439",586.59924,78.32151,158.99435
"40440",586.61255,78.521706,159.14209
"40441",586.62585,78.590065,159.16425
"40442",586.63916,78.536354,159.06647
"40443",586.65247,78.38743,158.8718
"40444",586.6658,78.1799,158.61388
"40445",586.6791,77.945526,158.32262
"40446",586.6924,77.70382,158.01671
"40447",586.7057,77.45968,157.7008
"40448",586.719,77.225296,157.38704
"40449",586.7323,77.00069,157.07571
"40450",586.7456,76.788284,156.76958
"40451",586.7589,76.63447,156.5154
"40452",586.7722,76.66621,156.44196
"40453",586.7855,77.07149,156.74306
"40454",586.7988,77.996796,157.57684
"40455",586.81213,79.43969,158.95714
"40456",586.82544,81.24635,160.74629
"40457",586.83875,83.11162,162.65051
"40458",586.85205,84.68391,164.32004
"40459",586.86536,85.68734,165.46985
"40460",586.87866,86.0267,165.98694
"40461",586.89197,85.770355,165.91893
"40462",586.9053,85.05745,165.38635
"40463",586.9186,84.03693,164.52388
"40464",586.9319,82.847946,163.46106
"40465",586.9452,81.59792,162.30003
"40466",586.9585,80.38209,161.13414
"40467",586.9718,79.256584,160.02058
"40468",586.9851,78.260475,159.00124
"40469",586.9984,77.42306,158.10945
"40470",587.0117,76.75899,157.36485
"40471",587.025,76.29267,156.79726
"40472",587.0383,76.05829,156.44702
"40473",587.05164,76.07538,156.34093
"40474",587.06494,76.34638,156.48929
"40475",587.07825,76.82002,156.84875
"40476",587.09155,77.41329,157.34265
"40477",587.10486,78.02365,157.87218
"40478",587.11816,78.55833,158.3451
"40479",587.1315,78.9514,158.69312
"40480",587.1448,79.18089,158.88983
"40481",587.1581,79.24925,158.93259
"40482",587.1714,79.18822,158.84808
"40483",587.1847,79.03197,158.66646
"40484",587.198,78.82201,158.42624
"40485",587.2113,78.572975,158.1404
"40486",587.2246,78.30442,157.82724
"40487",587.2379,78.02609,157.49593
"40488",587.2512,77.74288,157.15103
"40489",587.2645,77.45968,156.79729
"40490",587.27783,77.23506,156.49329
"40491",587.29114,77.21553,156.38734
"40492",587.30444,77.60128,156.68608
"40493",587.31775,78.519264,157.5291
"40494",587.33105,79.94995,158.91351
"40495",587.34436,81.70779,160.66978
"40496",587.35767,83.48028,162.49565
"40497",587.371,84.92561,164.04974
"40498",587.3843,85.79477,165.07283
"40499",587.3976,86.029144,165.4883
"40500",587.4109,85.70931,165.35687
"40501",587.4242,84.979324,164.8053
"40502",587.4375,83.983215,163.9648
"40503",587.4508,82.85527,162.96133
"40504",587.4641,81.69802,161.89331
"40505",587.4774,80.58961,160.83797
"40506",587.4907,79.57885,159.84564
"40507",587.504,78.69749,158.95111
"40508",587.51733,77.960175,158.1731
"40509",587.53064,77.39132,157.5405
"40510",587.54395,77.01045,157.07811
"40511",587.55725,76.84932,156.82355
"40512",587.57056,76.925,156.80077
"40513",587.58386,77.21553,156.9952
"40514",587.59717,77.679405,157.37206
"40515",587.6105,78.22385,157.84398
"40516",587.6238,78.76097,158.32559
"40517",587.6371,79.21019,158.73608
"40518",587.6504,79.517815,159.01903
"40519",587.6637,79.66186,159.148
"40520",587.677,79.656975,159.13254
"40521",587.6903,79.53246,158.9973
"40522",587.7036,79.31762,158.76784
"40523",587.7169,79.04906,158.47795
"40524",587.7302,78.751205,158.15038
"40525",587.7435,78.44602,157.80617
"40526",587.75684,78.14572,157.4573
"40527",587.77014,77.855194,157.10883
"40528",587.78345,77.5964,156.783
"40529",587.79675,77.44503,156.55652
"40530",587.81006,77.55978,156.59142
"40531",587.82336,78.14572,157.1011
"40532",587.8367,79.29565,158.19308
"40533",587.85,80.955826,159.83125
"40534",587.8633,82.9041,161.8094
"40535",587.8766,84.79866,163.79472
"40536",587.8899,86.28306,165.42908
"40537",587.9032,87.14488,166.48724
"40538",587.9165,87.35241,166.91805
"40539",587.9298,86.99596,166.79135
"40540",587.9431,86.22934,166.24336
"40541",587.9564,85.19417,165.40286
"40542",587.9697,84.02228,164.3933
"40543",587.98303,82.81621,163.31293
"40544",587.99634,81.668724,162.25345
"40545",588.00964,80.63355,161.27043
"40546",588.02295,79.7351,160.39178
"40547",588.03625,78.9807,159.6291
"40548",588.04956,78.37034,158.9869
"40549",588.06287,77.91623,158.48186
"40550",588.0762,77.645226,158.14574
"40551",588.0895,77.57931,158.00623
"40552",588.1028,77.71847,158.06973
"40553",588.1161,78.02609,158.30606
"40554",588.1294,78.43626,158.65454
"40555",588.1427,78.85863,159.02805
"40556",588.156,79.217514,159.35126
"40557",588.1693,79.45922,159.56851
"40558",588.1826,79.569084,159.66147
"40559",588.1959,79.551994,159.6309
"40560",588.2092,79.43481,159.49971
"40561",588.22253,79.24681,159.29405
"40562",588.23584,79.01732,159.04102
"40563",588.24915,78.76341,158.7564
"40564",588.26245,78.49241,158.44675
"40565",588.27576,78.21896,158.12619
"40566",588.28906,77.95041,157.80197
"40567",588.30237,77.7087,157.49622
"40568",588.3157,77.54269,157.25859
"40569",588.329,77.60616,157.24527
"40570",588.3423,78.09689,157.6612
"40571",588.3556,79.13695,158.64177
"40572",588.3689,80.706795,160.18465
"40573",588.3822,82.61356,162.11351
"40574",588.3955,84.54475,164.12637
"40575",588.4088,86.14145,165.8651
"40576",588.4221,87.14,167.05557
"40577",588.4354,87.4696,167.60829
"40578",588.4487,87.21324,167.58536
"40579",588.46204,86.51011,167.10764
"40580",588.47534,85.504234,166.3052
"40581",588.48865,84.334785,165.30777
"40582",588.50195,83.11894,164.22739
"40583",588.51526,81.94705,163.15297
"40584",588.52856,80.8777,162.14447
"40585",588.5419,79.94507,161.23927
"40586",588.5552,79.168686,160.46118
"40587",588.5685,78.538795,159.80531
"40588",588.5818,78.06027,159.28113
"40589",588.5951,77.75754,158.91777
"40590",588.6084,77.64767,158.73782
"40591",588.6217,77.730675,158.74731
"40592",588.635,77.98459,158.93031
"40593",588.6483,78.35569,159.23843
"40594",588.6616,78.76097,159.59233
"40595",588.6749,79.12474,159.91737
"40596",588.68823,79.38842,160.1537
"40597",588.70154,79.520256,160.26642
"40598",588.71484,79.51537,160.24654
"40599",588.72815,79.398186,160.1142
"40600",588.74146,79.200424,159.89763
"40601",588.75476,78.94896,159.62117
"40602",588.76807,78.67063,159.31
"40603",588.7814,78.37766,158.97548
"40604",588.7947,78.07248,158.6196
"40605",588.808,77.7673,158.25418
"40606",588.8213,77.47433,157.89143
"40607",588.8346,77.239944,157.57812
"40608",588.8479,77.196,157.44792
"40609",588.8612,77.54513,157.70943
"40610",588.8745,78.44846,158.53604
"40611",588.8878,79.91577,159.95486
"40612",588.9011,81.79813,161.8346
"40613",588.9144,83.792786,163.88545
"40614",588.92773,85.5433,165.75449
"40615",588.94104,86.744484,167.1289
"40616",588.95435,87.276726,167.87192
"40617",588.96765,87.183945,168.00653
"40618",588.98096,86.590675,167.63776
"40619",588.99426,85.643394,166.89644
"40620",589.00757,84.488594,165.918
"40621",589.0209,83.250786,164.82047
"40622",589.0342,82.0325,163.70377
"40623",589.0475,80.90944,162.64423
"40624",589.0608,79.91821,161.68143
"40625",589.0741,79.07347,160.83414
"40626",589.0874,78.37766,160.10938
"40627",589.1007,77.840546,159.52156
"40628",589.114,77.48165,159.09518
"40629",589.1273,77.32296,158.85779
"40630",589.1406,77.37667,158.82784
"40631",589.15393,77.625694,158.99487
"40632",589.16724,77.99924,159.29422
"40633",589.18054,78.41917,159.65163
"40634",589.19385,78.80003,159.9831
"40635",589.20715,79.08568,160.23123
"40636",589.22046,79.237045,160.35402
"40637",589.23376,79.24925,160.34238
"40638",589.2471,79.13695,160.2066
"40639",589.2604,78.941635,159.98431
"40640",589.2737,78.695045,159.70465
"40641",589.287,78.41917,159.38799
"40642",589.3003,78.12619,159.04561
"40643",589.3136,77.83078,158.69164
"40644",589.3269,77.53048,158.32355
"40645",589.3402,77.22774,157.94363
"40646",589.3535,76.9543,157.58356
"40647",589.3668,76.81514,157.34921
"40648",589.3801,77.00313,157.43767
"40649",589.39343,77.71847,158.05936
"40650",589.40674,79.029526,159.29912
"40651",589.42004,80.84352,161.08278
"40652",589.43335,82.90898,163.1746
"40653",589.45996,86.33189,166.84006
"40654",589.47327,87.149765,167.8558
"40655",589.4866,87.30358,168.23305
"40656",589.4999,86.89342,168.05112
"40657",589.5132,86.06821,167.44133
"40658",589.5265,84.96956,166.53232
"40659",589.5398,83.7293,165.44736
"40660",589.5531,82.44755,164.28215
"40661",589.5664,81.20973,163.12082
"40662",589.5797,80.06714,162.01604
"40663",589.593,79.05638,161.00739
"40664",589.6196,77.50851,159.3736
"40665",589.63293,77.032425,158.81966
"40666",589.64624,76.80293,158.49742
"40667",589.65955,76.83711,158.43169
"40668",589.67285,77.117874,158.6136
"40669",589.68616,77.574425,158.98009
"40670",589.69946,78.1091,159.43896
"40671",589.71277,78.61448,159.88525
"40672",589.7261,79.012436,160.23991
"40673",589.7394,79.2517,160.44832
"40674",589.7527,79.327385,160.50061
"40675",589.766,79.2517,160.4039
"40676",589.7793,79.06859,160.1974
"40677",589.7926,78.81224,159.91194
"40678",589.8059,78.51194,159.57452
"40679",589.8192,78.19211,159.20819
"40680",589.8325,77.86984,158.82942
"40681",589.8458,77.55245,158.44547
"40682",589.85913,77.239944,158.05647
"40683",589.87244,76.97383,157.7041
"40684",589.88574,76.8835,157.5192
"40685",589.89905,77.17647,157.71477
"40686",589.91235,78.02609,158.47615
"40687",589.92566,79.47631,159.86469
"40688",589.93896,81.39529,161.76729
"40689",589.9523,83.492485,163.9081
"40690",589.9656,85.38949,165.91425
"40691",589.9789,86.766464,167.45964
"40692",589.9922,87.467155,168.37178
"40693",590.0055,87.5111,168.64908
"40694",590.0188,87.01549,168.38818
"40695",590.0321,86.12192,167.71385
"40696",590.0454,84.972,166.75525
"40697",590.0587,83.69024,165.62886
"40698",590.072,82.38407,164.43802
"40699",590.0853,81.129166,163.25761
"40700",590.09863,79.97681,162.14055
"40701",590.11194,78.958725,161.12173
"40702",590.12524,78.1091,160.23956
"40703",590.13855,77.44991,159.52129
"40704",590.15186,77.01778,159.00946
"40705",590.16516,76.85176,158.75024
"40706",590.17847,76.94942,158.74951
"40707",590.1918,77.27413,158.9789
"40708",590.2051,77.752655,159.37224
"40709",590.2184,78.28245,159.8318
"40710",590.2317,78.76341,160.2591
"40711",590.245,79.11986,160.57689
"40712",590.2583,79.32006,160.74959
"40713",590.2716,79.35424,160.76251
"40714",590.2849,79.25414,160.64223
"40715",590.2982,79.046616,160.41139
"40716",590.3115,78.77562,160.1106
"40717",590.3248,78.46555,159.76227
"40718",590.33813,78.13107,159.37984
"40719",590.35144,77.78439,158.97475
"40720",590.36475,77.437706,158.55882
"40721",590.37805,77.11543,158.15648
"40722",590.39136,76.90059,157.85149
"40723",590.40466,76.981155,157.83519
"40724",590.41797,77.574425,158.33412
"40725",590.4313,78.80736,159.49126
"40726",590.4446,80.63355,161.28018
"40727",590.4579,82.84062,163.50705
"40728",590.4712,85.06477,165.81998
"40729",590.4845,86.92027,167.83376
"40730",590.4978,88.13367,169.26341
"40731",590.5111,88.63172,170.01564
"40732",590.5244,88.482796,170.13646
"40733",590.5377,87.82361,169.74236
"40734",590.551,86.81041,168.97365
"40735",590.56433,85.5848,167.96086
"40736",590.57764,84.27131,166.8219
"40737",590.59094,82.9749,165.65897
"40738",590.60425,81.76395,164.54099
"40739",590.61755,80.672615,163.50478
"40740",590.63086,79.725334,162.57852
"40741",590.64417,78.93187,161.77647
"40742",590.6575,78.3093,161.12053
"40743",590.6708,77.874725,160.63312
"40744",590.6841,77.659874,160.35185
"40745",590.6974,77.662315,160.28116
"40746",590.7107,77.86496,160.41075
"40747",590.724,78.19943,160.6785
"40748",590.7373,78.572975,160.99577
"40749",590.7506,78.90257,161.28078
"40750",590.7639,79.12474,161.46864
"40751",590.7772,79.20531,161.52185
"40752",590.7905,79.14427,161.43597
"40753",590.80383,78.96361,161.22856
"40754",590.81714,78.70237,160.93494
"40755",590.83044,78.38987,160.58188
"40756",590.84375,78.05783,160.19952
"40757",590.85706,77.71603,159.79703
"40758",590.87036,77.37179,159.38141
"40759",590.88367,77.032425,158.95992
"40760",590.897,76.71015,158.5449
"40761",590.9103,76.47822,158.21016
"40762",590.9236,76.51972,158.1416
"40763",590.9369,77.07149,158.58461
"40764",590.9502,78.28977,159.71138
"40765",590.9635,80.147705,161.51587
"40766",590.9768,82.44022,163.813
"40767",590.9901,84.81087,166.2599
"40768",591.0034,86.85191,168.4513
"40769",591.0167,88.255745,170.06924
"40770",591.03,88.92226,170.99374
"40771",591.04333,88.8954,171.24571
"40772",591.05664,88.3119,170.94019
"40773",591.06995,87.31823,170.20627
"40774",591.08325,86.07797,169.1947
"40775",591.09656,84.72297,168.02963
"40776",591.10986,83.370415,166.82468
"40777",591.12317,82.10086,165.66045
"40778",591.1365,80.953384,164.57863
"40779",591.1498,79.94507,163.60011
"40780",591.1631,79.078354,162.73169
"40781",591.1764,78.363014,161.98755
"40782",591.1897,77.81857,161.39195
"40783",591.203,77.47921,160.98442
"40784",591.2163,77.366905,160.79333
"40785",591.2296,77.45724,160.80138
"40786",591.2429,77.69894,160.96361
"40787",591.2562,78.00656,161.19933
"40788",591.26953,78.29954,161.43001
"40789",591.28284,78.502174,161.5795
"40790",591.29614,78.57542,161.60593
"40791",591.30945,78.51438,161.50037
"40792",591.32275,78.34104,161.2806
"40793",591.33606,78.082245,160.96996
"40794",591.34937,77.7673,160.59508
"40795",591.3627,77.418175,160.17618
"40796",591.376,77.05684,159.73416
"40797",591.3893,76.69062,159.27597
"40798",591.4026,76.32685,158.80878
"40799",591.4159,75.97528,158.34242
"40800",591.4292,75.66277,157.90414
"40801",591.4425,75.50652,157.61235
"40802",591.4558,75.733574,157.69897
"40803",591.4691,76.56611,158.39818
"40804",591.4824,78.09445,159.81921
"40805",591.4957,80.22339,161.8886
"40806",591.50903,82.67216,164.34435
"40807",591.52234,85.03548,166.79117
"40808",591.53564,86.908066,168.82112
"40809",591.54895,88.060425,170.18936
"40810",591.56226,88.45594,170.83676
"40811",591.57556,88.18982,170.83488
"40812",591.58887,87.40612,170.30711
"40813",591.6022,86.26841,169.40085
"40814",591.6155,84.93294,168.26126
"40815",591.6288,83.529106,167.01158
"40816",591.6554,80.87526,164.53535
"40817",591.6687,79.72289,163.41034
"40818",591.682,78.712135,162.39091
"40819",591.6953,77.86008,161.49861
"40820",591.7086,77.18623,160.75789
"40821",591.7219,76.73701,160.22073
"40822",591.7352,76.53681,159.91856
"40823",591.74854,76.58076,159.85428
"40824",591.76184,76.82979,159.99646
"40825",591.77515,77.20332,160.27092
"40826",591.78845,77.60128,160.58148
"40827",591.80176,77.94064,160.84589
"40828",591.81506,78.15793,160.99881
"40829",591.82837,78.23117,161.01448
"40830",591.8417,78.16525,160.89328
"40831",591.855,77.977264,160.64795
"40832",591.8683,77.70626,160.31374
"40833",591.8816,77.37667,159.91246
"40834",591.8949,77.02022,159.47403
"40835",591.9082,76.64423,159.00493
"40836",591.9215,76.26093,158.51675
"40837",591.9348,75.87518,158.01416
"40838",591.9481,75.49676,157.50684
"40839",591.9614,75.16472,157.03407
"40840",591.97473,75.035324,156.75357
"40841",591.98804,75.34783,156.91093
"40842",592.00134,76.30976,157.72748
"40843",592.01465,77.98215,159.28455
"40844",592.02795,80.22339,161.46272
"40845",592.04126,82.71366,163.95998
"40846",592.05457,85.03548,166.3666
"40847",592.0679,86.800644,168.28912
"40848",592.0812,87.81384,169.51485
"40849",592.0945,88.079956,170.02515
"40850",592.1078,87.708855,169.90654
"40851",592.1211,86.84703,169.28561
"40852",592.1344,85.65804,168.3106
"40853",592.1477,84.2884,167.11777
"40854",592.161,82.85527,165.81865
"40855",592.1743,81.45632,164.50893
"40856",592.1876,80.14282,163.24094
"40857",592.2009,78.9514,162.05399
"40858",592.21423,77.91135,160.98116
"40859",592.22754,77.05684,160.06137
"40860",592.24084,76.42695,159.33951
"40861",592.25415,76.07538,158.87628
"40862",592.26746,76.02655,158.7048
"40863",592.28076,76.25849,158.81258
"40864",592.29407,76.69062,159.12778
"40865",592.3074,77.21065,159.54439
"40866",592.3207,77.69894,159.94551
"40867",592.334,78.06271,160.23738
"40868",592.3473,78.25803,160.37216
"40869",592.3606,78.28245,160.34213
"40870",592.3739,78.16281,160.16882
"40871",592.3872,77.93576,159.88435
"40872",592.4005,77.63546,159.51955
"40873",592.4138,77.29366,159.10385
"40874",592.4271,76.929886,158.6555
"40875",592.4404,76.5539,158.18358
"40876",592.45374,76.173035,157.69502
"40877",592.46704,75.79462,157.197
"40878",592.48035,75.45281,156.72379
"40879",592.49365,75.27459,156.40346
"40880",592.50696,75.48943,156.47063
"40881",592.52026,76.32441,157.16464
"40882",592.53357,77.86984,158.59521
"40883",592.5469,80.02075,160.67955
"40884",592.5602,82.493935,163.15338
"40885",592.5735,84.87923,165.61661
"40886",592.5868,86.77623,167.66609
"40887",592.6001,87.953,169.05463
"40888",592.6134,88.37293,169.72308
"40889",592.6267,88.12634,169.73814
"40890",592.64,87.34997,169.21571
"40891",592.6533,86.20981,168.30524
"40892",592.6666,84.85481,167.1443
"40893",592.67993,83.421684,165.86288
"40894",592.69324,82.00809,164.55621
"40895",592.70654,80.68238,163.29326
"40896",592.71985,79.47631,162.10852
"40897",592.73315,78.41184,161.02768
"40898",592.74646,77.523155,160.08936
"40899",592.75977,76.84444,159.33324
"40900",592.7731,76.42939,158.81958
"40901",592.7864,76.299995,158.5786
"40902",592.7997,76.44648,158.60945
"40903",592.813,76.79805,158.84998
"40904",592.8263,77.25948,159.21135
"40905",592.8396,77.72091,159.58713
"40906",592.8529,78.09689,159.89189
"40907",592.8662,78.32395,160.05948
"40908",592.8795,78.38987,160.07301
"40909",592.8928,78.30686,159.93968
"40910",592.9061,78.10422,159.68413
"40911",592.91943,77.81613,159.33679
"40912",592.93274,77.48165,158.93407
"40913",592.94604,77.12276,158.49648
"40914",592.95935,76.756546,158.04034
"40915",592.97266,76.387886,157.57033
"40916",592.98596,76.03143,157.101
"40917",592.99927,75.69695,156.6425
"40918",593.0126,75.48943,156.3005
"40919",593.0259,75.60906,156.27917
"40920",593.0392,76.30244,156.83533
"40921",593.0525,77.71603,158.13336
"40922",593.0658,79.81079,160.15675
"40923",593.0791,82.357216,162.69727
"40924",593.0924,84.96712,165.38083
"40925",593.1057,87.2108,167.77974
"40926",593.119,88.77089,169.56517
"40927",593.1323,89.549706,170.61807
"40928",593.1456,89.59609,170.96289
"40929",593.15894,89.039444,170.70612
"40930",593.17224,88.04089,169.99005
"40931",593.18555,86.766464,168.9669
"40932",593.19885,85.35775,167.76964
"40933",593.21216,83.92706,166.50638
"40934",593.22546,82.55985,165.26189
"40935",593.2388,81.30007,164.0821
"40936",593.2521,80.16724,162.9899
"40937",593.2654,79.18089,162.00879
"40938",593.2787,78.36057,161.16287
"40939",593.292,77.74044,160.4915
"40940",593.3053,77.35958,160.04002
"40941",593.3186,77.23018,159.82811
"40942",593.3319,77.3254,159.83678
"40943",593.3452,77.58175,160.00954
"40944",593.3585,77.908905,160.26112
"40945",593.3718,78.21164,160.4985
"40946",593.38513,78.41917,160.65015
"40947",593.39844,78.49485,160.67642
"40948",593.41174,78.43137,160.5659
"40949",593.42505,78.24826,160.33377
"40950",593.43835,77.977264,160.00803
"40951",593.45166,77.64767,159.61522
"40952",593.46497,77.281456,159.17549
"40953",593.4783,76.895706,158.70479
"40954",593.4916,76.49775,158.20982
"40955",593.5049,76.102234,157.70486
"40956",593.5182,75.718925,157.19975
"40957",593.5315,75.369804,156.71684
"40958",593.5448,75.142746,156.3451
"40959",593.5581,75.23796,156.28851
"40960",593.5714,75.90692,156.80865
"40961",593.5847,77.30831,158.08214
"40962",593.598,79.415276,160.10498
"40963",593.6113,82.01541,162.68684
"40964",593.62463,84.72053,165.45494
"40965",593.63794,87.08385,167.96577
"40966",593.65125,88.77089,169.87419
"40967",593.66455,89.64004,171.01743
"40968",593.67786,89.740135,171.41878
"40969",593.69116,89.198135,171.18115
"40970",593.70447,88.18494,170.4554
"40971",593.7178,86.869,169.39525
"40972",593.7311,85.4139,168.1548
"40973",593.7444,83.946594,166.85667
"40974",593.7577,82.54276,165.57617
"40975",593.771,81.25124,164.36412
"40976",593.7843,80.08179,163.23376
"40977",593.7976,79.04173,162.19626
"40978",593.8109,78.14572,161.2703
"40979",593.8242,77.435265,160.50189
"40980",593.8375,76.94942,159.9359
"40981",593.8508,76.71992,159.61107
"40982",593.86414,76.734566,159.52321
"40983",593.87744,76.93233,159.61893
"40984",593.89075,77.21797,159.8087
"40985",593.90405,77.50118,160.00497
"40986",593.91736,77.70626,160.13196
"40987",593.93066,77.79172,160.14574
"40988",593.944,77.75021,160.03522
"40989",593.9573,77.58907,159.80377
"40990",593.9706,77.34005,159.4794
"40991",593.9839,77.032425,159.08865
"40992",593.9972,76.68818,158.65167
"40993",594.0238,75.95575,157.70096
"40994",594.0371,75.579765,157.1986
"40995",594.0504,75.20622,156.68692
"40996",594.0637,74.83757,156.16846
"40997",594.077,74.5153,155.68486
"40998",594.09033,74.38834,155.3865
"40999",594.10364,74.6984,155.5212
"41000",594.11694,75.68963,156.34674
"41001",594.13025,77.44503,157.96744
"41002",594.14355,79.85474,160.2973
"41003",594.15686,82.60624,163.04427
"41004",594.17017,85.26009,165.77957
"41005",594.1835,87.38903,168.07289
"41006",594.1968,88.74891,169.66368
"41007",594.2101,89.29092,170.4791
"41008",594.2234,89.10292,170.58144
"41009",594.2367,88.33387,170.09685
"41010",594.25,87.15709,169.1805
"41011",594.2633,85.73617,167.98323
"41012",594.2766,84.22003,166.64635
"41013",594.2899,82.71366,165.27185
"41014",594.3032,81.287865,163.93086
"41015",594.3165,79.97925,162.66249
"41016",594.32983,78.81224,161.49484
"41017",594.34314,77.806366,160.45184
"41018",594.35645,76.998245,159.57516
"41019",594.36975,76.43183,158.91495
"41020",594.38306,76.14862,158.52023
"41021",594.39636,76.1413,158.39255
"41022",594.40967,76.36591,158.49658
"41023",594.423,76.732124,158.74922
"41024",594.4363,77.134964,159.04994
"41025",594.4496,77.471886,159.29733
"41026",594.4629,77.68185,159.42828
"41027",594.4762,77.74532,159.41931
"41028",594.4895,77.6672,159.27072
"41029",594.5028,77.469444,159.00006
"41030",594.5161,77.19112,158.64265
"41031",594.5294,76.8542,158.21796
"41032",594.5427,76.47822,157.74367
"41033",594.556,76.07782,157.23322
"41034",594.56934,75.67254,156.70537
"41035",594.58264,75.27459,156.17218
"41036",594.59595,74.88396,155.63388
"41037",594.60925,74.529945,155.12
"41038",594.62256,74.3151,154.7342
"41039",594.63586,74.459145,154.70059
"41040",594.6492,75.21599,155.28429
"41041",594.6625,76.72724,156.64604
"41042",594.6758,78.93431,158.75084
"41043",594.6891,81.58816,161.37138
"41044",594.7024,84.281075,164.11394
"41045",594.7157,86.56382,166.53047
"41046",594.729,88.13367,168.30544
"41047",594.7423,88.902725,169.32867
"41048",594.7556,88.93446,169.63863
"41049",594.7689,88.35584,169.3392
"41050",594.7822,87.32311,168.5676
"41051",594.79553,85.994965,167.46829
"41052",594.80884,84.508125,166.1688
"41053",594.82214,82.97246,164.774
"41054",594.83545,81.47585,163.37029
"41055",594.84875,80.07446,162.01501
"41056",594.86206,78.802475,160.74536
"41057",594.87537,77.69405,159.59952
"41058",594.8887,76.79561,158.62901
"41059",594.902,76.16815,157.90141
"41060",594.9153,75.862976,157.47649
"41061",594.9286,75.88251,157.36673
"41062",594.9419,76.18036,157.5359
"41063",594.9552,76.65888,157.89507
"41064",594.9685,77.19112,158.32289
"41065",594.9818,77.65743,158.70143
"41066",594.9951,77.979706,158.9505
"41067",595.0084,78.13107,159.03873
"41068",595.0217,78.1091,158.95834
"41069",595.03503,77.95285,158.743
"41070",595.04834,77.68917,158.41534
"41071",595.06165,77.35714,158.0111
"41072",595.07495,76.98604,157.5574
"41073",595.08826,76.592964,157.07014
"41074",595.10156,76.18524,156.55595
"41075",595.11487,75.78241,156.0339
"41076",595.1282,75.39178,155.51147
"41077",595.1415,75.05974,155.03543
"41078",595.1548,74.94499,154.7663
"41079",595.1681,75.31365,154.97699
"41080",595.1814,76.39033,155.90721
"41081",595.1947,78.24338,157.64746
"41082",595.208,80.73121,160.0804
"41083",595.2213,83.52422,162.89627
"41084",595.2346,86.170746,165.65292
"41085",595.2479,88.25819,167.9332
"41086",595.2612,89.564354,169.49744
"41087",595.27454,90.06485,170.29681
"41088",595.28784,89.84512,170.39162
"41089",595.30115,89.04433,169.89848
"41090",595.31445,87.82849,168.96529
"41091",595.32776,86.348976,167.73041
"41092",595.34106,84.75716,166.33699
"41093",595.3544,83.16289,164.89139
"41094",595.3677,81.64675,163.47409
"41095",595.381,80.2478,162.1266
"41096",595.3943,78.99046,160.87701
"41097",595.4076,77.91135,159.76634
"41098",595.4209,77.06172,158.85144
"41099",595.4342,76.50263,158.20053
"41100",595.4475,76.2707,157.8593
"41101",595.4608,76.368355,157.84041
"41102",595.4741,76.7248,158.08336
"41103",595.4874,77.225296,158.4815
"41104",595.50073,77.738,158.9075
"41105",595.51404,78.15549,159.2543
"41106",595.52734,78.416725,159.4579
"41107",595.54065,78.502174,159.49387
"41108",595.55396,78.42405,159.36893
"41109",595.56726,78.21408,159.10971
"41110",595.58057,77.91379,158.7536
"41111",595.5939,77.55245,158.32707
"41112",595.6072,77.14961,157.84775
"41113",595.6205,76.72724,157.3363
"41114",595.6338,76.297554,156.80434
"41115",595.6471,75.87518,156.26627
"41116",595.6604,75.47723,155.73941
"41117",595.6737,75.17204,155.2929
"41118",595.687,75.16228,155.13225
"41119",595.7003,75.72869,155.54749
"41120",595.7136,77.07637,156.76169
"41121",595.7269,79.22484,158.81879
"41122",595.74023,81.99588,161.5656
"41123",595.75354,85.013504,164.6456
"41124",595.76685,87.79431,167.58308
"41125",595.78015,89.92813,169.96048
"41126",595.79346,91.226974,171.56958
"41127",595.80676,91.68597,172.37941
"41128",595.82007,91.39544,172.45407
"41129",595.8334,90.511635,171.92638
"41130",595.8467,89.21034,170.95357
"41131",595.86,87.66247,169.69351
"41132",595.8733,86.01694,168.28743
"41133",595.8866,84.386055,166.84457
"41134",595.8999,82.8333,165.42888
"41135",595.9132,81.3904,164.07452
"41136",595.9265,80.079346,162.80692
"41137",595.9398,78.92943,161.65948
"41138",595.9531,77.98947,160.68607
"41139",595.96643,77.31808,159.95184
"41140",595.97974,76.96651,159.51646
"41141",595.99304,76.927444,159.3826
"41142",596.00635,77.14473,159.50386
"41143",596.01965,77.50851,159.77841
"41144",596.03296,77.90402,160.09607
"41145",596.04626,78.22629,160.35283
"41146",596.0596,78.4094,160.48051
"41147",596.0729,78.433815,160.45522
"41148",596.0862,78.311745,160.2842
"41149",596.0995,78.07492,159.99461
"41150",596.1128,77.747765,159.6073
"41151",596.1261,77.36446,159.15361
"41152",596.1394,76.94209,158.64888
"41153",596.1527,76.49775,158.10898
"41154",596.166,76.04364,157.54543
"41155",596.1793,75.59441,156.97256
"41156",596.1926,75.15495,156.39543
"41157",596.20593,74.793625,155.88269
"41158",596.21924,74.68864,155.615
"41159",596.23254,75.12077,155.88116
"41160",596.24585,76.32197,156.92989
"41161",596.25916,78.36057,158.85355
"41162",596.27246,81.08278,161.52452
"41163",596.28577,84.137024,164.61261
"41164",596.2991,87.0399,167.64478
"41165",596.3124,89.35439,170.17926
"41166",596.3257,90.829025,171.94621
"41167",596.339,91.424736,172.88033
"41168",596.3523,91.21721,173.02982
"41169",596.3656,90.35783,172.52097
"41170",596.3789,89.02724,171.51405
"41171",596.3922,87.415886,170.1848
"41172",596.4055,85.680016,168.68068
"41173",596.4188,83.94415,167.12231
"41174",596.4321,82.286415,165.58783
"41175",596.44543,80.7483,164.12117
"41176",596.45874,79.35912,162.75539
"41177",596.47205,78.14328,161.51952
"41178",596.48535,77.14961,160.46782
"41179",596.49866,76.436714,159.66585
"41180",596.51196,76.050964,159.16875
"41181",596.52527,75.98749,158.98186
"41182",596.5386,76.19989,159.06886
"41183",596.5519,76.58564,159.33586
"41184",596.5652,77.02754,159.67107
"41185",596.5785,77.41085,159.96149
"41186",596.5918,77.66476,160.13448
"41187",596.6051,77.7551,160.15184
"41188",596.6184,77.68429,160.01088
"41189",596.6317,77.471886,159.7261
"41190",596.645,77.152054,159.32727
"41191",596.6583,76.75899,158.8452
"41192",596.67163,76.32929,158.31422
"41193",596.68494,75.87274,157.74297
"41194",596.69824,75.40887,157.15012
"41195",596.71155,74.94255,156.54033
"41196",596.72485,74.49088,155.93062
"41197",596.73816,74.107574,155.37515
"41198",596.75146,73.98306,155.0665
"41199",596.7648,74.40299,155.2984
"41200",596.7781,75.61639,156.33688
"41201",596.7914,77.68429,158.26779
"41202",596.8047,80.45533,160.96646
"41203",596.818,83.563286,164.08865
"41204",596.8313,86.51499,167.15172
"41205",596.8446,88.86366,169.70398
"41206",596.8579,90.36271,171.48001
"41207",596.8712,90.982834,172.42397
"41208",596.8845,90.80705,172.5914
"41209",596.8978,89.98917,172.11124
"41210",596.91113,88.70008,171.13431
"41211",596.92444,87.115585,169.82169
"41212",596.93774,85.382164,168.31062
"41213",596.95105,83.62188,166.71854
"41214",596.96436,81.91287,165.12271
"41215",596.97766,80.31129,163.5809
"41216",596.99097,78.85863,162.13797
"41217",597.0043,77.608604,160.85228
"41218",597.0176,76.629585,159.79852
"41219",597.0309,75.98505,159.04866
"41220",597.0442,75.72137,158.65952
"41221",597.0575,75.82147,158.62592
"41222",597.0708,76.19745,158.8713
"41223",597.0841,76.71259,159.26762
"41224",597.0974,77.23506,159.68736
"41225",597.1107,77.65011,160.016
"41226",597.124,77.88937,160.18184
"41227",597.1373,77.9382,160.1647
"41228",597.15063,77.821014,159.98308
"41229",597.16394,77.574425,159.6684
"41230",597.17725,77.23262,159.2508
"41231",597.19055,76.824905,158.75659
"41232",597.20386,76.37568,158.20815
"41233",597.21716,75.90692,157.62613
"41234",597.23047,75.421074,157.01237
"41235",597.2438,74.93767,156.38588
"41236",597.2571,74.527504,155.81752
"41237",597.2704,74.38346,155.50246
"41238",597.2837,74.7863,155.72978
"41239",597.297,75.9704,156.75095
"41240",597.3103,77.996796,158.65141
"41241",597.3236,80.709236,161.30125
"41242",597.3369,83.756165,164.37035
"41243",597.3502,86.65171,167.38327
"41244",597.3635,88.96132,169.90074
"41245",597.37683,90.440834,171.6603
"41246",597.39014,91.04631,172.59204
"41247",597.40344,90.846115,172.73705
"41248",597.41675,89.986725,172.2166
"41249",597.43005,88.64393,171.18588
"41250",597.44336,86.993515,169.80559
"41251",597.45667,85.19173,168.22235
"41252",597.47,83.36309,166.55595
"41253",597.4833,81.5906,164.88857
"41254",597.4966,79.94507,163.29274
"41255",597.5099,78.47532,161.82127
"41256",597.5232,77.24971,160.54802
"41257",597.5365,76.334175,159.54654
"41258",597.5498,75.792175,158.88998
"41259",597.5631,75.64324,158.60956
"41260",597.5764,75.843445,158.67361
"41261",597.5897,76.29267,158.99295
"41262",597.603,76.85176,159.43619
"41263",597.61633,77.383995,159.87004
"41264",597.62964,77.77951,160.1838
"41265",597.64294,77.98947,160.32437
"41266",597.65625,78.011444,160.28351
"41267",597.66956,77.8674,160.07732
"41268",597.68286,77.591515,159.73479
"41269",597.69617,77.22774,159.29575
"41270",597.7095,76.79805,158.77942
"41271",597.7228,76.32929,158.2106
"41272",597.7361,75.841,157.6076
"41273",597.7494,75.34783,156.98447
"41274",597.7627,74.89372,156.38498
"41275",597.776,74.615395,155.94708
"41276",597.7893,74.776535,155.93996
"41277",597.8026,75.65545,156.65564
"41278",597.8159,77.40597,158.27039
"41279",597.8292,79.96948,160.75284
"41280",597.8425,83.06523,163.84763
"41281",597.85583,86.23422,167.11241
"41282",597.86914,88.97841,170.05142
"41283",597.88245,90.94377,172.29736
"41284",597.89575,91.99115,173.68674
"41285",597.90906,92.1474,174.21771
"41286",597.92236,91.53704,173.98695
"41287",597.93567,90.34318,173.15363
"41288",597.949,88.76112,171.89479
"41289",597.9623,86.98131,170.38876
"41290",597.9756,85.155106,168.78073
"41291",597.9889,83.38018,167.1669
"41292",598.0022,81.722435,165.61479
"41293",598.0155,80.22339,164.16957
"41294",598.0288,78.91966,162.87283
"41295",598.0421,77.86008,161.77948
"41296",598.0554,77.103226,160.95575
"41297",598.0687,76.6833,160.4453
"41298",598.08203,76.59785,160.2562
"41299",598.09534,76.790726,160.34276
"41300",598.10864,77.152054,160.60379
"41301",598.12195,77.55245,160.91519
"41302",598.13525,77.88449,161.17075
"41303",598.14856,78.07004,161.29018
"41304",598.16187,78.082245,161.24207
"41305",598.1752,77.93332,161.0332
"41306",598.1885,77.65255,160.68785
"41307",598.2018,77.27657,160.23851
"41308",598.2151,76.83711,159.71394
"41309",598.2284,76.35615,159.13414
"41310",598.2417,75.84833,158.51245
"41311",598.255,75.335625,157.87001
"41312",598.2683,74.83269,157.22131
"41313",598.2816,74.42252,156.64967
"41314",598.2949,74.29801,156.35086
"41315",598.3082,74.73502,156.60968
"41316",598.32153,75.96063,157.67076
"41317",598.33484,78.04074,159.62463
"41318",598.34814,80.814224,162.33688
"41319",598.36145,83.914856,165.46297
"41320",598.37476,86.8568,168.52725
"41321",598.38806,89.198135,171.08287
"41322",598.40137,90.68253,172.8547
"41323",598.4147,91.2636,173.7696
"41324",598.428,91.02922,173.8872
"41325",598.4413,90.14053,173.34319
"41326",598.4546,88.800186,172.31973
"41327",598.4679,87.203476,170.99803
"41328",598.4812,85.51644,169.5361
"41329",598.4945,83.85138,168.04343
"41330",598.5078,82.269325,166.58173
"41331",598.5211,80.814224,165.19754
"41332",598.5344,79.51049,163.91925
"41333",598.5477,78.38743,162.78088
"41334",598.56104,77.49142,161.83447
"41335",598.57434,76.86641,161.13107
"41336",598.58765,76.52949,160.69623
"41337",598.60095,76.456245,160.51453
"41338",598.61426,76.58564,160.53317
"41339",598.62756,76.81758,160.65842
"41340",598.64087,77.0544,160.79578
"41341",598.6542,77.21065,160.85997
"41342",598.6675,77.2375,160.79965
"41343",598.6808,77.12276,160.59857
"41344",598.6941,76.87862,160.26451
"41345",598.7074,76.53925,159.8276
"41346",598.7207,76.13641,159.31662
"41347",598.734,75.68963,158.7491
"41348",598.7473,75.22331,158.14809
"41349",598.7606,74.74235,157.51785
"41350",598.7739,74.25895,156.87015
"41351",598.78723,73.797516,156.22931
"41352",598.80054,73.463036,155.701
"41353",598.81384,73.45571,155.4894
"41354",598.82715,74.03189,155.86107
"41355",598.84045,75.37713,157.0198
"41356",598.85376,77.49142,158.98962
"41357",598.86707,80.17212,161.59193
"41358",598.8804,83.02861,164.4538
"41359",598.8937,85.592125,167.11195
"41360",598.907,87.49157,169.18616
"41361",598.9203,88.55848,170.48718
"41362",598.9336,88.7953,170.99146
"41363",598.9469,88.33143,170.80243
"41364",598.9602,87.34753,170.07889
"41365",598.9735,86.03403,168.995
"41366",598.9868,84.559395,167.70892
"41367",599.0001,83.06035,166.35236
"41368",599.0134,81.61501,165.00266
"41369",599.02673,80.272224,163.71034
"41370",599.04004,79.05638,162.503
"41371",599.05334,77.98459,161.40172
"41372",599.06665,77.086136,160.44028
"41373",599.07996,76.402534,159.66562
"41374",599.09326,75.97284,159.1235
"41375",599.10657,75.79706,158.82187
"41376",599.1199,75.83124,158.7247
"41377",599.1332,76.00946,158.77264
"41378",599.1465,76.23407,158.87254
"41379",599.1598,76.42451,158.9453
"41380",599.1731,76.52705,158.9361
"41381",599.1864,76.5124,158.81291
"41382",599.1997,76.383,158.57452
"41383",599.213,76.155945,158.23444
"41384",599.2263,75.85565,157.81401
"41385",599.2396,75.508965,157.33781
"41386",599.2529,75.13786,156.82637
"41387",599.26624,74.75212,156.28868
"41388",599.27954,74.35905,155.73161
"41389",599.29285,73.968414,155.1647
"41390",599.30615,73.59487,154.60268
"41391",599.31946,73.31167,154.11931
"41392",599.33276,73.3019,153.90053
"41393",599.34607,73.812164,154.20148
"41394",599.3594,75.00847,155.2044
"41395",599.3727,76.895706,156.93565
"41396",599.386,79.27856,159.2215
"41397",599.3993,81.795685,161.71608
"41398",599.4126,84.01984,163.99635
"41399",599.4259,85.6141,165.71623
"41400",599.4392,86.44175,166.71933
"41401",599.4525,86.539406,167.0183
"41402",599.4658,86.04379,166.72704
"41403",599.4791,85.120926,165.99304
"41404",599.49243,83.946594,164.97874
"41405",599.50574,82.65995,163.81543
"41406",599.51904,81.36599,162.6046
"41407",599.53235,80.1355,161.4168
"41408",599.54565,79.00511,160.29065
"41409",599.55896,78.00656,159.261
"41410",599.57227,77.15938,158.35152
"41411",599.5856,76.51484,157.61821
"41412",599.5989,76.104675,157.09914
"41413",599.6122,75.95819,156.83092
"41414",599.6255,76.05585,156.80226
"41415",599.6388,76.33662,156.95978
"41416",599.6521,76.70771,157.21638
"41417",599.6654,77.066605,157.4724
"41418",599.6787,77.33517,157.64929
"41419",599.692,77.46212,157.69296
"41420",599.7053,77.437706,157.58923
"41421",599.7186,77.2839,157.35535
"41422",599.73193,77.03487,157.02144
"41423",599.74524,76.72236,156.61627
"41424",599.75854,76.37812,156.1696
"41425",599.77185,76.02655,155.70485
"41426",599.78516,75.682304,155.23643
"41427",599.79846,75.34539,154.76459
"41428",599.81177,75.020676,154.29442
"41429",599.8251,74.73991,153.85805
"41430",599.8384,74.615395,153.56915
"41431",599.8517,74.847336,153.63283
"41432",599.865,75.63348,154.25795
"41433",599.8783,77.0544,155.54242
"41434",599.8916,79.00755,157.40352
"41435",599.9049,81.22682,159.59177
"41436",599.9182,83.33379,161.73708
"41437",599.9315,84.97688,163.48434
"41438",599.9448,85.943695,164.60669
"41439",599.9581,86.222015,165.07076
"41440",599.97144,85.91196,164.95514
"41441",599.98474,85.169754,164.39769
"41442",599.99805,84.14679,163.53629
"41443",600.01135,82.99443,162.51352
"41444",600.02466,81.81766,161.43033
"41445",600.03796,80.68726,160.35674
"41446",600.0513,79.64233,159.33328
"41447",600.0646,78.71946,158.39923
"41448",600.0779,77.94064,157.5804
"41449",600.0912,77.34005,156.91545
"41450",600.1045,76.95918,156.45146
"41451",600.1178,76.82735,156.2246
"41452",600.1311,76.93721,156.2353
"41453",600.1444,77.23262,156.435
"41454",600.1577,77.63058,156.74648
"41455",600.171,78.03342,157.07527
"41456",600.1843,78.35081,157.3312
"41457",600.19763,78.53147,157.46033
"41458",600.21094,78.56321,157.44617
"41459",600.22424,78.45579,157.29384
"41460",600.23755,78.24582,157.03561
"41461",600.25085,77.96994,156.70491
"41462",600.26416,77.659874,156.3314
"41463",600.27747,77.34005,155.93845
"41464",600.2908,77.02266,155.53793
"41465",600.3041,76.71992,155.14215
"41466",600.3174,76.43183,154.75156
"41467",600.3307,76.17792,154.38614
"41468",600.344,76.03143,154.12021
"41469",600.3573,76.16815,154.1329
"41470",600.3706,76.788284,154.63329
"41471",600.3839,78.02365,155.76828
"41472",600.3972,79.82788,157.51074
"41473",600.4105,81.98367,159.66116
"41474",600.4238,84.13458,161.87407
"41475",600.43713,85.90219,163.77089
"41476",600.45044,87.02281,165.07596
"41477",600.46375,87.42809,165.7007
"41478",600.47705,87.2108,165.71553
"41479",600.49036,86.52964,165.2597
"41480",600.50366,85.56039,164.4945
"41481",600.51697,84.44709,163.55498
"41482",600.5303,83.302055,162.54892
"41483",600.5436,82.2034,161.55345
"41484",600.5569,81.20241,160.62132
"41485",600.5702,80.31861,159.7751
"41486",600.5835,79.5642,159.03065
"41487",600.5968,78.9514,158.40424
"41488",600.6101,78.502174,157.92224
"41489",600.6234,78.23361,157.60687
"41490",600.6367,78.15793,157.47598
"41491",600.65,78.24826,157.50874
"41492",600.6633,78.467995,157.67374
"41493",600.67664,78.746315,157.90417
"41494",600.68994,79.009995,158.12868
"41495",600.70325,79.19066,158.2784
"41496",600.71655,79.25414,158.31659
"41497",600.72986,79.19798,158.23712
"41498",600.74316,79.03197,158.04604
"41499",600.7565,78.785385,157.7692
"41500",600.7698,78.49729,157.44315
"41501",600.7831,78.19211,157.091
"41502",600.7964,77.88205,156.72444
"41503",600.8097,77.57198,156.34819
"41504",600.823,77.264366,155.96469
"41505",600.8363,76.96895,155.58379
"41506",600.8496,76.71015,155.23027
"41507",600.8629,76.5832,155.0005
"41508",600.8762,76.76631,155.07684
"41509",600.8895,77.45968,155.66916
"41510",600.90283,78.76097,156.89107
"41511",600.91614,80.58961,158.68098
"41512",600.92944,82.70634,160.81615
"41513",600.94275,84.75716,162.95154
"41514",600.95605,86.37095,164.71399
"41515",600.96936,87.31823,165.86037
"41516",600.98267,87.572136,166.34297
"41517",600.996,87.23277,166.24023
"41518",601.0093,86.46616,165.69965
"41519",601.0226,85.4432,164.87875
"41520",601.0359,84.317696,163.92336
"41521",601.0492,83.19951,162.9401
"41522",601.0625,82.16678,162.00735
"41523",601.0758,81.25124,161.15953
"41524",601.0891,80.45289,160.40028
"41525",601.1024,79.766846,159.7284
"41526",601.1157,79.1931,159.14737
"41527",601.129,78.74143,158.67049
"41528",601.14233,78.44114,158.33086
"41529",601.15564,78.311745,158.15274
"41530",601.16895,78.348366,158.1366
"41531",601.18225,78.51194,158.24855
"41532",601.19556,78.73655,158.42665
"41533",601.20886,78.94652,158.59714
"41534",601.22217,79.08812,158.70581
"41535",601.2355,79.12474,158.71393
"41536",601.2488,79.0515,158.61333
"41537",601.2621,78.8806,158.41278
"41538",601.2754,78.63645,158.13365
"41539",601.2887,78.35081,157.80539
"41540",601.302,78.05051,157.45355
"41541",601.3153,77.74532,157.08745
"41542",601.3286,77.437706,156.70937
"41543",601.3419,77.137405,156.329
"41544",601.3552,76.84444,155.94656
"41545",601.3685,76.56611,155.56963
"41546",601.38184,76.351265,155.24747
"41547",601.39514,76.34394,155.12611
"41548",601.40845,76.756546,155.42447
"41549",601.42175,77.75754,156.3241
"41550",601.43506,79.361565,157.85805
"41551",601.44836,81.40505,159.88158
"41552",601.4617,83.56817,162.08861
"41553",601.475,85.46029,164.09224
"41554",601.4883,86.75426,165.55684
"41555",601.5016,87.31823,166.33188
"41556",601.5149,87.20592,166.44826
"41557",601.5282,86.57603,166.04355
"41558",601.5415,85.609215,165.28224
"41559",601.5548,84.47639,164.3247
"41560",601.5681,83.31426,163.30247
"41561",601.5814,82.20828,162.30006
"41562",601.5947,81.20729,161.36809
"41563",601.60803,80.323494,160.52202
"41564",601.62134,79.55932,159.76796
"41565",601.63464,78.922104,159.11697
"41566",601.64795,78.42649,158.58768
"41567",601.66125,78.09201,158.20403
"41568",601.67456,77.94064,157.99303
"41569",601.68787,77.9675,157.95552
"41570",601.7012,78.14328,158.06778
"41571",601.7145,78.41184,158.27832
"41572",601.7278,78.69993,158.51677
"41573",601.7411,78.94408,158.72029
"41574",601.7544,79.08812,158.83133
"41575",601.7677,79.10765,158.82236
"41576",601.781,79.00755,158.69437
"41577",601.7943,78.81468,158.47047
"41578",601.8076,78.555885,158.17464
"41579",601.8209,78.26292,157.83653
"41580",601.8342,77.960175,157.4795
"41581",601.84753,77.659874,157.11546
"41582",601.86084,77.36935,156.7518
"41583",601.87415,77.083694,156.38394
"41584",601.88745,76.80293,156.01204
"41585",601.90076,76.52705,155.63625
"41586",601.91406,76.29267,155.29333
"41587",601.92737,76.22919,155.114
"41588",601.9407,76.53681,155.30379
"41589",601.954,77.40353,156.06227
"41590",601.9673,78.87816,157.45576
"41591",601.9806,80.814224,159.35677
"41592",601.9939,82.90898,161.47697
"41593",602.0072,84.771805,163.43071
"41594",602.0205,86.063324,164.87135
"41595",602.0338,86.63462,165.63213
"41596",602.0471,86.52476,165.7296
"41597",602.0604,85.889984,165.29872
"41598",602.0737,84.91829,164.5111
"41599",602.08704,83.775696,163.5222
"41600",602.10034,82.58915,162.45364
"41601",602.11365,81.45388,161.39929
"41602",602.12695,80.41871,160.40956
"41603",602.14026,79.50805,159.512
"41604",602.15356,78.74387,158.73244
"41605",602.1669,78.14084,158.09015
"41606",602.1802,77.713585,157.6048
"41607",602.1935,77.486534,157.30629
"41608",602.2068,77.469444,157.21065
"41609",602.2201,77.65255,157.31467
"41610",602.2334,77.979706,157.56847
"41611",602.2467,78.37766,157.90329
"41612",602.26,78.75609,158.23102
"41613",602.2733,79.04173,158.47778
"41614",602.2866,79.185776,158.59187
"41615",602.2999,79.183334,158.56398
"41616",602.31323,79.046616,158.40173
"41617",602.32654,78.81224,158.13756
"41618",602.33984,78.51682,157.80502
"41619",602.35315,78.19699,157.43884
"41620",602.36646,77.872284,157.05779
"41621",602.37976,77.557335,156.67635
"41622",602.39307,77.25948,156.30215
"41623",602.4064,76.9836,155.94063
"41624",602.4197,76.72724,155.59001
"41625",602.433,76.50263,155.26312
"41626",602.4463,76.39277,155.04396
"41627",602.4596,76.58076,155.11922
"41628",602.4729,77.261925,155.69353
"41629",602.4862,78.54124,156.88727
"41630",602.4995,80.35279,158.65323
"41631",602.5128,82.44755,160.75902
"41632",602.5261,84.456856,162.84482
"41633",602.5394,86.00229,164.52953
"41634",602.55273,86.85924,165.57405
"41635",602.56604,87.00572,165.93489
"41636",602.57935,86.56626,165.71436
"41637",602.59265,85.714195,165.06749
"41638",602.60596,84.63264,164.1645
"41639",602.61926,83.46075,163.13739
"41640",602.63257,82.30839,162.09319
"41641",602.6459,81.23659,161.09352
"41642",602.6592,80.289314,160.18489
"41643",602.6725,79.47631,159.38094
"41644",602.6858,78.81712,158.70538
"41645",602.6991,78.32395,158.17525
"41646",602.7124,78.01633,157.81525
"41647",602.7257,77.908905,157.64583
"41648",602.739,77.98947,157.66104
"41649",602.7523,78.23117,157.8399
"41650",602.7656,78.56809,158.12155
"41651",602.77893,78.91722,158.42593
"41652",602.79224,79.21019,158.68506
"41653",602.80554,79.3933,158.84349
"41654",602.81885,79.44213,158.87335
"41655",602.83215,79.35668,158.77046
"41656",602.84546,79.1638,158.55748
"41657",602.85876,78.89525,158.26279
"41658",602.8721,78.59251,157.92552
"41659",602.8854,78.28733,157.57635
"41660",602.8987,77.996796,157.2323
"41661",602.912,77.72823,156.90114
"41662",602.9253,77.47921,156.58112
"41663",602.9386,77.24483,156.26796
"41664",602.9519,77.0251,155.96213
"41665",602.9652,76.84688,155.69093
"41666",602.9785,76.80293,155.54845
"41667",602.9918,77.086136,155.73174
"41668",603.0051,77.8967,156.45123
"41669",603.01843,79.327385,157.8162
"41670",603.03174,81.27322,159.741
"41671",603.04504,83.46807,161.97565
"41672",603.05835,85.523766,164.13972
"41673",603.07166,87.064316,165.85289
"41674",603.08496,87.87732,166.88666
"41675",603.09827,87.957886,167.2134
"41676",603.1116,87.45251,166.9567
"41677",603.1249,86.54917,166.28625
"41678",603.1382,85.42611,165.36786
"41679",603.1515,84.23468,164.346
"41680",603.1648,83.089645,163.3333
"41681",603.1781,82.05203,162.39224
"41682",603.1914,81.15358,161.55792
"41683",603.2047,80.39185,160.83224
"41684",603.218,79.76196,160.2146
"41685",603.2313,79.25414,159.69934
"41686",603.2446,78.87816,159.30005
"41687",603.25793,78.641335,159.02817
"41688",603.27124,78.56321,158.90758
"41689",603.28455,78.626686,158.92615
"41690",603.29785,78.802475,159.05902
"41691",603.31116,79.029526,159.24864
"41692",603.32446,79.24681,159.4356
"41693",603.33777,79.395744,159.56099
"41694",603.3511,79.44213,159.58849
"41695",603.3644,79.37377,159.50269
"41696",603.3777,79.202866,159.31221
"41697",603.391,78.95384,159.03827
"41698",603.4043,78.66331,158.71504
"41699",603.4176,78.35569,158.36565
"41700",603.4309,78.05539,158.01396
"41701",603.4442,77.769745,157.66754
"41702",603.4575,77.50118,157.32928
"41703",603.4708,77.24971,156.99973
"41704",603.48413,77.01045,156.67451
"41705",603.49744,76.78584,156.35648
"41706",603.51074,76.60029,156.07048
"41707",603.52405,76.56611,155.93005
"41708",603.53735,76.88838,156.14502
"41709",603.55066,77.75998,156.91937
"41710",603.56396,79.25414,158.34354
"41711",603.5773,81.25124,160.31732
"41712",603.5906,83.46563,162.57082
"41713",603.6039,85.504234,164.71773
"41714",603.6172,86.993515,166.37901
"41715",603.6305,87.745476,167.34952
"41716",603.6438,87.77722,167.6233
"41717",603.6571,87.237656,167.32678
"41718",603.6704,86.31968,166.63498
"41719",603.6837,85.20393,165.71672
"41720",603.697,84.034485,164.7099
"41721",603.7103,82.913864,163.71536
"41722",603.72363,81.900665,162.79323
"41723",603.73694,81.01198,161.96394
"41724",603.75024,80.24048,161.22408
"41725",603.76355,79.58129,160.5724
"41726",603.77686,79.03197,160.01
"41727",603.79016,78.6096,159.55737
"41728",603.80347,78.331276,159.2356
"41729",603.8168,78.22385,159.07602
"41730",603.8301,78.27268,159.06935
"41731",603.8434,78.44358,159.18626
"41732",603.8567,78.6804,159.37444
"41733",603.87,78.91234,159.56514
"41734",603.8833,79.080795,159.6996
"41735",603.8966,79.14183,159.7319
"41736",603.9099,79.08324,159.64648
"41737",603.9232,78.91478,159.44937
"41738",603.9365,78.66331,159.16399
"41739",603.9498,78.35813,158.81703
"41740",603.96313,78.03586,158.44345
"41741",603.97644,77.72091,158.06712
"41742",603.98975,77.42306,157.69804
"41743",604.00305,77.14717,157.34163
"41744",604.01636,76.893265,156.99857
"41745",604.02966,76.654,156.66222
"41746",604.04297,76.42695,156.3306
"41747",604.0563,76.2121,156.00409
"41748",604.0696,76.053406,155.72702
"41749",604.0829,76.09979,155.65007
"41750",604.0962,76.56367,155.99207
"41751",604.1095,77.63058,156.95158
"41752",604.1228,79.32983,158.57678
"41753",604.1361,81.497826,160.72383
"41754",604.1494,83.79523,163.06804
"41755",604.1627,85.81674,165.20816
"41756",604.176,87.20836,166.78156
"41757",604.18933,87.83093,167.6294
"41758",604.20264,87.74059,167.78377
"41759",604.21594,87.098495,167.38356
"41760",604.22925,86.09506,166.60196
"41761",604.24255,84.910965,165.60834
"41762",604.25586,83.682915,164.53375
"41763",604.26917,82.5037,163.46964
"41764",604.2825,81.43191,162.47609
"41765",604.2958,80.49195,161.58089
"41766",604.3091,79.68627,160.79059
"41767",604.3224,79.02464,160.11916
"41768",604.3357,78.519264,159.5833
"41769",604.349,78.184784,159.20255
"41770",604.3623,78.03342,158.99445
"41771",604.3756,78.07004,158.9696
"41772",604.3889,78.260475,159.09973
"41773",604.4022,78.54368,159.32857
"41774",604.4155,78.84154,159.58092
"41775",604.42883,79.08568,159.78885
"41776",604.44214,79.219955,159.89455
"41777",604.45544,79.22728,159.87749
"41778",604.46875,79.11009,159.73615
"41779",604.48206,78.89525,159.49348
"41780",604.49536,78.607155,159.17087
"41781",604.50867,78.28245,158.80263
"41782",604.522,77.94797,158.41447
"41783",604.5353,77.61837,158.02075
"41784",604.5486,77.30587,157.63382
"41785",604.5619,77.02266,157.26642
"41786",604.5752,76.754105,156.90482
"41787",604.5885,76.49531,156.54459
"41788",604.6018,76.24872,156.18848
"41789",604.6151,76.04852,155.87105
"41790",604.6284,76.02655,155.72559
"41791",604.6417,76.402534,155.9774
"41792",604.655,77.366905,156.82935
"41793",604.66833,78.96849,158.34865
"41794",604.68164,81.06813,160.41605
"41795",604.69495,83.346,162.7273
"41796",604.70825,85.39437,164.88023
"41797",604.72156,86.86656,166.521
"41798",604.73486,87.59167,167.46068
"41799",604.74817,87.603874,167.71013
"41800",604.7615,87.044785,167.38866
"41801",604.7748,86.09506,166.65909
"41802",604.7881,84.91829,165.67279
"41803",604.8014,83.65118,164.55937
"41804",604.8147,82.40116,163.42346
"41805",604.828,81.23659,162.33392
"41806",604.8413,80.19653,161.33252
"41807",604.8546,79.30541,160.44754
"41808",604.8679,78.58274,159.70316
"41809",604.8812,78.048065,159.12419
"41810",604.89453,77.72823,158.74336
"41811",604.90784,77.6379,158.58203
"41812",604.92114,77.7673,158.63762
"41813",604.93445,78.07248,158.87302
"41814",604.94775,78.470436,159.21074
"41815",604.96106,78.870834,159.56334
"41816",604.97437,79.185776,159.84299
"41817",604.9877,79.36889,160.00066
"41818",605.001,79.398186,160.01022
"41819",605.0143,79.281,159.87422
"41820",605.0276,79.04906,159.61981
"41821",605.0409,78.74387,159.28491
"41822",605.0542,78.40208,158.90385
"41823",605.0675,78.05051,158.50235
"41824",605.0808,77.70626,158.09718
"41825",605.0941,77.383995,157.70323
"41826",605.1074,77.08125,157.31874
"41827",605.1207,76.79561,156.94188
"41828",605.13403,76.52705,156.57318
"41829",605.14734,76.32197,156.25957
"41830",605.16064,76.32197,156.14462
"41831",605.17395,76.749214,156.45692
"41832",605.18726,77.79416,157.40028
"41833",605.20056,79.49096,159.02815
"41834",605.21387,81.68337,161.20465
"41835",605.2272,84.04669,163.62057
"41836",605.2405,86.16586,165.86621
"41837",605.2538,87.68688,167.57991
"41838",605.2671,88.448616,168.58186
"41839",605.2804,88.47791,168.87518
"41840",605.2937,87.91882,168.58102
"41841",605.307,86.95445,167.86412
"41842",605.3203,85.767914,166.89491
"41843",605.3336,84.505684,165.81293
"41844",605.3469,83.28008,164.72813
"41845",605.3602,82.15701,163.70757
"41846",605.37354,81.16823,162.7862
"41847",605.38684,80.308846,161.96332
"41848",605.40015,79.588615,161.25275
"41849",605.41345,79.02464,160.67592
"41850",605.42676,78.63889,160.25969
"41851",605.44006,78.44114,160.0194
"41852",605.45337,78.44114,159.97067
"41853",605.4667,78.607155,160.08797
"41854",605.48,78.873276,160.31056
"41855",605.4933,79.151596,160.55367
"41856",605.5066,79.378654,160.75421
"41857",605.5199,79.500725,160.85686
"41858",605.5332,79.48852,160.82904
"41859",605.5465,79.34692,160.67145
"41860",605.5598,79.097885,160.40201
"41861",605.5731,78.7805,160.05643
"41862",605.5864,78.42893,159.66675
"41863",605.59973,78.07736,159.26608
"41864",605.61304,77.74288,158.87152
"41865",605.62634,77.44015,158.49825
"41866",605.63965,77.1667,158.1448
"41867",605.65295,76.90791,157.79747
"41868",605.66626,76.663765,157.4567
"41869",605.67957,76.453804,157.14247
"41870",605.6929,76.41474,156.99258
"41871",605.7062,76.75899,157.2248
"41872",605.7195,77.7087,158.07323
"41873",605.7328,79.35424,159.64716
"41874",605.7461,81.5906,161.86333
"41875",605.7594,84.11261,164.43504
"41876",605.7727,86.502785,166.95374
"41877",605.786,88.3534,169.00757
"41878",605.7993,89.44228,170.3575
"41879",605.8126,89.74746,170.95775
"41880",605.8259,89.38857,170.90347
"41881",605.83923,88.551155,170.35945
"41882",605.85254,87.42565,169.50117
"41883",605.86584,86.185394,168.49297
"41884",605.87915,84.95247,167.45334
"41885",605.89246,83.80499,166.46063
"41886",605.90576,82.77959,165.55414
"41887",605.91907,81.87381,164.73523
"41888",605.9324,81.07057,163.99055
"41889",605.9457,80.36988,163.32332
"41890",605.959,79.781494,162.74649
"41891",605.9723,79.33715,162.29532
"41892",605.9856,79.061264,161.99872
"41893",605.9989,78.958725,161.86684
"41894",606.0122,78.995346,161.87091
"41895",606.0255,79.10765,161.95181
"41896",606.0388,79.23216,162.04843
"41897",606.0521,79.30297,162.09525
"41898",606.0654,79.27856,162.04904
"41899",606.07874,79.14183,161.88977
"41900",606.09204,78.90257,161.62369
"41901",606.10535,78.57786,161.26468
"41902",606.11865,78.19699,160.83937
"41903",606.13196,77.79416,160.38019
"41904",606.14526,77.39376,159.91086
"41905",606.15857,77.015335,159.45099
"41906",606.1719,76.66132,159.00371
"41907",606.1852,76.33173,158.56978
"41908",606.1985,76.016785,158.1402
"41909",606.2118,75.716484,157.71542
"41910",606.2251,75.44793,157.313
"41911",606.2384,75.30877,157.03159
"41912",606.2517,75.491875,157.06808
"41913",606.265,76.23895,157.67429
"41914",606.2783,77.70138,159.01918
"41915",606.2916,79.82544,161.07141
"41916",606.30493,82.38163,163.62215
"41917",606.31824,84.97444,166.28938
"41918",606.33154,87.15465,168.62505
"41919",606.34485,88.60731,170.30128
"41920",606.35815,89.22987,171.19283
"41921",606.37146,89.1078,171.35919
"41922",606.38477,88.40955,170.94556
"41923",606.3981,87.34753,170.14633
"41924",606.4114,86.11215,169.14056
"41925",606.4247,84.85237,168.0718
"41926",606.438,83.6585,167.02956
"41927",606.4513,82.57694,166.06233
"41928",606.4646,81.60769,165.17361
"41929",606.4779,80.740974,164.35715
"41930",606.4912,79.96948,163.60881
"41931",606.5045,79.293205,162.93158
"41932",606.5178,78.73899,162.35527
"41933",606.5311,78.331276,161.90814
"41934",606.54443,78.09201,161.61673
"41935",606.55774,78.00412,161.46921
"41936",606.57104,78.03342,161.43613
"41937",606.58435,78.118866,161.46011
"41938",606.59766,78.19943,161.48189
"41939",606.61096,78.21652,161.4427
"41940",606.62427,78.135956,161.3064
"41941",606.6376,77.95285,161.06503
"41942",606.6509,77.66964,160.71785
"41943",606.6642,77.313194,160.28857
"41944",606.6775,76.91524,159.80666
"41945",606.6908,76.5124,159.30742
"41946",606.7041,76.11932,158.80536
"41947",606.7174,75.75311,158.31787
"41948",606.7307,75.41619,157.84824
"41949",606.744,75.106125,157.39493
"41950",606.7573,74.82048,156.95634
"41951",606.7706,74.5568,156.5308
"41952",606.78394,74.32487,156.12877
"41953",606.79724,74.16373,155.79028
"41954",606.81055,74.23453,155.6787
"41955",606.82385,74.77165,156.03564
"41956",606.83716,75.97284,157.07344
"41957",606.85046,77.88449,158.85924
"41958",606.8638,80.35279,161.26143
"41959",606.8771,83.02861,163.94827
"41960",606.8904,85.46029,166.4746
"41961",606.9037,87.25231,168.43726
"41962",606.917,88.20935,169.62093
"41963",606.9303,88.34852,170.01663
"41964",606.9436,87.82117,169.75017
"41965",606.9569,86.82994,169.00336
"41966",606.9702,85.58236,167.96921
"41967",606.9835,84.244446,166.80574
"41968",606.9968,82.9456,165.63954
"41969",607.01013,81.74929,164.53528
"41970",607.02344,80.67994,163.5206
"41971",607.03674,79.7351,162.59702
"41972",607.05005,78.91234,161.76598
"41973",607.06335,78.21408,161.03372
"41974",607.07666,77.66476,160.42859
"41975",607.08997,77.28878,159.97963
"41976",607.1033,77.10567,159.71179
"41977",607.1166,77.10567,159.62134
"41978",607.1299,77.242386,159.6676
"41979",607.1432,77.44747,159.78651
"41980",607.1565,77.645226,159.9045
"41981",607.1698,77.769745,159.95543
"41982",607.1831,77.786835,159.90282
"41983",607.1964,77.68185,159.72867
"41984",607.2097,77.469444,159.44382
"41985",607.223,77.17403,159.06932
"41986",607.2363,76.82735,158.63432
"41987",607.24963,76.45869,158.16652
"41988",607.26294,76.09003,157.6872
"41989",607.27625,75.73846,157.21344
"41990",607.28955,75.41619,156.758
"41991",607.30286,75.11345,156.31201
"41992",607.31616,74.830246,155.8761
"41993",607.32947,74.55924,155.44354
"41994",607.3428,74.305336,155.0196
"41995",607.3561,74.092926,154.62924
"41996",607.3694,74.04898,154.4007
"41997",607.3827,74.40055,154.5663
"41998",607.396,75.36492,155.35568
"41999",607.4093,77.02266,156.86858
"42000",607.4226,79.26147,159.01434
"42001",607.4359,81.78348,161.51328
"42002",607.4492,84.16144,163.94698
"42003",607.4625,85.99008,165.90567
"42004",607.4758,87.03746,167.14024
"42005",607.48914,87.2987,167.6214
"42006",607.50244,86.8983,167.44908
"42007",607.51575,86.01694,166.7833
"42008",607.52905,84.84505,165.79944
"42009",607.54236,83.543755,164.64955
"42010",607.55566,82.2327,163.44923
"42011",607.569,80.99245,162.27876
"42012",607.5823,79.869385,161.18672
"42013",607.5956,78.88548,160.19873
"42014",607.6089,78.065155,159.34357
"42015",607.6222,77.418175,158.63612
"42016",607.6355,76.97139,158.10866
"42017",607.6488,76.74433,157.78696
"42018",607.6621,76.74433,157.68521
"42019",607.6754,76.93721,157.77635
"42020",607.6887,77.25948,158.00291
"42021",607.702,77.62081,158.2786
"42022",607.71533,77.9382,158.52164
"42023",607.72864,78.14816,158.66716
"42024",607.74194,78.2092,158.67032
"42025",607.75525,78.13107,158.53622
"42026",607.76855,77.93576,158.2825
"42027",607.78186,77.659874,157.94211
"42028",607.79517,77.332726,157.54182
"42029",607.8085,76.98848,157.11423
"42030",607.8218,76.65156,156.6832
"42031",607.8351,76.334175,156.26117
"42032",607.8484,76.03876,155.8512
"42033",607.8617,75.772644,155.46129
"42034",607.875,75.528496,155.08504
"42035",607.8883,75.30389,154.72069
"42036",607.9016,75.11345,154.3835
"42037",607.9149,75.0573,154.17464
"42038",607.9282,75.33318,154.29607
"42039",607.9415,76.173035,154.99008
"42040",607.95483,77.68673,156.38419
"42041",607.96814,79.80347,158.42863
"42042",607.98145,82.25956,160.87859
"42043",607.99475,84.6424,163.33205
"42044",608.00806,86.536964,165.37169
"42045",608.02136,87.68688,166.72589
"42046",608.03467,88.043335,167.32256
"42047",608.048,87.7235,167.25407
"42048",608.0613,86.905624,166.67755
"42049",608.0746,85.76303,165.75076
"42050",608.0879,84.471504,164.63933
"42051",608.1012,83.160446,163.468
"42052",608.1145,81.91531,162.32164
"42053",608.1278,80.78493,161.25111
"42054",608.1411,79.80835,160.29907
"42055",608.1544,79.00023,159.48495
"42056",608.1677,78.365456,158.81894
"42057",608.181,77.92844,158.33084
"42058",608.19434,77.70626,158.04393
"42059",608.20764,77.70138,157.96736
"42060",608.22095,77.88937,158.08353
"42061",608.23425,78.20676,158.33495
"42062",608.24756,78.57053,158.64268
"42063",608.26086,78.89525,158.92273
"42064",608.2742,79.11253,159.10548
"42065",608.2875,79.183334,159.14854
"42066",608.3008,79.11009,159.04977
"42067",608.3141,78.91234,158.8242
"42068",608.3274,78.626686,158.50456
"42069",608.3407,78.294655,158.12961
"42070",608.354,77.945526,157.72719
"42071",608.3673,77.60372,157.32118
"42072",608.3806,77.2839,156.92647
"42073",608.3939,76.995804,156.5535
"42074",608.4072,76.73945,156.20326
"42075",608.42053,76.507515,155.86943
"42076",608.43384,76.30244,155.5552
"42077",608.44714,76.12421,155.26143
"42078",608.46045,76.033875,155.04997
"42079",608.47375,76.20233,155.09448
"42080",608.48706,76.86397,155.63744
"42081",608.50037,78.18967,156.86513
"42082",608.5137,80.16968,158.78856
"42083",608.527,82.6038,161.22798
"42084",608.5403,85.118484,163.82404
"42085",608.5536,87.27917,166.14467
"42086",608.5669,88.744026,167.837
"42087",608.5802,89.393456,168.75969
"42088",608.5935,89.2958,168.95558
"42089",608.6068,88.619514,168.5698
"42090",608.6201,87.55993,167.77957
"42091",608.6334,86.30503,166.76093
"42092",608.6467,85.01106,165.66399
"42093",608.66003,83.775696,164.58522
"42094",608.67334,82.65995,163.58746
"42095",608.68665,81.68093,162.69157
"42096",608.69995,80.8362,161.89937
"42097",608.71326,80.11841,161.20772
"42098",608.72656,79.537346,160.63036
"42099",608.73987,79.114975,160.19353
"42100",608.7532,78.870834,159.92172
"42101",608.7665,78.80492,159.82051
"42102",608.7798,78.890366,159.8686
"42103",608.7931,79.07347,160.01703
"42104",608.8064,79.27856,160.19316
"42105",608.8197,79.449455,160.3415
"42106",608.833,79.52514,160.39998
"42107",608.8463,79.47875,160.33875
"42108",608.8596,79.310295,160.15399
"42109",608.8729,79.046616,159.86876
"42110",608.8862,78.712135,159.50449
"42111",608.89954,78.345924,159.09802
"42112",608.91284,77.97238,158.67279
"42113",608.92615,77.61349,158.25053
"42114",608.93945,77.281456,157.84392
"42115",608.95276,76.97139,157.4489
"42116",608.96606,76.68574,157.0686
"42117",608.9794,76.422066,156.70135
"42118",608.9927,76.175476,156.34296
"42119",609.006,75.96307,156.01103
"42120",609.0193,75.88251,155.8043
"42121",609.0326,76.12421,155.91733
"42122",609.0459,76.912796,156.5848
"42123",609.0592,78.37278,157.9483
"42124",609.0725,80.44312,159.96779
"42125",609.0858,82.86992,162.40843
"42126",609.0991,85.262535,164.89073
"42127",609.1124,87.19859,166.99124
"42128",609.12573,88.39979,168.41739
"42129",609.13904,88.80751,169.0876
"42130",609.15234,88.52674,169.08206
"42131",609.16565,87.74059,168.56238
"42132",609.17896,86.64683,167.71051
"42133",609.19226,85.42123,166.69263
"42134",609.20557,84.19318,165.63399
"42135",609.2189,83.04326,164.61511
"42136",609.2322,82.01053,163.67749
"42137",609.2455,81.09987,162.82967
"42138",609.2588,80.30396,162.06813
"42139",609.2721,79.61303,161.3867
"42140",609.2854,79.03441,160.79599
"42141",609.2987,78.58762,160.31903
"42142",609.312,78.29954,159.9868
"42143",609.3253,78.1799,159.81403
"42144",609.3386,78.20676,159.784
"42145",609.3519,78.33372,159.85492
"42146",609.36523,78.49485,159.96397
"42147",609.37854,78.61936,160.04144
"42148",609.39185,78.660866,160.0398
"42149",609.40515,78.59251,159.92958
"42150",609.41846,78.41428,159.70737
"42151",609.43176,78.14328,159.38681
"42152",609.44507,77.81369,158.99919
"42153",609.4584,77.44991,158.5671
"42154",609.4717,77.08125,158.11874
"42155",609.485,76.72724,157.67352
"42156",609.4983,76.404976,157.24898
"42157",609.5116,76.11688,156.84854
"42158",609.5249,75.85809,156.4684
"42159",609.5382,75.62127,156.10214
"42160",609.5515,75.3991,155.74313
"42161",609.5648,75.19646,155.39671
"42162",609.5781,75.06706,155.1172
"42163",609.59143,75.17937,155.07535
"42164",609.60474,75.76288,155.50821
"42165",609.61804,76.98848,156.6014
"42166",609.63135,78.86107,158.37987
"42167",609.64465,81.17799,160.6612
"42168",609.65796,83.58526,163.10527
"42169",609.67126,85.65316,165.28522
"42170",609.6846,87.047226,166.85594
"42171",609.6979,87.64538,167.67432
"42172",609.7112,87.52575,167.79361
"42173",609.7245,86.8568,167.35983
"42174",609.7378,85.82651,166.54382
"42175",609.7511,84.61555,165.51494
"42176",609.7644,83.36797,164.4116
"42177",609.7777,82.178986,163.32787
"42178",609.791,81.09743,162.3144
"42179",609.8043,80.14526,161.39655
"42180",609.8176,79.327385,160.5832
"42181",609.83093,78.64622,159.88101
"42182",609.84424,78.1091,159.30159
"42183",609.85754,77.74044,158.87384
"42184",609.87085,77.56222,158.625
"42185",609.88416,77.57198,158.55858
"42186",609.89746,77.733116,158.64383
"42187",609.91077,77.98215,158.82202
"42188",609.9241,78.24582,159.02263
"42189",609.9374,78.45579,159.17778
"42190",609.9507,78.555885,159.22961
"42191",609.964,78.52415,159.15274
"42192",609.9773,78.37278,158.95525
"42193",609.9906,78.12131,158.65292
"42194",610.0039,77.803925,158.27682
"42195",610.0172,77.454796,157.85907
"42196",610.0305,77.10567,157.4304
"42197",610.0438,76.76875,157.00304
"42198",610.0571,76.456245,156.58955
"42199",610.07043,76.17059,156.19316
"42200",610.08374,75.914246,155.81714
"42201",610.09705,75.67498,155.4502
"42202",610.11035,75.45281,155.09286
"42203",610.12366,75.27459,154.77254
"42204",610.13696,75.25506,154.60533
"42205",610.15027,75.58953,154.79152
"42206",610.1636,76.49287,155.55702
"42207",610.1769,78.02609,156.98065
"42208",610.1902,80.07202,158.96489
"42209",610.2035,82.340126,161.23524
"42210",610.2168,84.43488,163.40314
"42211",610.2301,85.9852,165.09204
"42212",610.2434,86.80553,166.09941
"42213",610.2567,86.905624,166.41219
"42214",610.27,86.42466,166.14702
"42215",610.2833,85.540855,165.46399
"42216",610.29663,84.42512,164.52141
"42217",610.30994,83.21416,163.44873
"42218",610.32324,82.01297,162.34799
"42219",610.33655,80.88991,161.28784
"42220",610.34985,79.87915,160.3049
"42221",610.36316,79.00267,159.42465
"42222",610.37646,78.277565,158.66838
"42223",610.3898,77.733116,158.0701
"42224",610.4031,77.38888,157.65501
"42225",610.4164,77.26681,157.45134
"42226",610.4297,77.35958,157.4587
"42227",610.443,77.625694,157.64229
"42228",610.4563,77.98703,157.92943
"42229",610.4696,78.36057,158.24007
"42230",610.4829,78.66331,158.49156
"42231",610.4962,78.84154,158.62802
"42232",610.5095,78.870834,158.62111
"42233",610.5228,78.76341,158.4784
"42234",610.53613,78.551,158.22734
"42235",610.54944,78.2678,157.89885
"42236",610.56274,77.94797,157.52489
"42237",610.57605,77.625694,157.13849
"42238",610.58936,77.31808,156.75667
"42239",610.60266,77.03731,156.39209
"42240",610.61597,76.7834,156.0456
"42241",610.6293,76.55634,155.71802
"42242",610.6426,76.34638,155.40044
"42243",610.6559,76.1535,155.09338
"42244",610.6692,76.00458,154.82425
"42245",610.6825,76.016785,154.7116
"42246",610.6958,76.39521,154.96555
"42247",610.7091,77.349815,155.8075
"42248",610.7224,78.95384,157.3287
"42249",610.7357,81.08034,159.4225
"42250",610.749,83.42657,161.80249
"42251",610.7623,85.57992,164.06293
"42252",610.77563,87.166855,165.82423
"42253",610.78894,87.99451,166.87585
"42254",610.80225,88.07507,167.20625
"42255",610.81555,87.56481,166.94833
"42256",610.82886,86.64927,166.2692
"42257",610.84216,85.504234,165.33195
"42258",610.85547,84.27863,164.27837
"42259",610.8688,83.07988,163.21332
"42260",610.8821,81.97635,162.20604
"42261",610.8954,81.004654,161.29611
"42262",610.9087,80.17456,160.49742
"42263",610.922,79.483635,159.81195
"42264",610.9353,78.93919,159.25137
"42265",610.9486,78.553444,158.83247
"42266",610.9619,78.345924,158.57974
"42267",610.9752,78.31663,158.49875
"42268",610.9885,78.44846,158.57797
"42269",611.00183,78.68772,158.76874
"42270",611.01514,78.96605,159.00606
"42271",611.02844,79.20531,159.213
"42272",611.04175,79.3518,159.33466
"42273",611.05505,79.37377,159.33636
"42274",611.06836,79.26879,159.2118
"42275",611.08167,79.05394,158.9741
"42276",611.095,78.768295,158.65889
"42277",611.1083,78.44846,158.30057
"42278",611.1216,78.12131,157.92493
"42279",611.1349,77.806366,157.55127
"42280",611.1482,77.51583,157.19218
"42281",611.1615,77.25216,156.85088
"42282",611.1748,77.00801,156.52086
"42283",611.1881,76.78096,156.2003
"42284",611.2014,76.56855,155.8873
"42285",611.2147,76.37568,155.58719
"42286",611.228,76.25849,155.35674
"42287",611.24133,76.37812,155.35944
"42288",611.25464,76.96651,155.83464
"42289",611.26794,78.19455,156.96788
"42290",611.28125,80.05737,158.77428
"42291",611.29456,82.357216,161.07591
"42292",611.30786,84.735176,163.52754
"42293",611.32117,86.76402,165.70436
"42294",611.3345,88.12634,167.27806
"42295",611.3478,88.707405,168.11307
"42296",611.3611,88.585335,168.2631
"42297",611.3744,87.93347,167.87953
"42298",611.3877,86.939804,167.13379
"42299",611.401,85.76547,166.17633
"42300",611.4143,84.55451,165.14554
"42301",611.4276,83.404594,164.13795
"42302",611.4409,82.35966,163.19942
"42303",611.4542,81.444115,162.35762
"42304",611.4675,80.65797,161.61661
"42305",611.48083,79.98657,160.96577
"42306",611.49414,79.43725,160.41603
"42307",611.50745,79.027084,159.98828
"42308",611.52075,78.768295,159.69908
"42309",611.53406,78.67307,159.56537
"42310",611.54736,78.7219,159.57272
"42311",611.56067,78.86595,159.67683
"42312",611.574,79.046616,159.82205
"42313",611.5873,79.19798,159.94362
"42314",611.6006,79.26879,159.98936
"42315",611.6139,79.23216,159.92989
"42316",611.6272,79.08324,159.75696
"42317",611.6405,78.84642,159.49149
"42318",611.6538,78.54368,159.1527
"42319",611.6671,78.19943,158.76294
"42320",611.6804,77.84543,158.35266
"42321",611.6937,77.488976,157.92888
"42322",611.70703,77.14961,157.51105
"42323",611.72034,76.83467,157.10703
"42324",611.73364,76.541695,156.71513
"42325",611.74695,76.27314,156.3385
"42326",611.76025,76.02899,155.97789
"42327",611.77356,75.81171,155.6365
"42328",611.78687,75.667656,155.36157
"42329",611.8002,75.74822,155.30675
"42330",611.8135,76.280464,155.70612
"42331",611.8268,77.44503,156.75444
"42332",611.8401,79.2517,158.48126
"42333",611.8534,81.52224,160.72841
"42334",611.8667,83.91974,163.17348
"42335",611.88,86.02182,165.39806
"42336",611.8933,87.484245,167.04866
"42337",611.9066,88.17273,167.97102
"42338",611.9199,88.145874,168.19957
"42339",611.9332,87.55993,167.86818
"42340",611.94653,86.598,167.1425
"42341",611.95984,85.44076,166.19145
"42342",611.97314,84.22003,165.14075
"42343",611.98645,83.04326,164.09586
"42344",611.99976,81.96658,163.11429
"42345",612.01306,81.01198,162.22115
"42346",612.02637,80.184326,161.42513
"42347",612.0397,79.48852,160.73508
"42348",612.053,78.922104,160.15268
"42349",612.0663,78.502174,159.69907
"42350",612.0796,78.24826,159.39835
"42351",612.0929,78.170135,159.26547
"42352",612.1062,78.24338,159.28152
"42353",612.1195,78.42161,159.40486
"42354",612.1328,78.6511,159.58502
"42355",612.1461,78.856186,159.74796
"42356",612.1594,78.9807,159.83672
"42357",612.1727,78.99046,159.81462
"42358",612.18604,78.88548,159.67809
"42359",612.19934,78.67307,159.43085
"42360",612.21265,78.380104,159.0964
"42361",612.22595,78.048065,158.71375
"42362",612.23926,77.70626,158.31094
"42363",612.25256,77.37423,157.90723
"42364",612.26587,77.05928,157.51022
"42365",612.2792,76.76143,157.12047
"42366",612.2925,76.48066,156.7385
"42367",612.3058,76.20477,156.35263
"42368",612.3191,75.931335,155.96059
"42369",612.3324,75.69207,155.59418
"42370",612.3457,75.56512,155.3326
"42371",612.359,75.72869,155.35757
"42372",612.3723,76.404976,155.90038
"42373",612.3856,77.730675,157.11372
"42374",612.3989,79.65942,158.97154
"42375",612.41223,81.95682,161.2583
"42376",612.42554,84.25178,163.61441
"42377",612.43884,86.14145,165.63695
"42378",612.45215,87.34264,167.03006
"42379",612.46545,87.78943,167.7063
"42380",612.47876,87.57702,167.7373
"42381",612.49207,86.86656,167.26363
"42382",612.5054,85.83383,166.44548
"42383",612.5187,84.630196,165.42415
"42384",612.532,83.38018,164.31883
"42385",612.5453,82.16678,163.21106
"42386",612.5586,81.04616,162.15816
"42387",612.5719,80.0354,161.1801
"42388",612.5852,79.16136,160.30716
"42389",612.5985,78.44602,159.56561
"42390",612.6118,77.92355,158.99458
"42391",612.6251,77.625694,158.63184
"42392",612.6384,77.5671,158.49904
"42393",612.65173,77.733116,158.58902
"42394",612.66504,78.05539,158.84045
"42395",612.67834,78.44114,159.16544
"42396",612.69165,78.79759,159.47318
"42397",612.70496,79.05394,159.69194
"42398",612.71826,79.17113,159.77956
"42399",612.73157,79.13451,159.71703
"42400",612.7449,78.96361,159.51907
"42401",612.7582,78.69016,159.21324
"42402",612.7715,78.36057,158.84271
"42403",612.7848,78.00656,158.43747
"42404",612.7981,77.65743,158.02605
"42405",612.8114,77.330284,157.62569
"42406",612.8247,77.0251,157.23708
"42407",612.838,76.73701,156.85602
"42408",612.8513,76.45869,156.47572
"42409",612.8646,76.190125,156.0965
"42410",612.8779,75.9704,155.7577
"42411",612.89124,75.95087,155.61224
"42412",612.90454,76.35371,155.88855
"42413",612.91785,77.37179,156.79268
"42414",612.93115,79.05394,158.3927
"42415",612.94446,81.24635,160.55554
"42416",612.95776,83.631645,162.97978
"42417",612.97107,85.80209,165.26372
"42418",612.9844,87.39391,167.03685
"42419",612.9977,88.23865,168.11264
"42420",613.011,88.3534,168.48485
"42421",613.0243,87.87488,168.26736
"42422",613.0376,86.9691,167.60768
"42423",613.0509,85.79965,166.65602
"42424",613.0642,84.51789,165.5555
"42425",613.0775,83.23369,164.41248
"42426",613.0908,82.02518,163.30502
"42427",613.1041,80.93385,162.277
"42428",613.11743,79.98169,161.35402
"42429",613.13074,79.18822,160.55997
"42430",613.14404,78.572975,159.91936
"42431",613.15735,78.153046,159.45483
"42432",613.17065,77.95041,159.19447
"42433",613.18396,77.96506,159.14507
"42434",613.19727,78.16525,159.28166
"42435",613.2106,78.4802,159.53928
"42436",613.2239,78.82445,159.83603
"42437",613.2372,79.11009,160.08493
"42438",613.2505,79.276115,160.22314
"42439",613.2638,79.29809,160.22249
"42440",613.2771,79.183334,160.0858
"42441",613.2904,78.958725,159.83566
"42442",613.3037,78.6511,159.4955
"42443",613.317,78.29954,159.10178
"42444",613.3303,77.92844,158.67754
"42445",613.3436,77.55978,158.24414
"42446",613.35693,77.20332,157.81143
"42447",613.37024,76.87373,157.39444
"42448",613.38354,76.56611,156.98912
"42449",613.39685,76.282906,156.5986
"42450",613.41016,76.02899,156.22853
"42451",613.42346,75.88739,155.96283
"42452",613.43677,76.04852,155.99544
"42453",613.4501,76.75166,156.57509
"42454",613.4634,78.150604,157.87251
"42455",613.4767,80.21118,159.87529
"42456",613.49,82.70878,162.37949
"42457",613.5033,85.25765,165.01302
"42458",613.5166,87.42809,167.34776
"42459",613.5299,88.90517,169.05696
"42460",613.5432,89.59121,170.02129
"42461",613.5565,89.55947,170.28928
"42462",613.5698,88.96864,169.99718
"42463",613.5831,87.99451,169.30331
"42464",613.59644,86.80797,168.36661
"42465",613.60974,85.54574,167.31712
"42466",613.62305,84.31281,166.2575
"42467",613.63635,83.16533,165.2448
"42468",613.64966,82.1326,164.31099
"42469",613.66296,81.21706,163.4621
"42470",613.6763,80.42603,162.7091
"42471",613.6896,79.764404,162.06079
"42472",613.7029,79.259026,161.54805
"42473",613.7162,78.93187,161.19774
"42474",613.7295,78.78783,161.02031
"42475",613.7428,78.802475,160.99707
"42476",613.7561,78.924545,161.08171
"42477",613.7694,79.08324,161.20679
"42478",613.7827,79.20531,161.3002
"42479",613.796,79.23949,161.30954
"42480",613.8093,79.1638,161.21008
"42481",613.82263,78.97093,160.99107
"42482",613.83594,78.69016,160.67815
"42483",613.84924,78.34104,160.28809
"42484",613.86255,77.960175,159.85538
"42485",613.87585,77.56222,159.39368
"42486",613.88916,77.171585,158.92686
"42487",613.90247,76.79317,158.46005
"42488",613.9158,76.43183,157.9985
"42489",613.9291,76.09247,157.54764
"42490",613.9424,75.77997,157.11302
"42491",613.9557,75.51629,156.71747
"42492",613.969,75.406425,156.46748
"42493",613.9823,75.66033,156.57784
"42494",613.9956,76.50019,157.28207
"42495",614.0089,78.030975,158.70349
"42496",614.0222,80.19409,160.80507
"42497",614.0355,82.72343,163.34047
"42498",614.0488,85.223465,165.92561
"42499",614.06213,87.28161,168.14699
"42500",614.07544,88.62928,169.72221
"42501",614.08875,89.19081,170.5534
"42502",614.10205,89.04433,170.69414
"42503",614.11536,88.34852,170.28096
"42504",614.12866,87.28649,169.47983
"42505",614.14197,86.031586,168.45262
"42506",614.1553,84.72053,167.33005
"42507",614.1686,83.45098,166.20802
"42508",614.1819,82.27421,165.1391
"42509",614.1952,81.21217,164.14813
"42510",614.2085,80.26246,163.2363
"42511",614.2218,79.42748,162.40953
"42512",614.2351,78.73167,161.69582
"42513",614.2484,78.19699,161.1215
"42514",614.2617,77.857635,160.7258
"42515",614.275,77.72091,160.52213
"42516",614.2883,77.76242,160.49242
"42517",614.30164,77.91379,160.57385
"42518",614.31494,78.1091,160.70396
"42519",614.32825,78.2678,160.80357
"42520",614.34155,78.3386,160.82024
"42521",614.36816,78.135956,160.51245
"42522",614.3815,77.87717,160.1954
"42523",614.3948,77.540245,159.79214
"42524",614.4081,77.154495,159.32953
"42525",614.4214,76.74677,158.83289
"42526",614.4347,76.34638,158.33083
"42527",614.448,75.95819,157.82846
"42528",614.4613,75.58465,157.32861
"42529",614.4746,75.228195,156.83418
"42530",614.4879,74.881516,156.33838
"42531",614.5012,74.56657,155.86348
"42532",614.5145,74.37858,155.50569
"42533",614.52783,74.53239,155.48383
"42534",614.54114,75.27215,156.05272
"42535",614.55444,76.73945,157.37227
"42536",614.56775,78.873276,159.4042
"42537",614.58105,81.42947,161.92519
"42538",614.59436,83.99542,164.53581
"42539",614.60767,86.14389,166.80914
"42540",614.621,87.569695,168.42694
"42541",614.6343,88.18738,169.28117
"42542",614.6476,88.079956,169.42961
"42543",614.6609,87.40856,169.01071
"42544",614.6742,86.3563,168.18997
"42545",614.6875,85.08675,167.11905
"42546",614.7008,83.74151,165.93277
"42547",614.7141,82.41825,164.72644
"42548",614.7274,81.17067,163.55443
"42549",614.7407,80.028076,162.44843
"42550",614.754,79.012436,161.43365
"42551",614.76733,78.14816,160.53851
"42552",614.78064,77.469444,159.80193
"42553",614.79395,77.02266,159.27606
"42554",614.80725,76.82979,158.99014
"42555",614.82056,76.88106,158.94234
"42556",614.83386,77.120316,159.08412
"42557",614.84717,77.44991,159.32373
"42558",614.8605,77.769745,159.56387
"42559",614.8738,77.99924,159.72366
"42560",614.8871,78.09689,159.75879
"42561",614.9004,78.04562,159.64804
"42562",614.9137,77.8674,159.40874
"42563",614.927,77.593956,159.06865
"42564",614.9403,77.2546,158.6541
"42565",614.9536,76.8835,158.1972
"42566",614.9669,76.50507,157.72139
"42567",614.9802,76.1413,157.2484
"42568",614.9935,75.80194,156.78845
"42569",615.00684,75.48943,156.34476
"42570",615.02014,75.19646,155.91083
"42571",615.03345,74.93767,155.50192
"42572",615.04675,74.79118,155.19724
"42573",615.06006,74.949875,155.19315
"42574",615.07336,75.64568,155.73114
"42575",615.0867,77.03975,156.98914
"42576",615.1,79.10033,158.9572
"42577",615.1133,81.602806,161.43156
"42578",615.1266,84.16388,164.04272
"42579",615.1399,86.36118,166.37015
"42580",615.1532,87.87488,168.08263
"42581",615.1665,88.59754,169.05138
"42582",615.1798,88.58045,169.30296
"42583",615.1931,87.96765,168.9583
"42584",615.2197,85.645836,167.10211
"42585",615.23303,84.25178,165.88449
"42586",615.24634,82.85771,164.62329
"42587",615.25964,81.54177,163.39665
"42588",615.27295,80.343025,162.2461
"42589",615.28625,79.293205,161.207
"42590",615.29956,78.41917,160.31087
"42591",615.31287,77.75998,159.60228
"42592",615.3262,77.34249,159.11479
"42593",615.3395,77.17891,158.86816
"42594",615.3528,77.24727,158.84836
"42595",615.3661,77.49142,159.00648
"42596",615.3794,77.81857,159.25525
"42597",615.3927,78.1384,159.5069
"42598",615.406,78.37766,159.68799
"42599",615.4193,78.49485,159.75447
"42600",615.4326,78.47776,159.69034
"42601",615.4459,78.3386,159.5036
"42602",615.4592,78.11398,159.22707
"42603",615.47253,77.82834,158.88248
"42604",615.48584,77.51339,158.49966
"42605",615.49915,77.18135,158.08992
"42606",615.51245,76.84932,157.6698
"42607",615.52576,76.51972,157.24174
"42608",615.53906,76.190125,156.80339
"42609",615.55237,75.86542,156.35962
"42610",615.5657,75.55779,155.92279
"42611",615.579,75.34783,155.574
"42612",615.5923,75.4284,155.50919
"42613",615.6056,76.053406,155.99133
"42614",615.6189,77.39132,157.20592
"42615",615.6322,79.43969,159.17276
"42616",615.6455,81.98123,161.6968
"42617",615.6588,84.63752,164.415
"42618",615.6721,86.97154,166.89394
"42619",615.6854,88.64637,168.78662
"42620",615.6987,89.52041,169.93086
"42621",615.71204,89.635155,170.34312
"42622",615.72534,89.13222,170.14128
"42623",615.73865,88.182495,169.47694
"42624",615.75195,86.959335,168.50949
"42625",615.76526,85.626305,167.39394
"42626",615.77856,84.31037,166.25383
"42627",615.7919,83.07744,165.1556
"42628",615.8052,81.95438,164.12871
"42629",615.8185,80.95094,163.18636
"42630",615.8318,80.076904,162.34204
"42631",615.8451,79.34936,161.6169
"42632",615.8584,78.79515,161.04236
"42633",615.8717,78.44114,160.6507
"42634",615.885,78.2971,160.45793
"42635",615.8983,78.33372,160.44133
"42636",615.9116,78.487526,160.54306
"42637",615.9249,78.68772,160.69598
"42638",615.93823,78.8513,160.81856
"42639",615.95154,78.91478,160.84613
"42640",615.96484,78.853745,160.75117
"42641",615.97815,78.658424,160.52003
"42642",615.99146,78.345924,160.1656
"42643",616.01807,77.506065,159.20993
"42644",616.0314,77.049515,158.67545
"42645",616.0447,76.60029,158.13402
"42646",616.058,76.16571,157.5932
"42647",616.0713,75.75311,157.06078
"42648",616.0846,75.36004,156.53499
"42649",616.0979,74.99138,156.02133
"42650",616.1112,74.69352,155.56696
"42651",616.1245,74.60563,155.31323
"42652",616.1378,74.97185,155.51088
"42653",616.1511,76.0119,156.3938
"42654",616.1644,77.81125,158.06851
"42655",616.17773,80.257576,160.44644
"42656",616.19104,83.04326,163.24017
"42657",616.20435,85.731285,166.0233
"42658",616.21765,87.89929,168.3704
"42659",616.23096,89.2958,170.01376
"42660",616.24426,89.86954,170.87799
"42661",616.25757,89.7084,171.02527
"42662",616.2709,88.96864,170.5889
"42663",616.2842,87.833374,169.7339
"42664",616.2975,86.47837,168.62369
"42665",616.3108,85.04036,167.38812
"42666",616.3241,83.617,166.12227
"42667",616.3374,82.27421,164.89252
"42668",616.3507,81.03639,163.72577
"42669",616.364,79.92554,162.64731
"42670",616.3773,78.96117,161.6806
"42671",616.3906,78.1799,160.86687
"42672",616.40393,77.60616,160.23625
"42673",616.41724,77.26681,159.82208
"42674",616.43054,77.152054,159.62192
"42675",616.44385,77.21553,159.59639
"42676",616.45715,77.38644,159.68028
"42677",616.47046,77.58175,159.79391
"42678",616.48376,77.733116,159.8697
"42679",616.4971,77.789276,159.85503
"42680",616.5104,77.730675,159.72734
"42681",616.5237,77.57198,159.49773
"42682",616.537,77.3254,159.17526
"42683",616.5503,77.02022,158.7865
"42684",616.5636,76.680855,158.35402
"42685",616.5769,76.32685,157.89629
"42686",616.5902,75.97528,157.42993
"42687",616.6035,75.63348,156.96236
"42688",616.6168,75.30389,156.4963
"42689",616.6301,74.986496,156.03217
"42690",616.64343,74.69108,155.58008
"42691",616.65674,74.48844,155.21153
"42692",616.67004,74.56901,155.11986
"42693",616.68335,75.18425,155.56538
"42694",616.69666,76.51972,156.75037
"42695",616.70996,78.572975,158.69485
"42696",616.72327,81.1487,161.22598
"42697",616.7366,83.861145,163.97433
"42698",616.7499,86.2562,166.49005
"42699",616.7632,87.97742,168.40677
"42700",616.7765,88.87099,169.54964
"42701",616.7898,88.97597,169.93184
"42702",616.8031,88.4242,169.66057
"42703",616.8164,87.39147,168.8911
"42704",616.8297,86.05844,167.78905
"42705",616.843,84.58869,166.50862
"42706",616.8563,83.09209,165.15541
"42707",616.8696,81.65652,163.81647
"42708",616.88293,80.325935,162.53766
"42709",616.89624,79.13695,161.35886
"42710",616.90955,78.12131,160.31624
"42711",616.92285,77.31808,159.4543
"42712",616.93616,76.76875,158.82117
"42713",616.94946,76.50507,158.45651
"42714",616.96277,76.52949,158.3717
"42715",616.9761,76.7834,158.51717
"42716",616.9894,77.17891,158.81215
"42717",617.0027,77.60616,159.15125
"42718",617.016,77.962616,159.43289
"42719",617.0293,78.1799,159.5865
"42720",617.0426,78.23361,159.58333
"42721",617.0559,78.135956,159.43047
"42722",617.0692,77.91135,159.1476
"42723",617.0825,77.59884,158.76982
"42724",617.0958,77.23262,158.32857
"42725",617.10913,76.84444,157.8539
"42726",617.12244,76.44892,157.35977
"42727",617.13574,76.06073,156.86061
"42728",617.14905,75.67498,156.35176
"42729",617.16235,75.29656,155.83818
"42730",617.17566,74.94255,155.33719
"42731",617.18896,74.683754,154.92035
"42732",617.2023,74.72526,154.79572
"42733",617.2156,75.3283,155.23392
"42734",617.2289,76.67109,156.43071
"42735",617.2422,78.746315,158.4019
"42736",617.2555,81.35378,160.97018
"42737",617.2688,84.11505,163.77376
"42738",617.2821,86.573586,166.36089
"42739",617.2954,88.36805,168.36078
"42740",617.3087,89.34463,169.59886
"42741",617.322,89.530174,170.07643
"42742",617.3353,89.05165,169.89572
"42743",617.34863,88.0824,169.20934
"42744",617.36194,86.800644,168.18016
"42745",617.37524,85.3724,166.96443
"42746",617.38855,83.90753,165.66745
"42747",617.40186,82.48661,164.36864
"42748",617.41516,81.160904,163.12064
"42749",617.42847,79.96216,161.95818
"42750",617.4418,78.91234,160.90717
"42751",617.4551,78.06027,160.0211
"42752",617.4684,77.452354,159.35257
"42753",617.4817,77.11543,158.93604
"42754",617.495,77.049515,158.77997
"42755",617.5083,77.208206,158.84645
"42756",617.5216,77.51095,159.06195
"42757",617.5349,77.84787,159.32109
"42758",617.5482,78.118866,159.52483
"42759",617.5615,78.260475,159.60765
"42760",617.5748,78.25071,159.54352
"42761",617.58813,78.08713,159.32527
"42762",617.60144,77.806366,158.98473
"42763",617.61475,77.44991,158.55972
"42764",617.62805,77.0544,158.08452
"42765",617.64136,76.64179,157.57986
"42766",617.65466,76.224304,157.05743
"42767",617.66797,75.81415,156.52928
"42768",617.6813,75.423515,156.00784
"42769",617.6946,75.054855,155.49617
"42770",617.7079,74.73014,155.01692
"42771",617.7212,74.52506,154.64716
"42772",617.7345,74.63737,154.58836
"42773",617.7478,75.32342,155.10683
"42774",617.7611,76.76387,156.40114
"42775",617.7744,78.958725,158.49486
"42776",617.7877,81.7029,161.2065
"42777",617.801,84.60822,164.16504
"42778",617.81433,87.203476,166.9043
"42779",617.82764,89.11513,169.04106
"42780",617.84094,90.18692,170.3977
"42781",617.85425,90.440834,170.96996
"42782",617.86755,90.01114,170.86653
"42783",617.88086,89.06142,170.22966
"42784",617.89417,87.77966,169.23108
"42785",617.9075,86.327,168.02153
"42786",617.9208,84.83528,166.72752
"42787",617.9341,83.38506,165.4284
"42788",617.9474,82.0325,164.18163
"42789",617.9607,80.80202,163.01466
"42790",617.974,79.71557,161.95328
"42791",617.9873,78.79515,161.02397
"42792",618.0006,78.082245,160.2734
"42793",618.0139,77.60372,159.73495
"42794",618.0272,77.37423,159.43057
"42795",618.0405,77.36446,159.33875
"42796",618.05383,77.51339,159.4053
"42797",618.06714,77.73556,159.54976
"42798",618.08044,77.94797,159.6914
"42799",618.09375,78.08469,159.76399
"42800",618.10706,78.11154,159.73099
"42801",618.12036,78.01633,159.57675
"42802",618.13367,77.81857,159.317
"42803",618.147,77.54269,158.97295
"42804",618.1603,77.21797,158.57144
"42805",618.1736,76.859085,158.12561
"42806",618.1869,76.48798,157.65636
"42807",618.2002,76.112,157.17062
"42808",618.2135,75.733574,156.6707
"42809",618.2268,75.36004,156.16383
"42810",618.2401,75.003586,155.66238
"42811",618.2534,74.70084,155.2035
"42812",618.2667,74.57877,154.91583
"42813",618.28,74.87663,155.04428
"42814",618.29333,75.83856,155.8461
"42815",618.30664,77.5671,157.4446
"42816",618.31995,79.96948,159.77095
"42817",618.33325,82.75517,162.5557
"42818",618.34656,85.48226,165.36888
"42819",618.35986,87.711296,167.76924
"42820",618.37317,89.15663,169.45555
"42821",618.3865,89.759674,170.34474
"42822",618.3998,89.600975,170.49103
"42823",618.4131,88.83925,170.02933
"42824",618.4264,87.66003,169.12633
"42825",618.4397,86.24643,167.9521
"42826",618.453,84.74494,166.64581
"42827",618.4663,83.265434,165.31459
"42828",618.4796,81.86893,164.02013
"42829",618.4929,80.58961,162.79921
"42830",618.5062,79.44213,161.67017
"42831",618.51953,78.45335,160.66394
"42832",618.53284,77.65743,159.81969
"42833",618.54614,77.08858,159.17763
"42834",618.55945,76.773636,158.7717
"42835",618.57275,76.70527,158.60251
"42836",618.58606,76.82979,158.62407
"42837",618.59937,77.069046,158.76425
"42838",618.6127,77.33761,158.94122
"42839",618.626,77.55245,159.07286
"42840",618.6393,77.662315,159.10623
"42841",618.6526,77.645226,159.01608
"42842",618.6659,77.50118,158.79845
"42843",618.6792,77.25216,158.47133
"42844",618.6925,76.929886,158.06319
"42845",618.7058,76.558784,157.59615
"42846",618.7191,76.16327,157.0931
"42847",618.7324,75.76288,156.5728
"42848",618.7457,75.36736,156.04488
"42849",618.75903,74.97917,155.51192
"42850",618.77234,74.59586,154.97171
"42851",618.78564,74.232086,154.43906
"42852",618.79895,73.92691,153.95363
"42853",618.81226,73.82437,153.6613
"42854",618.82556,74.17349,153.81743
"42855",618.83887,75.211105,154.67296
"42856",618.8522,77.032425,156.34462
"42857",618.8655,79.5227,158.74216
"42858",618.8788,82.35966,161.5642
"42859",618.8921,85.08919,164.36746
"42860",618.9054,87.28405,166.72136
"42861",618.9187,88.68055,168.34549
"42862",618.932,89.24208,169.17828
"42863",618.9453,89.076065,169.30109
"42864",618.9586,88.33387,168.84251
"42865",618.9719,87.19371,167.96278
"42866",618.9852,85.8143,166.80818
"42867",618.99854,84.32746,165.50304
"42868",619.01184,82.8333,164.1441
"42869",619.02515,81.39773,162.79707
"42870",619.03845,80.06714,161.51016
"42871",619.05176,78.87572,160.32083
"42872",619.06506,77.855194,159.26517
"42873",619.07837,77.05928,158.40222
"42874",619.0917,76.52949,157.78053
"42875",619.105,76.30488,157.44746
"42876",619.1183,76.36347,157.39058
"42877",619.1316,76.64423,157.5577
"42878",619.1449,77.03487,157.84346
"42879",619.1582,77.420616,158.13655
"42880",619.1715,77.713585,158.3489
"42881",619.1848,77.86252,158.42639
"42882",619.1981,77.855194,158.35226
"42883",619.2114,77.71603,158.14607
"42884",619.22473,77.47433,157.833
"42885",619.23804,77.16426,157.444
"42886",619.25134,76.81758,157.0087
"42887",619.26465,76.453804,156.54547
"42888",619.27795,76.087585,156.06844
"42889",619.29126,75.72381,155.5824
"42890",619.30457,75.36248,155.08743
"42891",619.3179,75.01335,154.59338
"42892",619.3312,74.71061,154.13481
"42893",619.3445,74.58854,153.84744
"42894",619.3578,74.89372,153.98352
"42895",619.3711,75.85321,154.78343
"42896",619.3844,77.55978,156.36041
"42897",619.3977,79.8938,158.61818
"42898",619.411,82.55009,161.27115
"42899",619.4243,85.09407,163.89482
"42900",619.4376,87.115585,166.07553
"42901",619.4509,88.37293,167.55524
"42902",619.46423,88.834366,168.27832
"42903",619.47754,88.60731,168.32733
"42904",619.49084,87.8407,167.8297
"42905",619.50415,86.70054,166.93456
"42906",619.51746,85.333336,165.77675
"42907",619.53076,83.86847,164.47855
"42908",619.54407,82.391396,163.12236
"42909",619.5574,80.96803,161.77373
"42910",619.5707,79.64233,160.47827
"42911",619.584,78.46555,159.29031
"42912",619.5973,77.488976,158.26578
"42913",619.6106,76.76387,157.4622
"42914",619.6239,76.3415,156.9387
"42915",619.6372,76.241394,156.72427
"42916",619.6505,76.43183,156.79726
"42917",619.6638,76.82735,157.08127
"42918",619.6771,77.315636,157.47041
"42919",619.6904,77.789276,157.86017
"42920",619.70374,78.150604,158.1524
"42921",619.71704,78.345924,158.28993
"42922",619.73035,78.37034,158.26265
"42923",619.74365,78.24826,158.08965
"42924",619.75696,78.013885,157.80052
"42925",619.77026,77.7087,157.43327
"42926",619.78357,77.36202,157.01498
"42927",619.7969,76.998245,156.56877
"42928",619.8102,76.6247,156.10143
"42929",619.8235,76.25361,155.62485
"42930",619.8368,75.89227,155.14644
"42931",619.8501,75.560234,154.68604
"42932",619.8634,75.34295,154.33
"42933",619.8767,75.44793,154.28944
"42934",619.89,76.13153,154.8308
"42935",619.9033,77.55489,156.13327
"42936",619.9166,79.68871,158.19067
"42937",619.92993,82.303505,160.79573
"42938",619.94324,85.00618,163.57039
"42939",619.95654,87.34753,166.06818
"42940",619.96985,89.005264,167.95552
"42941",619.98315,89.85977,169.09145
"42942",619.99646,89.969635,169.50943
"42943",620.00977,89.4667,169.31804
"42944",620.0231,88.50233,168.6495
"42945",620.0364,87.24498,167.65785
"42946",620.0497,85.83383,166.47311
"42947",620.063,84.3885,165.21008
"42948",620.0763,82.98711,163.94583
"42949",620.0896,81.68337,162.73544
"42950",620.1029,80.499275,161.60396
"42951",620.1162,79.46166,160.58195
"42952",620.1295,78.59495,159.69841
"42953",620.1428,77.945526,159.00508
"42954",620.1561,77.54757,158.54292
"42955",620.16943,77.418175,158.33688
"42956",620.18274,77.5256,158.36362
"42957",620.19604,77.7966,158.5573
"42958",620.20935,78.12619,158.81802
"42959",620.22266,78.42161,159.05489
"42960",620.23596,78.607155,159.1911
"42961",620.24927,78.6511,159.19151
"42962",620.2626,78.55833,159.05658
"42963",620.2759,78.35081,158.804
"42964",620.2892,78.065155,158.46681
"42965",620.3025,77.72823,158.06943
"42966",620.3158,77.36202,157.63222
"42967",620.3291,76.978714,157.16647
"42968",620.3424,76.58808,156.68143
"42969",620.3557,76.20477,156.1915
"42970",620.369,75.841,155.70912
"42971",620.3823,75.53826,155.27641
"42972",620.3956,75.44549,155.0442
"42973",620.40894,75.79462,155.251
"42974",620.42224,76.8127,156.13766
"42975",620.43555,78.572975,157.79834
"42976",620.44885,80.953384,160.13416
"42977",620.46216,83.63897,162.84953
"42978",620.47546,86.19516,165.51944
"42979",620.4888,88.216675,167.73456
"42980",620.5021,89.47402,169.24867
"42981",620.5154,89.94278,170.01349
"42982",620.5287,89.72549,170.1069
"42983",620.542,88.97841,169.66374
"42984",620.5553,87.86267,168.82858
"42985",620.5686,86.536964,167.74858
"42986",620.5819,85.13069,166.54659
"42987",620.5952,83.73174,165.30797
"42988",620.6085,82.406044,164.09889
"42989",620.6218,81.18532,162.95335
"42990",620.63513,80.09155,161.89664
"42991",620.64844,79.14427,160.95221
"42992",620.66174,78.37278,160.15398
"42993",620.67505,77.81613,159.54648
"42994",620.68835,77.503624,159.16573
"42995",620.70166,77.42794,159.01202
"42996",620.71497,77.54269,159.04639
"42997",620.7283,77.77463,159.20154
"42998",620.7416,78.0383,159.39566
"42999",620.7549,78.24338,159.53943
"43000",620.7682,78.33616,159.57732
"43001",620.7815,78.30198,159.49113
"43002",620.7948,78.14572,159.28181
"43003",620.8081,77.891815,158.96996
"43004",620.8214,77.57198,158.58424
"43005",620.8347,77.21065,158.14703
"43006",620.848,76.82735,157.67656
"43007",620.8613,76.42939,157.17946
"43008",620.87463,76.03143,156.66992
"43009",620.88794,75.6408,156.15527
"43010",620.90125,75.27215,155.65039
"43011",620.91455,74.98161,155.21211
"43012",620.92786,74.94255,155.01622
"43013",620.94116,75.406425,155.32205
"43014",620.95447,76.57343,156.3455
"43015",620.9678,78.47532,158.1403
"43016",620.9811,80.938736,160.55608
"43017",620.9944,83.61944,163.26611
"43018",621.0077,86.07309,165.83287
"43019",621.021,87.91638,167.86595
"43020",621.0343,88.9662,169.16316
"43021",621.0476,89.2372,169.71436
"43022",621.0609,88.851456,169.61728
"43023",621.0742,87.972534,169.01497
"43024",621.0875,86.76402,168.0556
"43025",621.1008,85.39193,166.89488
"43026",621.11414,83.97101,165.64246
"43027",621.12744,82.579384,164.37492
"43028",621.14075,81.26345,163.1396
"43029",621.15405,80.05493,161.97057
"43030",621.16736,78.98314,160.90048
"43031",621.18066,78.0798,159.96536
"43032",621.194,77.39376,159.21931
"43033",621.2073,76.964066,158.70818
"43034",621.2206,76.81026,158.45949
"43035",621.2339,76.89815,158.4477
"43036",621.2472,77.15938,158.61198
"43037",621.2605,77.50118,158.86502
"43038",621.2738,77.81857,159.10432
"43039",621.2871,78.03342,159.25099
"43040",621.3004,78.10666,159.26277
"43041",621.3137,78.03586,159.1328
"43042",621.327,77.84787,158.88342
"43043",621.34033,77.574425,158.54272
"43044",621.35364,77.24971,158.14221
"43045",621.36694,76.895706,157.70226
"43046",621.38025,76.52949,157.23903
"43047",621.39355,76.15106,156.75215
"43048",621.40686,75.7702,156.251
"43049",621.42017,75.38445,155.73308
"43050",621.4335,75.02312,155.22751
"43051",621.4468,74.79118,154.84004
"43052",621.4601,74.90837,154.79445
"43053",621.4734,75.61883,155.3458
"43054",621.4867,77.06172,156.65178
"43055",621.5,79.17845,158.67668
"43056",621.5133,81.705345,161.1779
"43057",621.5266,84.244446,163.7703
"43058",621.5399,86.36118,166.01967
"43059",621.5532,87.77234,167.62961
"43060",621.5665,88.39979,168.49994
"43061",621.57983,88.32899,168.69164
"43062",621.59314,87.69665,168.31958
"43063",621.60645,86.67124,167.5347
"43064",621.61975,85.39437,166.46631
"43065",621.63306,83.99542,165.23593
"43066",621.64636,82.55985,163.92522
"43067",621.65967,81.15602,162.60138
"43068",621.673,79.83276,161.31425
"43069",621.6863,78.63889,160.11516
"43070",621.6996,77.625694,159.05942
"43071",621.7129,76.85664,158.21617
"43072",621.7262,76.383,157.6443
"43073",621.7395,76.23895,157.38722
"43074",621.7528,76.40009,157.43083
"43075",621.7661,76.788284,157.70653
"43076",621.7794,77.28878,158.10666
"43077",621.7927,77.78195,158.5151
"43078",621.806,78.15793,158.82176
"43079",621.81934,78.363014,158.96928
"43080",621.83264,78.38743,158.94254
"43081",621.84595,78.260475,158.76518
"43082",621.85925,78.01877,158.46912
"43083",621.87256,77.7087,158.09714
"43084",621.88586,77.36446,157.68129
"43085",621.8992,76.99336,157.22783
"43086",621.9125,76.612495,156.753
"43087",621.9258,76.224304,156.25896
"43088",621.9391,75.83856,155.75522
"43089",621.9524,75.491875,155.27849
"43090",621.9657,75.30389,154.94962
"43091",621.979,75.511406,155.01038
"43092",621.9923,76.34394,155.70264
"43093",622.0056,77.90646,157.15091
"43094",622.0189,80.10376,159.28278
"43095",622.0322,82.64774,161.83
"43096",622.04553,85.12825,164.39325
"43097",622.05884,87.13023,166.5555
"43098",622.07214,88.39979,168.04787
"43099",622.08545,88.89784,168.80841
"43100",622.09875,88.71717,168.90579
"43101",622.11206,88.00427,168.4653
"43102",622.12537,86.92027,167.63144
"43103",622.1387,85.60677,166.5342
"43104",622.152,84.190735,165.29337
"43105",622.1653,82.757614,163.99121
"43106",622.1786,81.373314,162.69308
"43107",622.1919,80.08667,161.44936
"43108",622.2052,78.941635,160.30704
"43109",622.2185,77.98947,159.3218
"43110",622.2318,77.281456,158.55095
"43111",622.2451,76.876175,158.06071
"43112",622.2584,76.7834,157.87032
"43113",622.2717,76.97383,157.96022
"43114",622.28503,77.36202,158.25385
"43115",622.29834,77.83322,158.64261
"43116",622.31165,78.26292,159.0046
"43117",622.32495,78.57542,159.2628
"43118",622.33826,78.71946,159.36232
"43119",622.35156,78.70237,159.3052
"43120",622.36487,78.54856,159.11084
"43121",622.3782,78.294655,158.81157
"43122",622.3915,77.97238,158.436
"43123",622.4048,77.60616,158.00642
"43124",622.4181,77.21065,157.5361
"43125",622.4314,76.80293,157.04121
"43126",622.4447,76.40009,156.53847
"43127",622.458,76.01434,156.04022
"43128",622.4713,75.69451,155.59584
"43129",622.4846,75.59441,155.36119
"43130",622.4979,75.96307,155.59218
"43131",622.5112,77.02266,156.5256
"43132",622.52454,78.84398,158.25388
"43133",622.53784,81.290306,160.66408
"43134",622.55115,84.03204,163.44614
"43135",622.56445,86.624855,166.16495
"43136",622.57776,88.653694,168.40082
"43137",622.59106,89.898834,169.91638
"43138",622.6044,90.3505,170.67738
"43139",622.6177,90.11612,170.76645
"43140",622.631,89.34951,170.31596
"43141",622.6443,88.22888,169.4875
"43142",622.6576,86.905624,168.4214
"43143",622.6709,85.506676,167.23825
"43144",622.6842,84.11749,166.02115
"43145",622.6975,82.79912,164.83145
"43146",622.7108,81.57595,163.69576
"43147",622.7241,80.47486,162.64392
"43148",622.7374,79.5227,161.7066
"43149",622.75073,78.76097,160.92996
"43150",622.76404,78.23361,160.36388
"43151",622.77734,77.9675,160.04256
"43152",622.79065,77.95041,159.96194
"43153",622.80396,78.12863,160.07611
"43154",622.81726,78.40452,160.29352
"43155",622.83057,78.68528,160.52441
"43156",622.8439,78.88548,160.68353
"43157",622.8572,78.95384,160.71706
"43158",622.8705,78.87816,160.60867
"43159",622.8838,78.677956,160.37341
"43160",622.8971,78.382545,160.03668
"43161",622.9104,78.01633,159.61992
"43162",622.9237,77.61593,159.15753
"43163",622.937,77.19356,158.66066
"43164",622.9503,76.76631,158.1457
"43165",622.9636,76.33906,157.6174
"43166",622.9769,75.91913,157.08307
"43167",622.99023,75.55535,156.59177
"43168",623.00354,75.386894,156.28441
"43169",623.01685,75.65789,156.41124
"43170",623.03015,76.60761,157.22527
"43171",623.04346,78.33616,158.8478
"43172",623.05676,80.72877,161.1884
"43173",623.07007,83.48028,163.96269
"43174",623.0834,86.151215,166.74239
"43175",623.0967,88.31678,169.10017
"43176",623.11,89.720604,170.7639
"43177",623.1233,90.30656,171.65363
"43178",623.1366,90.16983,171.83897
"43179",623.1499,89.461815,171.44876
"43180",623.1632,88.35584,170.63847
"43181",623.1765,87.01305,169.5568
"43182",623.1898,85.575035,168.33794
"43183",623.2031,84.14191,167.07903
"43184",623.21643,82.76738,165.83394
"43185",623.22974,81.4905,164.64354
"43186",623.24304,80.33326,163.53288
"43187",623.25635,79.31274,162.52278
"43188",623.26965,78.46311,161.65167
"43189",623.28296,77.8259,160.96643
"43190",623.29626,77.43038,160.50298
"43191",623.3096,77.27413,160.26642
"43192",623.3229,77.31808,160.22517
"43193",623.3362,77.488976,160.31226
"43194",623.3495,77.69405,160.43886
"43195",623.3628,77.85275,160.5255
"43196",623.3761,77.91135,160.51698
"43197",623.3894,77.85275,160.39311
"43198",623.4027,77.679405,160.15266
"43199",623.416,77.418175,159.81891
"43200",623.4293,77.086136,159.40619
"43201",623.4426,76.70771,158.9367
"43202",623.45593,76.29267,158.41878
"43203",623.46924,75.85565,157.8659
"43204",623.48254,75.40154,157.28229
"43205",623.49585,74.949875,156.68692
"43206",623.50916,74.51774,156.09697
"43207",623.52246,74.17349,155.5814
"43208",623.53577,74.08316,155.30899
"43209",623.5491,74.49821,155.53914
"43210",623.5624,75.63592,156.50491
"43211",623.5757,77.55489,158.2875
"43212",623.589,80.09888,160.75508
"43213",623.6023,82.92363,163.58292
"43214",623.6156,85.56771,166.31836
"43215",623.6289,87.61608,168.54073
"43216",623.6422,88.8539,170.01654
"43217",623.6555,89.26894,170.70827
"43218",623.6688,88.973526,170.7025
"43219",623.6821,88.13611,170.14551
"43220",623.69543,86.93248,169.19614
"43221",623.70874,85.52621,168.0065
"43222",623.72205,84.04669,166.69968
"43223",623.73535,82.59403,165.37347
"43224",623.74866,81.22194,164.08244
"43225",623.76196,79.96704,162.86574
"43226",623.77527,78.84398,161.74164
"43227",623.7886,77.891815,160.75334
"43228",623.8019,77.14473,159.94037
"43229",623.8152,76.63691,159.34332
"43230",623.8285,76.39765,158.99896
"43231",623.8418,76.402534,158.89127
"43232",623.8551,76.59052,158.96683
"43233",623.8684,76.86885,159.13861
"43234",623.8817,77.14473,159.31664
"43235",623.895,77.34249,159.42517
"43236",623.9083,77.418175,159.4178
"43237",623.92163,77.35958,159.27852
"43238",623.93494,77.18135,159.01778
"43239",623.94824,76.912796,158.66113
"43240",623.96155,76.578316,158.23018
"43241",623.97485,76.207214,157.75215
"43242",623.98816,75.81415,157.24055
"43243",624.00146,75.40887,156.70447
"43244",624.0148,75.001144,156.15327
"43245",624.0281,74.598305,155.59422
"43246",624.0414,74.21011,155.03723
"43247",624.0547,73.90494,154.55112
"43248",624.068,73.86099,154.3167
"43249",624.0813,74.339516,154.60338
"43250",624.0946,75.53582,155.62279
"43251",624.1079,77.47921,157.42667
"43252",624.1212,79.98413,159.85281
"43253",624.1345,82.67948,162.54767
"43254",624.1478,85.118484,165.0704
"43255",624.16113,86.925156,167.03703
"43256",624.17444,87.92615,168.25444
"43257",624.18774,88.1532,168.72919
"43258",624.20105,87.73571,168.56648
"43259",624.21436,86.837265,167.90977
"43260",624.22766,85.61898,166.90515
"43261",624.24097,84.2298,165.69156
"43262",624.2543,82.777145,164.3711
"43263",624.2676,81.33669,163.01743
"43264",624.2809,79.96216,161.68466
"43265",624.2942,78.69993,160.42125
"43266",624.3075,77.591515,159.2722
"43267",624.3208,76.69306,158.29848
"43268",624.3341,76.06073,157.5628
"43269",624.3474,75.73846,157.11743
"43270",624.3607,75.733574,156.97937
"43271",624.374,75.98749,157.09996
"43272",624.3873,76.4123,157.39938
"43273",624.40063,76.8835,157.75847
"43274",624.41394,77.29366,158.07124
"43275",624.42725,77.5671,158.2601
"43276",624.44055,77.67452,158.29149
"43277",624.45386,77.63058,158.17487
"43278",624.46716,77.46456,157.9348
"43279",624.48047,77.21553,157.60654
"43280",624.4938,76.90791,157.2119
"43281",624.5071,76.57099,156.77835
"43282",624.5204,76.21698,156.31718
"43283",624.5337,75.85077,155.83275
"43284",624.547,75.48211,155.33443
"43285",624.5603,75.123215,154.83435
"43286",624.5736,74.83757,154.3963
"43287",624.5869,74.793625,154.19102
"43288",624.6002,75.245285,154.47998
"43289",624.6135,76.39033,155.47644
"43290",624.62683,78.25071,157.22401
"43291",624.64014,80.64576,159.56439
"43292",624.65344,83.211716,162.15053
"43293",624.66675,85.51644,164.55562
"43294",624.68005,87.19371,166.40527
"43295",624.69336,88.077515,167.51389
"43296",624.70667,88.20203,167.89082
"43297",624.72,87.711296,167.6564
"43298",624.7333,86.768906,166.95499
"43299",624.7466,85.538414,165.93602
"43300",624.7599,84.16144,164.73212
"43301",624.7732,82.74784,163.44856
"43302",624.7865,81.36111,162.1477
"43303",624.7998,80.045166,160.8743
"43304",624.8131,78.8513,159.68185
"43305",624.8264,77.8259,158.62054
"43306",624.8397,77.02266,157.74936
"43307",624.853,76.48554,157.1192
"43308",624.86633,76.25361,156.77744
"43309",624.87964,76.317085,156.72383
"43310",624.89294,76.61982,156.91147
"43311",624.90625,77.069046,157.25507
"43312",624.91956,77.55489,157.64932
"43313",624.93286,77.979706,157.99773
