"","Time..s.","PPG.trace","Preprocessed.PPG"
"45224",602.9478,80.396736,83.20222
"45225",602.9611,80.411385,83.22926
"45226",602.9744,80.52613,83.356865
"45227",602.98773,80.71412,83.561295
"45228",603.00104,80.92897,83.79846
"45229",603.01434,81.126724,84.025246
"45230",603.02765,81.27566,84.20939
"45231",603.04095,81.34646,84.32005
"45232",603.05426,81.324486,84.34016
"45233",603.06757,81.20485,84.26191
"45234",603.0809,80.99977,84.09448
"45235",603.0942,80.719,83.844955
"45236",603.1075,80.38209,83.53051
"45237",603.1208,80.01831,83.17867
"45238",603.1341,79.65209,82.81303
"45239",603.1474,79.29809,82.44815
"45240",603.1607,78.96849,82.09662
"45241",603.174,78.66819,81.764084
"45242",603.1873,78.399635,81.45391
"45243",603.2006,78.167694,81.17196
"45244",603.2139,77.96994,80.91695
"45245",603.22723,77.81613,80.6997
"45246",603.24054,77.70626,80.52158
"45247",603.25385,77.64034,80.38399
"45248",603.26715,77.61837,80.28828
"45249",603.28046,77.63058,80.22606
"45250",603.29376,77.66476,80.186195
"45251",603.30707,77.7087,80.157166
"45252",603.3204,77.747765,80.124626
"45253",603.3337,77.77219,80.07867
"45254",603.347,77.77219,80.00905
"45255",603.3603,77.77219,79.93943
"45256",603.3736,77.81613,79.91376
"45257",603.3869,78.00412,80.0335
"45258",603.4002,78.44114,80.40815
"45259",603.4135,79.1931,81.1114
"45260",603.4268,80.24536,82.13844
"45261",603.4401,81.497826,83.398575
"45262",603.4534,82.77226,84.71982
"45263",603.46674,83.87335,85.90754
"45264",603.48004,84.664375,86.8196
"45265",603.49335,85.08186,87.38285
"45266",603.50665,85.15022,87.610016
"45267",603.51996,84.93294,87.55367
"45268",603.53326,84.51545,87.29034
"45269",603.5466,83.980774,86.89677
"45270",603.5599,83.404594,86.444984
"45271",603.5732,82.84062,85.987404
"45272",603.5865,82.33524,85.57079
"45273",603.5998,81.90555,85.21407
"45274",603.6131,81.549095,84.91717
"45275",603.6264,81.24635,84.662834
"45276",603.6397,80.99489,84.45032
"45277",603.653,80.79225,84.27877
"45278",603.6663,80.65064,84.16192
"45279",603.6796,80.587166,84.118774
"45280",603.69293,80.60914,84.159096
"45281",603.70624,80.706795,84.27579
"45282",603.71954,80.84596,84.43704
"45283",603.73285,80.98512,84.60264
"45284",603.74615,81.08034,84.72864
"45285",603.75946,81.109634,84.791695
"45286",603.77277,81.05348,84.77022
"45287",603.7861,80.907,84.656654
"45288",603.7994,80.68726,84.46526
"45289",603.8127,80.40406,84.20354
"45290",603.826,80.079346,83.89145
"45291",603.8393,79.727776,83.54236
"45292",603.8526,79.37133,83.17741
"45293",603.8659,79.0222,82.80863
"45294",603.8792,78.69016,82.44604
"45295",603.8925,78.380104,82.09505
"45296",603.9058,78.099335,81.76366
"45297",603.9191,77.857635,81.46256
"45298",603.93243,77.65499,81.19297
"45299",603.94574,77.4963,80.961
"45300",603.95905,77.37911,80.76557
"45301",603.97235,77.30343,80.60799
"45302",603.98566,77.25704,80.47733
"45303",603.99896,77.23262,80.367195
"45304",604.01227,77.222855,80.27095
"45305",604.0256,77.21309,80.1744
"45306",604.0389,77.208206,80.08243
"45307",604.0522,77.239944,80.026924
"45308",604.0655,77.38155,80.08228
"45309",604.0788,77.738,80.3569
"45310",604.0921,78.38987,80.93809
"45311",604.1054,79.361565,81.85947
"45312",604.1187,80.5774,83.05535
"45313",604.132,81.88846,84.38445
"45314",604.1453,83.10185,85.65686
"45315",604.1586,84.04669,86.69863
"45316",604.17194,84.63508,87.413475
"45317",604.18524,84.859695,87.782936
"45318",604.19855,84.771805,87.84691
"45319",604.21185,84.454414,87.678635
"45320",604.22516,83.99786,87.36128
"45321",604.23846,83.48516,86.97351
"45322",604.2518,82.97734,86.5746
"45323",604.2651,82.511024,86.201324
"45324",604.2784,82.10086,85.86963
"45325",604.2917,81.74685,85.58127
"45326",604.305,81.42458,85.31359
"45327",604.3183,81.13161,85.06513
"45328",604.3316,80.867935,84.83682
"45329",604.3449,80.65064,84.64665
"45330",604.3582,80.499275,84.51562
"45331",604.3715,80.430916,84.46286
"45332",604.3848,80.43824,84.48365
"45333",604.39813,80.5066,84.565704
"45334",604.41144,80.58961,84.66454
"45335",604.42474,80.66041,84.75377
"45336",604.43805,80.68238,84.79638
"45337",604.45135,80.64576,84.78108
"45338",604.46466,80.5359,84.6914
"45339",604.47797,80.35279,84.52504
"45340",604.4913,80.10864,84.291916
"45341",604.5046,79.81323,83.9999
"45342",604.5179,79.48608,83.66691
"45343",604.5312,79.13939,83.30416
"45344",604.5445,78.79515,82.93303
"45345",604.5578,78.46555,82.56578
"45346",604.5711,78.153046,82.20532
"45347",604.5844,77.86984,81.8644
"45348",604.5977,77.62081,81.548805
"45349",604.611,77.41085,81.264496
"45350",604.6243,77.2375,81.01024
"45351",604.63763,77.100784,80.78719
"45352",604.65094,76.998245,80.594055
"45353",604.66425,76.92256,80.42457
"45354",604.67755,76.86641,80.27225
"45355",604.69086,76.824905,80.13282
"45356",604.70416,76.81514,80.023834
"45357",604.71747,76.88838,79.99755
"45358",604.7308,77.134964,80.1469
"45359",604.7441,77.65255,80.57495
"45360",604.7574,78.49241,81.34145
"45361",604.7707,79.62768,82.42961
"45362",604.784,80.94606,83.73636
"45363",604.7973,82.25956,85.07942
"45364",604.8106,83.38262,86.273094
"45365",604.8239,84.18341,87.17959
"45366",604.8372,84.60822,87.73513
"45367",604.8505,84.68635,87.95726
"45368",604.86383,84.491035,87.908394
"45369",604.87714,84.11505,87.67275
"45370",604.89044,83.64141,87.327705
"45371",604.90375,83.1458,86.945885
"45372",604.91705,82.667274,86.56567
"45373",604.93036,82.23514,86.21688
"45374",604.94366,81.849396,85.900986
"45375",604.957,81.495384,85.60477
"45376",604.9703,81.163345,85.31946
"45377",604.9836,80.850845,85.04331
"45378",604.9969,80.57252,84.79157
"45379",605.0102,80.35035,84.587296
"45380",605.0235,80.20386,84.45175
"45381",605.0368,80.147705,84.40197
"45382",605.0501,80.16235,84.421234
"45383",605.0634,80.218506,84.48246
"45384",605.0767,80.27955,84.55033
"45385",605.09,80.308846,84.58836
"45386",605.10333,80.28199,84.57116
"45387",605.11664,80.18921,84.48719
"45388",605.12994,80.025635,84.32953
"45389",605.14325,79.801025,84.10572
"45390",605.15656,79.520256,83.81873
"45391",605.16986,79.20531,83.48879
"45392",605.18317,78.86351,83.12216
"45393",605.1965,78.51438,82.73752
"45394",605.2098,78.17502,82.35173
"45395",605.2231,77.86008,81.97976
"45396",605.2364,77.57198,81.624794
"45397",605.2497,77.32052,81.297455
"45398",605.263,77.103226,80.99643
"45399",605.2763,76.925,80.727684
"45400",605.2896,76.78584,80.49243
"45401",605.3029,76.68818,80.29433
"45402",605.3162,76.627144,80.1298
"45403",605.3295,76.595406,79.99266
"45404",605.34283,76.57343,79.864296
"45405",605.35614,76.55634,79.74013
"45406",605.36945,76.53925,79.615425
"45407",605.38275,76.54658,79.5146
"45408",605.39606,76.64912,79.509224
"45409",605.40936,76.93477,79.69016
"45410",605.42267,77.51339,80.173
"45411",605.436,78.416725,80.99863
"45412",605.4493,79.605705,82.13813
"45413",605.4626,80.938736,83.45884
"45414",605.4759,82.23758,84.78702
"45415",605.4892,83.3167,85.936066
"45416",605.5025,84.06134,86.78435
"45417",605.5158,84.44221,87.29213
"45418",605.5291,84.508125,87.496864
"45419",605.5424,84.334785,87.4644
"45420",605.5557,84.01251,87.27759
"45421",605.56903,83.612114,87.00258
"45422",605.58234,83.19707,86.70041
"45423",605.59564,82.79668,86.399925
"45424",605.60895,82.425575,86.11622
"45425",605.62225,82.08133,85.84777
"45426",605.63556,81.74929,85.58077
"45427",605.64886,81.41238,85.29852
"45428",605.6622,81.077896,85.00818
"45429",605.6755,80.765396,84.72936
"45430",605.6888,80.50904,84.496925
"45431",605.7021,80.33082,84.33461
"45432",605.7154,80.24292,84.25705
"45433",605.7287,80.233154,84.254875
"45434",605.742,80.26978,84.29879
"45435",605.7553,80.31129,84.348724
"45436",605.7686,80.325935,84.3731
"45437",605.7819,80.289314,84.346664
"45438",605.7952,80.18677,84.25316
"45439",605.80853,80.025635,84.09786
"45440",605.82184,79.81323,83.88626
"45441",605.83514,79.56176,83.62895
"45442",605.84845,79.28832,83.34182
"45443",605.86176,79.00023,83.03149
"45444",605.87506,78.70725,82.70727
"45445",605.88837,78.416725,82.37634
"45446",605.9017,78.14328,82.05342
"45447",605.915,77.90158,81.7537
"45448",605.9283,77.69894,81.48548
"45449",605.9416,77.53292,81.24756
"45450",605.9549,77.40353,81.04107
"45451",605.9682,77.30343,80.85983
"45452",605.9815,77.22774,80.699875
"45453",605.9948,77.171585,80.55709
"45454",606.0081,77.13985,80.436966
"45455",606.0214,77.13008,80.33782
"45456",606.0347,77.13252,80.25058
"45457",606.04803,77.134964,80.163414
"45458",606.06134,77.13252,80.07144
"45459",606.07465,77.137405,79.98672
"45460",606.08795,77.21309,79.972946
"45461",606.10126,77.47921,80.15198
"45462",606.11456,78.05783,80.651825
"45463",606.12787,79.0222,81.555504
"45464",606.1412,80.34058,82.84333
"45465",606.1545,81.864044,84.37743
"45466",606.1678,83.370415,85.942055
"45467",606.1811,84.62287,87.299835
"45468",606.1944,85.46517,88.2866
"45469",606.2077,85.84604,88.83825
"45470",606.221,85.80942,88.984314
"45471",606.2343,85.46761,88.82405
"45472",606.2476,84.93782,88.46512
"45473",606.2609,84.34455,88.02615
"45474",606.27423,83.775696,87.59306
"45475",606.28754,83.29717,87.23253
"45476",606.30084,82.916306,86.9547
"45477",606.31415,82.61356,86.74309
"45478",606.32745,82.35966,86.570854
"45479",606.34076,82.11551,86.400444
"45480",606.35406,81.8616,86.21265
"45481",606.3674,81.602806,86.012024
"45482",606.3807,81.36355,85.82285
"45483",606.394,81.163345,85.66526
"45484",606.4073,81.01442,85.55269
"45485",606.4206,80.91676,85.48673
"45486",606.4339,80.85817,85.45679
"45487",606.4472,80.81178,85.43722
"45488",606.4605,80.75563,85.40643
"45489",606.4738,80.66285,85.337265
"45490",606.4871,80.51881,85.213936
"45491",606.5004,80.308846,85.02019
"45492",606.51373,80.045166,84.76616
"45493",606.52704,79.7351,84.457504
"45494",606.54034,79.398186,84.11231
"45495",606.55365,79.044174,83.739494
"45496",606.56696,78.68772,83.35317
"45497",606.58026,78.33372,82.95816
"45498",606.59357,77.994354,82.56673
"45499",606.6069,77.68429,82.193985
"45500",606.6202,77.40841,81.84574
"45501",606.6335,77.1667,81.52305
"45502",606.6468,76.97139,81.2392
"45503",606.6601,76.8127,80.98586
"45504",606.6734,76.68574,80.7593
"45505",606.6867,76.58808,80.558075
"45506",606.7,76.51972,80.383095
"45507",606.7133,76.48066,80.235275
"45508",606.7266,76.45869,80.103325
"45509",606.7399,76.45136,79.98534
"45510",606.75323,76.44892,79.872
"45511",606.76654,76.43427,79.74638
"45512",606.77985,76.402534,79.60322
"45513",606.79315,76.351265,79.43953
"45514",606.80646,76.28779,79.26203
"45515",606.81976,76.21698,79.07522
"45516",606.83307,76.14862,78.88864
"45517",606.8464,76.09003,78.709694
"45518",606.8597,76.03876,78.53624
"45519",606.873,75.99481,78.36851
"45520",606.8863,75.95087,78.1994
"45521",606.8996,75.911804,78.033806
"45522",606.9129,75.87518,77.86943
"45523",606.9262,75.84833,77.71368
"45524",606.9395,75.8288,77.56441
"45525",606.9528,75.81659,77.42185
"45526",606.9661,75.81659,77.29112
"45527",606.97943,75.85565,77.199455
"45528",606.99274,76.033875,77.24817
"45529",607.00604,76.50019,77.590546
"45530",607.01935,77.40353,78.384514
"45531",607.03265,78.80003,79.69988
"45532",607.04596,80.618904,81.481255
"45533",607.05927,82.64042,83.52211
"45534",607.0726,84.56428,85.52848
"45535",607.0859,86.09506,87.2019
"45536",607.0992,87.064316,88.36162
"45537",607.1125,87.44274,88.9608
"45538",607.1258,87.310905,89.061554
"45539",607.1391,86.820175,88.799286
"45540",607.1524,86.14389,88.33613
"45541",607.1657,85.418785,87.80302
"45542",607.179,84.75716,87.31072
"45543",607.1923,84.22247,86.9247
"45544",607.2056,83.82941,86.66358
"45545",607.21893,83.55352,86.50736
"45546",607.23224,83.346,86.41089
"45547",607.24554,83.16289,86.33234
"45548",607.25885,82.96513,86.23342
"45549",607.27216,82.75273,86.11368
"45550",607.28546,82.53544,85.98241
"45551",607.29877,82.33524,85.86144
"45552",607.3121,82.1741,85.77328
"45553",607.3254,82.04471,85.71182
"45554",607.3387,81.9324,85.663414
"45555",607.352,81.812775,85.60417
"45556",607.3653,81.66628,85.51433
"45557",607.3786,81.47341,85.37353
"45558",607.3919,81.22438,85.17054
"45559",607.4052,80.919205,84.903625
"45560",607.4185,80.56519,84.57834
"45561",607.4318,80.177,84.20781
"45562",607.4451,79.76196,83.7983
"45563",607.45844,79.34692,83.37582
"45564",607.47174,78.93919,82.947685
"45565",607.48505,78.54856,82.5239
"45566",607.49835,78.187225,82.11721
"45567",607.51166,77.857635,81.73097
"45568",607.52496,77.56466,81.37105
"45569",607.53827,77.30587,81.036156
"45570",607.5516,77.083694,80.72979
"45571",607.5649,76.90791,80.462875
"45572",607.5782,76.771194,80.22953
"45573",607.5915,76.67597,80.03341
"45574",607.6048,76.60761,79.861176
"45575",607.6181,76.56855,79.7161
"45576",607.6314,76.541695,79.582016
"45577",607.6447,76.52705,79.4593
"45578",607.658,76.5124,79.33612
"45579",607.6713,76.50507,79.21981
"45580",607.68463,76.49775,79.10327
"45581",607.69794,76.48554,78.98162
"45582",607.71124,76.46845,78.854706
"45583",607.72455,76.44648,78.722374
"45584",607.73785,76.40986,78.57471
"45585",607.75116,76.368355,78.42101
"45586",607.76447,76.31953,78.2587
"45587",607.7778,76.27314,78.0973
"45588",607.7911,76.224304,77.932
"45589",607.8044,76.1828,77.77251
"45590",607.8177,76.138855,77.609276
"45591",607.831,76.09735,77.44711
"45592",607.8443,76.053406,77.28121
"45593",607.8576,76.019226,77.1237
"45594",607.8709,76.050964,77.031044
"45595",607.8842,76.25849,77.115166
"45596",607.8975,76.78584,77.5256
"45597",607.9108,77.747765,78.38708
"45598",607.92413,79.151596,79.72053
"45599",607.93744,80.88014,81.42256
"45600",607.95074,82.69901,83.268936
"45601",607.96405,84.33967,84.993935
"45602",607.97736,85.56771,86.35759
"45603",607.99066,86.275734,87.2396
"45604",608.00397,86.468605,87.628586
"45605",608.0173,86.239105,87.60123
"45606",608.0306,85.71664,87.27373
"45607",608.0439,85.030594,86.76633
"45608",608.0572,84.29084,86.18378
"45609",608.0705,83.58526,85.61228
"45610",608.0838,82.96513,85.104195
"45611",608.0971,82.442665,84.674385
"45612",608.1104,82.01297,84.32102
"45613",608.1237,81.671165,84.04212
"45614",608.137,81.40017,83.82335
"45615",608.1503,81.20485,83.67178
"45616",608.16364,81.092545,83.59713
"45617",608.17694,81.06569,83.604416
"45618",608.19025,81.11696,83.68899
"45619",608.20355,81.22438,83.831314
"45620",608.21686,81.34646,83.99165
"45621",608.23016,81.44167,84.128944
"45622",608.24347,81.47097,84.20329
"45623",608.2568,81.409935,84.188225
"45624",608.2701,81.25124,84.07359
"45625",608.2834,81.00221,83.86366
"45626",608.2967,80.6775,83.57027
"45627",608.31,80.30152,83.21546
"45628",608.3233,79.89624,82.8196
"45629",608.3366,79.483635,82.403755
"45630",608.3499,79.07591,81.9799
"45631",608.3632,78.692604,81.56771
"45632",608.3765,78.3386,81.17285
"45633",608.38983,78.01633,80.79866
"45634",608.40314,77.730675,80.45102
"45635",608.41644,77.48409,80.13352
"45636",608.42975,77.279015,79.84982
"45637",608.44305,77.11299,79.59877
"45638",608.45636,76.98848,79.38404
"45639",608.46967,76.910355,79.21181
"45640",608.483,76.87129,79.076195
"45641",608.4963,76.859085,78.96622
"45642",608.5096,76.86885,78.87783
"45643",608.5229,76.89082,78.801956
"45644",608.5362,76.91524,78.72921
"45645",608.5495,76.93233,78.6499
"45646",608.5628,76.944534,78.566246
"45647",608.5761,76.95186,78.47809
"45648",608.5894,76.94942,78.380394
"45649",608.6027,76.93721,78.27286
"45650",608.616,76.91524,78.155174
"45651",608.62933,76.88838,78.03192
"45652",608.64264,76.859085,77.90539
"45653",608.65594,76.82002,77.76817
"45654",608.66925,76.77852,77.6273
"45655",608.68256,76.734566,77.48267
"45656",608.69586,76.69306,77.33913
"45657",608.70917,76.654,77.196724
"45658",608.7225,76.6247,77.06287
"45659",608.7358,76.60029,76.932976
"45660",608.7491,76.58076,76.807205
"45661",608.7624,76.55634,76.67594
"45662",608.7757,76.53193,76.543915
"45663",608.789,76.53925,76.44286
"45664",608.8023,76.663765,76.45923
"45665",608.8156,77.03975,76.73096
"45666",608.8289,77.79172,77.39042
"45667",608.8422,78.96117,78.49086
"45668",608.8555,80.47486,79.97209
"45669",608.86884,82.13992,81.65199
"45670",608.88214,83.70733,83.28627
"45671",608.89545,84.94026,84.635056
"45672",608.90875,85.69955,85.54872
"45673",608.92206,85.977875,86.00516
"45674",608.93536,85.84848,86.06257
"45675",608.94867,85.4139,85.81075
"45676",608.962,84.78645,85.352486
"45677",608.9753,84.05646,84.772064
"45678",608.9886,83.302055,84.144424
"45679",609.0019,82.55985,83.50541
"45680",609.0152,81.87137,82.89692
"45681",609.0285,81.24635,82.33038
"45682",609.0418,80.706795,81.82977
"45683",609.0551,80.26978,81.41485
"45684",609.0684,79.96216,81.115654
"45685",609.0817,79.815674,80.96799
"45686",609.09503,79.84253,80.98908
"45687",609.10834,80.0354,81.17703
"45688",609.12164,80.35523,81.49797
"45689",609.13495,80.73609,81.88993
"45690",609.14825,81.10475,82.28159
"45691",609.16156,81.3904,82.60177
"45692",609.17487,81.55642,82.81123
"45693",609.1882,81.58572,82.88917
"45694",609.2015,81.48318,82.83618
"45695",609.2148,81.27322,82.67257
"45696",609.2281,80.9778,82.41694
"45697",609.2414,80.62867,82.098366
"45698",609.2547,80.24536,81.7347
"45699",609.268,79.84497,81.34198
"45700",609.2813,79.447014,80.93918
"45701",609.2946,79.06859,80.54347
"45702",609.3079,78.71458,80.160355
"45703",609.3212,78.39231,79.79792
"45704",609.33453,78.10422,79.45959
"45705",609.34784,77.86252,79.158646
"45706",609.36115,77.662315,78.89165
"45707",609.37445,77.50851,78.66479
"45708",609.38776,77.401085,78.47951
"45709",609.40106,77.33517,78.332375
"45710",609.41437,77.31075,78.224686
"45711",609.4277,77.32296,78.152855
"45712",609.441,77.36202,78.10826
"45713",609.4543,77.420616,78.08442
"45714",609.4676,77.49142,78.074615
"45715",609.4809,77.55978,78.06458
"45716",609.4942,77.61593,78.04448
"45717",609.5075,77.659874,78.01392
"45718",609.5208,77.68917,77.97009
"45719",609.5341,77.70382,77.91253
"45720",609.5474,77.7087,77.84566
"45721",609.5607,77.70626,77.771614
"45722",609.57404,77.69161,77.68529
"45723",609.58734,77.66964,77.59118
"45724",609.60065,77.63546,77.48418
"45725",609.61395,77.593956,77.36878
"45726",609.62726,77.55245,77.25209
"45727",609.64056,77.51095,77.1341
"45728",609.6539,77.469444,77.01482
"45729",609.6672,77.42306,76.88935
"45730",609.6805,77.37179,76.75755
"45731",609.6938,77.32784,76.63148
"45732",609.7071,77.31808,76.53821
"45733",609.7204,77.420616,76.55694
"45734",609.7337,77.7551,76.810814
"45735",609.747,78.42161,77.40717
"45736",609.7603,79.43969,78.37593
"45737",609.7736,80.73365,79.65238
"45738",609.7869,82.13748,81.07914
"45739",609.80023,83.42901,82.43746
"45740",609.81354,84.41779,83.5334
"45741",609.82684,84.998856,84.25252
"45742",609.84015,85.17708,84.58695
"45743",609.85345,85.02083,84.59248
"45744",609.86676,84.62531,84.35387
"45745",609.88007,84.07355,83.94664
"45746",609.8934,83.43633,83.43672
"45747",609.9067,82.7625,82.87027
"45748",609.92,82.07889,82.27299
"45749",609.9333,81.40261,81.661674
"45750",609.9466,80.75563,81.058525
"45751",609.9599,80.164795,80.4913
"45752",609.9732,79.65942,79.99107
"45753",609.9865,79.28344,79.604454
"45754",609.9998,79.07591,79.374535
"45755",610.0131,79.06859,79.33833
"45756",610.0264,79.256584,79.49722
"45757",610.03973,79.605705,79.82311
"45758",610.05304,80.05005,80.255135
"45759",610.06635,80.51148,80.71813
"45760",610.07965,80.91432,81.136955
"45761",610.09296,81.20729,81.458496
"45762",610.10626,81.36111,81.65004
"45763",610.11957,81.38796,81.71943
"45764",610.1329,81.30007,81.67491
"45765",610.1462,81.12428,81.53975
"45766",610.1595,80.88747,81.338066
"45767",610.1728,80.60914,81.08747
"45768",610.1861,80.29908,80.79645
"45769",610.1994,79.97681,80.48352
"45770",610.2127,79.64965,80.15564
"45771",610.226,79.33227,79.82731
"45772",610.2393,79.0222,79.496376
"45773",610.2526,78.73167,79.175285
"45774",610.2659,78.46311,78.867096
"45775",610.27924,78.22873,78.58469
"45776",610.29254,78.028534,78.32914
"45777",610.30585,77.872284,78.11128
"45778",610.31915,77.7551,77.927605
"45779",610.33246,77.68185,77.7842
"45780",610.34576,77.64034,77.67026
"45781",610.3591,77.63058,77.586754
"45782",610.3724,77.65499,77.537125
"45783",610.3857,77.70626,77.515114
"45784",610.399,77.77463,77.5118
"45785",610.4123,77.857635,77.52527
"45786",610.4256,77.945526,77.54621
"45787",610.4389,78.030975,77.56746
"45788",610.4522,78.1091,77.58405
"45789",610.4655,78.170135,77.586
"45790",610.4788,78.21408,77.57276
"45791",610.4921,78.24094,77.54381
"45792",610.50543,78.24826,77.49616
"45793",610.51874,78.23605,77.429214
"45794",610.53204,78.21652,77.35456
"45795",610.54535,78.18234,77.26465
"45796",610.55865,78.14084,77.16634
"45797",610.57196,78.08957,77.05698
"45798",610.58527,78.05051,76.95821
"45799",610.5986,78.06271,76.9095
"45800",610.6119,78.21652,77.00277
"45801",610.6252,78.6096,77.34011
"45802",610.6385,79.31274,77.9998
"45803",610.6518,80.31129,78.976875
"45804",610.6651,81.49294,80.16826
"45805",610.6784,82.68192,81.40389
"45806",610.6917,83.69024,82.49602
"45807",610.705,84.37629,83.297386
"45808",610.7183,84.698555,83.75641
"45809",610.7316,84.69123,83.89591
"45810",610.74493,84.43488,83.78616
"45811",610.75824,84.00763,83.4975
"45812",610.77155,83.475395,83.0905
"45813",610.78485,82.882126,82.605835
"45814",610.79816,82.25712,82.07089
"45815",610.81146,81.617455,81.50176
"45816",610.82477,80.98268,80.917534
"45817",610.8381,80.38209,80.34765
"45818",610.8514,79.835205,79.812706
"45819",610.8647,79.37377,79.34612
"45820",610.878,79.03441,78.98719
"45821",610.8913,78.8513,78.77391
"45822",610.9046,78.84886,78.73557
"45823",610.9179,79.02464,78.87538
"45824",610.9312,79.3518,79.17206
"45825",610.9445,79.77905,79.579056
"45826",610.9578,80.235596,80.028694
"45827",610.9711,80.65308,80.453545
"45828",610.98444,80.98268,80.80355
"45829",610.99774,81.19508,81.04666
"45830",611.01105,81.287865,81.17679
"45831",611.02435,81.270775,81.19994
"45832",611.03766,81.16579,81.13467
"45833",611.05096,80.99489,81.0002
"45834",611.0643,80.77272,80.80912
"45835",611.0776,80.52125,80.581795
"45836",611.0909,80.25025,80.32709
"45837",611.1042,79.97681,80.06146
"45838",611.1175,79.69848,79.78241
"45839",611.1308,79.42748,79.50199
"45840",611.1441,79.1638,79.22042
"45841",611.1574,78.91478,78.94527
"45842",611.1707,78.68284,78.67941
"45843",611.184,78.47776,78.433174
"45844",611.1973,78.29954,78.20738
"45845",611.21063,78.153046,78.00775
"45846",611.22394,78.0383,77.83529
"45847",611.23724,77.95285,77.68854
"45848",611.25055,77.8967,77.56841
"45849",611.26385,77.874725,77.48071
"45850",611.27716,77.88693,77.426506
"45851",611.29047,77.93088,77.40442
"45852",611.3038,77.99924,77.40812
"45853",611.3171,78.0798,77.42616
"45854",611.3304,78.167694,77.45405
"45855",611.3437,78.25071,77.479805
"45856",611.357,78.32395,77.49838
"45857",611.3703,78.382545,77.5046
"45858",611.3836,78.43626,77.50777
"45859",611.3969,78.47532,77.49796
"45860",611.4102,78.49729,77.47229
"45861",611.4235,78.504616,77.432655
"45862",611.4368,78.504616,77.385925
"45863",611.45013,78.52415,77.35873
"45864",611.46344,78.64866,77.43712
"45865",611.47675,78.97337,77.719604
"45866",611.49005,79.571526,78.285675
"45867",611.50336,80.45045,79.15121
"45868",611.51666,81.52468,80.23952
"45869",611.52997,82.64286,81.40534
"45870",611.5433,83.631645,82.476715
"45871",611.5566,84.35432,83.312874
"45872",611.5699,84.7425,83.83713
"45873",611.5832,84.81331,84.05614
"45874",611.5965,84.61555,84.00879
"45875",611.6098,84.2298,83.76727
"45876",611.6231,83.72198,83.39163
"45877",611.6364,83.13847,82.92444
"45878",611.6497,82.51835,82.40239
"45879",611.663,81.883575,81.84631
"45880",611.67633,81.248795,81.27039
"45881",611.68964,80.63111,80.691734
"45882",611.70294,80.05249,80.132835
"45883",611.71625,79.534904,79.61689
"45884",611.72955,79.11253,79.179985
"45885",611.74286,78.8098,78.84952
"45886",611.75616,78.65354,78.65607
"45887",611.7695,78.66575,78.6262
"45888",611.7828,78.84154,78.76029
"45889",611.7961,79.15892,79.04147
"45890",611.8094,79.571526,79.427795
"45891",611.8227,80.02319,79.86607
"45892",611.836,80.445564,80.28917
"45893",611.8493,80.78493,80.642456
"45894",611.8626,81.01442,80.89648
"45895",611.8759,81.12428,81.03804
"45896",611.8892,81.126724,81.075615
"45897",611.9025,81.05104,81.03514
"45898",611.91583,80.91432,80.93127
"45899",611.92914,80.73365,80.77917
"45900",611.94244,80.52613,80.594574
"45901",611.95575,80.30396,80.38885
"45902",611.96906,80.0647,80.15908
"45903",611.98236,79.823,79.9194
"45904",611.99567,79.58373,79.67461
"45905",612.009,79.34936,79.42722
"45906",612.0223,79.11986,79.17739
"45907",612.0356,78.90257,78.9326
"45908",612.0489,78.69993,78.69566
"45909",612.0622,78.51438,78.46949
"45910",612.0755,78.35081,78.25949
"45911",612.0888,78.21164,78.06879
"45912",612.1021,78.10666,77.90792
"45913",612.1154,78.0383,77.780396
"45914",612.1287,78.00412,77.68491
"45915",612.142,77.99924,77.61766
"45916",612.15533,78.02121,77.57711
"45917",612.16864,78.0676,77.56166
"45918",612.18195,78.12619,77.55987
"45919",612.19525,78.20187,77.576996
"45920",612.20856,78.29221,77.611145
"45921",612.22186,78.38499,77.65055
"45922",612.23517,78.467995,77.68309
"45923",612.2485,78.53391,77.70113
"45924",612.2618,78.5803,77.701706
"45925",612.2751,78.62913,77.70617
"45926",612.2884,78.73411,77.76831
"45927",612.3017,78.97337,77.96802
"45928",612.315,79.42504,78.3876
"45929",612.3283,80.13306,79.07765
"45930",612.3416,81.06813,80.016884
"45931",612.3549,82.125275,81.10741
"45932",612.39484,84.55207,83.824234
"45933",612.40814,84.78401,84.198425
"45934",612.42145,84.73029,84.294205
"45935",612.43475,84.44953,84.16126
"45936",612.44806,84.02228,83.873055
"45937",612.46136,83.50469,83.48116
"45938",612.4747,82.933395,83.01939
"45939",612.488,82.33524,82.5129
"45940",612.5013,81.72488,81.97551
"45941",612.5146,81.1194,81.423935
"45942",612.5279,80.533455,80.87297
"45943",612.5412,79.98657,80.34276
"45944",612.5545,79.500725,79.85649
"45945",612.5678,79.10277,79.44293
"45946",612.5811,78.819565,79.13169
"45947",612.5944,78.6804,78.955635
"45948",612.6077,78.69993,78.93393
"45949",612.62103,78.88548,79.07886
"45950",612.63434,79.20531,79.36385
"45951",612.64764,79.62035,79.75407
"45952",612.66095,80.062256,80.184105
"45953",612.67426,80.479744,80.60354
"45954",612.68756,80.814224,80.95301
"45955",612.70087,81.04616,81.21039
"45956",612.7142,81.16823,81.36515
"45957",612.7275,81.1902,81.42363
"45958",612.7408,81.126724,81.39735
"45959",612.7541,81.007095,81.31293
"45960",612.7674,80.84596,81.183266
"45961",612.7807,80.65308,81.01682
"45962",612.794,80.44312,80.82727
"45963",612.8073,80.218506,80.6165
"45964",612.8206,79.98901,80.39384
"45965",612.8339,79.75464,80.15912
"45966",612.8472,79.517815,79.91463
"45967",612.86053,79.28588,79.667625
"45968",612.87384,79.06615,79.425575
"45969",612.88715,78.85863,79.18887
"45970",612.90045,78.67307,78.96765
"45971",612.91376,78.51194,78.76505
"45972",612.92706,78.37766,78.584274
"45973",612.94037,78.27024,78.426155
"45974",612.9537,78.19455,78.29641
"45975",612.967,78.14572,78.19116
"45976",612.9803,78.12131,78.1088
"45977",612.9936,78.12619,78.05498
"45978",613.0069,78.15549,78.02572
"45979",613.0202,78.20676,78.01935
"45980",613.0335,78.27024,78.026794
"45981",613.0468,78.345924,78.04842
"45982",613.0601,78.42161,78.07242
"45983",613.0734,78.49485,78.09634
"45984",613.08673,78.58518,78.13963
"45985",613.10004,78.74387,78.25411
"45986",613.11334,79.063705,78.53469
"45987",613.12665,79.64477,79.086494
"45988",613.13995,80.52613,79.95676
"45989",613.15326,81.67361,81.120674
"45990",613.16656,82.96025,82.45962
"45991",613.1799,84.207825,83.7997
"45992",613.1932,85.23811,84.96148
"45993",613.2065,85.926605,85.81366
"45994",613.2198,86.2562,86.32846
"45995",613.2331,86.25132,86.51908
"45996",613.2464,85.99008,86.45319
"45997",613.2597,85.54574,86.19604
"45998",613.273,84.98665,85.81025
"45999",613.2863,84.3592,85.33863
"46000",613.2996,83.69756,84.81322
"46001",613.3129,83.02373,84.25493
"46002",613.32623,82.34989,83.67558
"46003",613.33954,81.69558,83.0947
"46004",613.35284,81.06813,82.52024
"46005",613.36615,80.49195,81.97744
"46006",613.37946,79.98657,81.487434
"46007",613.39276,79.59106,81.0915
"46008",613.40607,79.33471,80.82237
"46009",613.4194,79.25414,80.721016
"46010",613.4327,79.361565,80.80513
"46011",613.446,79.63256,81.056175
"46012",613.4593,80.025635,81.43777
"46013",613.4726,80.47486,81.887794
"46014",613.4859,80.91188,82.33965
"46015",613.4992,81.27566,82.731926
"46016",613.5125,81.52468,83.02081
"46017",613.5258,81.654076,83.19785
"46018",613.5391,81.6614,83.25687
"46019",613.5524,81.56863,83.21601
"46020",613.56573,81.40017,83.09657
"46021",613.57904,81.17555,82.91571
"46022",613.59235,80.90944,82.68633
"46023",613.60565,80.618904,82.42422
"46024",613.61896,80.308846,82.1335
"46025",613.63226,79.991455,81.82576
"46026",613.64557,79.674065,81.5081
"46027",613.6589,79.364006,81.18786
"46028",613.6722,79.07103,80.87501
"46029",613.6855,78.80003,80.57498
"46030",613.6988,78.551,80.28845
"46031",613.7121,78.32639,80.01856
"46032",613.7254,78.12619,79.76606
"46033",613.7387,77.960175,79.54149
"46034",613.752,77.8259,79.34347
"46035",613.7653,77.730675,79.180305
"46036",613.7786,77.67452,79.05324
"46037",613.79193,77.65743,78.96348
"46038",613.80524,77.6672,78.90004
"46039",613.81854,77.70626,78.8662
"46040",613.83185,77.7673,78.85557
"46041",613.84515,77.85031,78.868805
"46042",613.85846,77.945526,78.89684
"46043",613.87177,78.04562,78.93274
"46044",613.8851,78.13107,78.957115
"46045",613.8984,78.19943,78.96707
"46046",613.9117,78.27268,78.984055
"46047",613.925,78.416725,79.07412
"46048",613.9383,78.74387,79.35179
"46049",613.9516,79.36889,79.93755
"46050",613.9649,80.34547,80.89441
"46051",613.9782,81.6321,82.19184
"46052",613.9915,83.087204,83.697945
"46053",614.0048,84.508125,85.21534
"46054",614.0181,85.69955,86.54764
"46055",614.03143,86.52476,87.55096
"46056",614.04474,86.94713,88.17722
"46057",614.05804,87.00572,88.45291
"46058",614.07135,86.77867,88.444786
"46059",614.08466,86.33677,88.214714
"46060",614.09796,85.753265,87.82923
"46061",614.11127,85.07942,87.335175
"46062",614.1246,84.3592,86.77368
"46063",614.1379,83.62432,86.175026
"46064",614.1512,82.9041,85.56806
"46065",614.1645,82.21561,84.97032
"46066",614.1778,81.57351,84.39746
"46067",614.1911,80.99733,83.87045
"46068",614.2044,80.50416,83.40845
"46069",614.2177,80.12573,83.04578
"46070",614.231,79.89624,82.82021
"46071",614.2443,79.84741,82.76814
"46072",614.2576,79.98169,82.89765
"46073",614.27094,80.26978,83.18517
"46074",614.28424,80.66285,83.58667
"46075",614.29755,81.0901,84.03464
"46076",614.31085,81.47341,84.45201
"46077",614.32416,81.75662,84.781265
"46078",614.33746,81.91531,84.99485
"46079",614.35077,81.93729,85.076675
"46080",614.3641,81.83719,85.03712
"46081",614.3774,81.64187,84.89921
"46082",614.3907,81.37087,84.67952
"46083",614.404,81.04616,84.397644
"46084",614.4173,80.69215,84.076324
"46085",614.4306,80.31617,83.72198
"46086",614.4439,79.92554,83.341225
"46087",614.4572,79.53246,82.94582
"46088",614.4705,79.149155,82.547905
"46089",614.4838,78.7805,82.152664
"46090",614.49713,78.43626,81.77031
"46091",614.51044,78.12863,81.41382
"46092",614.52374,77.855194,81.0819
"46093",614.53705,77.62081,80.780495
"46094",614.55035,77.4255,80.51083
"46095",614.56366,77.27657,80.281456
"46096",614.57697,77.171585,80.09136
"46097",614.5903,77.11299,79.94438
"46098",614.6036,77.0959,79.837074
"46099",614.6169,77.11055,79.76097
"46100",614.6302,77.14961,79.70974
"46101",614.6435,77.21065,79.6817
"46102",614.6568,77.28878,79.67267
"46103",614.6701,77.37667,79.675835
"46104",614.6834,77.46456,79.68175
"46105",614.6967,77.540245,79.6782
"46106",614.71,77.60128,79.66237
"46107",614.7233,77.63302,79.61915
"46108",614.73663,77.659874,79.57204
"46109",614.74994,77.73556,79.57459
"46110",614.76324,77.96994,79.73821
"46111",614.77655,78.485085,80.18992
"46112",614.78986,79.35912,81.01662
"46113",614.80316,80.587166,82.22463
"46114",614.81647,82.054474,83.71029
"46115",614.8298,83.56573,85.28574
"46116",614.8431,84.910965,86.74241
"46117",614.8564,85.92172,87.90663
"46118",614.8697,86.52476,88.69472
"46119",614.883,86.73472,89.108574
"46120",614.8963,86.607765,89.19208
"46121",614.9096,86.22934,89.02014
"46122",614.9229,85.67269,88.65816
"46123",614.9362,85.00618,88.168915
"46124",614.9495,84.28596,87.60513
"46125",614.9628,83.55352,87.00663
"46126",614.97614,82.84306,86.40722
"46127",614.98944,82.176544,85.829544
"46128",615.00275,81.57107,85.29208
"46129",615.01605,81.04372,84.81383
"46130",615.02936,80.61158,84.41431
"46131",615.04266,80.306404,84.12824
"46132",615.05597,80.15259,83.984
"46133",615.0693,80.16235,83.998535
"46134",615.0826,80.33326,84.174515
"46135",615.0959,80.62623,84.4779
"46136",615.1092,80.987564,84.8588
"46137",615.1225,81.3489,85.251
"46138",615.1358,81.64431,85.58856
"46139",615.1491,81.83719,85.832825
"46140",615.1624,81.90555,85.958595
"46141",615.1757,81.84207,85.954666
"46142",615.189,81.66384,85.834
"46143",615.20233,81.38796,85.610115
"46144",615.21564,81.04616,85.31168
"46145",615.22894,80.65308,84.9513
"46146",615.24225,80.235596,84.55422
"46147",615.25555,79.81323,84.13922
"46148",615.26886,79.395744,83.7159
"46149",615.28217,78.992905,83.294174
"46150",615.2955,78.6096,82.879395
"46151",615.3088,78.25559,82.48194
"46152",615.3221,77.93332,82.105156
"46153",615.3354,77.65255,81.7598
"46154",615.3487,77.41329,81.44719
"46155",615.362,77.21553,81.168594
"46156",615.3753,77.06172,80.92777
"46157",615.3886,76.95674,80.73097
"46158",615.4019,76.895706,80.57484
"46159",615.4152,76.87373,80.45586
"46160",615.4285,76.88594,80.37037
"46161",615.44183,76.925,80.31212
"46162",615.45514,76.981155,80.27218
"46163",615.46844,77.04707,80.24376
"46164",615.48175,77.11299,80.2174
"46165",615.49506,77.17647,80.19066
"46166",615.50836,77.23018,80.156136
"46167",615.52167,77.26925,80.10865
"46168",615.535,77.28634,80.040405
"46169",615.5483,77.27657,79.94584
"46170",615.5616,77.24727,79.83143
"46171",615.5749,77.2375,79.73564
"46172",615.5882,77.32784,79.739655
"46173",615.6015,77.64034,79.96865
"46174",615.6148,78.29221,80.54678
"46175",615.6281,79.33227,81.53347
"46176",615.6414,80.70435,82.88469
"46177",615.6547,82.252235,84.45458
"46178",615.668,83.76105,86.033775
"46179",615.68134,85.02571,87.41597
"46180",615.69464,85.909515,88.456825
"46181",615.70795,86.37583,89.10781
"46182",615.72125,86.44907,89.380295
"46183",615.73456,86.20737,89.34012
"46184",615.74786,85.731285,89.058014
"46185",615.76117,85.10628,88.61211
"46186",615.7745,84.39826,88.06366
"46187",615.7878,83.66827,87.47111
"46188",615.8011,82.95537,86.87284
"46189",615.8144,82.2913,86.301125
"46190",615.8277,81.69558,85.77701
"46191",615.841,81.18288,85.31729
"46192",615.8543,80.77272,84.9441
"46193",615.8676,80.48951,84.685036
"46194",615.8809,80.35523,84.566055
"46195",615.8942,80.377205,84.59913
"46196",615.90753,80.5481,84.781815
"46197",615.92084,80.82643,85.07727
"46198",615.93414,81.15846,85.43513
"46199",615.94745,81.480736,85.7936
"46200",615.96075,81.73708,86.09622
"46201",615.97406,81.88602,86.29944
"46202",615.98737,81.90799,86.38035
"46203",616.0007,81.795685,86.32767
"46204",616.014,81.56863,86.15672
"46205",616.0273,81.25124,85.88836
"46206",616.0406,80.87038,85.54659
"46207",616.0539,80.45289,85.1563
"46208",616.0672,80.01831,84.73588
"46209",616.0805,79.58129,84.29943
"46210",616.0938,79.15404,83.85909
"46211",616.1071,78.74876,83.427376
"46212",616.1204,78.37034,83.00986
"46213",616.1337,78.02609,82.614685
"46214",616.14703,77.72091,82.24782
"46215",616.16034,77.45968,81.91537
"46216",616.17365,77.239944,81.61625
"46217",616.18695,77.066605,81.35666
"46218",616.20026,76.94209,81.14048
"46219",616.21356,76.86641,80.96924
"46220",616.22687,76.83223,80.837135
"46221",616.2402,76.83467,80.740585
"46222",616.2535,76.85664,80.66364
"46223",616.2668,76.895706,80.60448
"46224",616.2801,76.93965,80.551414
"46225",616.2934,76.981155,80.497284
"46226",616.3067,77.01778,80.43957
"46227",616.32,77.04707,80.37567
"46228",616.3333,77.069046,80.30537
"46229",616.3466,77.07881,80.22354
"46230",616.3599,77.07881,80.132256
"46231",616.3732,77.06416,80.02632
"46232",616.38654,77.03975,79.910164
"46233",616.39984,76.998245,79.77615
"46234",616.41315,76.94209,79.6262
"46235",616.42645,76.87373,79.46228
"46236",616.43976,76.805374,79.29623
"46237",616.45306,76.78096,79.17198
"46238",616.4664,76.893265,79.18369
"46239",616.4797,77.27169,79.465034
"46240",616.493,78.028534,80.13662
"46241",616.5063,79.19554,81.24202
"46242",616.5196,80.70191,82.72325
"46243",616.5329,82.3621,84.40537
"46244",616.5462,83.93927,86.05636
"46245",616.5595,85.223465,87.46365
"46246",616.5728,86.080414,88.48383
"46247",616.5861,86.47837,89.0718
"46248",616.5994,86.468605,89.26448
"46249",616.61273,86.134125,89.13214
"46250",616.62604,85.57748,88.76718
"46251",616.63934,84.88655,88.25055
"46252",616.65265,84.14435,87.66105
"46253",616.66595,83.41436,87.06057
"46254",616.67926,82.735634,86.48854
"46255",616.69257,82.13016,85.96855
"46256",616.7059,81.61013,85.51509
"46257",616.7192,81.17555,85.13083
"46258",616.7325,80.848404,84.840416
"46259",616.7458,80.64576,84.66428
"46260",616.7591,80.584724,84.62343
"46261",616.7724,80.66285,84.719826
"46262",616.7857,80.86061,84.9383
"46263",616.799,81.13405,85.23863
"46264",616.8123,81.42947,85.56949
"46265",616.8256,81.68337,85.868065
"46266",616.8389,81.85916,86.09646
"46267",616.85223,81.917755,86.21315
"46268",616.86554,81.849396,86.20472
"46269",616.87885,81.66384,86.07696
"46270",616.89215,81.373314,85.838425
"46271",616.90546,81.00954,85.51756
"46272",616.91876,80.59205,85.13162
"46273",616.93207,80.147705,84.70578
"46274",616.9454,79.69848,84.26117
"46275",616.9587,79.26147,83.814735
"46276",616.972,78.84642,83.37661
"46277",616.9853,78.467995,82.962135
"46278",616.9986,78.12375,82.570015
"46279",617.0119,77.81857,82.20621
"46280",617.0252,77.557335,81.8768
"46281",617.0385,77.347374,81.59051
"46282",617.0518,77.188675,81.348915
"46283",617.0651,77.083694,81.15608
"46284",617.0784,77.02754,81.0088
"46285",617.09174,77.01045,80.89882
"46286",617.10504,77.0251,80.820045
"46287",617.11835,77.06416,80.76614
"46288",617.13165,77.120316,80.73055
"46289",617.14496,77.18135,80.7016
"46290",617.15826,77.242386,80.67455
"46291",617.1716,77.296104,80.6421
"46292",617.1849,77.332726,80.59422
"46293",617.1982,77.3547,80.532845
"46294",617.2115,77.35714,80.45262
"46295",617.2248,77.347374,80.36027
"46296",617.2381,77.3254,80.2554
"46297",617.2514,77.29122,80.13764
"46298",617.2647,77.239944,80.00172
"46299",617.278,77.16426,79.83978
"46300",617.2913,77.07881,79.66572
"46301",617.3046,76.998245,79.493866
"46302",617.31793,76.9836,79.385414
"46303",617.33124,77.154495,79.46205
"46304",617.34454,77.63546,79.854095
"46305",617.35785,78.502174,80.64692
"46306",617.37115,79.7351,81.83304
"46307",617.38446,81.2195,83.30916
"46308",617.39777,82.757614,84.88538
"46309",617.4111,84.11749,86.331436
"46310",617.4244,85.135574,87.47819
"46311",617.4377,85.72152,88.22462
"46312",617.451,85.89487,88.57676
"46313",617.4643,85.71908,88.58518
"46314",617.4776,85.28695,88.33177
"46315",617.4909,84.68391,87.89394
"46316",617.5042,84.000305,87.35671
"46317",617.5175,83.29717,86.77859
"46318",617.5308,82.62089,86.20534
"46319",617.5441,81.99832,85.66467
"46320",617.55743,81.449,85.177795
"46321",617.57074,80.9778,84.75188
"46322",617.58405,80.604256,84.40889
"46323",617.59735,80.343025,84.16654
"46324",617.61066,80.22095,84.05518
"46325",617.62396,80.24292,84.08406
"46326",617.63727,80.39918,84.24791
"46327",617.6506,80.65064,84.51185
"46328",617.6639,80.94362,84.82516
"46329",617.6772,81.22194,85.132965
"46330",617.6905,81.44167,85.390884
"46331",617.7038,81.5613,85.555565
"46332",617.7171,81.57107,85.61412
"46333",617.7304,81.461205,85.55335
"46334",617.7437,81.23903,85.37684
"46335",617.757,80.921646,85.098175
"46336",617.7703,80.53834,84.74367
"46337",617.7836,80.111084,84.33324
"46338",617.79694,79.66674,83.892365
"46339",617.81024,79.22972,83.44493
"46340",617.82355,78.80492,82.996056
"46341",617.83685,78.41184,82.565636
"46342",617.85016,78.05295,82.15711
"46343",617.86346,77.74044,81.78376
"46344",617.8768,77.48165,81.45436
"46345",617.8901,77.281456,81.17547
"46346",617.9034,77.14229,80.95135
"46347",617.9167,77.05928,80.77904
"46348",617.93,77.0251,80.65296
"46349",617.9433,77.03731,80.572205
"46350",617.9566,77.086136,80.52845
"46351",617.9699,77.15938,80.510635
"46352",617.9832,77.242386,80.504875
"46353",617.9965,77.315636,80.49195
"46354",618.0098,77.366905,80.459335
"46355",618.02313,77.39376,80.40391
"46356",618.03644,77.39132,80.32002
"46357",618.04974,77.37423,80.22141
"46358",618.06305,77.37667,80.1418
"46359",618.07635,77.49386,80.17701
"46360",618.08966,77.83322,80.43806
"46361",618.10297,78.485085,81.02221
"46362",618.1163,79.47631,81.966095
"46363",618.1296,80.7483,83.22172
"46364",618.1429,82.13992,84.63673
"46365",618.1562,83.44854,86.012215
"46366",618.1695,84.488594,87.160034
"46367",618.1828,85.152664,87.96437
"46368",618.1961,85.42611,88.398834
"46369",618.2094,85.35287,88.495155
"46370",618.2227,85.00862,88.318184
"46371",618.236,84.491035,87.957115
"46372",618.2493,83.878235,87.48466
"46373",618.26263,83.23369,86.9613
"46374",618.27594,82.61112,86.43979
"46375",618.28925,82.0325,85.942764
"46376",618.30255,81.512474,85.48625
"46377",618.31586,81.05348,85.074524
"46378",618.32916,80.65797,84.71193
"46379",618.34247,80.343025,84.41755
"46380",618.3558,80.13306,84.2183
"46381",618.3691,80.04761,84.13701
"46382",618.3824,80.096436,84.187325
"46383",618.3957,80.26002,84.35392
"46384",618.409,80.499275,84.6013
"46385",618.4223,80.75563,84.87326
"46386",618.4356,80.98268,85.123924
"46387",618.4489,81.129166,85.30112
"46388",618.4622,81.17311,85.38035
"46389",618.4755,81.09743,85.341324
"46390",618.48883,80.91188,85.19007
"46391",618.50214,80.62867,84.935356
"46392",618.51544,80.272224,84.59856
"46393",618.52875,79.86206,84.1969
"46394",618.54205,79.42504,83.75557
"46395",618.55536,78.98558,83.29814
"46396",618.56866,78.56321,82.84407
"46397",618.582,78.17258,82.40854
"46398",618.5953,77.8259,82.00475
"46399",618.6086,77.53048,81.641396
"46400",618.6219,77.28634,81.32008
"46401",618.6352,77.09102,81.03996
"46402",618.6485,76.95674,80.81478
"46403",618.6618,76.87373,80.63667
"46404",618.6751,76.84444,80.50968
"46405",618.6884,76.8542,80.42084
"46406",618.7017,76.893265,80.361595
"46407",618.715,76.94209,80.31334
"46408",618.72833,76.99092,80.26661
"46409",618.74164,77.02754,80.2092
"46410",618.75494,77.051956,80.140724
"46411",618.76825,77.103226,80.09987
"46412",618.78156,77.27413,80.18025
"46413",618.79486,77.68185,80.502785
"46414",618.80817,78.41184,81.16034
"46415",618.8215,79.4934,82.19227
"46416",618.8348,80.84108,83.52412
"46417",618.8481,82.29618,85.0055
"46418",618.8614,83.65118,86.43225
"46419",618.8747,84.72053,87.6157
"46420",618.888,85.401695,88.44438
"46421",618.9013,85.67513,88.88662
"46422",618.9146,85.58968,88.978516
"46423",618.9279,85.23323,88.79674
"46424",618.9412,84.70588,88.43292
"46425",618.9545,84.1004,87.9745
"46426",618.96783,83.48516,87.4874
"46427",618.98114,82.90166,87.0128
"46428",618.99445,82.371864,86.573685
"46429",619.00775,81.90311,86.17905
"46430",619.02106,81.48318,85.81859
"46431",619.03436,81.11452,85.49628
"46432",619.04767,80.80202,85.218605
"46433",619.061,80.567635,85.009285
"46434",619.0743,80.42359,84.88298
"46435",619.0876,80.38453,84.857155
"46436",619.1009,80.43824,84.92288
"46437",619.1142,80.55543,85.053764
"46438",619.1275,80.69703,85.21272
"46439",619.1408,80.816666,85.35414
"46440",619.1541,80.88258,85.44558
"46441",619.1674,80.867935,85.45851
"46442",619.1807,80.76051,85.37821
"46443",619.19403,80.55543,85.19689
"46444",619.20734,80.26734,84.92616
"46445",619.22064,79.91089,84.578064
"46446",619.23395,79.51537,84.17976
"46447",619.24725,79.10765,83.7569
"46448",619.26056,78.695045,83.31641
"46449",619.27386,78.29954,82.88012
"46450",619.2872,77.93088,82.45832
"46451",619.3005,77.60372,82.066505
"46452",619.3138,77.31808,81.70598
"46453",619.3271,77.08125,81.385345
"46454",619.3404,76.89815,81.11103
"46455",619.3537,76.76387,80.87982
"46456",619.367,76.66865,80.68347
"46457",619.3803,76.60761,80.51833
"46458",619.3936,76.56855,80.37326
"46459",619.4069,76.54658,80.24406
"46460",619.4202,76.54902,80.13858
"46461",619.43353,76.61738,80.0991
"46462",619.44684,76.84688,80.22289
"46463",619.46014,77.34249,80.61997
"46464",619.47345,78.18234,81.37678
"46465",619.48676,79.364006,82.50164
"46466",619.50006,80.78493,83.90269
"46467",619.51337,82.26444,85.40673
"46468",619.5267,83.59991,86.81296
"46469",619.54,84.61799,87.943535
"46470",619.5533,85.243,88.71285
"46471",619.5666,85.470055,89.10375
"46472",619.5799,85.36019,89.164825
"46473",619.5932,84.998856,88.97099
"46474",619.6065,84.488594,88.61694
"46475",619.6198,83.90753,88.17615
"46476",619.6331,83.32403,87.71475
"46477",619.6464,82.77959,87.274185
"46478",619.6597,82.28397,86.86543
"46479",619.67303,81.83475,86.48758
"46480",619.68634,81.4197,86.12987
"46481",619.69965,81.03639,85.790924
"46482",619.71295,80.69947,85.48639
"46483",619.72626,80.430916,85.23969
"46484",619.73956,80.25269,85.074936
"46485",619.75287,80.16968,84.99982
"46486",619.7662,80.177,85.01244
"46487",619.7795,80.24292,85.08389
"46488",619.7928,80.325935,85.1745
"46489",619.8061,80.394295,85.253044
"46490",619.8194,80.413826,85.2849
"46491",619.8327,80.35767,85.24168
"46492",619.846,80.21362,85.1088
"46493",619.8593,79.97925,84.8811
"46494",619.8726,79.66918,84.57039
"46495",619.8859,79.310295,84.201164
"46496",619.89923,78.924545,83.79386
"46497",619.91254,78.54124,83.376945
"46498",619.92584,78.170135,82.96026
"46499",619.93915,77.81369,82.54663
"46500",619.95245,77.48409,82.14871
"46501",619.96576,77.18379,81.76979
"46502",619.97906,76.927444,81.42544
"46503",619.9924,76.717476,81.11945
"46504",620.0057,76.55634,80.85574
"46505",620.019,76.436714,80.6285
"46506",620.0323,76.34882,80.42926
"46507",620.0456,76.282906,80.249245
"46508",620.0589,76.23651,80.08669
"46509",620.0722,76.209656,79.94223
"46510",620.0855,76.23163,79.84576
"46511",620.0988,76.383,79.87937
"46512",620.1121,76.771194,80.15453
"46513",620.1254,77.49386,80.7763
"46514",620.13873,78.5803,81.784424
"46515",620.15204,79.974365,83.134125
"46516",620.16534,81.512474,84.67143
"46517",620.17865,82.98222,86.188446
"46518",620.19196,84.18585,87.48527
"46519",620.20526,85.00374,88.43396
"46520",620.21857,85.401695,88.98828
"46521",620.2319,85.43343,89.18882
"46522",620.2452,85.1844,89.10958
"46523",620.2585,84.7596,88.84679
"46524",620.2718,84.244446,88.48037
"46525",620.2851,83.71465,88.08321
"46526",620.2984,83.2166,87.70124
"46527",620.3117,82.7625,87.34766
"46528",620.325,82.34257,87.01405
"46529",620.3383,81.94217,86.68686
"46530",620.3516,81.54665,86.352036
"46531",620.3649,81.16579,86.0195
"46532",620.37823,80.81911,85.70925
"46533",620.39154,80.53834,85.45408
"46534",620.40485,80.34791,85.28047
"46535",620.41815,80.25025,85.19369
"46536",620.43146,80.22095,85.1722
"46537",620.44476,80.233154,85.191315
"46538",620.45807,80.2478,85.21325
"46539",620.4714,80.235596,85.208786
"46540",620.4847,80.16724,85.14779
"46541",620.498,80.03052,85.0163
"46542",620.5113,79.81323,84.799965
"46543",620.5246,79.53246,84.51336
"46544",620.5379,79.200424,84.16671
"46545",620.5512,78.836655,83.777954
"46546",620.5645,78.46067,83.365616
"46547",620.5778,78.08469,82.94153
"46548",620.5911,77.72579,82.52278
"46549",620.60443,77.38644,82.11236
"46550",620.61774,77.07881,81.72306
"46551",620.63104,76.81514,81.3681
"46552",620.64435,76.592964,81.0464
"46553",620.65765,76.41718,80.76415
"46554",620.67096,76.28779,80.5228
"46555",620.68427,76.19745,80.31645
"46556",620.6976,76.13397,80.13415
"46557",620.7109,76.09979,79.97916
"46558",620.7242,76.08026,79.837746
"46559",620.7375,76.07294,79.70793
"46560",620.7508,76.0827,79.59498
"46561",620.7641,76.12909,79.51895
"46562",620.7774,76.2707,79.5396
"46563",620.7907,76.61738,79.76974
"46564",620.804,77.281456,80.32811
"46565",620.8173,78.32639,81.28809
"46566",620.8306,79.71801,82.62741
"46567",620.84393,81.33669,84.23728
"46568",620.85724,82.967575,85.909935
"46569",620.87054,84.38117,87.41627
"46570",620.88385,85.40658,88.57858
"46571",620.89716,85.980316,89.32127
"46572",620.91046,86.1268,89.65464
"46573",620.92377,85.924164,89.64346
"46574",620.9371,85.49203,89.396454
"46575",620.9504,84.945145,89.021194
"46576",620.9637,84.386055,88.61664
"46577",620.977,83.878235,88.24588
"46578",620.9903,83.45098,87.93982
"46579",621.0036,83.104294,87.70097
"46580",621.0169,82.80156,87.49525
"46581",621.0302,82.5037,87.284935
"46582",621.0435,82.193634,87.05311
"46583",621.0568,81.87625,86.804276
"46584",621.0701,81.58083,86.56749
"46585",621.08344,81.339134,86.37519
"46586",621.09674,81.17067,86.24857
"46587",621.11005,81.07301,86.1875
"46588",621.12335,81.01442,86.16244
"46589",621.13666,80.955826,86.135544
"46590",621.14996,80.86061,86.0702
"46591",621.16327,80.706795,85.943275
"46592",621.1766,80.4773,85.73587
"46593",621.1899,80.17944,85.45293
"46594",621.2032,79.818115,85.097206
"46595",621.2165,79.42016,84.693565
"46596",621.2298,78.99046,84.24575
"46597",621.2431,78.555885,83.779625
"46598",621.2564,78.12863,83.30724
"46599",621.2697,77.72823,82.848366
"46600",621.283,77.366905,82.416046
"46601",621.2963,77.0544,82.021255
"46602",621.30963,76.79317,81.66798
"46603",621.32294,76.575874,81.35047
"46604",621.33624,76.39765,81.06525
"46605",621.34955,76.24872,80.80374
"46606",621.36285,76.12909,80.56689
"46607",621.37616,76.0412,80.35803
"46608",621.38947,75.98505,80.17817
"46609",621.4028,75.96063,80.02829
"46610",621.4161,75.95575,79.89718
"46611",621.4294,75.965515,79.78056
"46612",621.4427,75.98016,79.669136
"46613",621.456,75.98505,79.5484
"46614",621.4693,75.98505,79.422935
"46615",621.4826,75.97772,79.290146
"46616",621.4959,75.96796,79.154686
"46617",621.5092,75.95087,79.0116
"46618",621.5225,75.928894,78.86309
"46619",621.5358,75.8996,78.70657
"46620",621.54913,75.862976,78.54182
"46621",621.56244,75.81903,78.36859
"46622",621.57574,75.77753,78.196434
"46623",621.58905,75.733574,78.02053
"46624",621.60236,75.68719,77.84082
"46625",621.61566,75.64324,77.6621
"46626",621.62897,75.650566,77.53328
"46627",621.6423,75.81415,77.56094
"46628",621.6556,76.30732,77.92331
"46629",621.6689,77.27657,78.77717
"46630",621.6822,78.7805,80.19599
"46631",621.6955,80.72877,82.10615
"46632",621.7088,82.89433,84.29449
"46633",621.7221,84.96956,86.46016
"46634",621.7354,86.659035,88.30493
"46635",621.7487,87.77722,89.63121
"46636",621.762,88.30213,90.399155
"46637",621.7753,88.30457,90.66104
"46638",621.78864,87.923706,90.53969
"46639",621.80194,87.325554,90.18915
"46640",621.81525,86.65171,89.74423
"46641",621.82855,86.01938,89.31976
"46642",621.84186,85.49691,88.9854
"46643",621.85516,85.103836,88.7641
"46644",621.86847,84.81575,88.635506
"46645",621.8818,84.57404,88.54429
"46646",621.8951,84.32014,88.43332
"46647",621.9084,84.01495,88.26314
"46648",621.9217,83.65118,88.024826
"46649",621.935,83.265434,87.75318
"46650",621.9483,82.89433,87.48412
"46651",621.9616,82.57206,87.2523
"46652",621.9749,82.30839,87.069
"46653",621.9882,82.09354,86.926285
"46654",622.0015,81.90311,86.80128
"46655",622.01483,81.705345,86.66299
"46656",622.02814,81.47341,86.484344
"46657",622.04144,81.1902,86.24718
"46658",622.05475,80.848404,85.94257
"46659",622.06805,80.45289,85.57357
"46660",622.08136,80.01587,85.1507
"46661",622.09467,79.551994,84.687325
"46662",622.108,79.078354,84.199684
"46663",622.1213,78.61448,83.70701
"46664",622.1346,78.170135,83.21937
"46665",622.1479,77.75998,82.75203
"46666",622.1612,77.39132,82.31337
"46667",622.1745,77.06416,81.90469
"46668",622.1878,76.77852,81.527306
"46669",622.2011,76.53437,81.18249
"46670",622.2144,76.33662,80.876434
"46671",622.2277,76.18768,80.61302
"46672",622.241,76.085144,80.39135
"46673",622.25433,76.019226,80.203094
"46674",622.26764,75.98016,80.039635
"46675",622.28094,75.95819,79.892044
"46676",622.29425,75.94354,79.75109
"46677",622.30756,75.92645,79.60724
"46678",622.32086,75.90692,79.46041
"46679",622.33417,75.88739,79.31297
"46680",622.3475,75.860535,79.1576
"46681",622.3608,75.83368,79.00139
"46682",622.3741,75.80438,78.841896
"46683",622.3874,75.775085,78.68149
"46684",622.4007,75.736015,78.51039
"46685",622.414,75.69451,78.33564
"46686",622.4273,75.64568,78.15227
"46687",622.4406,75.59441,77.96493
"46688",622.4539,75.53338,77.76622
"46689",622.4672,75.474785,77.56805
"46690",622.4805,75.45281,77.40466
"46691",622.49384,75.56512,77.37487
"46692",622.50714,75.965515,77.63668
"46693",622.52045,76.79805,78.34314
"46694",622.53375,78.12863,79.57366
"46695",622.54706,79.89136,81.27791
"46696",622.56036,81.8909,83.274055
"46697",622.57367,83.84161,85.28386
"46698",622.587,85.46273,87.025024
"46699",622.6003,86.56626,88.29926
"46700",622.6136,87.10338,89.04157
"46701",622.6269,87.12535,89.28552
"46702",622.6402,86.75426,89.13709
"46703",622.6535,86.136566,88.73047
"46704",622.6668,85.41634,88.20201
"46705",622.6801,84.69611,87.65104
"46706",622.6934,84.054016,87.15569
"46707",622.7067,83.51934,86.7477
"46708",622.72003,83.08476,86.4231
"46709",622.73334,82.72343,86.158165
"46710",622.74664,82.4036,85.92345
"46711",622.75995,82.108185,85.70314
"46712",622.77325,81.83475,85.49558
"46713",622.78656,81.602806,85.32098
"46714",622.79987,81.427025,85.19528
"46715",622.8132,81.31716,85.13001
"46716",622.8265,81.25613,85.11014
"46717",622.8398,81.2195,85.11276
"46718",622.8531,81.16823,85.0996
"46719",622.8664,81.06813,85.03601
"46720",622.8797,80.902115,84.90337
"46721",622.893,80.65797,84.687416
"46722",622.9063,80.343025,84.393036
"46723",622.9196,79.9646,84.02533
"46724",622.9329,79.54955,83.60918
"46725",622.9462,79.11009,83.15564
"46726",622.95953,78.66331,82.681046
"46727",622.97284,78.22873,82.2047
"46728",622.98615,77.81857,81.73919
"46729",622.99945,77.44015,81.292595
"46730",623.01276,77.100784,80.87324
"46731",623.02606,76.81026,80.49211
"46732",623.03937,76.56367,80.14584
"46733",623.0527,76.36591,79.840706
"46734",623.066,76.21698,79.57821
"46735",623.0793,76.10956,79.35257
"46736",623.0926,76.04364,79.16508
"46737",623.1059,76.00946,79.00726
"46738",623.1192,76.00458,78.87768
"46739",623.1325,76.019226,78.76747
"46740",623.1458,76.04608,78.66993
"46741",623.1591,76.07538,78.57567
"46742",623.1724,76.104675,78.48232
"46743",623.1857,76.11932,78.375244
"46744",623.19904,76.121765,78.25642
"46745",623.21234,76.11688,78.13034
"46746",623.22565,76.102234,77.99435
"46747",623.23895,76.08026,77.85057
"46748",623.25226,76.05829,77.70611
"46749",623.26556,76.02899,77.553635
"46750",623.2789,75.99725,77.397804
"46751",623.2922,75.96307,77.23854
"46752",623.3055,75.92645,77.07577
"46753",623.3188,75.89227,76.91429
"46754",623.3321,75.860535,76.75419
"46755",623.3454,75.826355,76.59065
"46756",623.3587,75.78729,76.421165
"46757",623.372,75.76288,76.26511
"46758",623.3853,75.79462,76.16444
"46759",623.3986,75.99237,76.230774
"46760",623.4119,76.507515,76.62068
"46761",623.42523,77.47433,77.478355
"46762",623.43854,78.91478,78.83988
"46763",623.45184,80.726326,80.617516
"46764",623.46515,82.67948,82.59337
"46765",623.47845,84.48615,84.48377
"46766",623.49176,85.889984,86.027794
"46767",623.50507,86.751816,87.073685
"46768",623.5184,87.05943,87.59229
"46769",623.5317,86.90318,87.65665
"46770",623.545,86.40269,87.37187
"46771",623.5583,85.6849,86.854164
"46772",623.5716,84.874344,86.22126
"46773",623.5849,84.06134,85.56058
"46774",623.5982,83.29717,84.923325
"46775",623.6115,82.60624,84.33543
"46776",623.6248,82.005646,83.81628
"46777",623.6381,81.49294,83.36625
"46778",623.6514,81.08278,83.00274
"46779",623.66473,80.78981,82.74361
"46780",623.67804,80.635994,82.61447
"46781",623.69135,80.62623,82.62458
"46782",623.70465,80.743416,82.76134
"46783",623.71796,80.95094,82.992096
"46784",623.73126,81.1902,83.26107
"46785",623.74457,81.40505,83.513115
"46786",623.7579,81.54421,83.69618
"46787",623.7712,81.57595,83.77618
"46788",623.7845,81.48562,83.73509
"46789",623.7978,81.27322,83.569115
"46790",623.8111,80.96315,83.298836
"46791",623.8244,80.5774,82.943184
"46792",623.8377,80.14526,82.52909
"46793",623.851,79.691154,82.07952
"46794",623.8643,79.23949,81.6182
"46795",623.8776,78.80003,81.15498
"46796",623.8909,78.38499,80.70244
"46797",623.90424,78.00656,80.273544
"46798",623.91754,77.67208,79.87677
"46799",623.93085,77.38644,79.51838
"46800",623.94415,77.15694,79.20721
"46801",623.95746,76.978714,78.94014
"46802",623.97076,76.8542,78.721214
"46803",623.9841,76.77608,78.544785
"46804",623.9974,76.73945,78.40741
"46805",624.0107,76.73945,78.30552
"46806",624.024,76.76631,78.23049
"46807",624.0373,76.805374,78.1685
"46808",624.0506,76.8542,78.1175
"46809",624.0639,76.90791,78.07291
"46810",624.0772,76.961624,78.02999
"46811",624.0905,77.00801,77.98143
"46812",624.1038,77.04219,77.92211
"46813",624.1171,77.06172,77.84921
"46814",624.13043,77.06172,77.75739
"46815",624.14374,77.03975,77.6436
"46816",624.15704,77.00313,77.51447
"46817",624.17035,76.95674,77.374435
"46818",624.18365,76.90303,77.225624
"46819",624.19696,76.84688,77.07269
"46820",624.21027,76.790726,76.91801
"46821",624.2236,76.73945,76.76644
"46822",624.2369,76.69062,76.61572
"46823",624.2502,76.64423,76.46592
"46824",624.2635,76.60273,76.31955
"46825",624.2768,76.561226,76.17188
"46826",624.2901,76.52949,76.032684
"46827",624.3034,76.56611,75.96085
"46828",624.3167,76.790726,76.07816
"46829",624.33,77.347374,76.53452
"46830",624.3433,78.331276,77.43553
"46831",624.3566,79.73998,78.79209
"46832",624.36993,81.43679,80.480774
"46833",624.38324,83.1873,82.276184
"46834",624.39655,84.715645,83.90413
"46835",624.40985,85.82651,85.16235
"46836",624.42316,86.434425,85.95235
"46837",624.43646,86.554054,86.27305
"46838",624.44977,86.28306,86.20686
"46839",624.4631,85.72884,85.84899
"46840",624.4764,85.00374,85.30291
"46841",624.4897,84.19562,84.65115
"46842",624.503,83.370415,83.95706
"46843",624.5163,82.57694,83.26891
"46844",624.5296,81.83719,82.60969
"46845",624.5429,81.163345,81.993256
"46846",624.5562,80.584724,81.45099
"46847",624.5695,80.12329,81.00783
"46848",624.5828,79.81323,80.70162
"46849",624.5961,79.68627,80.568825
"46850",624.60944,79.7522,80.62495
"46851",624.62274,79.98901,80.85402
"46852",624.63605,80.34791,81.21257
"46853",624.64935,80.75807,81.633606
"46854",624.66266,81.14137,82.040596
"46855",624.67596,81.43679,82.37168
"46856",624.6893,81.60769,82.58748
"46857",624.7026,81.6321,82.66213
"46858",624.7159,81.5198,82.60083
"46859",624.7292,81.287865,82.41639
"46860",624.7425,80.972916,82.141685
"46861",624.7558,80.59693,81.796104
"46862",624.7691,80.18921,81.407036
"46863",624.7824,79.77173,80.99547
"46864",624.7957,79.35668,80.57329
"46865",624.809,78.95384,80.150345
"46866",624.8223,78.572975,79.736786
"46867",624.83563,78.22385,79.34306
"46868",624.84894,77.91623,78.97994
"46869",624.86224,77.65011,78.648705
"46870",624.87555,77.435265,78.36043
"46871",624.88885,77.27657,78.12159
"46872",624.90216,77.171585,77.931496
"46873",624.91547,77.11543,77.78696
"46874",624.9288,77.11055,77.69193
"46875",624.9421,77.14229,77.63338
"46876",624.9554,77.20332,77.60511
"46877",624.9687,77.27657,77.590965
"46878",624.982,77.36446,77.59375
"46879",624.9953,77.452354,77.59928
"46880",625.0086,77.5378,77.60512
"46881",625.0219,77.608604,77.598976
"46882",625.0352,77.6672,77.58284
"46883",625.0485,77.7087,77.551445
"46884",625.0618,77.730675,77.501816
"46885",625.07513,77.73556,77.43578
"46886",625.08844,77.72335,77.35281
"46887",625.10175,77.696495,77.254814
"46888",625.11505,77.65743,77.14377
"46889",625.12836,77.60616,77.019295
"46890",625.14166,77.54269,76.88101
"46891",625.15497,77.471886,76.73342
"46892",625.1683,77.39376,76.576294
"46893",625.1816,77.33761,76.4387
"46894",625.1949,77.37179,76.38968
"46895",625.2082,77.61593,76.55169
"46896",625.2215,78.19455,77.05581
"46897",625.2348,79.17113,77.97597
"46898",625.2481,80.50416,79.2831
"46899",625.2614,82.04715,80.84184
"46900",625.2747,83.5584,82.41707
"46901",625.288,84.81087,83.78073
"46902",625.30133,85.65072,84.77092
"46903",625.31464,86.029144,85.32593
"46904",625.32794,85.997406,85.4826
"46905",625.34125,85.65072,85.323326
"46906",625.35455,85.08919,84.93838
"46907",625.36786,84.39582,84.404045
"46908",625.38116,83.63653,83.78212
"46909",625.3945,82.85527,83.1145
"46910",625.4078,82.08621,82.43467
"46911",625.4211,81.35378,81.76743
"46912",625.4344,80.67506,81.13101
"46913",625.4477,80.08179,80.55884
"46914",625.461,79.60082,80.08043
"46915",625.4743,79.27123,79.738365
"46916",625.4876,79.12962,79.57398
"46917",625.5009,79.19554,79.6127
"46918",625.5142,79.45922,79.85124
"46919",625.5275,79.86694,80.242065
"46920",625.54083,80.34547,80.71643
"46921",625.55414,80.814224,81.195984
"46922",625.56744,81.19508,81.60229
"46923",625.58075,81.44167,81.88622
"46924",625.59406,81.54177,82.03137
"46925",625.60736,81.50271,82.04049
"46926",625.62067,81.3489,81.93364
"46927",625.634,81.10475,81.73164
"46928",625.6473,80.80202,81.46343
"46929",625.6606,80.46021,81.14669
"46930",625.6739,80.096436,80.797295
"46931",625.6872,79.725334,80.42921
"46932",625.7005,79.35424,80.04953
"46933",625.7138,78.99779,79.6729
"46934",625.7271,78.658424,79.302216
"46935",625.7404,78.35081,78.952675
"46936",625.7537,78.07736,78.62769
"46937",625.767,77.838104,78.328354
"46938",625.78033,77.64034,78.063034
"46939",625.79364,77.48409,77.833046
"46940",625.80695,77.37911,77.649445
"46941",625.82025,77.32052,77.50895
"46942",625.83356,77.30831,77.41301
"46943",625.84686,77.34005,77.360634
"46944",625.86017,77.401085,77.33855
"46945",625.8735,77.47921,77.33546
"46946",625.8868,77.57198,77.34946
"46947",625.9001,77.67208,77.37368
"46948",625.9134,77.77707,77.40592
"46949",625.9267,77.874725,77.43411
"46950",625.94,77.95285,77.44582
"46951",625.9533,78.009,77.438
"46952",625.9666,78.04318,77.409966
"46953",625.9799,78.05783,77.363464
"46954",625.9932,78.048065,77.29301
"46955",626.00653,78.01877,77.20271
"46956",626.01984,77.97482,77.096855
"46957",626.03314,77.93332,76.992065
"46958",626.04645,77.95529,76.949455
"46959",626.05975,78.15793,77.088196
"46960",626.07306,78.66331,77.53601
"46961",626.08636,79.53246,78.363396
"46962",626.0997,80.73121,79.54753
"46963",626.113,82.125275,80.96445
"46964",626.1263,83.49737,82.402954
"46965",626.1396,84.63996,83.65484
"46966",626.1529,85.399254,84.55913
"46967",626.1662,85.74105,85.06965
"46968",626.1795,85.70931,85.217316
"46969",626.1928,85.384605,85.07102
"46970",626.2061,84.86214,84.71682
"46971",626.2194,84.21515,84.22177
"46972",626.2327,83.50713,83.64548
"46973",626.24603,82.76982,83.01776
"46974",626.25934,82.03006,82.364555
"46975",626.27264,81.307396,81.70533
"46976",626.28595,80.621346,81.060135
"46977",626.29926,79.991455,80.44966
"46978",626.31256,79.4519,79.909836
"46979",626.32587,79.04173,79.482544
"46980",626.3392,78.80492,79.21578
"46981",626.3525,78.765854,79.13937
"46982",626.3658,78.92943,79.26438
"46983",626.3791,79.26879,79.57029
"46984",626.3924,79.72289,80.00154
"46985",626.4057,80.21362,80.48361
"46986",626.419,80.67017,80.94684
"46987",626.4323,81.02663,81.324234
"46988",626.4456,81.24635,81.57604
"46989",626.4589,81.3196,81.68824
"46990",626.4722,81.26345,81.673325
"46991",626.48553,81.10231,81.55167
"46992",626.49884,80.86305,81.346855
"46993",626.51215,80.57984,81.090614
"46994",626.52545,80.26978,80.798676
"46995",626.53876,79.94995,80.487274
"46996",626.55206,79.62524,80.160995
"46997",626.56537,79.30297,79.82702
"46998",626.5787,78.98802,79.49029
"46999",626.592,78.6804,79.15104
"47000",626.6053,78.38743,78.81683
"47001",626.6186,78.116425,78.49544
"47002",626.6319,77.86984,78.189995
"47003",626.6452,77.65499,77.90858
"47004",626.6585,77.48165,77.66196
"47005",626.6718,77.349815,77.45142
"47006",626.6851,77.264366,77.28316
"47007",626.6984,77.222855,77.15616
"47008",626.71173,77.22041,77.06693
"47009",626.72504,77.24727,77.00693
"47010",626.73834,77.30099,76.974625
"47011",626.75165,77.36935,76.95864
"47012",626.76495,77.454796,76.96188
"47013",626.77826,77.54757,76.97512
"47014",626.79156,77.645226,76.99614
"47015",626.8049,77.733116,77.010445
"47016",626.8182,77.803925,77.010414
"47017",626.8315,77.85031,76.988174
"47018",626.8448,77.872284,76.94297
"47019",626.8581,77.87717,76.88136
"47020",626.8714,77.91379,76.85165
"47021",626.8847,78.065155,76.93782
"47022",626.898,78.43626,77.24846
"47023",626.9113,79.11742,77.88075
"47024",626.9246,80.11841,78.854164
"47025",626.9379,81.3489,80.088356
"47026",626.95123,82.64286,81.42447
"47027",626.96454,83.79767,82.661865
"47028",626.97784,84.65217,83.63504
"47029",626.99115,85.12581,84.25406
"47030",627.00446,85.22835,84.51678
"47031",627.01776,85.033035,84.48485
"47032",627.03107,84.62287,84.231964
"47033",627.0444,84.07599,83.829544
"47034",627.0577,83.45098,83.33191
"47035",627.071,82.78691,82.77568
"47036",627.0843,82.11307,82.18893
"47037",627.0976,81.444115,81.586006
"47038",627.1109,80.79225,80.97927
"47039",627.1242,80.177,80.38878
"47040",627.1375,79.61791,79.83522
"47041",627.1508,79.151596,79.356964
"47042",627.1641,78.81712,78.99598
"47043",627.1774,78.65598,78.797874
"47044",627.19073,78.68772,78.78761
"47045",627.20404,78.9099,78.96878
"47046",627.21735,79.28344,79.30826
"47047",627.23065,79.7522,79.75462
"47048",627.24396,80.24292,80.2376
"47049",627.25726,80.689705,80.69198
"47050",627.27057,81.041275,81.0651
"47051",627.2839,81.270775,81.32714
"47052",627.2972,81.37087,81.46695
"47053",627.3105,81.35134,81.49026
"47054",627.3238,81.23659,81.41773
"47055",627.3371,81.0486,81.26839
"47056",627.3504,80.81178,81.06434
"47057",627.3637,80.54322,80.821144
"47058",627.377,80.25025,80.54515
"47059",627.3903,79.94995,80.25267
"47060",627.4036,79.64721,79.948364
"47061",627.41693,79.344475,79.634605
"47062",627.43024,79.0515,79.321144
"47063",627.44354,78.77562,79.015625
"47064",627.45685,78.5095,78.71124
"47065",627.47015,78.27024,78.42541
"47066",627.48346,78.06271,78.163826
"47067",627.49677,77.891815,77.93239
"47068",627.5101,77.76242,77.737114
"47069",627.5234,77.67696,77.58173
"47070",627.5367,77.63058,77.46275
"47071",627.55,77.61837,77.3765
"47072",627.5633,77.6379,77.32161
"47073",627.5766,77.68429,77.29418
"47074",627.5899,77.75021,77.28774
"47075",627.6032,77.83322,77.300446
"47076",627.6165,77.925995,77.32551
"47077",627.6298,78.01633,77.35103
"47078",627.6431,78.099335,77.37205
"47079",627.65643,78.16037,77.37369
"47080",627.66974,78.2092,77.36503
"47081",627.68304,78.28001,77.379875
"47082",627.69635,78.45823,77.50435
"47083",627.70966,78.86351,77.86145
"47084",627.72296,79.59838,78.56081
"47085",627.73627,80.68482,79.6347
"47086",627.7496,82.039825,81.0111
"47087",627.7629,83.49493,82.529945
"47088",627.7762,84.8304,83.97463
"47089",627.7895,85.86557,85.16075
"47090",627.8028,86.49302,85.9715
"47091",627.8161,86.72251,86.40389
"47092",627.8294,86.61021,86.50166
"47093",627.8427,86.24155,86.33957
"47094",627.856,85.694664,85.98773
"47095",627.8693,85.03548,85.5065
"47096",627.8826,84.31037,84.93875
"47097",627.89594,83.5584,84.32148
"47098",627.90924,82.80888,83.68316
"47099",627.92255,82.08133,83.04338
"47100",627.93585,81.392845,82.41994
"47101",627.94916,80.76051,81.83113
"47102",627.96246,80.21118,81.305565
"47103",627.97577,79.77661,80.877594
"47104",627.9891,79.49584,80.58984
"47105",628.0024,79.40063,80.478874
"47106",628.0157,79.50561,80.565125
"47107",628.029,79.79126,80.83533
"47108",628.0423,80.20874,81.246284
"47109",628.0556,80.68726,81.73133
"47110",628.0689,81.1487,82.21424
"47111",628.0822,81.53445,82.63589
"47112",628.0955,81.79813,82.94752
"47113",628.1088,81.92752,83.1331
"47114",628.12213,81.9202,83.18601
"47115",628.13544,81.80301,83.12883
"47116",628.14874,81.59548,82.977646
"47117",628.16205,81.31716,82.74918
"47118",628.17535,80.990005,82.46319
"47119",628.18866,80.63355,82.13767
"47120",628.20197,80.26002,81.783936
"47121",628.2153,79.88159,81.413635
"47122",628.2286,79.51293,81.041275
"47123",628.2419,79.15404,80.66716
"47124",628.2552,78.81712,80.30381
"47125",628.2685,78.504616,79.95434
"47126",628.2818,78.21896,79.621956
"47127",628.2951,77.97238,79.31972
"47128",628.3084,77.769745,79.05372
"47129",628.3217,77.608604,78.82288
"47130",628.335,77.49386,78.63341
"47131",628.3483,77.420616,78.48185
"47132",628.36163,77.38888,78.36951
"47133",628.37494,77.39376,78.29279
"47134",628.38824,77.43282,78.25041
"47135",628.40155,77.50118,78.23855
"47136",628.41486,77.593956,78.253235
"47137",628.42816,77.696495,78.28059
"47138",628.44147,77.803925,78.31603
"47139",628.4548,77.90402,78.3475
"47140",628.4681,77.98459,78.36257
"47141",628.4814,78.03586,78.35086
"47142",628.4947,78.065155,78.31878
"47143",628.508,78.1091,78.30226
"47144",628.5213,78.26292,78.39699
"47145",628.5346,78.660866,78.740654
"47146",628.5479,79.42748,79.46542
"47147",628.5612,80.604256,80.624306
"47148",628.5745,82.11063,82.14956
"47149",628.5878,83.76837,83.87326
"47150",628.60114,85.34066,85.56331
"47151",628.61444,86.60044,86.98998
"47152",628.62775,87.42809,88.023895
"47153",628.64105,87.80408,88.632
"47154",628.65436,87.784546,88.85635
"47155",628.66766,87.45495,88.77002
"47156",628.68097,86.908066,88.4561
"47157",628.6943,86.21469,87.9786
"47158",628.7076,85.43832,87.39643
"47159",628.7209,84.62043,86.74849
"47160",628.7342,83.807434,86.07988
"47161",628.7475,83.021286,85.41271
"47162",628.7608,82.28397,84.76981
"47163",628.7741,81.61257,84.169785
"47164",628.7874,81.03883,83.64644
"47165",628.8007,80.58228,83.22235
"47166",628.814,80.28687,82.94514
"47167",628.82733,80.17944,82.84667
"47168",628.84064,80.26978,82.94262
"47169",628.85394,80.5359,83.21716
"47170",628.86725,80.92653,83.62454
"47171",628.88055,81.373314,84.10028
"47172",628.89386,81.7908,84.560684
"47173",628.90717,82.11795,84.943794
"47174",628.9205,82.31083,85.20286
"47175",628.9338,82.354774,85.319016
"47176",628.9471,82.247345,85.28517
"47177",628.9604,82.02762,85.13567
"47178",628.9737,81.71511,84.88653
"47179",628.987,81.33669,84.56171
"47180",629.0003,80.91188,84.178665
"47181",629.0136,80.465096,83.760376
"47182",629.0269,80.008545,83.31836
"47183",629.0402,79.554436,82.86452
"47184",629.0535,79.11253,82.40869
"47185",629.06683,78.692604,81.96103
"47186",629.08014,78.30442,81.53199
"47187",629.09344,77.95041,81.12499
"47188",629.10675,77.64034,80.75088
"47189",629.12006,77.37667,80.41347
"47190",629.13336,77.16426,80.11908
"47191",629.14667,77.015335,79.88154
"47192",629.16,76.92012,79.693054
"47193",629.1733,76.87862,79.555305
"47194",629.1866,76.8835,79.46265
"47195",629.1999,76.927444,79.4092
"47196",629.2132,76.995804,79.381546
"47197",629.2265,77.07881,79.370674
"47198",629.2398,77.171585,79.37216
"47199",629.2531,77.27413,79.38632
"47200",629.2664,77.366905,79.39391
"47201",629.2797,77.44991,79.39464
"47202",629.293,77.51095,79.375984
"47203",629.30634,77.540245,79.3275
"47204",629.31964,77.53292,79.24331
"47205",629.33295,77.506065,79.13936
"47206",629.34625,77.49874,79.0541
"47207",629.35956,77.611046,79.08824
"47208",629.37286,77.98947,79.39201
"47209",629.38617,78.75853,80.09824
"47210",629.3995,79.95972,81.260635
"47211",629.4128,81.5198,82.81946
"47212",629.4261,83.26299,84.610146
"47213",629.4394,84.93538,86.3845
"47214",629.4527,86.30747,87.91082
"47215",629.466,87.2401,89.04055
"47216",629.4793,87.70397,89.730675
"47217",629.4926,87.73571,90.00316
"47218",629.5059,87.42321,89.9324
"47219",629.5192,86.86168,89.602844
"47220",629.53253,86.14145,89.09704
"47221",629.54584,85.33578,88.483284
"47222",629.55914,84.51057,87.824814
"47223",629.57245,83.700005,87.155205
"47224",629.58575,82.94072,86.51154
"47225",629.59906,82.2449,85.90762
"47226",629.61237,81.6321,85.364975
"47227",629.6257,81.11696,84.90083
"47228",629.639,80.73365,84.55243
"47229",629.6523,80.51148,84.35319
"47230",629.6656,80.465096,84.322784
"47231",629.6789,80.58961,84.46183
"47232",629.6922,80.850845,84.74149
"47233",629.7055,81.19264,85.10988
"47234",629.7188,81.54665,85.50116
"47235",629.7321,81.849396,85.852234
"47236",629.7454,82.05203,86.11266
"47237",629.7587,82.125275,86.25003
"47238",629.77203,82.05936,86.25053
"47239",629.78534,81.864044,86.11957
"47240",629.79865,81.55398,85.86775
"47241",629.81195,81.15358,85.515915
"47242",629.82526,80.69947,85.097855
"47243",629.83856,80.218506,84.63875
"47244",629.85187,79.727776,84.15485
"47245",629.8652,79.24437,83.66293
"47246",629.8785,78.785385,83.180336
"47247",629.8918,78.36057,82.71757
"47248",629.9051,77.97238,82.278145
"47249",629.9184,77.628136,81.87054
"47250",629.9317,77.332726,81.50101
"47251",629.945,77.08858,81.17351
"47252",629.9583,76.90059,80.89454
"47253",629.9716,76.76387,80.660965
"47254",629.9849,76.68818,80.484146
"47255",629.9982,76.663765,80.35624
"47256",630.01154,76.6833,80.271515
"47257",630.02484,76.732124,80.2167
"47258",630.03815,76.805374,80.18783
"47259",630.05145,76.88838,80.171005
"47260",630.06476,76.96895,80.154335
"47261",630.07806,77.04463,80.1353
"47262",630.0914,77.10811,80.10642
"47263",630.1047,77.15938,80.06732
"47264",630.118,77.196,80.015175
"47265",630.1313,77.21065,79.9422
"47266",630.1446,77.196,79.840385
"47267",630.1579,77.15938,79.71614
"47268",630.1712,77.09834,79.56634
"47269",630.1845,77.01289,79.39021
"47270",630.1978,76.912796,79.19677
"47271",630.2111,76.841995,79.029495
"47272",630.2244,76.88594,78.974754
"47273",630.23773,77.20088,79.19238
"47274",630.25104,77.925995,79.830025
"47275",630.26434,79.12962,80.96884
"47276",630.27765,80.76051,82.57253
"47277",630.29095,82.64042,84.476204
"47278",630.30426,84.49348,86.41177
"47279",630.31757,86.05844,88.11716
"47280",630.3309,87.16441,89.41245
"47281",630.3442,87.743034,90.21496
"47282",630.3575,87.83093,90.54483
"47283",630.3708,87.518425,90.477036
"47284",630.3841,86.91295,90.10651
"47285",630.3974,86.12436,89.53394
"47286",630.4107,85.24544,88.846405
"47287",630.424,84.351875,88.11676
"47288",630.4373,83.50225,87.40313
"47289",630.4506,82.72587,86.73619
"47290",630.4639,82.04471,86.14021
"47291",630.47723,81.47341,85.63281
"47292",630.49054,81.024185,85.22963
"47293",630.50385,80.72144,84.95889
"47294",630.51715,80.584724,84.84472
"47295",630.53046,80.61402,84.89229
"47296",630.54376,80.79469,85.09215
"47297",630.55707,81.08034,85.402626
"47298",630.5704,81.40505,85.7611
"47299",630.5837,81.705345,86.1053
"47300",630.597,81.92508,86.37833
"47301",630.6103,82.02762,86.54102
"47302",630.6236,81.988556,86.56532
"47303",630.6369,81.81033,86.44924
"47304",630.6502,81.50515,86.20063
"47305",630.6635,81.09987,85.842384
"47306",630.6768,80.62623,85.403114
"47307",630.6901,80.12085,84.917305
"47308",630.7034,79.603264,84.403496
"47309",630.71674,79.097885,83.88572
"47310",630.73004,78.61936,83.379005
"47311",630.74335,78.17502,82.89152
"47312",630.75665,77.7673,82.42677
"47313",630.76996,77.41085,82.00055
"47314",630.78326,77.10811,81.6169
"47315",630.7966,76.86397,81.28239
"47316",630.8099,76.67597,80.99639
"47317",630.8232,76.54658,80.76312
"47318",630.8365,76.47578,80.584404
"47319",630.8498,76.44892,80.44742
"47320",630.8631,76.45869,80.346214
"47321",630.8764,76.49531,80.27217
"47322",630.8897,76.55146,80.2188
"47323",630.903,76.61738,80.176956
"47324",630.9163,76.68818,80.14205
"47325",630.9296,76.75166,80.10204
"47326",630.94293,76.805374,80.054245
"47327",630.95624,76.839554,79.988594
"47328",630.96954,76.85176,79.90204
"47329",630.98285,76.84688,79.798775
"47330",630.99615,76.82735,79.68071
"47331",631.00946,76.79317,79.547386
"47332",631.02277,76.749214,79.40322
"47333",631.0361,76.6955,79.247925
"47334",631.0494,76.6247,79.07386
"47335",631.0627,76.541695,78.885376
"47336",631.076,76.456245,78.69186
"47337",631.0893,76.40986,78.53473
"47338",631.1026,76.51728,78.52996
"47339",631.1159,76.93477,78.838615
"47340",631.1292,77.7966,79.60466
"47341",631.1425,79.15404,80.89324
"47342",631.1558,80.92409,82.636856
"47343",631.1691,82.89433,84.63598
"47344",631.18243,84.77913,86.61122
"47345",631.19574,86.312355,88.29379
"47346",631.20905,87.327995,89.50669
"47347",631.22235,87.78943,90.19713
"47348",631.23566,87.74792,90.39903
"47349",631.24896,87.308464,90.201706
"47350",631.26227,86.60044,89.72208
"47351",631.2756,85.74105,89.06895
"47352",631.2889,84.83284,88.34014
"47353",631.3022,83.95392,87.61224
"47354",631.3155,83.15068,86.93256
"47355",631.3288,82.45243,86.33277
"47356",631.3421,81.87137,85.82835
"47357",631.3554,81.41238,85.42783
"47358",631.3687,81.077896,85.13749
"47359",631.382,80.8777,84.97098
"47360",631.3953,80.82155,84.94225
"47361",631.4086,80.89479,85.04117
"47362",631.42194,81.07301,85.24735
"47363",631.43524,81.30984,85.51771
"47364",631.44855,81.55154,85.80034
"47365",631.46185,81.74929,86.04658
"47366",631.47516,81.85672,86.20867
"47367",631.48846,81.84207,86.252045
"47368",631.5018,81.69802,86.16556
"47369",631.5151,81.43191,85.95251
"47370",631.5284,81.058365,85.62371
"47371",631.5417,80.61158,85.21
"47372",631.555,80.12329,84.74082
"47373",631.5683,79.622795,84.24418
"47374",631.5816,79.11742,83.72701
"47375",631.5949,78.626686,83.2087
"47376",631.6082,78.15549,82.69459
"47377",631.6215,77.72335,82.20481
"47378",631.6348,77.33517,81.74548
"47379",631.64813,77.00801,81.33505
"47380",631.66144,76.749214,80.98276
"47381",631.67474,76.561226,80.693184
"47382",631.68805,76.43427,80.45877
"47383",631.70135,76.36347,80.27654
"47384",631.71466,76.32929,80.12872
"47385",631.72797,76.32929,80.014015
"47386",631.7413,76.35371,79.92372
"47387",631.7546,76.39521,79.85128
"47388",631.7679,76.44648,79.7899
"47389",631.7812,76.50507,79.73745
"47390",631.7945,76.56611,79.68927
"47391",631.8078,76.62226,79.638115
"47392",631.8211,76.663765,79.574066
"47393",631.8344,76.69306,79.49911
"47394",631.8477,76.70527,79.407974
"47395",631.861,76.70283,79.302574
"47396",631.8743,76.68818,79.18489
"47397",631.88763,76.663765,79.056984
"47398",631.90094,76.63447,78.92343
"47399",631.91425,76.60273,78.78652
"47400",631.92755,76.56611,78.64374
"47401",631.94086,76.52705,78.49737
"47402",631.95416,76.48066,78.34245
"47403",631.96747,76.42451,78.17632
"47404",631.9808,76.35859,77.99867
"47405",631.9941,76.297554,77.823845
"47406",632.0074,76.30976,77.72035
"47407",632.0207,76.51972,77.814995
"47408",632.034,77.086136,78.27265
"47409",632.0473,78.135956,79.231415
"47410",632.0606,79.67895,80.716156
"47411",632.0739,81.5906,82.617775
"47412",632.0872,83.61944,84.69632
"47413",632.1005,85.472496,86.66248
"47414",632.11383,86.90074,88.26174
"47415",632.12714,87.77966,89.35631
"47416",632.14044,88.09949,89.91925
"47417",632.15375,87.940796,90.01367
"47418",632.16705,87.42321,89.74423
"47419",632.18036,86.6688,89.2218
"47420",632.19366,85.79477,88.55617
"47421",632.207,84.89632,87.8388
"47422",632.2203,84.03937,87.13486
"47423",632.2336,83.267876,86.48959
"47424",632.2469,82.59159,85.91543
"47425",632.2602,82.01297,85.41779
"47426",632.2735,81.53933,85.00706
"47427",632.2868,81.18776,84.70359
"47428",632.3001,80.98512,84.53807
"47429",632.3134,80.94606,84.52979
"47430",632.3267,81.06813,84.68143
"47431",632.34,81.3196,84.96628
"47432",632.35333,81.64187,85.32978
"47433",632.36664,81.969025,85.708244
"47434",632.37994,82.23758,86.03833
"47435",632.39325,82.39872,86.269394
"47436",632.40656,82.425575,86.37121
"47437",632.41986,82.30595,86.32738
"47438",632.43317,82.04471,86.1382
"47439",632.4465,81.65652,85.8139
"47440",632.4598,81.180435,85.38959
"47441",632.4731,80.6482,84.89424
"47442",632.4864,80.09155,84.35785
"47443",632.4997,79.537346,83.8065
"47444",632.513,79.00511,83.25981
"47445",632.5263,78.50706,82.73067
"47446",632.5396,78.05539,82.232346
"47447",632.5529,77.66476,81.780945
"47448",632.5662,77.33761,81.38082
"47449",632.5795,77.08125,81.04127
"47450",632.59283,76.895706,80.76451
"47451",632.60614,76.77608,80.547874
"47452",632.61945,76.717476,80.38853
"47453",632.63275,76.71259,80.28107
"47454",632.64606,76.749214,80.21496
"47455",632.65936,76.81758,80.18174
"47456",632.67267,76.90547,80.17018
"47457",632.686,77.00069,80.16869
"47458",632.6993,77.08858,80.16286
"47459",632.7126,77.16182,80.14512
"47460",632.7259,77.21553,80.11014
"47461",632.7392,77.242386,80.04998
"47462",632.7525,77.24483,79.96625
"47463",632.7658,77.21797,79.853294
"47464",632.7791,77.16426,79.71265
"47465",632.7924,77.08858,79.54835
"47466",632.8057,76.99092,79.35971
"47467",632.81903,76.90791,79.18267
"47468",632.83234,76.91768,79.09581
"47469",632.84564,77.16426,79.24607
"47470",632.85895,77.78439,79.77759
"47471",632.87225,78.856186,80.78014
"47472",632.88556,80.35035,82.23856
"47473",632.89886,82.1033,84.002464
"47474",632.9122,83.87091,85.8358
"47475",632.9255,85.39437,87.480225
"47476",632.9388,86.48814,88.74256
"47477",632.9521,87.08385,89.54102
"47478",632.9654,87.203476,89.88202
"47479",632.9787,86.93248,89.83613
"47480",632.992,86.37827,89.49856
"47481",633.0053,85.6556,88.975204
"47482",633.0186,84.84749,88.34383
"47483",633.0319,84.034485,87.682304
"47484",633.0452,83.267876,87.04177
"47485",633.05853,82.5745,86.450516
"47486",633.07184,81.95682,85.913284
"47487",633.08514,81.42214,85.43976
"47488",633.09845,80.98268,85.04474
"47489",633.11176,80.66041,84.753174
"47490",633.12506,80.4773,84.590706
"47491",633.13837,80.448006,84.576324
"47492",633.1517,80.567635,84.70995
"47493",633.165,80.78981,84.94987
"47494",633.1783,81.06569,85.25043
"47495",633.1916,81.33425,85.55229
"47496",633.2049,81.54177,85.801506
"47497",633.2182,81.64675,85.954666
"47498",633.2315,81.619896,85.97927
"47499",633.2448,81.45632,85.86632
"47500",633.2581,81.16823,85.62373
"47501",633.2714,80.77516,85.26717
"47502",633.2847,80.31129,84.82752
"47503",633.29803,79.80591,84.33187
"47504",633.31134,79.28832,83.80822
"47505",633.32465,78.77562,83.27328
"47506",633.33795,78.28489,82.744286
"47507",633.35126,77.82834,82.23414
"47508",633.36456,77.420616,81.75855
"47509",633.37787,77.07393,81.33126
"47510",633.3912,76.790726,80.95662
"47511",633.4045,76.575874,80.64148
"47512",633.4178,76.42695,80.38555
"47513",633.4311,76.3415,80.188446
"47514",633.4444,76.317085,80.049706
"47515",633.4577,76.34394,79.96147
"47516",633.471,76.40986,79.91314
"47517",633.4843,76.50507,79.896164
"47518",633.4976,76.610054,79.89193
"47519",633.5109,76.700386,79.87633
"47520",633.52423,76.76143,79.83426
"47521",633.53754,76.78584,79.75747
"47522",633.55084,76.77608,79.64726
"47523",633.56415,76.773636,79.544075
"47524",633.57745,76.8835,79.553116
"47525",633.59076,77.2375,79.80973
"47526",633.60406,77.96506,80.45096
"47527",633.6174,79.114975,81.537285
"47528",633.6307,80.63111,83.025764
"47529",633.644,82.34257,84.75694
"47530",633.6573,84.01007,86.49765
"47531",633.6706,85.39437,88.00726
"47532",633.6839,86.34409,89.12556
"47533",633.6972,86.81285,89.792564
"47534",633.7105,86.837265,90.02988
"47535",633.7238,86.51011,89.91638
"47536",633.7371,85.93881,89.54852
"47537",633.7504,85.22835,89.02364
"47538",633.76373,84.46906,88.42774
"47539",633.77704,83.72442,87.822754
"47540",633.79034,83.04326,87.25798
"47541",633.80365,82.43534,86.74516
"47542",633.81696,81.900665,86.28659
"47543",633.83026,81.42947,85.87479
"47544",633.84357,81.03151,85.5215
"47545",633.8569,80.72144,85.24367
"47546",633.8702,80.52125,85.06602
"47547",633.8835,80.445564,85.00662
"47548",633.8968,80.48951,85.06449
"47549",633.9101,80.63111,85.22139
"47550",633.9234,80.81911,85.42911
"47551",633.9367,81.00221,85.63781
"47552",633.95,81.13893,85.80585
"47553",633.9633,81.18288,85.88538
"47554",633.9766,81.11452,85.85399
"47555",633.9899,80.921646,85.695946
"47556",634.00323,80.61402,85.41712
"47557",634.01654,80.21118,85.03347
"47558",634.02985,79.742424,84.57131
"47559",634.04315,79.237045,84.057884
"47560",634.05646,78.71946,83.51646
"47561",634.06976,78.21652,82.9735
"47562",634.08307,77.738,82.43925
"47563",634.0964,77.298546,81.92911
"47564",634.1097,76.91524,81.46138
"47565",634.123,76.595406,81.04515
"47566",634.1363,76.33662,80.67997
"47567",634.1496,76.14862,80.377495
"47568",634.1629,76.02167,80.13019
"47569",634.1762,75.95331,79.93751
"47570",634.1895,75.93622,79.79396
"47571",634.2028,75.95819,79.68894
"47572",634.2161,76.00458,79.609024
"47573",634.22943,76.06073,79.54032
"47574",634.24274,76.10956,79.46605
"47575",634.25604,76.1413,79.37621
"47576",634.26935,76.16083,79.27516
"47577",634.28265,76.21942,79.21378
"47578",634.29596,76.4123,79.28852
"47579",634.30927,76.89082,79.65493
"47580",634.3226,77.76486,80.43181
"47581",634.3359,79.06615,81.663246
"47582",634.3492,80.709236,83.27715
"47583",634.3625,82.496376,85.08646
"47584",634.3758,84.17609,86.84418
"47585",634.3891,85.52621,88.3248
"47586",634.4024,86.40757,89.37885
"47587",634.4157,86.800644,89.97216
"47588",634.429,86.766464,90.1505
"47589",634.4423,86.400246,89.99573
"47590",634.4556,85.824066,89.61955
"47591",634.46893,85.1429,89.120384
"47592",634.48224,84.439766,88.577965
"47593",634.49554,83.775696,88.052635
"47594",634.50885,83.175095,87.57002
"47595",634.52216,82.633095,87.12724
"47596",634.53546,82.144806,86.72124
"47597",634.54877,81.69802,86.34148
"47598",634.5621,81.29519,85.99171
"47599",634.5754,80.96071,85.6977
"47600",634.5887,80.71168,85.47869
"47601",634.602,80.57252,85.36177
"47602",634.6153,80.5359,85.34304
"47603",634.6286,80.58228,85.40617
"47604",634.6419,80.672615,85.5147
"47605",634.6552,80.75563,85.61874
"47606",634.6685,80.78981,85.67653
"47607",634.6818,80.743416,85.654816
"47608",634.6951,80.59693,85.53156
"47609",634.70844,80.343025,85.29631
"47610",634.72174,79.99878,84.96278
"47611",634.73505,79.58373,84.5477
"47612",634.74835,79.12718,84.07814
"47613",634.76166,78.64866,83.57234
"47614",634.77496,78.17258,83.05403
"47615",634.78827,77.71114,82.53549
"47616",634.8016,77.279015,82.03184
"47617",634.8149,76.88594,81.553734
"47618",634.8282,76.541695,81.112175
"47619",634.8415,76.24872,80.71113
"47620",634.8548,76.01434,80.35953
"47621",634.8681,75.83612,80.056755
"47622",634.8814,75.70672,79.79723
"47623",634.8947,75.62615,79.582504
"47624",634.908,75.58709,79.40676
"47625",634.9213,75.57488,79.25665
"47626",634.93463,75.577324,79.12081
"47627",634.94794,75.58953,78.99481
"47628",634.96124,75.61639,78.88384
"47629",634.97455,75.699394,78.829865
"47630",634.98785,75.9411,78.93718
"47631",635.00116,76.46845,79.33769
"47632",635.01447,77.38644,80.14532
"47633",635.0278,78.712135,81.38934
"47634",635.0411,80.35523,82.992195
"47635",635.0544,82.11795,84.766014
"47636",635.0677,83.76593,86.48018
"47637",635.081,85.09163,87.92356
"47638",635.0943,85.97543,88.96648
"47639",635.1076,86.40269,89.58046
"47640",635.1209,86.43687,89.81472
"47641",635.1342,86.16586,89.744865
"47642",635.1475,85.68734,89.45902
"47643",635.1608,85.09651,89.04592
"47644",635.17413,84.46662,88.575294
"47645",635.18744,83.8465,88.09475
"47646",635.20074,83.26299,87.63145
"47647",635.21405,82.720985,87.19141
"47648",635.22736,82.213165,86.768616
"47649",635.24066,81.73464,86.35925
"47650",635.25397,81.28298,85.9618
"47651",635.2673,80.88747,85.60638
"47652",635.2806,80.57252,85.31916
"47653",635.2939,80.35523,85.11977
"47654",635.3072,80.24536,85.020996
"47655",635.3205,80.22095,85.00425
"47656",635.3338,80.2478,85.03801
"47657",635.3471,80.28443,85.08238
"47658",635.3604,80.289314,85.09615
"47659",635.3737,80.23071,85.04659
"47660",635.387,80.08667,84.90976
"47661",635.4003,79.84985,84.67565
"47662",635.41364,79.52514,84.346245
"47663",635.42694,79.12718,83.93345
"47664",635.44025,78.6804,83.45939
"47665",635.45355,78.21652,82.95428
"47666",635.46686,77.7551,82.43712
"47667",635.48016,77.31075,81.92262
"47668",635.49347,76.895706,81.42354
"47669",635.5068,76.51728,80.948105
"47670",635.5201,76.1828,80.50479
"47671",635.5334,75.897156,80.09986
"47672",635.5467,75.67254,79.74703
"47673",635.56,75.49676,79.43602
"47674",635.5733,75.37469,79.173225
"47675",635.5866,75.28924,78.94324
"47676",635.5999,75.23552,78.74231
"47677",635.6132,75.20622,78.564125
"47678",635.6265,75.20378,78.41188
"47679",635.63983,75.245285,78.303505
"47680",635.65314,75.3991,78.30874
"47681",635.66644,75.76776,78.53362
"47682",635.67975,76.46845,79.10206
"47683",635.69305,77.56954,80.09279
"47684",635.70636,79.03929,81.48659
"47685",635.71967,80.740974,83.15825
"47686",635.733,82.44999,84.89042
"47687",635.7463,83.946594,86.463585
"47688",635.7596,85.06477,87.70509
"47689",635.7729,85.74349,88.54208
"47690",635.7862,86.012054,88.99013
"47691",635.7995,85.9559,89.12185
"47692",635.8128,85.67025,89.022316
"47693",635.8261,85.23567,88.76493
"47694",635.8394,84.72785,88.42072
"47695",635.8527,84.19562,88.03623
"47696",635.866,83.65362,87.62534
"47697",635.87933,83.11162,87.19752
"47698",635.89264,82.57206,86.755196
"47699",635.90594,82.03494,86.298454
"47700",635.91925,81.512474,85.83958
"47701",635.93256,81.03151,85.405876
"47702",635.94586,80.63111,85.03771
"47703",635.95917,80.34058,84.76691
"47704",635.9725,80.17212,84.609085
"47705",635.9858,80.11597,84.55831
"47706",635.9991,80.14282,84.58879
"47707",636.0124,80.201416,84.65185
"47708",636.0257,80.24292,84.699646
"47709",636.039,80.22583,84.69015
"47710",636.0523,80.12085,84.592224
"47711",636.0656,79.91577,84.39092
"47712",636.0789,79.61303,84.08555
"47713",636.0922,79.24437,83.704796
"47714",636.1055,78.839096,83.27591
"47715",636.11884,78.42893,82.82947
"47716",636.13214,78.03342,82.38486
"47717",636.14545,77.66476,81.95474
"47718",636.15875,77.330284,81.547295
"47719",636.17206,77.03975,81.17333
"47720",636.18536,76.80049,80.84157
"47721",636.19867,76.629585,80.57068
"47722",636.212,76.52216,80.35793
"47723",636.2253,76.470894,80.19798
"47724",636.2386,76.453804,80.07061
"47725",636.2519,76.45136,79.95735
"47726",636.2652,76.439156,79.83425
"47727",636.2785,76.42451,79.70833
"47728",636.2918,76.404976,79.577065
"47729",636.3051,76.39033,79.45007
"47730",636.3184,76.39277,79.339714
"47731",636.3317,76.456245,79.29047
"47732",636.34503,76.68818,79.41166
"47733",636.35834,77.2375,79.85749
"47734",636.37164,78.24338,80.77704
"47735",636.38495,79.74731,82.226074
"47736",636.39825,81.66628,84.13715
"47737",636.41156,83.76349,86.28643
"47738",636.42487,85.73861,88.37916
"47739",636.4382,87.29626,90.116135
"47740",636.4515,88.25819,91.306076
"47741",636.4648,88.59998,91.905945
"47742",636.4781,88.411995,91.98671
"47743",636.4914,87.850464,91.68805
"47744",636.5047,87.08629,91.169205
"47745",636.518,86.28062,90.58498
"47746",636.5313,85.53109,90.031715
"47747",636.5446,84.88899,89.56246
"47748",636.5579,84.35432,89.180565
"47749",636.5712,83.888,88.85032
"47750",636.58453,83.441216,88.52503
"47751",636.59784,82.98222,88.17358
"47752",636.61115,82.511024,87.79557
"47753",636.62445,82.05936,87.42237
"47754",636.63776,81.66628,87.09365
"47755",636.65106,81.36355,86.84299
"47756",636.66437,81.160904,86.68295
"47757",636.6777,81.03395,86.59228
"47758",636.691,80.94118,86.531815
"47759",636.7043,80.83864,86.45869
"47760",636.7176,80.68726,86.33352
"47761",636.7309,80.465096,86.13283
"47762",636.7442,80.15991,85.84218
"47763",636.7575,79.76929,85.45655
"47764",636.7708,79.30297,84.983025
"47765",636.7841,78.7805,84.438774
"47766",636.7974,78.22629,83.84645
"47767",636.8107,77.659874,83.22461
"47768",636.82404,77.11299,82.6046
"47769",636.83734,76.60273,82.00412
"47770",636.85065,76.14618,81.44141
"47771",636.86395,75.75067,80.92547
"47772",636.87726,75.421074,80.46308
"47773",636.89056,75.157394,80.05631
"47774",636.9039,74.95964,79.70723
"47775",636.9172,74.827805,79.417885
"47776",636.9305,74.75212,79.18057
"47777",636.9438,74.71549,78.97995
"47778",636.9571,74.70817,78.80749
"47779",636.9704,74.7277,78.66165
"47780",636.9837,74.757,78.5262
"47781",636.997,74.79118,78.39654
"47782",637.0103,74.830246,78.27283
"47783",637.0236,74.87175,78.15278
"47784",637.0369,74.898605,78.01938
"47785",637.05023,74.91814,77.87949
"47786",637.06354,74.9279,77.73045
"47787",637.07684,74.92546,77.56951
"47788",637.09015,74.91325,77.39873
"47789",637.10345,74.89372,77.22024
"47790",637.11676,74.86931,77.036255
"47791",637.13007,74.84245,76.84907
"47792",637.1434,74.813156,76.6586
"47793",637.1567,74.78386,76.46722
"47794",637.17,74.759445,76.2798
"47795",637.1833,74.776535,76.133125
"47796",637.1966,74.966965,76.160324
"47797",637.2099,75.53826,76.57434
"47798",637.2232,76.68818,77.58483
"47799",637.2365,78.51194,79.3051
"47800",637.2498,80.921646,81.668304
"47801",637.2631,83.63653,84.41199
"47802",637.2764,86.2562,87.1453
"47803",637.28973,88.394905,89.47951
"47804",637.30304,89.80118,91.14812
"47805",637.31635,90.409096,92.062325
"47806",637.32965,90.321205,92.29972
"47807",637.34296,89.71816,92.01922
"47808",637.35626,88.817276,91.42203
"47809",637.36957,87.8114,90.691696
"47810",637.3829,86.854355,89.97876
"47811",637.3962,86.03891,89.37751
"47812",637.4095,85.399254,88.92657
"47813",637.4228,84.91341,88.60944
"47814",637.4361,84.525215,88.374794
"47815",637.4494,84.17609,88.167076
"47816",637.4627,83.82941,87.9509
"47817",637.476,83.47784,87.718994
"47818",637.4893,83.13847,87.48831
"47819",637.5026,82.83574,87.28365
"47820",637.5159,82.58427,87.1208
"47821",637.52924,82.38163,86.99892
"47822",637.54254,82.20828,86.899994
"47823",637.55585,82.02518,86.7859
"47824",637.56915,81.80789,86.6319
"47825",637.58246,81.53689,86.41739
"47826",637.59576,81.19264,86.12117
"47827",637.6091,80.7776,85.7434
"47828",637.6224,80.30152,85.29162
"47829",637.6357,79.77661,84.77613
"47830",637.649,79.217514,84.21005
"47831",637.6623,78.643776,83.61186
"47832",637.6756,78.07248,82.998184
"47833",637.6889,77.52071,82.386185
"47834",637.7022,77.00069,81.78868
"47835",637.7155,76.53437,81.22864
"47836",637.7288,76.12665,80.712616
"47837",637.7421,75.78729,80.25222
"47838",637.75543,75.51385,79.84713
"47839",637.76874,75.301445,79.49454
"47840",637.78204,75.14763,79.19389
"47841",637.79535,75.04997,78.9446
"47842",637.80865,75.001144,78.74109
"47843",637.82196,74.986496,78.57023
"47844",637.83527,74.99382,78.42088
"47845",637.8486,75.018234,78.28886
"47846",637.8619,75.052414,78.16736
"47847",637.8752,75.08415,78.04449
"47848",637.8885,75.11345,77.920166
"47849",637.9018,75.140305,77.79432
"47850",637.9151,75.15495,77.657104
"47851",637.9284,75.157394,77.50814
"47852",637.9417,75.15007,77.34949
"47853",637.955,75.13298,77.18084
"47854",637.9683,75.10857,77.00433
"47855",637.9816,75.07927,76.82218
"47856",637.99493,75.037766,76.62691
"47857",638.00824,74.984055,76.41813
"47858",638.02155,74.92546,76.20279
"47859",638.03485,74.87663,75.995384
"47860",638.04816,74.91325,75.8719
"47861",638.06146,75.18913,75.98882
"47862",638.07477,75.90204,76.55139
"47863",638.0881,77.19844,77.719734
"47864",638.1014,79.10765,79.5414
"47865",638.1147,81.480736,81.8866
"47866",638.128,84.01495,84.46709
"47867",638.1413,86.33189,86.909485
"47868",638.1546,88.10925,88.88472
"47869",638.1679,89.17616,90.20505
"47870",638.1812,89.530174,90.84581
"47871",638.1945,89.27627,90.889725
"47872",638.2078,88.58289,90.48624
"47873",638.2211,87.63073,89.80229
"47874",638.23444,86.573586,88.98361
"47875",638.24774,85.52865,88.1441
"47876",638.26105,84.576485,87.3647
"47877",638.27435,83.75128,86.68251
"47878",638.28766,83.05791,86.10636
"47879",638.30096,82.48173,85.62574
"47880",638.3143,82.01053,85.23209
"47881",638.3276,81.64431,84.9287
"47882",638.3409,81.3904,84.72618
"47883",638.3542,81.25857,84.637794
"47884",638.3675,81.248795,84.66735
"47885",638.3808,81.33181,84.78939
"47886",638.3941,81.45144,84.95064
"47887",638.4074,81.55154,85.09609
"47888",638.4207,81.57595,85.16899
"47889",638.434,81.4905,85.13279
"47890",638.4473,81.27566,84.96452
"47891",638.46063,80.936295,84.66502
"47892",638.47394,80.49195,84.24994
"47893",638.48724,79.971924,83.745285
"47894",638.50055,79.40307,83.17555
"47895",638.51385,78.82201,82.575836
"47896",638.52716,78.24582,81.96284
"47897",638.54047,77.69405,81.356255
"47898",638.5538,77.17647,80.76661
"47899",638.5671,76.70527,80.20718
"47900",638.5804,76.282906,79.681854
"47901",638.5937,75.92401,79.2068
"47902",638.607,75.631035,78.78645
"47903",638.6203,75.41131,78.4302
"47904",638.6336,75.2575,78.132996
"47905",638.6469,75.16228,77.88957
"47906",638.6602,75.12077,77.69689
"47907",638.6735,75.123215,77.54686
"47908",638.6868,75.15495,77.4262
"47909",638.70013,75.208664,77.32851
"47910",638.71344,75.27215,77.24226
"47911",638.72675,75.34051,77.16288
"47912",638.74005,75.3991,77.07587
"47913",638.75336,75.44549,76.97848
"47914",638.76666,75.47723,76.86789
"47915",638.77997,75.49676,76.746086
"47916",638.7933,75.494316,76.60292
"47917",638.8066,75.48211,76.44991
"47918",638.8199,75.45525,76.281876
"47919",638.8332,75.41619,76.10079
"47920",638.8465,75.36736,75.90872
"47921",638.8598,75.318535,75.715126
"47922",638.8731,75.27215,75.522446
"47923",638.8864,75.228195,75.33075
"47924",638.8997,75.18669,75.14013
"47925",638.913,75.140305,74.94333
"47926",638.92633,75.11101,74.76217
"47927",638.93964,75.174484,74.67287
"47928",638.95294,75.474785,74.82237
"47929",638.96625,76.19501,75.401184
"47930",638.97955,77.454796,76.54207
"47931",638.99286,79.23949,78.24722
"47932",639.00616,81.37087,80.35484
"47933",639.0195,83.54864,82.57545
"47934",639.0328,85.44076,84.57846
"47935",639.0461,86.79088,86.0986
"47936",639.0594,87.501335,87.02127
"47937",639.0727,87.6112,87.365555
"47938",639.086,87.23277,87.224976
"47939",639.0993,86.505226,86.72345
"47940",639.1126,85.57015,85.99166
"47941",639.1259,84.53986,85.13544
"47942",639.1392,83.49493,84.23237
"47943",639.1525,82.50126,83.347916
"47944",639.16583,81.5906,82.51542
"47945",639.17914,80.78981,81.764336
"47946",639.19244,80.12573,81.12494
"47947",639.20575,79.62768,80.63081
"47948",639.21906,79.32494,80.316444
"47949",639.23236,79.24437,80.214775
"47950",639.24567,79.378654,80.32545
"47951",639.259,79.693596,80.62097
"47952",639.2723,80.11597,81.03377
"47953",639.2856,80.55787,81.479294
"47954",639.2989,80.94118,81.880035
"47955",639.3122,81.197525,82.165794
"47956",639.3255,81.28542,82.291115
"47957",639.3388,81.19508,82.240944
"47958",639.3521,80.955826,82.03903
"47959",639.3654,80.59693,81.71001
"47960",639.3787,80.15259,81.28432
"47961",639.392,79.66186,80.798355
"47962",639.40533,79.15404,80.27997
"47963",639.41864,78.64622,79.74571
"47964",639.43195,78.150604,79.207794
"47965",639.44525,77.68673,78.68613
"47966",639.45856,77.261925,78.18903
"47967",639.47186,76.88594,77.727486
"47968",639.48517,76.56367,77.3079
"47969",639.4985,76.299995,76.936844
"47970",639.5118,76.09735,76.618576
"47971",639.5251,75.95819,76.35746
"47972",639.5384,75.877625,76.15059
"47973",639.5517,75.84833,75.99247
"47974",639.565,75.86786,75.88226
"47975",639.5783,75.914246,75.79952
"47976",639.5916,75.99237,75.74997
"47977",639.6049,76.085144,75.71751
"47978",639.6182,76.18524,75.69527
"47979",639.63153,76.282906,75.67372
"47980",639.64484,76.368355,75.64301
"47981",639.65814,76.42695,75.58812
"47982",639.67145,76.46113,75.51064
"47983",639.68475,76.473335,75.41226
"47984",639.69806,76.470894,75.299614
"47985",639.71136,76.453804,75.17224
"47986",639.7247,76.42695,75.03457
"47987",639.738,76.39033,74.88629
"47988",639.7513,76.34882,74.73199
"47989",639.7646,76.299995,74.56906
"47990",639.7779,76.25117,74.40461
"47991",639.7912,76.19501,74.2313
"47992",639.8045,76.1413,74.058685
"47993",639.8178,76.11444,73.91125
"47994",639.8311,76.209656,73.88504
"47995",639.8444,76.55634,74.11328
"47996",639.8577,77.28634,74.735664
"47997",639.87103,78.433815,75.79834
"47998",639.88434,79.91577,77.23135
"47999",639.89764,81.529564,78.842514
"48000",639.91095,83.018845,80.37959
"48001",639.92426,84.14679,81.601875
"48002",639.93756,84.79622,82.38089
"48003",639.95087,84.96712,82.70167
"48004",639.9642,84.749825,82.639595
"48005",639.9775,84.25422,82.29242
"48006",639.9908,83.59014,81.761284
"48007",640.0041,82.83574,81.11907
"48008",640.0174,82.037384,80.40933
"48009",640.0307,81.23659,79.6722
"48010",640.044,80.45533,78.92959
"48011",640.0573,79.72045,78.20894
"48012",640.0706,79.04906,77.52881
"48013",640.0839,78.487526,76.93756
"48014",640.0972,78.07248,76.47525
"48015",640.11053,77.838104,76.18064
"48016",640.12384,77.80881,76.083786
"48017",640.13715,77.98459,76.19109
"48018",640.15045,78.328835,76.47236
"48019",640.16376,78.77562,76.86692
"48020",640.17706,79.24437,77.29741
"48021",640.19037,79.65942,77.68884
"48022",640.2037,79.95972,77.9785
"48023",640.217,80.11841,78.13593
"48024",640.2303,80.1355,78.15672
"48025",640.2436,80.03296,78.05842
"48026",640.2569,79.84253,77.86902
"48027",640.2702,79.588615,77.61018
"48028",640.2835,79.29809,77.3068
"48029",640.2968,78.99046,76.97724
"48030",640.3101,78.6804,76.63563
"48031",640.3234,78.37278,76.28677
"48032",640.33673,78.07736,75.940506
"48033",640.35004,77.79172,75.59478
"48034",640.36334,77.53048,75.264534
"48035",640.37665,77.28878,74.94566
"48036",640.38995,77.083694,74.65585
"48037",640.40326,76.91524,74.39626
"48038",640.41656,76.79561,74.18024
"48039",640.4299,76.72236,74.00685
"48040",640.4432,76.697945,73.88001
"48041",640.4565,76.717476,73.79636
"48042",640.4698,76.77608,73.75238
"48043",640.4831,76.86641,73.74197
"48044",640.4964,76.98604,73.76367
"48045",640.5097,77.13008,73.81353
"48046",640.523,77.2839,73.87766
"48047",640.5363,77.435265,73.94415
"48048",640.5496,77.58175,74.01049
"48049",640.5629,77.71114,74.064316
"48050",640.57623,77.81369,74.09534
"48051",640.58954,77.89426,74.10758
"48052",640.60284,77.95773,74.105255
"48053",640.61615,78.00168,74.08538
"48054",640.62946,78.030975,74.05223
"48055",640.64276,78.04318,74.00291
"48056",640.65607,78.0383,73.936874
"48057",640.6694,78.013885,73.85116
"48058",640.6827,77.98215,73.757355
"48059",640.696,77.96506,73.67721
"48060",640.7093,78.02121,73.66977
"48061",640.7226,78.23117,73.817894
"48062",640.7359,78.66819,74.19964
"48063",640.7492,79.35424,74.84407
"48064",640.7625,80.24048,75.71013
"48065",640.7758,81.20729,76.684456
"48066",640.7891,82.09598,77.61087
"48067",640.8024,82.774704,78.355095
"48068",640.81573,83.15068,78.81778
"48069",640.82904,83.226364,78.99192
"48070",640.84235,83.0457,78.91208
"48071",640.85565,82.686806,78.64836
"48072",640.86896,82.21805,78.263565
"48073",640.88226,81.69558,77.81041
"48074",640.89557,81.1487,77.31651
"48075",640.9089,80.601814,76.80553
"48076",640.9222,80.076904,76.29942
"48077",640.9355,79.588615,75.81354
"48078",640.9488,79.15892,75.37099
"48079",640.9621,78.81468,75.000465
"48080",640.9754,78.57786,74.7266
"48081",640.9887,78.467995,74.572296
"48082",641.002,78.49485,74.55128
"48083",641.0153,78.658424,74.667816
"48084",641.0286,78.93675,74.90422
"48085",641.04193,79.29809,75.23233
"48086",641.05524,79.691154,75.60346
"48087",641.06854,80.06958,75.97224
"48088",641.08185,80.38697,76.2918
"48089",641.09515,80.621346,76.53827
"48090",641.10846,80.762955,76.699295
"48091",641.12177,80.816666,76.77685
"48092",641.1351,80.797134,76.78284
"48093",641.1484,80.709236,76.71985
"48094",641.1617,80.5774,76.610176
"48095",641.175,80.41627,76.46709
"48096",641.1883,80.24048,76.304306
"48097",641.2016,80.05737,76.128716
"48098",641.2149,79.87915,75.952286
"48099",641.2282,79.7058,75.77516
"48100",641.2415,79.54223,75.602394
"48101",641.2548,79.38598,75.43184
"48102",641.2681,79.23949,75.26616
"48103",641.28143,79.10277,75.105675
"48104",641.29474,78.98314,74.95801
"48105",641.30804,78.88548,74.828575
"48106",641.32135,78.8098,74.71806
"48107",641.33466,78.75853,74.6296
"48108",641.34796,78.729225,74.5615
"48109",641.36127,78.7219,74.514465
"48110",641.3746,78.729225,74.48185
"48111",641.3879,78.74876,74.46167
"48112",641.4012,78.785385,74.4592
"48113",641.4145,78.839096,74.47495
"48114",641.4278,78.907455,74.507034
"48115",641.4411,78.98314,74.54858
"48116",641.4544,79.061264,74.594925
"48117",641.4677,79.132065,74.63639
"48118",641.481,79.19554,74.672745
"48119",641.4943,79.281,74.73306
"48120",641.5076,79.46166,74.89126
"48121",641.52094,79.83765,75.25042
"48122",641.53424,80.48463,75.89233
"48123",641.54755,81.409935,76.83278
"48124",641.56085,82.52323,77.990135
"48125",641.57416,83.6585,79.204254
"48126",641.58746,84.62043,80.28051
"48127",641.60077,85.25521,81.05968
"48128",641.6141,85.50179,81.47048
"48129",641.6274,85.39193,81.53255
"48130",641.6407,85.01839,81.3275
"48131",641.654,84.47883,80.94476
"48132",641.6673,83.85626,80.46216
"48133",641.6806,83.20439,79.93079
"48134",641.6939,82.55985,79.38639
"48135",641.7072,81.934845,78.84138
"48136",641.7205,81.341576,78.30857
"48137",641.7338,80.780045,77.78896
"48138",641.74713,80.26002,77.29331
"48139",641.76044,79.79614,76.83756
"48140",641.77374,79.41039,76.44544
"48141",641.78705,79.132065,76.14869
"48142",641.80035,78.992905,75.98241
"48143",641.81366,79.01976,75.97779
"48144",641.82697,79.21507,76.14247
"48145",641.8403,79.554436,76.457306
"48146",641.8536,79.98901,76.87796
"48147",641.8669,80.45777,77.346375
"48148",641.8802,80.89235,77.79526
"48149",641.8935,81.23659,78.16738
"48150",641.9068,81.46609,78.435524
"48151",641.9201,81.566185,78.581436
"48152",641.9334,81.549095,78.61329
"48153",641.9467,81.43679,78.54939
"48154",641.96,81.253685,78.41119
"48155",641.9733,81.02174,78.21842
"48156",641.98663,80.762955,77.99156
"48157",641.99994,80.499275,77.751724
"48158",642.01324,80.233154,77.501205
"48159",642.02655,79.98413,77.25947
"48160",642.03986,79.74975,77.02459
"48161",642.05316,79.52514,76.79216
"48162",642.06647,79.31762,76.5698
"48163",642.0798,79.132065,76.36292
"48164",642.0931,78.96849,76.172226
"48165",642.1064,78.836655,76.008156
"48166",642.1197,78.73655,75.8717
"48167",642.133,78.66331,75.75897
"48168",642.1463,78.61692,75.670815
"48169",642.1596,78.59739,75.60806
"48170",642.1729,78.59983,75.56667
"48171",642.1862,78.626686,75.549774
"48172",642.1995,78.677956,75.55813
"48173",642.2128,78.75365,75.59251
"48174",642.22614,78.84642,75.64633
"48175",642.23944,78.94896,75.71282
"48176",642.25275,79.0515,75.78252
"48177",642.26605,79.14671,75.84809
"48178",642.27936,79.22728,75.90199
"48179",642.29266,79.290764,75.94133
"48180",642.30597,79.35424,75.98264
"48181",642.3193,79.483635,76.09186
"48182",642.3326,79.781494,76.37358
"48183",642.3459,80.365,76.95026
"48184",642.3592,81.27322,77.86988
"48185",642.3725,82.45243,79.08888
"48186",642.3858,83.73907,80.452156
"48187",642.3991,84.91829,81.74822
"48188",642.4124,85.785,82.76863
"48189",642.4257,86.2269,83.391304
"48190",642.439,86.24887,83.607864
"48191",642.45233,85.93881,83.49308
"48192",642.46564,85.399254,83.13911
"48193",642.47894,84.72541,82.63399
"48194",642.49225,83.99054,82.04678
"48195",642.50555,83.245895,81.42684
"48196",642.51886,82.52567,80.80805
"48197",642.53217,81.849396,80.2107
"48198",642.5455,81.24635,79.66545
"48199",642.5588,80.72144,79.17949
"48200",642.5721,80.27711,78.7577
"48201",642.5854,79.90845,78.3977
"48202",642.5987,79.63012,78.11651
"48203",642.612,79.45922,77.93405
"48204",642.6253,79.41772,77.87565
"48205",642.6386,79.5227,77.96243
"48206",642.6519,79.77905,78.20387
"48207",642.6652,80.15259,78.5705
"48208",642.6785,80.58228,79.00497
"48209",642.69183,80.99733,79.43821
"48210",642.70514,81.33181,79.803856
"48211",642.71844,81.54177,80.055435
"48212",642.73175,81.61257,80.174416
"48213",642.74506,81.5613,80.17354
"48214",642.75836,81.40749,80.06852
"48215",642.77167,81.180435,79.885445
"48216",642.785,80.907,79.648895
"48217",642.7983,80.604256,79.3745
"48218",642.8116,80.289314,79.07844
"48219",642.8249,79.97925,78.77741
"48220",642.8382,79.68627,78.48379
"48221",642.8515,79.412834,78.20055
"48222",642.8648,79.1638,77.93317
"48223",642.8781,78.941635,77.68487
"48224",642.8914,78.74876,77.458916
"48225",642.9047,78.58518,77.25624
"48226",642.918,78.45579,77.082634
"48227",642.93134,78.365456,76.944046
"48228",642.94464,78.32151,76.84902
"48229",642.95795,78.314186,76.789246
"48230",642.97125,78.3386,76.76098
"48231",642.98456,78.39475,76.76521
"48232",642.99786,78.46555,76.78585
"48233",643.01117,78.551,76.82335
"48234",643.0245,78.64622,76.87328
"48235",643.0378,78.751205,76.93597
"48236",643.0511,78.8513,76.99704
"48237",643.0644,78.94408,77.05392
"48238",643.0777,79.027084,77.10393
"48239",643.091,79.08568,77.13212
"48240",643.1043,79.1223,77.14017
"48241",643.1176,79.14671,77.13715
"48242",643.1309,79.20775,77.171524
"48243",643.1442,79.398186,77.337204
"48244",643.15753,79.83765,77.75786
"48245",643.17084,80.59449,78.50963
"48246",643.18414,81.64187,79.575584
"48247",643.19745,82.85283,80.83785
"48248",643.21075,84.02472,82.09889
"48249",643.22406,84.945145,83.14509
"48250",643.23737,85.470055,83.82453
"48251",643.2507,85.57015,84.095566
"48252",643.264,85.31136,84.01084
"48253",643.2773,84.8011,83.66656
"48254",643.2906,84.14191,83.157394
"48255",643.3039,83.421684,82.566605
"48256",643.3172,82.69901,81.95086
"48257",643.3305,82.005646,81.341835
"48258",643.3438,81.373314,80.77218
"48259",643.3571,80.82155,80.26333
"48260",643.3704,80.35767,79.82513
"48261",643.3837,79.98901,79.46764
"48262",643.39703,79.710686,79.18897
"48263",643.41034,79.520256,78.9895
"48264",643.42365,79.432365,78.88662
"48265",643.43695,79.4519,78.88841
"48266",643.45026,79.59106,79.010445
"48267",643.46356,79.84253,79.24914
"48268",643.47687,80.17456,79.57625
"48269",643.4902,80.533455,79.9406
"48270",643.5035,80.86061,80.284424
"48271",643.5168,81.10719,80.5579
"48272",643.5301,81.24147,80.726776
"48273",643.5434,81.25613,80.78023
"48274",643.5567,81.163345,80.7267
"48275",643.57,80.98512,80.58483
"48276",643.5833,80.7483,80.37879
"48277",643.5966,80.4773,80.13118
"48278",643.6099,80.18921,79.858
"48279",643.6232,79.89868,79.57339
"48280",643.63654,79.61791,79.28945
"48281",643.64984,79.344475,79.004074
"48282",643.66315,79.097885,78.737
"48283",643.67645,78.87816,78.48908
"48284",643.68976,78.695045,78.27091
"48285",643.70306,78.54368,78.078766
"48286",643.7164,78.43137,77.92095
"48287",643.7297,78.348366,77.788925
"48288",643.743,78.29954,77.688484
"48289",643.7563,78.28001,77.615814
"48290",643.7696,78.28977,77.57183
"48291",643.7829,78.331276,77.55989
"48292",643.7962,78.40208,77.578545
"48293",643.8095,78.48997,77.6165
"48294",643.8228,78.58274,77.66209
"48295",643.8361,78.677956,77.71301
"48296",643.8494,78.768295,77.76204
"48297",643.86273,78.84886,77.804115
"48298",643.87604,78.91478,77.83406
"48299",643.88934,78.96605,77.85142
"48300",643.90265,79.00267,77.85573
"48301",643.91595,79.02464,77.846535
"48302",643.92926,79.027084,77.8185
"48303",643.94257,79.0222,77.78321
"48304",643.9559,79.04906,77.77951
"48305",643.9692,79.18089,77.88163
"48306",643.9825,79.534904,78.210045
"48307",643.9958,80.18921,78.849815
"48308",644.0091,81.13893,79.80545
"48309",644.0224,82.27665,80.97876
"48310",644.0357,83.404594,82.17785
"48311",644.049,84.317696,83.19734
"48312",644.0623,84.859695,83.87427
"48313",644.0756,84.98665,84.15308
"48314",644.0889,84.76204,84.084305
"48315",644.10223,84.283516,83.75459
"48316",644.11554,83.65362,83.25855
"48317",644.12885,82.95537,82.67448
"48318",644.14215,82.25468,82.06614
"48319",644.15546,81.59304,81.47496
"48320",644.16876,81.007095,80.9388
"48321",644.18207,80.51392,80.4771
"48322",644.1954,80.12329,80.10252
"48323",644.2087,79.83032,79.81341
"48324",644.222,79.63012,79.6079
"48325",644.2353,79.5227,79.48892
"48326",644.2486,79.51537,79.46668
"48327",644.2619,79.61303,79.549194
"48328",644.2752,79.82056,79.74463
"48329",644.2885,80.11841,80.03687
"48330",644.3018,80.46998,80.39214
"48331",644.3151,80.816666,80.75352
"48332",644.3284,81.109634,81.07201
"48333",644.34174,81.304955,81.302
"48334",644.35504,81.3782,81.41602
"48335",644.36835,81.33425,81.415146
"48336",644.38165,81.18288,81.305466
"48337",644.39496,80.9485,81.108055
"48338",644.40826,80.655525,80.84472
"48339",644.4216,80.3357,80.54538
"48340",644.4349,80.0061,80.22627
"48341",644.4482,79.68871,79.90907
"48342",644.4615,79.3933,79.603935
"48343",644.4748,79.12718,79.318855
"48344",644.4881,78.90013,79.06453
"48345",644.5014,78.709694,78.83972
"48346",644.5147,78.555885,78.64559
"48347",644.528,78.44358,78.48816
"48348",644.5413,78.37034,78.36628
"48349",644.5546,78.331276,78.27629
"48350",644.56793,78.328835,78.2217
"48351",644.58124,78.348366,78.18901
"48352",644.59454,78.38499,78.17402
"48353",644.60785,78.43626,78.17482
"48354",644.62115,78.49729,78.18699
"48355",644.63446,78.56321,78.20595
"48356",644.64777,78.63401,78.23185
"48357",644.6611,78.70481,78.259964
"48358",644.6744,78.77318,78.28786
"48359",644.6877,78.82933,78.30567
"48360",644.701,78.873276,78.313034
"48361",644.7143,78.905014,78.30956
"48362",644.7276,78.91966,78.28999
"48363",644.7409,78.91966,78.25623
"48364",644.7542,78.90013,78.20294
"48365",644.7675,78.86839,78.13683
"48366",644.7808,78.82933,78.06241
"48367",644.7941,78.83421,78.03071
"48368",644.80743,78.9807,78.14076
"48369",644.82074,79.381096,78.50931
"48370",644.83405,80.1062,79.21507
"48371",644.84735,81.11696,80.22915
"48372",644.86066,82.27177,81.41886
"48373",644.87396,83.36309,82.58118
"48374",644.88727,84.18097,83.50415
"48375",644.9006,84.593575,84.04741
"48376",644.9139,84.58869,84.18607
"48377",644.9272,84.242004,83.98278
"48378",644.9405,83.66338,83.53672
"48379",644.9538,82.96025,82.94807
"48380",644.9671,82.21805,82.29837
"48381",644.9804,81.50027,81.6499
"48382",644.9937,80.850845,81.04736
"48383",645.007,80.31129,80.53439
"48384",645.0203,79.886475,80.11931
"48385",645.0336,79.57397,79.80325
"48386",645.04694,79.36645,79.58242
"48387",645.06024,79.256584,79.45276
"48388",645.07355,79.237045,79.40999
"48389",645.08685,79.31762,79.46672
"48390",645.10016,79.49584,79.62362
"48391",645.11346,79.75464,79.86666
"48392",645.1268,80.06958,80.173935
"48393",645.1401,80.39185,80.49838
"48394",645.1534,80.66529,80.784065
"48395",645.1667,80.85329,80.99285
"48396",645.18,80.936295,81.10252
"48397",645.1933,80.91188,81.10737
"48398",645.2066,80.78981,81.013794
"48399",645.2199,80.59937,80.84804
"48400",645.2332,80.35523,80.62263
"48401",645.2465,80.08179,80.36028
"48402",645.2598,79.79126,80.07231
"48403",645.27313,79.50317,79.777695
"48404",645.28644,79.237045,79.49605
"48405",645.29974,79.00267,79.23783
"48406",645.31305,78.802475,79.00647
"48407",645.32635,78.6511,78.81767
"48408",645.33966,78.54124,78.66566
"48409",645.35297,78.46555,78.54439
"48410",645.3663,78.416725,78.44761
"48411",645.3796,78.399635,78.38104
"48412",645.3929,78.40208,78.33347
"48413",645.4062,78.42405,78.30551
"48414",645.4195,78.467995,78.30021
"48415",645.4328,78.52903,78.31337
"48416",645.4461,78.60471,78.34309
"48417",645.4594,78.68772,78.38249
"48418",645.4727,78.768295,78.42206
"48419",645.486,78.84398,78.45925
"48420",645.4993,78.91234,78.491486
"48421",645.51263,78.96849,78.51365
"48422",645.52594,79.009995,78.52292
"48423",645.53925,79.04173,78.52372
"48424",645.55255,79.05638,78.50842
"48425",645.56586,79.05882,78.48138
"48426",645.57916,79.04906,78.4422
"48427",645.59247,79.027084,78.39051
"48428",645.6058,78.992905,78.32593
"48429",645.6191,78.97826,78.27981
"48430",645.6324,79.04906,78.31868
"48431",645.6457,79.31518,78.555084
"48432",645.659,79.871826,79.09033
"48433",645.6723,80.726326,79.94083
"48434",645.6856,81.78836,81.02556
"48435",645.6989,82.88701,82.18009
"48436",645.7122,83.807434,83.190735
"48437",645.7255,84.38361,83.885895
"48438",645.73883,84.54719,84.186455
"48439",645.75214,84.33723,84.11859
"48440",645.76544,83.85382,83.77072
"48441",645.77875,83.20439,83.24172
"48442",645.79205,82.49149,82.62896
"48443",645.80536,81.78836,82.003685
"48444",645.81866,81.146255,81.417465
"48445",645.832,80.604256,80.911285
"48446",645.8453,80.177,80.502914
"48447",645.8586,79.85962,80.19106
"48448",645.8719,79.64477,79.971825
"48449",645.8852,79.517815,79.83377
"48450",645.8985,79.483635,79.78452
"48451",645.9118,79.537346,79.8221
"48452",645.9251,79.68383,79.954124
"48453",645.9384,79.91333,80.173744
"48454",645.9517,80.19409,80.4518
"48455",645.965,80.48951,80.75328
"48456",645.97833,80.7483,81.02737
"48457",645.99164,80.938736,81.24119
"48458",646.00494,81.02907,81.360855
"48459",646.01825,81.02174,81.38569
"48460",646.03156,80.919205,81.31508
"48461",646.04486,80.73853,81.16313
"48462",646.05817,80.50172,80.949394
"48463",646.0715,80.235596,80.69895
"48464",646.0848,79.957275,80.42799
"48465",646.0981,79.68383,80.15321
"48466",646.1114,79.432365,79.89187
"48467",646.1247,79.20775,79.64951
"48468",646.138,79.01976,79.43677
"48469",646.1513,78.86595,79.25233
"48470",646.1646,78.751205,79.10214
"48471",646.1779,78.66819,78.9801
"48472",646.1912,78.61692,78.887215
"48473",646.2045,78.59495,78.82202
"48474",646.21783,78.59983,78.783
"48475",646.23114,78.626686,78.7661
"48476",646.24445,78.67307,78.76957
"48477",646.25775,78.73411,78.78914
"48478",646.27106,78.80003,78.815506
"48479",646.28436,78.870834,78.84881
"48480",646.29767,78.93919,78.88188
"48481",646.311,79.00511,78.91465
"48482",646.3243,79.061264,78.93971
"48483",646.3376,79.10521,78.95432
"48484",646.3509,79.13695,78.9581
"48485",646.3642,79.15892,78.9531
"48486",646.3775,79.17113,78.939026
"48487",646.3908,79.17357,78.915565
"48488",646.4041,79.17113,78.8873
"48489",646.4174,79.15892,78.84919
"48490",646.4307,79.132065,78.79605
"48491",646.44403,79.093,78.729866
"48492",646.45734,79.04173,78.65025
"48493",646.47064,78.98314,78.561714
"48494",646.48395,78.93675,78.48355
"48495",646.49725,78.97093,78.484505
"48496",646.51056,79.19066,78.67207
"48497",646.52386,79.70336,79.159485
