"","Time..s.","PPG.trace","Preprocessed.PPG"
"64087",863.8132,85.11604,194.08064
"64088",863.8265,84.49592,193.62039
"64089",863.8398,83.949036,193.214
"64090",863.8531,83.46807,192.85645
"64091",863.8664,83.03349,192.53024
"64092",863.8797,82.64042,192.23196
"64093",863.893,82.2913,191.96536
"64094",863.9063,82.01053,191.7562
"64095",863.9196,81.832306,191.64081
"64096",863.9329,81.761505,191.62727
"64097",863.9462,81.795685,191.7165
"64098",863.95953,81.898224,191.87517
"64099",863.97284,82.03006,192.06633
"64100",863.98615,82.14725,192.24696
"64101",863.99945,82.20584,192.37267
"64102",864.01276,82.16922,192.40498
"64103",864.02606,82.022736,192.3263
"64104",864.03937,81.76395,192.13072
"64105",864.0527,81.40505,191.82695
"64106",864.066,80.972916,191.43872
"64107",864.0793,80.50904,191.00525
"64108",864.0926,80.042725,190.55484
"64109",864.1059,79.59838,190.11183
"64110",864.1192,79.1931,189.694
"64111",864.1325,78.84154,189.31721
"64112",864.1458,78.54612,188.9856
"64113",864.1591,78.29954,188.69357
"64114",864.1724,78.099335,188.44023
"64115",864.1857,77.9382,188.2197
"64116",864.19904,77.81125,188.0283
"64117",864.21234,77.7087,187.85736
"64118",864.22565,77.63302,187.71007
"64119",864.23895,77.576866,187.57994
"64120",864.25226,77.54269,187.47003
"64121",864.26556,77.51583,187.36638
"64122",864.2789,77.4963,187.26921
"64123",864.2922,77.47433,187.16899
"64124",864.3055,77.45724,187.07297
"64125",864.3188,77.43282,186.96909
"64126",864.3321,77.40597,186.862
"64127",864.3454,77.37179,186.74675
"64128",864.3587,77.332726,186.62555
"64129",864.372,77.2839,186.49336
"64130",864.3853,77.23018,186.35477
"64131",864.3986,77.171585,186.20961
"64132",864.4119,77.11055,186.06018
"64133",864.42523,77.049515,185.90884
"64134",864.43854,76.9836,185.75072
"64135",864.45184,76.91524,185.58809
"64136",864.46515,76.84688,185.42332
"64137",864.47845,76.78584,185.26375
"64138",864.49176,76.72724,185.1047
"64139",864.50507,76.67841,184.9536
"64140",864.5184,76.63935,184.81073
"64141",864.5317,76.61494,184.68129
"64142",864.545,76.60029,184.56085
"64143",864.5583,76.595406,184.44972
"64144",864.5716,76.59785,184.34576
"64145",864.5849,76.60517,184.24677
"64146",864.5982,76.60761,184.14311
"64147",864.6115,76.60761,184.0371
"64148",864.6248,76.60029,183.92375
"64149",864.6381,76.59052,183.80774
"64150",864.6514,76.575874,183.68654
"64151",864.66473,76.57099,183.57465
"64152",864.67804,76.592964,183.48946
"64153",864.69135,76.697945,183.48796
"64154",864.70465,76.96895,183.65578
"64155",864.71796,77.51095,184.10306
"64156",864.73126,78.382545,184.89687
"64157",864.74457,79.57885,186.04262
"64158",864.7579,81.01198,187.46259
"64159",864.7712,82.513466,188.9957
"64160",864.7845,83.88556,190.44633
"64161",864.7978,84.95735,191.63956
"64162",864.8111,85.63607,192.47319
"64163",864.8244,85.90463,192.91788
"64164",864.8377,85.80209,192.99986
"64165",864.851,85.40902,192.7881
"64166",864.8643,84.840164,192.38828
"64167",864.8776,84.19806,191.89743
"64168",864.8909,83.56817,191.39873
"64169",864.90424,82.99931,190.94138
"64170",864.91754,82.51591,190.5517
"64171",864.93085,82.11063,190.22504
"64172",864.94415,81.75418,189.93456
"64173",864.95746,81.427025,189.66222
"64174",864.97076,81.12184,189.40163
"64175",864.9841,80.85573,189.17058
"64176",864.9974,80.65064,188.99223
"64177",865.0107,80.52857,188.8905
"64178",865.024,80.48707,188.86552
"64179",865.0373,80.50904,188.90273
"64180",865.0506,80.55787,188.96747
"64181",865.0639,80.59693,189.02397
"64182",865.0772,80.58961,189.03531
"64183",865.0905,80.50904,188.97318
"64184",865.1038,80.34547,188.82552
"64185",865.1171,80.09888,188.58972
"64186",865.13043,79.77661,188.27054
"64187",865.14374,79.40063,187.88757
"64188",865.15704,78.995346,187.46356
"64189",865.17035,78.590065,187.02689
"64190",865.18365,78.204315,186.59708
"64191",865.19696,77.857635,186.19427
"64192",865.21027,77.55978,185.82947
"64193",865.2236,77.30587,185.4993
"64194",865.2369,77.09834,185.20758
"64195",865.2502,76.93233,184.95088
"64196",865.2635,76.80293,184.72562
"64197",865.2768,76.697945,184.52072
"64198",865.2901,76.61738,184.33696
"64199",865.3034,76.5539,184.16777
"64200",865.3167,76.50507,184.01125
"64201",865.33,76.456245,183.8532
"64202",865.3433,76.385445,183.67165
"64203",865.3566,76.28535,183.45859
"64204",865.36993,76.14862,183.20578
"64205",865.38324,75.98749,182.92429
"64206",865.39655,75.81415,182.62555
"64207",865.40985,75.63836,182.31895
"64208",865.42316,75.46746,182.01175
"64209",865.43646,75.29656,181.6992
"64210",865.44977,75.13054,181.3862
"64211",865.4631,74.97917,181.08266
"64212",865.4764,74.85222,180.7988
"64213",865.4897,74.77165,180.55736
"64214",865.503,74.74967,180.372
"64215",865.5163,74.77898,180.23723
"64216",865.5296,74.85222,180.14731
"64217",865.5429,74.95476,180.08897
"64218",865.5562,75.0695,180.04605
"64219",865.5695,75.18913,180.0116
"64220",865.5828,75.31121,179.98334
"64221",865.5961,75.43572,179.96132
"64222",865.60944,75.562675,179.94563
"64223",865.62274,75.69695,179.94124
"64224",865.63605,75.83368,179.9435
"64225",865.64935,75.96796,179.94757
"64226",865.66266,76.087585,179.9412
"64227",865.67596,76.19501,179.92635
"64228",865.6893,76.29267,179.9051
"64229",865.7026,76.37812,179.8747
"64230",865.7159,76.45869,179.84207
"64231",865.7292,76.53681,179.80952
"64232",865.7425,76.63447,179.79895
"64233",865.7558,76.78584,179.84515
"64234",865.7691,77.06172,180.02058
"64235",865.7824,77.53536,180.4024
"64236",865.7957,78.260475,181.05049
"64237",865.809,79.21019,181.94585
"64238",865.8223,80.31129,183.02226
"64239",865.83563,81.43191,184.15262
"64240",865.84894,82.41825,185.18372
"64241",865.86224,83.1458,185.98683
"64242",865.87555,83.563286,186.50262
"64243",865.88885,83.67559,186.72629
"64244",865.90216,83.529106,186.69467
"64245",865.91547,83.20683,186.48268
"64246",865.9288,82.794235,186.1703
"64247",865.9421,82.36942,185.83281
"64248",865.9554,81.986115,185.52354
"64249",865.9687,81.67849,185.27798
"64250",865.982,81.45388,185.10583
"64251",865.9953,81.287865,184.98526
"64252",866.0086,81.15846,184.8961
"64253",866.0219,81.041275,184.81512
"64254",866.0352,80.92897,184.73537
"64255",866.0485,80.82399,184.65942
"64256",866.0618,80.75075,184.61194
"64257",866.07513,80.72877,184.61342
"64258",866.08844,80.76051,184.66794
"64259",866.10175,80.831314,184.76251
"64260",866.11505,80.921646,184.87883
"64261",866.12836,80.99489,184.98088
"64262",866.14166,81.02907,185.04616
"64263",866.15497,81.00954,185.05879
"64264",866.1683,80.92409,185.0049
"64265",866.1816,80.77272,184.88242
"64266",866.1949,80.567635,184.70148
"64267",866.2082,80.323494,184.47508
"64268",866.2215,80.06714,184.22884
"64269",866.2348,79.82056,183.98434
"64270",866.2481,79.603264,183.76144
"64271",866.2614,79.42504,183.57082
"64272",866.2747,79.28588,183.41368
"64273",866.288,79.17357,183.27905
"64274",866.30133,79.08324,183.16289
"64275",866.31464,79.00755,183.05855
"64276",866.32794,78.9514,182.97137
"64277",866.34125,78.907455,182.89465
"64278",866.35455,78.873276,182.82632
"64279",866.36786,78.84886,182.7667
"64280",866.38116,78.82689,182.70874
"64281",866.3945,78.8098,182.65498
"64282",866.4078,78.80003,182.60802
"64283",866.4211,78.78783,182.5583
"64284",866.4344,78.77318,182.50577
"64285",866.4477,78.74876,182.44301
"64286",866.461,78.71702,182.37216
"64287",866.4743,78.677956,182.293
"64288",866.4876,78.63645,182.21017
"64289",866.5009,78.59495,182.12605
"64290",866.5142,78.55833,182.04552
"64291",866.5275,78.52903,181.97116
"64292",866.54083,78.502174,181.89833
"64293",866.55414,78.48264,181.83199
"64294",866.56744,78.46555,181.76747
"64295",866.58075,78.45335,181.7073
"64296",866.59406,78.4387,181.64432
"64297",866.60736,78.42649,181.58331
"64298",866.62067,78.41917,181.52681
"64299",866.634,78.41428,181.47252
"64300",866.6473,78.41428,181.42296
"64301",866.6606,78.416725,181.37584
"64302",866.6739,78.42405,181.33368
"64303",866.6872,78.433815,181.29419
"64304",866.7005,78.44846,181.25989
"64305",866.7138,78.467995,181.23093
"64306",866.7271,78.49485,181.2099
"64307",866.7404,78.54124,181.20924
"64308",866.7537,78.62913,181.25154
"64309",866.767,78.82201,181.40158
"64310",866.78033,79.18089,181.72365
"64311",866.79364,79.74731,182.26447
"64312",866.80695,80.51148,183.02074
"64313",866.82025,81.3904,183.91565
"64314",866.83356,82.25956,184.82826
"64315",866.84686,82.984665,185.62398
"64316",866.86017,83.46563,186.19821
"64317",866.8735,83.66338,186.50427
"64318",866.8868,83.59991,186.55528
"64319",866.9001,83.34356,186.41144
"64320",866.9134,82.97246,186.14482
"64321",866.9267,82.55985,185.8251
"64322",866.94,82.1741,185.51935
"64323",866.9533,81.85916,185.27235
"64324",866.9666,81.6321,185.1034
"64325",866.9799,81.47585,184.99815
"64326",866.9932,81.36843,184.93686
"64327",867.00653,81.28054,184.89174
"64328",867.01984,81.19264,184.84386
"64329",867.03314,81.09987,184.78836
"64330",867.04645,81.0193,184.74217
"64331",867.05975,80.970474,184.7252
"64332",867.07306,80.970474,184.75554
"64333",867.08636,81.01686,184.83226
"64334",867.0997,81.094986,184.94217
"64335",867.113,81.18288,185.06429
"64336",867.1263,81.25613,185.1745
"64337",867.1396,81.29275,185.25038
"64338",867.1529,81.27566,185.2737
"64339",867.1662,81.197525,185.23543
"64340",867.1795,81.06325,185.13858
"64341",867.1928,80.89235,185.00092
"64342",867.2061,80.69947,184.83592
"64343",867.2194,80.50904,184.66736
"64344",867.2327,80.34058,184.51482
"64345",867.24603,80.19653,184.38141
"64346",867.25934,80.079346,184.27036
"64347",867.27264,79.98413,184.17761
"64348",867.28595,79.91333,184.10632
"64349",867.29926,79.86206,184.05234
"64350",867.31256,79.82544,184.01141
"64351",867.32587,79.801025,183.98154
"64352",867.3392,79.78882,183.9631
"64353",867.3525,79.77905,183.94675
"64354",867.3658,79.77417,183.93497
"64355",867.3791,79.77173,183.92548
"64356",867.3924,79.76929,183.9159
"64357",867.4057,79.76929,183.90869
"64358",867.419,79.76929,183.90149
"64359",867.4323,79.764404,183.8894
"64360",867.4456,79.7522,183.86984
"64361",867.4589,79.7351,183.845
"64362",867.4722,79.71313,183.81474
"64363",867.48553,79.68627,183.77892
"64364",867.49884,79.65942,183.74225
"64365",867.51215,79.635,183.70718
"64366",867.52545,79.61303,183.6738
"64367",867.53876,79.588615,183.63728
"64368",867.55206,79.5642,183.6
"64369",867.56537,79.54223,183.5644
"64370",867.5787,79.5227,183.53056
"64371",867.592,79.50805,183.50099
"64372",867.6053,79.49828,183.47585
"64373",867.6186,79.49584,183.45772
"64374",867.6319,79.4934,183.43951
"64375",867.6452,79.49828,183.42856
"64376",867.6585,79.50561,183.4202
"64377",867.6718,79.520256,183.41939
"64378",867.6851,79.54467,183.4288
"64379",867.6984,79.57397,183.44386
"64380",867.71173,79.60082,183.4574
"64381",867.72504,79.62035,183.46445
"64382",867.73834,79.63012,183.46234
"64383",867.75165,79.62768,183.44833
"64384",867.76495,79.62035,183.42937
"64385",867.77826,79.61303,183.41017
"64386",867.79156,79.605705,183.39075
"64387",867.8049,79.605705,183.37842
"64388",867.8182,79.61547,183.37585
"64389",867.8315,79.66674,183.4151
"64390",867.8448,79.81079,183.54874
"64391",867.8581,80.12329,183.85532
"64392",867.8714,80.63355,184.36943
"64393",867.8847,81.33425,185.08994
"64394",867.898,82.144806,185.94218
"64395",867.9113,82.94072,186.80513
"64396",867.9246,83.58282,187.53912
"64397",867.9379,83.97345,188.04172
"64398",867.95123,84.08087,188.27332
"64399",867.96454,83.93927,188.25925
"64400",867.97784,83.60723,188.05031
"64401",867.99115,83.175095,187.7309
"64402",868.00446,82.7161,187.37112
"64403",868.01776,82.29618,187.03609
"64404",868.03107,81.95926,186.77092
"64405",868.0444,81.72488,186.59776
"64406",868.0577,81.583275,186.51007
"64407",868.071,81.50759,186.48387
"64408",868.0843,81.45388,186.47728
"64409",868.0976,81.3904,186.45924
"64410",868.1109,81.31228,186.42458
"64411",868.1242,81.231705,186.38501
"64412",868.1375,81.17067,186.36247
"64413",868.1508,81.143814,186.37221
"64414",868.1641,81.15602,186.42017
"64415",868.1774,81.20485,186.50513
"64416",868.19073,81.26833,186.60626
"64417",868.20404,81.3196,186.69717
"64418",868.21735,81.34402,186.76283
"64419",868.23065,81.32693,186.78775
"64420",868.24396,81.25857,186.76086
"64421",868.25726,81.13893,186.68056
"64422",868.27057,80.987564,186.56479
"64423",868.2839,80.81178,186.41988
"64424",868.2972,80.63111,186.26457
"64425",868.3105,80.45777,186.11096
"64426",868.3238,80.30396,185.97147
"64427",868.3371,80.177,185.854
"64428",868.3504,80.076904,185.75943
"64429",868.3637,80.0061,185.69104
"64430",868.377,79.96216,185.64728
"64431",868.3903,79.9353,185.61923
"64432",868.4036,79.923096,185.60501
"64433",868.41693,79.920654,185.60016
"64434",868.43024,79.923096,185.60013
"64435",868.44354,79.92798,185.6026
"64436",868.45685,79.93042,185.60278
"64437",868.47015,79.92554,185.59573
"64438",868.48346,79.91821,185.58609
"64439",868.49677,79.91089,185.5762
"64440",868.5101,79.903564,185.5661
"64441",868.5234,79.8938,185.55331
"64442",868.5367,79.886475,185.54266
"64443",868.55,79.871826,185.52448
"64444",868.5633,79.84985,185.4985
"64445",868.5766,79.818115,185.46207
"64446",868.5899,79.783936,185.42221
"64447",868.6032,79.74975,185.38127
"64448",868.6165,79.710686,185.33438
"64449",868.6298,79.67162,185.28627
"64450",868.6431,79.63012,185.2345
"64451",868.65643,79.59106,185.18387
"64452",868.66974,79.551994,185.13202
"64453",868.68304,79.520256,185.08627
"64454",868.69635,79.4934,185.04442
"64455",868.70966,79.47143,185.0066
"64456",868.72296,79.45434,184.97299
"64457",868.73627,79.44213,184.94373
"64458",868.7496,79.432365,184.91652
"64459",868.7629,79.42748,184.89389
"64460",868.7762,79.42748,184.87599
"64461",868.7895,79.42504,184.85565
"64462",868.8028,79.41772,184.83035
"64463",868.8161,79.40795,184.80238
"64464",868.8294,79.38842,184.76434
"64465",868.8427,79.36889,184.7257
"64466",868.856,79.34936,184.68643
"64467",868.8693,79.34936,184.66609
"64468",868.8826,79.398186,184.69458
"64469",868.89594,79.55932,184.8369
"64470",868.90924,79.888916,185.15273
"64471",868.92255,80.42359,185.68393
"64472",868.93585,81.13161,186.40518
"64473",868.94916,81.9324,187.24135
"64474",868.96246,82.68925,188.05858
"64475",868.97577,83.2752,188.72858
"64476",868.9891,83.60479,189.16052
"64477",869.0024,83.66094,189.32933
"64478",869.0157,83.48028,189.26308
"64479",869.029,83.13359,189.02515
"64480",869.0423,82.70634,188.69582
"64481",869.0556,82.26444,188.3385
"64482",869.0689,81.86893,188.01375
"64483",869.0822,81.55886,187.76208
"64484",869.0955,81.35134,187.60329
"64485",869.1088,81.22194,187.51611
"64486",869.12213,81.15114,187.4835
"64487",869.13544,81.10231,187.47066
"64488",869.14874,81.04616,187.44896
"64489",869.16205,80.972916,187.40842
"64490",869.17535,80.89723,187.36314
"64491",869.18866,80.8362,187.33015
"64492",869.20197,80.80934,187.32944
"64493",869.2153,80.82155,187.36694
"64494",869.2286,80.87038,187.44145
"64495",869.2419,80.936295,187.53458
"64496",869.2552,80.99489,187.62244
"64497",869.2685,81.024185,187.68283
"64498",869.2818,81.007095,187.69775
"64499",869.2951,80.938736,187.66087
"64500",869.3084,80.81911,187.57059
"64501",869.3217,80.66041,187.43748
"64502",869.335,80.482185,187.2799
"64503",869.3483,80.29664,187.10944
"64504",869.36163,80.11841,186.94048
"64505",869.37494,79.96704,186.79282
"64506",869.38824,79.84985,186.67459
"64507",869.40155,79.77173,186.59177
"64508",869.41486,79.73266,186.54556
"64509",869.42816,79.71801,186.52255
"64510",869.44147,79.71313,186.50885
"64511",869.4548,79.70092,186.48767
"64512",869.4681,79.674065,186.45146
"64513",869.4814,79.639885,186.40709
"64514",869.4947,79.59838,186.35432
"64515",869.508,79.5642,186.30759
"64516",869.5213,79.537346,186.2671
"64517",869.5346,79.517815,186.23311
"64518",869.5479,79.50317,186.20338
"64519",869.5612,79.48852,186.1732
"64520",869.5745,79.466545,186.13524
"64521",869.5878,79.43481,186.08682
"64522",869.60114,79.395744,186.03009
"64523",869.61444,79.35424,185.9697
"64524",869.62775,79.31274,185.908
"64525",869.64105,79.276115,185.8499
"64526",869.65436,79.24681,185.79797
"64527",869.66766,79.2224,185.75002
"64528",869.68097,79.19798,185.7013
"64529",869.6943,79.17601,185.65425
"64530",869.7076,79.16136,185.61385
"64531",869.7209,79.151596,185.57787
"64532",869.7342,79.13939,185.53914
"64533",869.7475,79.12962,185.50247
"64534",869.7608,79.1223,185.46794
"64535",869.7741,79.11742,185.43562
"64536",869.7874,79.11742,185.40804
"64537",869.8007,79.1223,185.38533
"64538",869.814,79.12718,185.36278
"64539",869.82733,79.12474,185.33305
"64540",869.84064,79.11742,185.29837
"64541",869.85394,79.10521,185.25858
"64542",869.86725,79.093,185.2184
"64543",869.88055,79.10521,185.20226
"64544",869.89386,79.17845,185.24753
"64545",869.90717,79.37621,185.41962
"64546",869.9205,79.74975,185.77365
"64547",869.9338,80.323494,186.33957
"64548",869.9471,81.05592,187.0821
"64549",869.9604,81.85916,187.91835
"64550",869.9737,82.616005,188.73329
"64551",869.987,83.20195,189.40099
"64552",870.0003,83.54864,189.84773
"64553",870.0136,83.65118,190.06117
"64554",870.0269,83.55352,190.07762
"64555",870.0402,83.32403,189.95918
"64556",870.0535,83.038376,189.7774
"64557",870.06683,82.75517,189.58916
"64558",870.08014,82.513466,189.43355
"64559",870.09344,82.32304,189.32167
"64560",870.10675,82.18143,189.25266
"64561",870.12006,82.074005,189.21341
"64562",870.13336,81.97391,189.17813
"64563",870.14667,81.864044,189.12996
"64564",870.16,81.7322,189.05637
"64565",870.1733,81.5906,188.9689
"64566",870.1866,81.45876,188.88678
"64567",870.1999,81.356224,188.82983
"64568",870.2132,81.304955,188.82095
"64569",870.2265,81.30251,188.8593
"64570",870.2398,81.33181,188.9293
"64571",870.2531,81.36843,189.00755
"64572",870.2664,81.39529,189.07718
"64573",870.2797,81.40261,189.12811
"64574",870.293,81.38308,189.15242
"64575",870.30634,81.31716,189.12973
"64576",870.31964,81.19508,189.04881
"64577",870.33295,81.01442,188.9055
"64578",870.34625,80.782486,188.70528
"64579",870.35956,80.52369,188.47093
"64580",870.37286,80.26978,188.2334
"64581",870.38617,80.05493,188.02698
"64582",870.3995,79.888916,187.86267
"64583",870.4128,79.766846,187.73712
"64584",870.4261,79.66186,187.62485
"64585",870.4394,79.56664,187.51906
"64586",870.4527,79.47631,187.41518
"64587",870.466,79.39086,187.31335
"64588",870.4793,79.310295,187.21375
"64589",870.4926,79.237045,187.11894
"64590",870.5059,79.17357,187.03162
"64591",870.5192,79.114975,186.94719
"64592",870.53253,79.063705,186.86826
"64593",870.54584,79.01976,186.79504
"64594",870.55914,78.98558,186.73022
"64595",870.57245,78.95628,186.66922
"64596",870.58575,78.93431,186.61462
"64597",870.59906,78.91722,186.56422
"64598",870.61237,78.89281,186.50597
"64599",870.6257,78.86351,186.44206
"64600",870.639,78.82933,186.37236
"64601",870.6523,78.79027,186.2967
"64602",870.6656,78.751205,186.21983
"64603",870.6789,78.72434,186.15395
"64604",870.6922,78.70481,186.09454
"64605",870.7055,78.695045,186.0443
"64606",870.7188,78.68528,185.99374
"64607",870.7321,78.67063,185.938
"64608",870.7454,78.65354,185.87936
"64609",870.7587,78.63401,185.81775
"64610",870.77203,78.6096,185.75064
"64611",870.78534,78.590065,185.68765
"64612",870.79865,78.57542,185.62894
"64613",870.81195,78.572975,185.58197
"64614",870.82526,78.6096,185.57399
"64615",870.83856,78.729225,185.65016
"64616",870.85187,78.99046,185.87169
"64617",870.8652,79.43969,186.28937
"64618",870.8785,80.08423,186.9164
"64619",870.8918,80.867935,187.70273
"64620",870.9051,81.7029,188.56482
"64621",870.9184,82.459755,189.3749
"64622",870.9317,83.02861,190.02061
"64623",870.945,83.35088,190.43753
"64624",870.9583,83.42657,190.61794
"64625",870.9716,83.299614,190.59807
"64626",870.9849,83.02617,190.42773
"64627",870.9982,82.684364,190.1805
"64628",871.01154,82.340126,189.92015
"64629",871.02484,82.04471,189.69786
"64630",871.03815,81.82498,189.54204
"64631",871.05145,81.68093,189.45502
"64632",871.06476,81.5906,189.41722
"64633",871.07806,81.52468,189.40102
"64634",871.0914,81.45388,189.37787
"64635",871.1047,81.37087,189.3403
"64636",871.118,81.28054,189.29282
"64637",871.1313,81.20729,189.25958
"64638",871.1446,81.16579,189.25581
"64639",871.1579,81.17067,189.29713
"64640",871.1712,81.214615,189.37767
"64641",871.1845,81.28298,189.484
"64642",871.1978,81.34402,189.58513
"64643",871.2111,81.38064,189.66376
"64644",871.2244,81.373314,189.69958
"64645",871.23773,81.307396,189.67659
"64646",871.25104,81.18288,189.59293
"64647",871.26434,81.01198,189.459
"64648",871.27765,80.80934,189.288
"64649",871.29095,80.59205,189.096
"64650",871.30426,80.37476,188.89722
"64651",871.31757,80.177,188.71117
"64652",871.3309,80.008545,188.54825
"64653",871.3442,79.871826,188.4118
"64654",871.3575,79.764404,188.30038
"64655",871.3708,79.68383,188.21245
"64656",871.3841,79.62035,188.13908
"64657",871.3974,79.57397,188.08083
"64658",871.4107,79.537346,188.03088
"64659",871.424,79.51293,187.992
"64660",871.4373,79.4934,187.95724
"64661",871.4506,79.483635,187.93164
"64662",871.4639,79.47631,187.90817
"64663",871.47723,79.47387,187.88936
"64664",871.49054,79.46899,187.86803
"64665",871.50385,79.45678,187.83922
"64666",871.51715,79.429924,187.79538
"64667",871.53046,79.398186,187.74582
"64668",871.54376,79.35424,187.68306
"64669",871.55707,79.31518,187.62381
"64670",871.5704,79.273674,187.5609
"64671",871.5837,79.23949,187.50401
"64672",871.597,79.202866,187.44362
"64673",871.6103,79.16136,187.3772
"64674",871.6236,79.11009,187.29971
"64675",871.6369,79.05882,187.22063
"64676",871.6502,79.00267,187.13506
"64677",871.6635,78.94652,187.04773
"64678",871.6768,78.890366,186.95865
"64679",871.6901,78.83421,186.86781
"64680",871.7034,78.7805,186.77766
"64681",871.71674,78.73167,186.69072
"64682",871.73004,78.69016,186.60957
"64683",871.74335,78.67307,186.55154
"64684",871.75665,78.71946,186.55646
"64685",871.76996,78.890366,186.68735
"64686",871.78326,79.24681,187.00911
"64687",871.7966,79.81323,187.55199
"64688",871.8099,80.56031,188.29323
"64689",871.8232,81.40749,189.15793
"64690",871.8365,82.22537,190.01979
"64691",871.8498,82.88945,190.75342
"64692",871.8631,83.319145,191.2734
"64693",871.8764,83.49004,191.54803
"64694",871.8897,83.43389,191.60095
"64695",871.903,83.20439,191.47876
"64696",871.9163,82.882126,191.25664
"64697",871.9296,82.53544,191.00002
"64698",871.94293,82.22293,190.76674
"64699",871.95624,81.98123,190.59451
"64700",871.96954,81.80789,190.4831
"64701",871.98285,81.685814,190.41751
"64702",871.99615,81.57595,190.36034
"64703",872.00946,81.444115,190.27776
"64704",872.02277,81.2781,190.15688
"64705",872.0361,81.09743,190.01614
"64706",872.0494,80.92653,189.87955
"64707",872.0627,80.79225,189.77423
"64708",872.076,80.71168,189.71841
"64709",872.0893,80.68482,189.7138
"64710",872.1026,80.69459,189.74498
"64711",872.1159,80.71656,189.78867
"64712",872.1292,80.72877,189.82327
"64713",872.1425,80.706795,189.82408
"64714",872.1558,80.64576,189.78514
"64715",872.1691,80.54078,189.70035
"64716",872.18243,80.394295,189.57077
"64717",872.19574,80.22095,189.40974
"64718",872.20905,80.03052,189.22623
"64719",872.22235,79.83276,189.02942
"64720",872.23566,79.635,188.82643
"64721",872.24896,79.45678,188.6368
"64722",872.26227,79.29809,188.46112
"64723",872.2756,79.1638,188.3049
"64724",872.2889,79.046616,188.16158
"64725",872.3022,78.9514,188.03656
"64726",872.3155,78.86351,187.9159
"64727",872.3288,78.79271,187.80957
"64728",872.3421,78.73655,187.71568
"64729",872.3554,78.69749,187.63713
"64730",872.3687,78.67063,187.56956
"64731",872.382,78.643776,187.50116
"64732",872.3953,78.6096,187.42459
"64733",872.4086,78.57053,187.34207
"64734",872.42194,78.53147,187.25833
"64735",872.43524,78.49485,187.17581
"64736",872.44855,78.46311,187.09703
"64737",872.46185,78.44114,187.02702
"64738",872.47516,78.416725,186.95389
"64739",872.48846,78.38499,186.87267
"64740",872.5018,78.348366,186.78557
"64741",872.5151,78.311745,186.69733
"64742",872.5284,78.28001,186.61282
"64743",872.5417,78.25803,186.5371
"64744",872.555,78.24094,186.46556
"64745",872.5683,78.22873,186.39838
"64746",872.5816,78.21164,186.32593
"64747",872.5949,78.184784,186.24318
"64748",872.6082,78.14572,186.14738
"64749",872.6215,78.10666,186.05037
"64750",872.6348,78.07004,185.95457
"64751",872.64813,78.04562,185.86984
"64752",872.66144,78.03342,185.79655
"64753",872.67474,78.03586,185.73753
"64754",872.68805,78.06271,185.703
"64755",872.70135,78.153046,185.73279
"64756",872.71466,78.365456,185.88748
"64757",872.72797,78.751205,186.22215
"64758",872.7413,79.33959,186.77151
"64759",872.7546,80.096436,187.50772
"64760",872.7679,80.936295,188.35059
"64761",872.7812,81.7322,189.17575
"64762",872.7945,82.36698,189.86467
"64763",872.8078,82.757614,190.32927
"64764",872.8211,82.899216,190.55705
"64765",872.8344,82.828415,190.57686
"64766",872.8477,82.61112,190.44795
"64767",872.861,82.320595,190.23903
"64768",872.8743,82.0325,190.02345
"64769",872.88763,81.78104,189.83551
"64770",872.90094,81.57839,189.68852
"64771",872.91425,81.427025,189.58649
"64772",872.92755,81.304955,189.50902
"64773",872.94086,81.18776,189.4326
"64774",872.95416,81.05104,189.33301
"64775",872.96747,80.902115,189.21693
"64776",872.9808,80.74586,189.08887
"64777",872.9941,80.604256,188.97058
"64778",873.0074,80.49683,188.88205
"64779",873.0207,80.43824,188.83899
"64780",873.034,80.42359,188.83804
"64781",873.0473,80.43824,188.86594
"64782",873.0606,80.45533,188.89673
"64783",873.0739,80.45289,188.90852
"64784",873.0872,80.41627,188.88606
"64785",873.1005,80.32838,188.81119
"64786",873.11383,80.198975,188.69205
"64787",873.12714,80.0354,188.5347
"64788",873.14044,79.85718,188.35757
"64789",873.15375,79.676506,188.17244
"64790",873.16705,79.50317,187.98898
"64791",873.18036,79.33959,187.80988
"64792",873.19366,79.1931,187.64275
"64793",873.207,79.061264,187.48569
"64794",873.2203,78.94652,187.3416
"64795",873.2336,78.8513,187.21346
"64796",873.2469,78.77074,187.09698
"64797",873.2602,78.70481,186.99265
"64798",873.2735,78.64866,186.89601
"64799",873.2868,78.59739,186.8025
"64800",873.3001,78.553444,186.71472
"64801",873.3134,78.521706,186.63777
"64802",873.3267,78.504616,186.57448
"64803",873.34,78.49729,186.52042
"64804",873.35333,78.502174,186.47833
"64805",873.36664,78.51438,186.44373
"64806",873.37994,78.52903,186.41194
"64807",873.39325,78.54856,186.3855
"64808",873.40656,78.57786,186.36943
"64809",873.41986,78.624245,186.37137
"64810",873.43317,78.68772,186.39185
"64811",873.4465,78.765854,186.42897
"64812",873.4598,78.8513,186.47585
"64813",873.4731,78.924545,186.51318
"64814",873.4864,78.975815,186.53084
"64815",873.4997,78.99046,186.51347
"64816",873.513,78.97093,186.46239
"64817",873.5263,78.922104,186.3814
"64818",873.5396,78.85863,186.28423
"64819",873.5529,78.79027,186.18019
"64820",873.5662,78.73167,186.08379
"64821",873.5795,78.709694,186.02217
"64822",873.59283,78.768295,186.04045
"64823",873.60614,78.94896,186.18262
"64824",873.61945,79.28832,186.48914
"64825",873.63275,79.7937,186.97227
"64826",873.64606,80.41871,187.59084
"64827",873.65936,81.07057,188.25578
"64828",873.67267,81.651634,188.8703
"64829",873.686,82.06424,189.33452
"64830",873.6993,82.25468,189.58946
"64831",873.7126,82.22537,189.63062
"64832",873.7259,82.020294,189.49509
"64833",873.7392,81.7029,189.24083
"64834",873.7525,81.34646,188.9376
"64835",873.7658,81.007095,188.64032
"64836",873.7791,80.71656,188.38126
"64837",873.7924,80.48707,188.17416
"64838",873.8057,80.308846,188.01117
"64839",873.81903,80.164795,187.87677
"64840",873.83234,80.045166,187.7623
"64841",873.84564,79.94507,187.6636
"64842",873.85895,79.86694,187.58377
"64843",873.87225,79.815674,187.52835
"64844",873.88556,79.80835,187.51526
"64845",873.89886,79.84253,187.54346
"64846",873.9122,79.91333,187.60934
"64847",873.9255,80.00366,187.69696
"64848",873.9388,80.093994,187.78741
"64849",873.9521,80.16235,187.8587
"64850",873.9654,80.18921,187.89062
"64851",873.9787,80.164795,187.87213
"64852",873.992,80.08911,187.8016
"64853",874.0053,79.974365,187.68964
"64854",874.0186,79.83032,187.5448
"64855",874.0319,79.66918,187.37836
"64856",874.0452,79.50805,187.20688
"64857",874.05853,79.35668,187.04013
"64858",874.07184,79.22728,186.89062
"64859",874.08514,79.11253,186.75172
"64860",874.09845,79.01976,186.63121
"64861",874.11176,78.93919,186.52
"64862",874.12506,78.873276,186.42093
"64863",874.13837,78.82201,186.33444
"64864",874.1517,78.79515,186.27077
"64865",874.165,78.79027,186.22823
"64866",874.1783,78.77806,186.1782
"64867",874.1916,78.72434,186.0863
"64868",874.2049,78.59495,185.91704
"64869",874.2182,78.38987,185.66805
"64870",874.2315,78.14328,185.37114
"64871",874.2448,77.925995,185.09583
"64872",874.2581,77.81125,184.91626
"64873",874.2714,77.840546,184.87715
"64874",874.2847,78.00412,184.97324
"64875",874.29803,78.26292,185.16966
"64876",874.31134,78.56809,185.42055
"64877",874.32465,78.89281,185.70052
"64878",874.33795,79.276115,186.04922
"64879",874.35126,79.81323,186.56372
"64880",874.36456,80.56275,187.3074
"64881",874.37787,81.50271,188.26495
"64882",874.3912,82.51591,189.32512
"64883",874.4045,83.455864,190.3437
"64884",874.4178,84.18585,191.18169
"64885",874.4311,84.63508,191.76172
"64886",874.4444,84.823074,192.09456
"64887",874.4577,84.82796,192.25017
"64888",874.471,84.72541,192.2985
"64889",874.4843,84.54475,192.2655
"64890",874.4976,84.31037,192.17316
"64891",874.5109,84.06378,192.06126
"64892",874.52423,83.86603,191.99051
"64893",874.56415,84.207825,192.69347
"64894",874.57745,84.6717,193.28883
"64895",874.59076,85.21126,193.97438
"64896",874.60406,85.731285,194.65726
"64897",874.6174,86.16098,195.26605
"64898",874.6307,86.451515,195.74911
"64899",874.644,86.60288,196.1021
"64900",874.6573,86.61753,196.32309
"64901",874.6706,86.505226,196.41759
"64902",874.6839,86.278175,196.39383
"64903",874.6972,85.97299,196.28484
"64904",874.7105,85.65316,196.15166
"64905",874.7238,85.40414,196.0793
"64906",874.7371,85.28939,196.13344
"64907",874.7504,85.30404,196.31339
"64908",874.76373,85.37972,196.55482
"64909",874.77704,85.40902,196.75224
"64910",874.79034,85.29427,196.80653
"64911",874.80365,84.98665,196.66435
"64912",874.81696,84.51301,196.34654
"64913",874.83026,83.95392,195.92848
"64914",874.84357,83.39483,195.49295
"64915",874.8569,82.91142,195.11563
"64916",874.8702,82.52079,194.81598
"64917",874.8835,82.210724,194.58469
"64918",874.8968,81.93973,194.38278
"64919",874.9101,81.66384,194.16751
"64920",874.9234,81.35134,193.90701
"64921",874.9367,80.99733,193.59523
"64922",874.95,80.6482,193.27727
"64923",874.9633,80.35279,193.00212
"64924",874.9766,80.17944,192.8398
"64925",874.9899,80.16235,192.82831
"64926",875.00323,80.2942,192.96523
"64927",875.01654,80.51881,193.19904
"64928",875.02985,80.78493,193.48137
"64929",875.04315,81.05348,193.77446
"64930",875.05646,81.26833,194.02223
"64931",875.06976,81.36111,194.15465
"64932",875.08307,81.24147,194.07755
"64933",875.0964,80.84596,193.72084
"64934",875.1097,80.18677,193.08809
"64935",875.123,79.3518,192.25896
"64936",875.1363,78.44358,191.33047
"64937",875.1496,77.557335,190.39558
"64938",875.1629,76.7248,189.48671
"64939",875.1762,75.914246,188.5738
"64940",875.1895,75.08171,187.61359
"64941",875.2028,74.249176,186.62735
"64942",875.2161,73.49966,185.69812
"64943",875.22943,72.91615,184.91148
"64944",875.24274,72.552376,184.32634
"64945",875.25604,72.379036,183.92026
"64946",875.26935,72.33021,183.63327
"64947",875.28265,72.33265,183.39603
"64948",875.29596,72.35218,183.17595
"64949",875.30927,72.393684,182.97845
"64950",875.3226,72.50355,182.85062
"64951",875.3359,72.708626,182.82143
"64952",875.3492,72.972305,182.85725
"64953",875.3625,73.231094,182.89642
"64954",875.3758,73.45083,182.90463
"64955",875.3891,73.63882,182.88795
"64956",875.4024,73.81705,182.8674
"64957",875.4157,74.019684,182.87682
"64958",875.429,74.26139,182.93164
"64959",875.4423,74.512856,183.00377
"64960",875.4556,74.73502,183.05446
"64961",875.46893,74.90593,183.06084
"64962",875.48224,75.04753,183.04324
"64963",875.49554,75.20134,183.04228
"64964",875.50885,75.37469,183.06567
"64965",875.52216,75.55779,183.10423
"64966",875.53546,75.74822,183.15584
"64967",875.54877,75.965515,183.24026
"64968",875.5621,76.23407,183.38274
"64969",875.5754,76.59052,183.6215
"64970",875.5887,77.051956,183.9764
"64971",875.602,77.59884,184.43115
"64972",875.6153,78.17502,184.9323
"64973",875.6286,78.71458,185.41483
"64974",875.6419,79.15648,185.81656
"64975",875.6552,79.46899,186.1027
"64976",875.6685,79.65209,186.26921
"64977",875.6818,79.74975,186.35599
"64978",875.6951,79.82544,186.42386
"64979",875.70844,79.93286,186.52582
"64980",875.72174,80.09155,186.6824
"64981",875.73505,80.274666,186.86838
"64982",875.74835,80.44312,187.04543
"64983",875.76166,80.552986,187.16914
"64984",875.77496,80.621346,187.25479
"64985",875.78827,80.69459,187.34746
"64986",875.8016,80.82399,187.49857
"64987",875.8149,81.0193,187.71964
"64988",875.8282,81.248795,187.98099
"64989",875.8415,81.449,188.22021
"64990",875.8548,81.5613,188.3778
"64991",875.8681,81.56374,188.42905
"64992",875.8814,81.478294,188.39247
"64993",875.8947,81.35378,188.31416
"64994",875.908,81.23659,188.23927
"64995",875.9213,81.14137,188.18271
"64996",875.93463,81.075455,188.15247
"64997",875.94794,81.03883,188.14946
"64998",875.96124,81.024185,188.16728
"64999",875.97455,81.02663,188.20174
"65000",875.98785,81.04616,188.25336
"65001",876.00116,81.10231,188.34221
"65002",876.01447,81.231705,188.50606
"65003",876.0278,81.48318,188.79602
"65004",876.0411,81.900665,189.25986
"65005",876.0544,82.493935,189.91252
"65006",876.0677,83.23857,190.73509
"65007",876.081,84.07355,191.67128
"65008",876.0943,84.89632,192.62135
"65009",876.1076,85.59945,193.4775
"65010",876.1209,86.11948,194.1725
"65011",876.1342,86.40757,194.65182
"65012",876.1475,86.41978,194.86427
"65013",876.1608,86.13168,194.7768
"65014",876.17413,85.57259,194.40932
"65015",876.18744,84.81087,193.82173
"65016",876.20074,83.93439,193.0956
"65017",876.21405,83.035934,192.3201
"65018",876.22736,82.2034,191.58244
"65019",876.24066,81.45144,190.89934
"65020",876.25397,80.77028,190.26353
"65021",876.2673,80.130615,189.64795
"65022",876.2806,79.517815,189.03923
"65023",876.2939,78.92943,188.43578
"65024",876.3072,78.37522,187.84811
"65025",876.3205,77.86252,187.28464
"65026",876.3338,77.40597,186.76129
"65027",876.3471,77.015335,186.2896
"65028",876.3604,76.70283,185.88382
"65029",876.3737,76.45869,185.53664
"65030",876.387,76.265816,185.2331
"65031",876.4003,76.09491,184.9455
"65032",876.41364,75.91669,184.64523
"65033",876.42694,75.70428,184.30522
"65034",876.44025,75.43816,183.90486
"65035",876.45355,75.11589,183.44003
"65036",876.46686,74.73502,182.90654
"65037",876.48016,74.31754,182.32452
"65038",876.49347,73.89517,181.72458
"65039",876.5068,73.51919,181.15782
"65040",876.5201,73.2433,180.67941
"65041",876.5334,73.11391,180.33887
"65042",876.5467,73.15053,180.1603
"65043",876.56,73.36294,180.15866
"65044",876.5733,73.724266,180.31258
"65045",876.5866,74.19302,180.58522
"65046",876.5999,74.76433,180.97505
"65047",876.6132,75.457695,181.5048
"65048",876.6265,76.263374,182.16853
"65049",876.63983,77.120316,182.9087
"65050",876.65314,77.94797,183.64636
"65051",876.66644,78.66331,184.29758
"65052",876.67975,79.20531,184.7978
"65053",876.69305,79.5642,185.13187
"65054",876.70636,79.80347,185.35751
"65055",876.71967,80.025635,185.57355
"65056",876.733,80.274666,185.82338
"65057",876.7463,80.56031,186.11761
"65058",876.7596,80.86549,186.4403
"65059",876.7729,81.17555,186.77742
"65060",876.7862,81.48806,187.12666
"65061",876.7995,81.815216,187.50032
"65062",876.8128,82.18143,187.92326
"65063",876.8261,82.598915,188.40892
"65064",876.8394,83.06279,188.95401
"65065",876.8527,83.55352,189.54045
"65066",876.866,84.0589,190.15688
"65067",876.87933,84.58625,190.81107
"65068",876.89264,85.135574,191.50371
"65069",876.90594,85.697105,192.22572
"65070",876.91925,86.24643,192.95308
"65071",876.93256,86.73228,193.63412
"65072",876.94586,87.08629,194.19852
"65073",876.95917,87.24986,194.58354
"65074",876.9725,87.203476,194.76372
"65075",876.9858,86.97398,194.75934
"65076",876.9991,86.61021,194.6135
"65077",877.0124,86.185394,194.39525
"65078",877.0257,85.77524,194.17839
"65079",877.039,85.43343,194.01706
"65080",877.0523,85.17952,193.93294
"65081",877.0656,85.0013,193.91658
"65082",877.0789,84.86458,193.93616
"65083",877.0922,84.71076,193.93436
"65084",877.1055,84.488594,193.8594
"65085",877.11884,84.173645,193.68472
"65086",877.13214,83.78546,193.42697
"65087",877.14545,83.35577,193.11557
"65088",877.15875,82.94316,192.80783
"65089",877.17206,82.58915,192.54579
"65090",877.18536,82.29862,192.33618
"65091",877.19867,82.04715,192.15654
"65092",877.212,81.80301,191.97638
"65093",877.2253,81.52224,191.75195
"65094",877.2386,81.17311,191.4504
"65095",877.2519,80.75563,191.06958
"65096",877.2652,80.28687,190.62444
"65097",877.2785,79.78882,190.13535
"65098",877.2918,79.290764,189.63069
"65099",877.3051,78.8098,189.12756
"65100",877.3184,78.36057,188.64114
"65101",877.3317,77.95285,188.18219
"65102",877.34503,77.59884,187.7642
"65103",877.35834,77.313194,187.40352
"65104",877.37164,77.0959,187.10226
"65105",877.38495,76.944534,186.86014
"65106",877.39825,76.839554,186.65967
"65107",877.41156,76.76143,186.48277
"65108",877.42487,76.69306,186.3132
"65109",877.4382,76.62226,186.13905
"65110",877.4515,76.54658,185.95781
"65111",877.4648,76.47578,185.77908
"65112",877.4781,76.419624,185.6128
"65113",877.4914,76.385445,185.46672
"65114",877.5047,76.37324,185.34155
"65115",877.518,76.387886,185.24286
"65116",877.5313,76.40986,185.15195
"65117",877.5446,76.422066,185.05196
"65118",877.5579,76.40742,184.92549
"65119",877.5712,76.34638,184.75218
"65120",877.58453,76.23163,184.52325
"65121",877.59784,76.06073,184.23459
"65122",877.61115,75.83368,183.88443
"65123",877.62445,75.55535,183.4759
"65124",877.63776,75.23552,183.01718
"65125",877.65106,74.89128,182.52405
"65126",877.66437,74.53971,182.01283
"65127",877.6777,74.195465,181.49796
"65128",877.691,73.87564,180.99673
"65129",877.7043,73.599754,180.52946
"65130",877.7176,73.38491,180.11461
"65131",877.7309,73.23842,179.7614
"65132",877.7442,73.16762,179.4793
"65133",877.7575,73.16762,179.26578
"65134",877.7708,73.22865,179.1133
"65135",877.7841,73.32876,179.0018
"65136",877.7974,73.47524,178.9398
"65137",877.8107,73.69253,178.95319
"65138",877.82404,74.03189,179.09544
"65139",877.83734,74.54459,179.42165
"65140",877.85065,75.25506,179.96162
"65141",877.86395,76.13641,180.6947
"65142",877.87726,77.10567,181.54321
"65143",877.89056,78.05295,182.40004
"65144",877.9039,78.86839,183.15463
"65145",877.9172,79.48119,183.73207
"65146",877.9305,79.85474,184.0894
"65147",877.9438,80.01099,184.24112
"65148",877.9571,80.0061,184.23657
"65149",877.9704,79.8938,184.12445
"65150",877.9837,79.72289,183.95023
"65151",877.997,79.54467,183.76334
"65152",878.0103,79.38842,183.59285
"65153",878.0236,79.2517,183.43701
"65154",878.0369,79.12962,183.29155
"65155",878.05023,78.99779,183.1325
"65156",878.06354,78.84886,182.95226
"65157",878.07684,78.68284,182.75026
"65158",878.09015,78.521706,182.54796
"65159",878.10345,78.399635,182.37968
"65160",878.11676,78.35325,182.28328
"65161",878.13007,78.40208,182.28064
"65162",878.1434,78.54368,182.3723
"65163",878.1567,78.74143,182.52454
"65164",878.17,78.96605,182.70982
"65165",878.1833,79.17845,182.88991
"65166",878.1966,79.344475,183.03026
"65167",878.2099,79.4519,183.11719
"65168",878.2232,79.500725,183.14888
"65169",878.2365,79.48608,183.11862
"65170",878.2498,79.40551,183.02199
"65171",878.2631,79.26635,182.86424
"65172",878.2764,79.07103,182.646
"65173",878.28973,78.839096,182.38503
"65174",878.30304,78.58762,182.09727
"65175",878.31635,78.33372,181.79922
"65176",878.32965,78.09445,181.50789
"65177",878.34296,77.87717,181.23105
"65178",878.35626,77.69161,180.97916
"65179",878.36957,77.54513,180.76053
"65180",878.3829,77.437706,180.57639
"65181",878.3962,77.37911,180.43771
"65182",878.4095,77.366905,180.3436
"65183",878.4228,77.39864,180.29305
"65184",878.4361,77.469444,180.28255
"65185",878.4494,77.58175,180.31577
"65186",878.4627,77.71847,180.3769
"65187",878.476,77.86984,180.45699
"65188",878.4893,78.02365,180.54422
"65189",878.5026,78.16525,180.62405
"65190",878.5159,78.28489,180.68636
"65191",878.52924,78.380104,180.72797
"65192",878.54254,78.45579,180.75302
"65193",878.55585,78.51682,180.7658
"65194",878.56915,78.58518,180.7878
"65195",878.58246,78.68772,180.84612
"65196",878.59576,78.870834,180.98822
"65197",878.6091,79.17357,181.25566
"65198",878.6224,79.622795,181.67906
"65199",878.6357,80.21362,182.2581
"65200",878.649,80.89235,182.94351
"65201",878.6623,81.57351,183.65256
"65202",878.6756,82.16434,184.29256
"65203",878.6889,82.59403,184.78989
"65204",878.7022,82.8333,185.11021
"65205",878.7155,82.89189,185.25735
"65206",878.7288,82.811325,185.26717
"65207",878.7421,82.650185,185.19388
"65208",878.75543,82.4622,185.08871
"65209",878.76874,82.286415,184.98988
"65210",878.78204,82.15701,184.93193
"65211",878.79535,82.08621,184.92854
"65212",878.80865,82.091095,184.99863
"65213",878.82196,82.178986,185.15187
"65214",878.83527,82.357216,185.3982
"65215",878.8486,82.61845,185.7331
"65216",878.8619,82.95537,186.15184
"65217",878.8752,83.36553,186.65436
"65218",878.8885,83.82941,187.2234
"65219",878.9018,84.31037,187.82404
"65220",878.9151,84.76448,188.41284
"65221",878.9284,85.15755,188.9548
"65222",878.9417,85.472496,189.43092
"65223",878.955,85.70199,189.83144
"65224",878.9683,85.858246,190.16588
"65225",878.9816,85.96567,190.45638
"65226",878.99493,86.029144,190.70628
"65227",879.00824,86.0267,190.89226
"65228",879.02155,85.93149,190.98538
"65229",879.03485,85.74349,190.98274
"65230",879.04816,85.47982,190.89856
"65231",879.06146,85.19905,190.78903
"65232",879.07477,84.96956,190.72202
"65233",879.0881,84.86946,190.77722
"65234",879.1014,84.93538,190.99532
"65235",879.1147,85.14778,191.36195
"65236",879.128,85.435875,191.81091
"65237",879.1413,85.7264,192.27132
"65238",879.1546,85.95102,192.67488
"65239",879.1679,86.07309,192.98293
"65240",879.1812,86.0853,193.18492
"65241",879.1945,86.00961,193.29941
"65242",879.2078,85.85336,193.33096
"65243",879.2211,85.62386,193.28438
"65244",879.23444,85.32357,193.15984
"65245",879.24774,84.96712,192.96974
"65246",879.26105,84.58381,192.74165
"65247",879.27435,84.23468,192.53577
"65248",879.28766,83.99786,192.43129
"65249",879.30096,83.96124,192.5196
"65250",879.3143,84.18585,192.86801
"65251",879.3276,84.69367,193.50664
"65252",879.3409,85.43343,194.39308
"65253",879.3542,86.28794,195.41739
"65254",879.3675,87.113144,196.43909
"65255",879.3808,87.77478,197.32301
"65256",879.3941,88.1947,197.9859
"65257",879.4074,88.35584,198.40312
"65258",879.4207,88.29725,198.60565
"65259",879.434,88.06775,198.63544
"65260",879.4473,87.70397,198.52377
"65261",879.46063,87.218124,198.27867
"65262",879.47394,86.624855,197.91096
"65263",879.48724,85.93637,197.4295
"65264",879.50055,85.18196,196.86061
"65265",879.51385,84.40559,196.24617
"65266",879.52716,83.648735,195.627
"65267",879.54047,82.94316,195.03545
"65268",879.5538,82.30595,194.4902
"65269",879.5671,81.76639,194.0227
"65270",879.5804,81.35134,193.66286
"65271",879.5937,81.05348,193.40723
"65272",879.607,80.86549,193.25217
"65273",879.6203,80.743416,193.15714
"65274",879.6336,80.64332,193.08028
"65275",879.6469,80.516365,192.97343
"65276",879.6602,80.325935,192.79915
"65277",879.6735,80.05249,192.53589
"65278",879.6868,79.727776,192.21281
"65279",879.70013,79.378654,191.85518
"65280",879.71344,79.04173,191.49884
"65281",879.72675,78.74387,191.17104
"65282",879.74005,78.48997,190.87787
"65283",879.75336,78.25315,190.59386
"65284",879.76666,77.98703,190.27315
"65285",879.77997,77.67452,189.89774
"65286",879.7933,77.32296,189.4735
"65287",879.8066,76.97139,189.03827
"65288",879.8199,76.66132,188.63356
"65289",879.8332,76.43183,188.29973
"65290",879.8465,76.314644,188.07103
"65291",879.8598,76.3122,187.95341
"65292",879.8731,76.404976,187.93094
"65293",879.8864,76.57343,187.98705
"65294",879.8997,76.79561,188.10214
"65295",879.913,77.0544,188.26079
"65296",879.92633,77.35226,188.4666
"65297",879.93964,77.713585,188.74518
"65298",879.95294,78.17502,189.13516
"65299",879.96625,78.765854,189.66896
"65300",879.97955,79.49584,190.36038
"65301",879.99286,80.323494,191.17227
"65302",880.00616,81.163345,192.02223
"65303",880.0195,81.91043,192.80568
"65304",880.0328,82.46952,193.42447
"65305",880.0461,82.77226,193.80438
"65306",880.0594,82.79668,193.91544
"65307",880.0727,82.579384,193.78554
"65308",880.086,82.193634,193.4804
"65309",880.0993,81.7322,193.08751
"65310",880.1126,81.29763,192.70708
"65311",880.1259,80.96559,192.41559
"65312",880.1392,80.77516,192.25534
"65313",880.1525,80.70435,192.20876
"65314",880.16583,80.69947,192.22589
"65315",880.17914,80.69703,192.24532
"65316",880.19244,80.6482,192.21828
"65317",880.20575,80.533455,192.1238
"65318",880.21906,80.36744,191.97446
"65319",880.23236,80.18677,191.80527
"65320",880.24567,80.02075,191.64508
"65321",880.259,79.87915,191.50412
"65322",880.2723,79.7522,191.37338
"65323",880.2856,79.635,191.24844
"65324",880.2989,79.520256,191.12228
"65325",880.3122,79.41039,190.99742
"65326",880.3255,79.32006,190.88866
"65327",880.3388,79.26391,190.81125
"65328",880.3521,79.259026,190.78336
"65329",880.3654,79.30785,190.80902
"65330",880.3787,79.40795,190.88748
"65331",880.392,79.54955,191.01057
"65332",880.40533,79.71313,191.16006
"65333",880.41864,79.85962,191.29759
"65334",880.43195,79.94263,191.37622
"65335",880.44525,79.9353,191.3671
"65336",880.45856,79.84497,191.27475
"65337",880.47186,79.69848,191.12341
"65338",880.48517,79.51537,190.93088
"65339",880.4985,79.32983,190.73018
"65340",880.5118,79.15404,190.53345
"65341",880.5251,78.975815,190.32878
"65342",880.5384,78.74876,190.06972
"65343",880.5517,78.44846,189.73032
"65344",880.565,78.07248,189.30585
"65345",880.5783,77.63058,188.80371
"65346",880.5916,77.15694,188.25603
"65347",880.6049,76.72724,187.73749
"65348",880.6182,76.42939,187.33736
"65349",880.63153,76.30488,187.10126
"65350",880.64484,76.351265,187.03217
"65351",880.65814,76.55146,187.11833
"65352",880.67145,76.89815,187.35725
"65353",880.68475,77.401085,187.76326
"65354",880.69806,78.06027,188.34123
"65355",880.71136,78.85863,189.07896
"65356",880.7247,79.727776,189.91245
"65357",880.738,80.550545,190.7267
"65358",880.7513,81.18288,191.37624
"65359",880.7646,81.52712,191.75745
"65360",880.7779,81.549095,191.82715
"65361",880.7912,81.28298,191.60945
"65362",880.8045,80.8069,191.17346
"65363",880.8178,80.22095,190.61273
"65364",880.8311,79.63012,190.02881
"65365",880.8444,79.061264,189.4484
"65366",880.8577,78.49973,188.85753
"65367",880.87103,77.95285,188.26376
"65368",880.88434,77.486534,187.73347
"65369",880.89764,77.14473,187.31313
"65370",880.91095,76.93721,187.01637
"65371",880.92426,76.83467,186.81812
"65372",880.93756,76.78096,186.66548
"65373",880.95087,76.68574,186.46967
"65374",880.9642,76.46845,186.1488
"65375",880.9775,76.14374,185.71373
"65376",880.9908,75.77753,185.227
"65377",881.0041,75.423515,184.74104
"65378",881.0174,75.106125,184.28064
"65379",881.0307,74.82292,183.8445
"65380",881.044,74.547035,183.40683
"65381",881.0573,74.251625,182.94101
"65382",881.0706,73.89517,182.40492
"65383",881.0839,73.43862,181.7576
"65384",881.0972,72.87221,180.98615
"65385",881.11053,72.22278,180.11397
"65386",881.12384,71.52941,179.17757
"65387",881.13715,70.84581,178.22926
"65388",881.15045,70.20615,177.30353
"65389",881.16376,69.64706,176.43839
"65390",881.17706,69.19539,175.6632
"65391",881.19037,68.85603,174.98619
"65392",881.2037,68.64118,174.4231
"65393",881.217,68.54597,173.97292
"65394",881.2303,68.57038,173.63939
"65395",881.2436,68.68757,173.3994
"65396",881.2569,68.88289,173.24121
"65397",881.2702,69.12459,173.1355
"65398",881.2835,69.39315,173.06421
"65399",881.2968,69.66659,173.00618
"65400",881.3101,69.93759,172.95427
"65401",881.3234,70.20126,172.90349
"65402",881.33673,70.45762,172.85364
"65403",881.35004,70.70176,172.79958
"65404",881.36334,70.941025,172.74828
"65405",881.37665,71.17784,172.702
"65406",881.38995,71.41711,172.66557
"65407",881.40326,71.656364,172.63661
"65408",881.41656,71.89075,172.61026
"65409",881.4299,72.12268,172.58878
"65410",881.4432,72.3473,172.56723
"65411",881.4565,72.57191,172.55269
"65412",881.4698,72.796524,172.54518
"65413",881.4831,73.02602,172.54956
"65414",881.4964,73.26284,172.56845
"65415",881.5097,73.514305,172.60938
"65416",881.523,73.76822,172.66061
"65417",881.5363,74.02945,172.7271
"65418",881.5496,74.302895,172.81396
"65419",881.5629,74.57877,172.9118
"65420",881.57623,74.85222,173.01584
"65421",881.58954,75.11833,173.12108
"65422",881.60284,75.37957,173.22977
"65423",881.61615,75.63592,173.34172
"65424",881.62946,75.894714,173.46414
"65425",881.64276,76.15106,173.5922
"65426",881.65607,76.404976,173.72583
"65427",881.6694,76.65156,173.86006
"65428",881.6827,76.88838,173.99225
"65429",881.696,77.11055,174.11717
"65430",881.7093,77.315636,174.23196
"65431",881.7226,77.51095,174.34338
"65432",881.7359,77.70138,174.45602
"65433",881.7492,77.88205,174.56487
"65434",881.7625,78.05051,174.66713
"65435",881.7758,78.21164,174.76733
"65436",881.7891,78.35813,174.85794
"65437",881.8024,78.48997,174.93846
"65438",881.81573,78.61448,175.01578
"65439",881.82904,78.73899,175.09698
"65440",881.84235,78.873276,175.19186
"65441",881.85565,79.063705,175.34708
"65442",881.86896,79.38354,175.63765
"65443",881.88226,79.90112,176.13597
"65444",881.89557,80.64576,176.87752
"65445",881.9089,81.58572,177.83766
"65446",881.9222,82.62333,178.92484
"65447",881.9355,83.612114,179.9956
"65448",881.9488,84.41535,180.91173
"65449",881.9621,84.9427,181.57706
"65450",881.9754,85.1844,181.97322
"65451",881.9887,85.1844,182.13524
"65452",882.002,85.013504,182.12636
"65453",882.0153,84.75716,182.02669
"65454",882.0286,84.488594,181.90678
"65455",882.04193,84.266426,181.82489
"65456",882.05524,84.119934,181.81172
"65457",882.06854,84.06378,181.88432
"65458",882.08185,84.08087,182.02841
"65459",882.09515,84.13458,182.20966
"65460",882.10846,84.18097,182.38525
"65461",882.12177,84.18097,182.51591
"65462",882.1351,84.11505,182.58066
"65463",882.1484,83.99298,182.58719
"65464",882.1617,83.83673,182.55573
"65465",882.175,83.685356,182.52425
"65466",882.1883,83.57305,182.52711
"65467",882.2016,83.51446,182.58018
"65468",882.2149,83.50469,182.68025
"65469",882.2282,83.52422,182.80931
"65470",882.2415,83.55108,182.9463
"65471",882.2548,83.5584,183.0646
"65472",882.2681,83.529106,183.14651
"65473",882.28143,83.44854,183.17624
"65474",882.29474,83.32891,183.16438
"65475",882.30804,83.175095,183.1146
"65476",882.32135,82.99443,183.03316
"65477",882.33466,82.80156,182.93387
"65478",882.34796,82.6038,182.82365
"65479",882.36127,82.41337,182.7146
"65480",882.3746,82.24002,182.61667
"65481",882.3879,82.091095,182.53775
"65482",882.4012,81.971466,182.48347
"65483",882.4145,81.881134,182.45476
"65484",882.4278,81.815216,182.44763
"65485",882.4411,81.76883,182.45798
"65486",882.4544,81.72976,182.47418
"65487",882.4677,81.69314,182.49162
"65488",882.481,81.651634,182.50304
"65489",882.4943,81.602806,182.50583
"65490",882.5076,81.54421,182.49733
"65491",882.52094,81.48318,182.48456
"65492",882.53424,81.42214,182.46988
"65493",882.54755,81.36111,182.4533
"65494",882.56085,81.30007,182.4348
"65495",882.57416,81.24147,182.41682
"65496",882.58746,81.17555,182.38971
"65497",882.60077,81.10475,182.35565
"65498",882.6141,81.03151,182.31694
"65499",882.6274,80.95094,182.26862
"65500",882.6407,80.87038,182.21777
"65501",882.654,80.79469,182.1693
"65502",882.6673,80.726326,182.12576
"65503",882.6806,80.66529,182.08743
"65504",882.6939,80.60914,182.05208
"65505",882.7072,80.56275,182.02473
"65506",882.7205,80.52369,182.00327
"65507",882.7338,80.48951,181.98546
"65508",882.74713,80.465096,181.97635
"65509",882.76044,80.448006,181.9738
"65510",882.77374,80.4358,181.9756
"65511",882.78705,80.42359,181.97702
"65512",882.80035,80.40894,181.97562
"65513",882.81366,80.394295,181.97375
"65514",882.82697,80.377205,181.969
"65515",882.8403,80.35767,181.96126
"65516",882.8536,80.343025,181.9578
"65517",882.8669,80.32838,181.95387
"65518",882.8802,80.31861,181.95438
"65519",882.8935,80.31373,181.95946
"65520",882.9068,80.31129,181.96683
"65521",882.9201,80.30396,181.96924
"65522",882.9334,80.291756,181.96654
"65523",882.9467,80.274666,181.95857
"65524",882.96,80.255135,181.94763
"65525",882.9733,80.235596,181.93607
"65526",882.98663,80.22583,181.93365
"65527",882.99994,80.24292,181.9578
"65528",883.01324,80.3357,182.05817
"65529",883.02655,80.570076,182.30304
"65530",883.03986,80.99977,182.75055
"65531",883.05316,81.62722,183.40924
"65532",883.06647,82.39628,184.22916
"65533",883.0798,83.20195,185.10971
"65534",883.0931,83.90509,185.91292
"65535",883.1064,84.39826,186.52812
"65536",883.1197,84.62531,186.89262
"65537",883.133,84.60578,187.01764
"65538",883.1463,84.39094,186.94673
"65539",883.1596,84.05646,186.74947
"65540",883.1729,83.67315,186.49292
"65541",883.1862,83.302055,186.23662
"65542",883.1995,82.98955,186.0273
"65543",883.2128,82.75517,185.88635
"65544",883.22614,82.59647,185.81375
"65545",883.23944,82.50126,185.79968
"65546",883.25275,82.44022,185.81682
"65547",883.26605,82.37919,185.83205
"65548",883.27936,82.29618,185.8234
"65549",883.29266,82.19119,185.79016
"65550",883.30597,82.07156,185.73901
"65551",883.3193,81.95682,185.68901
"65552",883.3326,81.87137,185.66472
"65553",883.3459,81.829865,185.6817
"65554",883.3592,81.829865,185.73889
"65555",883.3725,81.85428,185.8205
"65556",883.3858,81.88602,185.91019
"65557",883.3991,81.898224,185.98134
"65558",883.4124,81.87137,186.01381
"65559",883.4257,81.80057,186.0015
"65560",883.439,81.68337,185.94057
"65561",883.45233,81.532005,185.84181
"65562",883.46564,81.356224,185.71391
"65563",883.47894,81.17311,185.57318
"65564",883.49225,80.990005,185.42674
"65565",883.50555,80.81911,185.28679
"65566",883.51886,80.67017,185.16345
"65567",883.53217,80.54322,185.05745
"65568",883.5455,80.43824,184.96945
"65569",883.5588,80.35279,184.8977
"65570",883.5721,80.28687,184.84282
"65571",883.5854,80.233154,184.79807
"65572",883.5987,80.19165,184.76385
"65573",883.612,80.15991,184.7381
"65574",883.6253,80.13306,184.71625
"65575",883.6386,80.111084,184.69843
"65576",883.6519,80.09155,184.68237
"65577",883.6652,80.06958,184.66327
"65578",883.6785,80.05249,184.64835
"65579",883.69183,80.03296,184.63046
"65580",883.70514,80.0061,184.60464
"65581",883.71844,79.97681,184.57553
"65582",883.73175,79.94507,184.54306
"65583",883.74506,79.903564,184.49985
"65584",883.75836,79.85962,184.45288
"65585",883.77167,79.81079,184.39966
"65586",883.785,79.766846,184.3498
"65587",883.7983,79.72289,184.29855
"65588",883.8116,79.67895,184.24594
"65589",883.8249,79.639885,184.19684
"65590",883.8382,79.61059,184.15628
"65591",883.8515,79.586174,184.11969
"65592",883.8648,79.5642,184.08478
"65593",883.8781,79.54955,184.0565
"65594",883.8914,79.537346,184.03021
"65595",883.9047,79.5227,184.0011
"65596",883.918,79.500725,183.9642
"65597",883.93134,79.47387,183.92174
"65598",883.94464,79.447014,183.87843
"65599",883.95795,79.42504,183.83917
"65600",883.97125,79.41039,183.80655
"65601",883.98456,79.415276,183.793
"65602",883.99786,79.449455,183.8089
"65603",884.01117,79.55932,183.90155
"65604",884.0245,79.801025,184.12949
"65605",884.0378,80.22095,184.54318
"65606",884.0511,80.81911,185.14825
"65607",884.0644,81.54421,185.89896
"65608",884.0777,82.29618,186.69919
"65609",884.091,82.950485,187.42525
"65610",884.1043,83.404594,187.97156
"65611",884.1176,83.614555,188.28792
"65612",884.1309,83.5877,188.37402
"65613",884.1442,83.3753,188.27374
"65614",884.15753,83.04814,188.05206
"65615",884.17084,82.669716,187.76889
"65616",884.18414,82.303505,187.48611
"65617",884.19745,81.986115,187.2407
"65618",884.21075,81.739525,187.05618
"65619",884.22406,81.5613,186.93233
"65620",884.23737,81.43435,186.85417
"65621",884.2507,81.33181,186.79646
"65622",884.264,81.234146,186.74042
"65623",884.2773,81.13649,186.68134
"65624",884.2906,81.041275,186.62164
"65625",884.3039,80.96803,186.58095
"65626",884.3172,80.93141,186.57458
"65627",884.3305,80.94606,186.61835
"65628",884.3438,81.00954,186.7114
"65629",884.3571,81.10231,186.83572
"65630",884.3704,81.197525,186.9654
"65631",884.3837,81.270775,187.07607
"65632",884.39703,81.29275,187.13776
"65633",884.41034,81.25124,187.13666
"65634",884.42365,81.1487,187.07321
"65635",884.43695,80.99733,186.95775
"65636",884.45026,80.816666,186.80826
"65637",884.46356,80.62623,186.64334
"65638",884.47687,80.44312,186.47981
"65639",884.4902,80.27955,186.3301
"65640",884.5035,80.14282,186.2021
"65641",884.5168,80.028076,186.09183
"65642",884.5301,79.9353,185.99994
"65643",884.5434,79.86206,185.92468
"65644",884.5567,79.80347,185.86179
"65645",884.57,79.76196,185.81415
"65646",884.5833,79.73022,185.77496
"65647",884.5966,79.7058,185.74211
"65648",884.6099,79.68871,185.71582
"65649",884.6232,79.674065,185.69144
"65650",884.63654,79.656975,185.66415
"65651",884.64984,79.64233,185.63878
"65652",884.66315,79.62524,185.6105
"65653",884.67645,79.60815,185.5817
"65654",884.68976,79.588615,185.54991
"65655",884.70306,79.56664,185.51508
"65656",884.7164,79.54223,185.47711
"65657",884.7297,79.51293,185.4335
"65658",884.743,79.483635,185.38898
"65659",884.7563,79.46166,185.35086
"65660",884.7696,79.43969,185.31206
"65661",884.7829,79.42504,185.27989
"65662",884.7962,79.40795,185.24483
"65663",884.8095,79.38842,185.20679
"65664",884.8228,79.3518,185.15105
"65665",884.8361,79.31274,185.09172
"65666",884.8494,79.26391,185.02141
"65667",884.86273,79.21507,184.94957
"65668",884.87604,79.168686,184.87865
"65669",884.88934,79.13451,184.81848
"65670",884.90265,79.10765,184.76457
"65671",884.91595,79.09544,184.72447
"65672",884.92926,79.13695,184.7377
"65673",884.94257,79.27856,184.85234
"65674",884.9559,79.57885,185.13008
"65675",884.9692,80.06958,185.60765
"65676",884.9825,80.73609,186.27634
"65677",884.9958,81.50027,187.06352
"65678",885.0091,82.2449,187.85504
"65679",885.0224,82.847946,188.52824
"65680",885.0357,83.228806,188.99811
"65681",885.049,83.36553,189.23573
"65682",885.0623,83.28985,189.26523
"65683",885.0756,83.055466,189.13365
"65684",885.0889,82.73075,188.90442
"65685",885.10223,82.37919,188.6382
"65686",885.11554,82.04471,188.37807
"65687",885.12885,81.75418,188.15144
"65688",885.14215,81.52712,187.9792
"65689",885.15546,81.35134,187.85115
"65690",885.16876,81.21217,187.75421
"65691",885.18207,81.094986,187.67491
"65692",885.1954,80.990005,187.60416
"65693",885.2087,80.90456,187.54965
"65694",885.222,80.848404,187.52177
"65695",885.2353,80.83864,187.53853
"65696",885.2486,80.88014,187.60625
"65697",885.2619,80.96071,187.71432
"65698",885.2752,81.06813,187.85178
"65699",885.2885,81.17555,187.99258
"65700",885.3018,81.25857,188.11234
"65701",885.3151,81.29519,188.1883
"65702",885.3284,81.27322,188.2068
"65703",885.34174,81.18532,188.15869
"65704",885.35504,81.04372,188.05414
"65705",885.36835,80.86549,187.90854
"65706",885.38165,80.67017,187.74026
"65707",885.39496,80.47486,187.5659
"65708",885.40826,80.2942,187.40009
"65709",885.4216,80.1355,187.25058
"65710",885.4349,80.0061,187.12543
"65711",885.4482,79.89868,187.01819
"65712",885.4615,79.80835,186.92468
"65713",885.4748,79.7351,186.84544
"65714",885.4881,79.68139,186.78345
"65715",885.5014,79.63744,186.72954
"65716",885.5147,79.603264,186.68402
"65717",885.528,79.57885,186.6472
"65718",885.5413,79.55688,186.61206
"65719",885.5546,79.534904,186.57623
"65720",885.56793,79.51049,186.53728
"65721",885.58124,79.48852,186.5
"65722",885.59454,79.4641,186.4596
"65723",885.60785,79.44457,186.42331
"65724",885.62115,79.42504,186.38641
"65725",885.63446,79.40795,186.35135
"65726",885.64777,79.38842,186.31331
"65727",885.6611,79.37133,186.2771
"65728",885.6744,79.3518,186.23792
"65729",885.6877,79.33227,186.19812
"65730",885.701,79.31274,186.15771
"65731",885.7143,79.290764,186.11426
"65732",885.7276,79.26391,186.06523
"65733",885.7409,79.23216,186.01048
"65734",885.7542,79.19798,185.9523
"65735",885.7675,79.166245,185.8955
"65736",885.7808,79.13695,185.84013
"65737",885.7941,79.10765,185.78386
"65738",885.80743,79.080795,185.72911
"65739",885.82074,79.05638,185.67596
"65740",885.83405,79.027084,185.61717
"65741",885.84735,78.99779,185.55746
"65742",885.86066,78.97826,185.5066
"65743",885.87396,79.009995,185.50641
"65744",885.88727,79.14427,185.60974
"65745",885.9006,79.447014,185.88574
"65746",885.9139,79.957275,186.37872
"65747",885.9272,80.66285,187.08296
"65748",885.9405,81.48562,187.92645
"65749",885.9538,82.31083,188.7981
"65750",885.9671,83.0164,189.57588
"65751",885.9804,83.50225,190.15599
"65752",885.9937,83.73907,190.50226
"65753",886.007,83.74639,190.62643
"65754",886.0203,83.57061,190.56773
"65755",886.0336,83.27276,190.38147
"65756",886.04694,82.916306,190.12729
"65757",886.06024,82.55497,189.85709
"65758",886.07355,82.2327,189.61465
"65759",886.08685,81.96658,189.41832
"65760",886.10016,81.76395,189.27715
"65761",886.11346,81.602806,189.17113
"65762",886.1268,81.46853,189.08694
"65763",886.1401,81.34646,189.01077
"65764",886.1534,81.24391,188.9503
"65765",886.1667,81.17311,188.91838
"65766",886.18,81.15358,188.93552
"65767",886.1933,81.1902,189.0082
"65768",886.2066,81.28054,189.13573
"65769",886.2199,81.40261,189.29782
"65770",886.2332,81.52712,189.46617
"65771",886.2465,81.619896,189.60667
"65772",886.2598,81.66384,189.70125
"65773",886.27313,81.63943,189.72884
"65774",886.28644,81.54421,189.68486
"65775",886.29974,81.38796,189.57687
"65776",886.31305,81.19508,189.42737
"65777",886.32635,80.98024,189.24988
"65778",886.33966,80.76051,189.06079
"65779",886.35297,80.5481,188.87215
"65780",886.3663,80.35523,188.69641
"65781",886.3796,80.18677,188.53905
"65782",886.3929,80.045166,188.40329
"65783",886.4062,79.92798,188.2875
"65784",886.4195,79.83276,188.19003
"65785",886.4328,79.74975,188.10179
"65786",886.4461,79.676506,188.02072
"65787",886.4594,79.60815,187.94225
"65788",886.4727,79.54711,187.86896
"65789",886.486,79.49096,187.79865
"65790",886.4993,79.43969,187.73146
"65791",886.51263,79.395744,187.67
"65792",886.52594,79.35668,187.61205
"65793",886.53925,79.32006,187.55531
"65794",886.55255,79.28588,187.49988
"65795",886.56586,79.2517,187.44337
"65796",886.57916,79.217514,187.3858
"65797",886.59247,79.18089,187.32472
"65798",886.6058,79.14183,187.26006
"65799",886.6191,79.10521,187.19661
"65800",886.6324,79.07103,187.13446
"65801",886.6457,79.03197,187.06636
"65802",886.659,78.99779,187.00192
"65803",886.6723,78.958725,186.93153
"65804",886.6856,78.91722,186.85748
"65805",886.6989,78.87572,186.78214
"65806",886.7122,78.839096,186.71037
"65807",886.7255,78.8098,186.64479
"65808",886.73883,78.785385,186.58318
"65809",886.75214,78.768295,186.52812
"65810",886.76544,78.751205,186.47253
"65811",886.77875,78.72434,186.40665
"65812",886.79205,78.69016,186.3326
"65813",886.80536,78.65598,186.25748
"65814",886.81866,78.61936,186.17885
"65815",886.832,78.58762,186.10396
"65816",886.8453,78.56565,186.03784
"65817",886.8586,78.57053,185.9979
"65818",886.8719,78.643776,186.02646
"65819",886.8852,78.856186,186.19649
"65820",886.8985,79.26391,186.56847
"65821",886.9118,79.90112,187.18268
"65822",886.9251,80.726326,188.00479
"65823",886.9384,81.654076,188.95525
"65824",886.9517,82.547646,189.90051
"65825",886.965,83.282524,190.71501
"65826",886.97833,83.77814,191.3132
"65827",886.99164,84.01007,191.66321
"65828",887.00494,84.00275,191.7812
"65829",887.01825,83.8172,191.72075
"65830",887.03156,83.51446,191.5373
"65831",887.04486,83.160446,191.2931
"65832",887.05817,82.81621,191.04764
"65833",887.0715,82.513466,190.8329
"65834",887.0848,82.266884,190.66487
"65835",887.0981,82.06912,190.53795
"65836",887.1114,81.900665,190.43416
"65837",887.1247,81.74685,190.33974
"65838",887.138,81.600365,190.24785
"65839",887.1513,81.47585,190.17336
"65840",887.1646,81.38552,190.12915
"65841",887.1779,81.34402,190.13095
"65842",887.1912,81.36111,190.19005
"65843",887.2045,81.427025,190.29851
"65844",887.21783,81.514915,190.431
"65845",887.23114,81.600365,190.5638
"65846",887.24445,81.64919,190.66264
"65847",887.25775,81.64675,190.71175
"65848",887.27106,81.57595,190.69241
"65849",887.28436,81.43679,190.60251
"65850",887.29767,81.24391,190.45453
"65851",887.311,81.0193,190.2688
"65852",887.3243,80.7776,190.05896
"65853",887.3376,80.53101,189.83667
"65854",887.3509,80.2942,189.61646
"65855",887.3642,80.076904,189.40836
"65856",887.3775,79.886475,189.22034
"65857",887.3908,79.725334,189.05565
"65858",887.4041,79.586174,188.9079
"65859",887.4174,79.46899,188.77777
"65860",887.4307,79.36889,188.66107
"65861",887.44403,79.281,188.55345
"65862",887.45734,79.20531,188.45529
"65863",887.47064,79.13695,188.36209
"65864",887.48395,79.07591,188.27408
"65865",887.49725,79.0222,188.19148
"65866",887.51056,78.97093,188.10965
"65867",887.52386,78.924545,188.0311
"65868",887.5372,78.88304,187.95598
"65869",887.5505,78.84154,187.87956
"65870",887.5638,78.802475,187.80429
"65871",887.5771,78.75853,187.72292
"65872",887.5904,78.712135,187.63773
"65873",887.6037,78.66331,187.54865
"65874",887.617,78.61448,187.45804
"65875",887.6303,78.572975,187.37323
"65876",887.6436,78.53391,187.28957
"65877",887.6569,78.49485,187.20468
"65878",887.6702,78.45335,187.11613
"65879",887.68353,78.41428,187.02873
"65880",887.69684,78.37278,186.93767
"65881",887.71014,78.33372,186.84775
"65882",887.72345,78.29221,186.75417
"65883",887.73676,78.25315,186.66173
"65884",887.75006,78.2092,186.56319
"65885",887.76337,78.167694,186.46571
"65886",887.7767,78.13107,186.37183
"65887",887.79,78.101776,186.28412
"65888",887.8033,78.082245,186.20526
"65889",887.8166,78.08713,186.1502
"65890",887.8299,78.1384,186.1417
"65891",887.8432,78.29954,186.24466
"65892",887.8565,78.63645,186.52843
"65893",887.8698,79.1931,187.04247
"65894",887.8831,79.9646,187.78874
"65895",887.8964,80.88747,188.71051
"65896",887.9097,81.83963,189.69041
"65897",887.92303,82.69169,190.59996
"65898",887.93634,83.33868,191.33107
"65899",887.94965,83.72198,191.81871
"65900",887.96295,83.844055,192.0571
"65901",887.97626,83.75128,192.08446
"65902",887.98956,83.49737,191.94777
"65903",888.00287,83.15312,191.71281
"65904",888.0162,82.78691,191.44514
"65905",888.0295,82.442665,191.18799
"65906",888.0428,82.14969,190.97134
"65907",888.0561,81.90799,190.79683
"65908",888.0694,81.7029,190.65137
"65909",888.0827,81.514915,190.5166
"65910",888.096,81.34402,190.39305
"65911",888.1093,81.1902,190.28123
"65912",888.1226,81.06813,190.19637
"65913",888.1359,81.007095,190.16872
"65914",888.14923,81.00954,190.20264
"65915",888.16254,81.06569,190.29034
"65916",888.17584,81.15602,190.41399
"65917",888.18915,81.248795,190.5429
"65918",888.20245,81.31472,190.64784
"65919",888.21576,81.33181,190.70602
"65920",888.22906,81.28298,190.69882
"65921",888.2424,81.160904,190.61684
"65922",888.2557,80.98024,190.47246
"65923",888.269,80.75563,190.27849
"65924",888.2823,80.499275,190.04575
"65925",888.2956,80.235596,189.79767
"65926",888.3089,79.98169,189.55112
"65927",888.3222,79.7522,189.32104
"65928",888.3355,79.551994,189.1131
"65929",888.3488,79.381096,188.92819
"65930",888.3621,79.234604,188.76236
"65931",888.3754,79.11253,188.61636
"65932",888.38873,79.00511,188.4812
"65933",888.40204,78.91478,188.35977
"65934",888.41534,78.839096,188.25017
"65935",888.42865,78.77562,188.1504
"65936",888.44196,78.72678,188.06331
"65937",888.45526,78.68528,187.98201
"65938",888.46857,78.64866,187.9043
"65939",888.4819,78.61448,187.82788
"65940",888.4952,78.5803,187.7504
"65941",888.5085,78.54124,187.66696
"65942",888.5218,78.502174,187.5823
"65943",888.5351,78.46311,187.49643
"65944",888.5484,78.42405,187.40933
"65945",888.5617,78.382545,187.31857
"65946",888.575,78.345924,187.2314
"65947",888.5883,78.30686,187.14064
"65948",888.6016,78.26292,187.04378
"65949",888.6149,78.21652,186.9431
"65950",888.62823,78.17502,186.84586
"65951",888.64154,78.133514,186.74731
"65952",888.65485,78.09445,186.64992
"65953",888.66815,78.06271,186.55862
"65954",888.68146,78.0383,186.47366
"65955",888.69476,78.01633,186.39038
"65956",888.70807,77.994354,186.30641
"65957",888.7214,77.96506,186.21443
"65958",888.7347,77.93088,186.11665
"65959",888.748,77.89426,186.01537
"65960",888.7613,77.85275,185.90805
"65961",888.7746,77.81369,185.80188
"65962",888.7879,77.789276,185.70914
"65963",888.8012,77.78439,185.63516
"65964",888.8145,77.81613,185.59766
"65965",888.8278,77.93088,185.64415
"65966",888.8411,78.19943,185.84804
"65967",888.85443,78.68772,186.28006
"65968",888.86774,79.412834,186.96416
"65969",888.88104,80.34058,187.87355
"65970",888.89435,81.36599,188.9096
"65971",888.90765,82.34989,189.9362
"65972",888.92096,83.158005,190.81775
"65973",888.93427,83.70489,191.46332
"65974",888.9476,83.96857,191.84277
"65975",888.9609,83.97101,191.96924
"65976",888.9742,83.807434,191.92976
"65977",888.9875,83.61944,191.86075
"65978",889.0008,83.529106,191.88353
"65979",889.0141,83.57061,192.03532
"65980",889.0274,83.70977,192.28607
"65981",889.0407,83.87335,192.56558
"65982",889.054,83.9588,192.77208
"65983",889.0673,83.895325,192.83232
"65984",889.0806,83.69512,192.75385
"65985",889.09393,83.4168,192.591
"65986",889.10724,83.140915,192.42189
"65987",889.12054,82.9041,192.28323
"65988",889.13385,82.74052,192.2104
"65989",889.14716,82.650185,192.20572
"65990",889.16046,82.616005,192.25436
"65991",889.17377,82.61112,192.33124
"65992",889.1871,82.59403,192.39575
"65993",889.2004,82.53788,192.42067
"65994",889.2137,82.41825,192.38036
"65995",889.227,82.230255,192.26793
"65996",889.2403,81.97879,192.08617
"65997",889.2536,81.68093,191.85014
"65998",889.2669,81.34646,191.5682
"65999",889.2802,80.99733,191.26115
"66000",889.2935,80.65308,190.94807
"66001",889.3068,80.325935,190.64134
"66002",889.3201,80.02075,190.34634
"66003",889.33344,79.74731,190.07355
"66004",889.34674,79.517815,189.83615
"66005",889.36005,79.3225,189.62576
"66006",889.37335,79.1638,189.44589
"66007",889.38666,79.03197,189.28792
"66008",889.39996,78.924545,189.15024
"66009",889.41327,78.83177,189.02385
"66010",889.4266,78.751205,188.90677
"66011",889.4399,78.675514,188.79205
"66012",889.4532,78.607155,188.6823
"66013",889.4665,78.54612,188.57773
"66014",889.4798,78.48997,188.47614
"66015",889.4931,78.43626,188.37523
"66016",889.5064,78.38499,188.27509
"66017",889.5197,78.33372,188.17334
"66018",889.533,78.27268,188.06023
"66019",889.5463,78.204315,187.93788
"66020",889.55963,78.12863,187.80608
"66021",889.57294,78.048065,187.66702
"66022",889.58624,77.95773,187.51569
"66023",889.59955,77.86252,187.35664
"66024",889.61285,77.76486,187.19218
"66025",889.62616,77.65743,187.01491
"66026",889.63947,77.54757,186.83183
"66027",889.6528,77.437706,186.64532
"66028",889.6661,77.330284,186.45782
"66029",889.6794,77.23262,186.27673
"66030",889.6927,77.14961,186.10724
"66031",889.706,77.07149,185.94003
"66032",889.7193,77.00557,185.7826
"66033",889.7326,76.94209,185.62553
"66034",889.7459,76.88106,185.46893
"66035",889.7592,76.82002,185.31042
"66036",889.7725,76.76143,185.15245
"66037",889.7858,76.71015,184.99997
"66038",889.79913,76.6833,184.8703
"66039",889.81244,76.71015,184.7935
"66040",889.82574,76.841995,184.82254
"66041",889.83905,77.14473,185.02658
"66042",889.85236,77.66476,185.45738
"66043",889.86566,78.399635,186.11928
"66044",889.87897,79.293205,186.96283
"66045",889.8923,80.23804,187.88557
"66046",889.9056,81.10475,188.75974
"66047",889.9189,81.78104,189.47055
"66048",889.9322,82.20096,189.94614
"66049",889.9455,82.354774,190.16873
"66050",889.9588,82.28397,190.17152
"66051",889.9721,82.05203,190.01096
"66052",889.9854,81.72976,189.7528
"66053",889.9987,81.3782,189.4553
"66054",890.012,81.06081,189.18098
"66055",890.0253,80.79225,188.94559
"66056",890.03864,80.58228,188.76038
"66057",890.05194,80.413826,188.61012
"66058",890.06525,80.26734,188.47658
"66059",890.07855,80.1355,188.35309
"66060",890.09186,80.01587,188.2377
"66061",890.10516,79.920654,188.14297
"66062",890.11847,79.8645,188.08435
"66063",890.1318,79.85718,188.07278
"66064",890.1451,79.8938,188.10495
"66065",890.1584,79.9646,188.17242
"66066",890.1717,80.042725,188.24945
"66067",890.185,80.111084,188.31915
"66068",890.1983,80.14038,188.35193
"66069",890.2116,80.11841,188.33435
"66070",890.2249,80.03296,188.2526
"66071",890.2382,79.888916,188.10959
"66072",890.2515,79.693596,187.9108
"66073",890.26483,79.47143,187.67905
"66074",890.27814,79.24437,187.43547
"66075",890.29144,79.02464,187.19212
"66076",890.30475,78.83177,186.96877
"66077",890.31805,78.66575,186.76624
"66078",890.33136,78.52415,186.58293
"66079",890.34467,78.40208,186.41473
"66080",890.358,78.294655,186.25737
"66081",890.3713,78.20187,186.1113
"66082",890.3846,78.118866,185.97209
"66083",890.3979,78.048065,185.8425
"66084",890.4112,77.98947,185.7229
"66085",890.4245,77.943085,185.61368
"66086",890.4378,77.90402,185.51033
"66087",890.4511,77.874725,185.41553
"66088",890.4644,77.85275,185.32713
"66089",890.4777,77.838104,185.24538
"66090",890.491,77.823456,185.16316
"66091",890.50433,77.81125,185.08293
"66092",890.51764,77.79904,185.00232
"66093",890.53094,77.78195,184.91644
"66094",890.54425,77.76242,184.82759
"66095",890.55756,77.74044,184.73569
"66096",890.57086,77.71603,184.64066
"66097",890.58417,77.69405,184.5473
"66098",890.5975,77.66964,184.45082
"66099",890.6108,77.65011,184.35846
"66100",890.6241,77.63058,184.26549
"66101",890.6374,77.61349,184.17435
"66102",890.6507,77.5964,184.08267
"66103",890.664,77.57931,183.99046
"66104",890.6773,77.56222,183.89772
"66105",890.6906,77.54757,183.80688
"66106",890.7039,77.540245,183.72292
"66107",890.7172,77.54269,183.64848
"66108",890.7305,77.55245,183.58145
"66109",890.74384,77.5671,183.5196
"66110",890.75714,77.58663,183.4631
"66111",890.77045,77.60128,183.40233
"66112",890.78375,77.61593,183.34201
"66113",890.79706,77.63058,183.28215
"66114",890.81036,77.645226,183.22275
"66115",890.82367,77.66476,183.16869
"66116",890.837,77.69161,183.12256
"66117",890.8503,77.747765,183.10657
"66118",890.8636,77.874725,183.16315
"66119",890.8769,78.14328,183.36528
"66120",890.8902,78.59739,183.76137
"66121",890.9035,79.259026,184.37917
"66122",890.9168,80.08667,185.18365
"66123",890.9301,80.98024,186.07993
"66124",890.9434,81.81766,186.94798
"66125",890.9567,82.48417,187.6713
"66126",890.97003,82.90898,188.17374
"66127",890.98334,83.087204,188.44287
"66128",890.99664,83.0457,188.49785
"66129",891.00995,82.84062,188.38795
"66130",891.02325,82.54276,188.17886
"66131",891.03656,82.21805,187.93361
"66132",891.04987,81.917755,187.70264
"66133",891.0632,81.671165,187.51598
"66134",891.0765,81.49294,187.38998
"66135",891.0898,81.36599,187.3097
"66136",891.1031,81.26589,187.25229
"66137",891.1164,81.17555,187.2015
"66138",891.1297,81.08278,187.14548
"66139",891.143,80.99489,187.09143
"66140",891.1563,80.93385,187.0615
"66141",891.1696,80.91432,187.07115
"66142",891.1829,80.94118,187.12659
"66143",891.1962,81.00954,187.22437
"66144",891.20953,81.09743,187.34381
"66145",891.22284,81.17799,187.45868
"66146",891.23615,81.22438,187.54189
"66147",891.24945,81.21706,187.57283
"66148",891.26276,81.15114,187.54495
"66149",891.27606,81.02663,187.45642
"66150",891.28937,80.85817,187.32005
"66151",891.3027,80.655525,187.14423
"66152",891.316,80.44068,186.94987
"66153",891.3293,80.233154,186.75612
"66154",891.3426,80.042725,186.57297
"66155",891.3559,79.87915,186.41074
"66156",891.3692,79.74731,186.27512
"66157",891.3825,79.635,186.1549
"66158",891.3958,79.54467,186.05316
"66159",891.4091,79.4641,185.95836
"66160",891.4224,79.3933,185.8708
"66161",891.4357,79.33471,185.79324
"66162",891.44904,79.28832,185.72606
"66163",891.46234,79.24925,185.66475
"66164",891.47565,79.21507,185.6071
"66165",891.48895,79.185776,185.55327
"66166",891.50226,79.16136,185.5034
"66167",891.51556,79.13939,185.45522
"66168",891.5289,79.11742,185.40634
"66169",891.5422,79.09544,185.35678
"66170",891.5555,79.07591,185.30898
"66171",891.5688,79.05394,185.25812
"66172",891.5821,79.027084,185.20169
"66173",891.5954,78.99779,185.14198
"66174",891.6087,78.96361,185.07648
"66175",891.622,78.922104,185.00258
"66176",891.6353,78.87816,184.92494
"66177",891.6486,78.83177,184.84349
"66178",891.6619,78.78783,184.76303
"66179",891.67523,78.74387,184.6812
"66180",891.68854,78.69993,184.59799
"66181",891.70184,78.65598,184.51341
"66182",891.71515,78.61448,184.4299
"66183",891.72845,78.57542,184.34753
"66184",891.74176,78.54124,184.26883
"66185",891.75507,78.51682,184.19882
"66186",891.7684,78.49485,184.1305
"66187",891.7817,78.47288,184.06148
"66188",891.795,78.450905,183.99178
"66189",891.8083,78.42405,183.9165
"66190",891.8216,78.39231,183.83551
"66191",891.8349,78.365456,183.7584
"66192",891.8482,78.348366,183.69023
"66193",891.8615,78.34348,183.63373
"66194",891.8748,78.380104,183.61858
"66195",891.8881,78.49729,183.68513
"66196",891.9014,78.76097,183.90186
"66197",891.91473,79.21507,184.31723
"66198",891.92804,79.87915,184.95677
"66199",891.94135,80.69459,185.76843
"66200",891.95465,81.57107,186.66663
"66201",891.96796,82.38407,187.52873
"66202",891.98126,83.021286,188.24045
"66203",891.99457,83.41436,188.72794
"66204",892.0079,83.560844,188.98112
"66205",892.0212,83.49737,189.02893
"66206",892.0345,83.27764,188.9185
"66207",892.0478,82.9749,188.71819
"66208",892.0611,82.65507,188.49132
"66209",892.0744,82.36454,188.28377
"66210",892.0877,82.127716,188.12083
"66211",892.101,81.94461,188.00423
"66212",892.1143,81.80545,187.92584
"66213",892.1276,81.688255,187.86507
"66214",892.1409,81.57839,187.80797
"66215",892.15424,81.46853,187.74744
"66216",892.16754,81.36843,187.69324
"66217",892.18085,81.29763,187.6652
"66218",892.19415,81.27322,187.68135
"66219",892.20746,81.290306,187.73824
"66220",892.22076,81.34646,187.83472
"66221",892.2341,81.42214,187.95248
"66222",892.2474,81.4905,188.06529
"66223",892.2607,81.529564,188.15094
"66224",892.274,81.5198,188.18898
"66225",892.2873,81.45144,188.16812
"66226",892.3006,81.324486,188.08653
"66227",892.3139,81.14137,187.94481
"66228",892.3272,80.92409,187.7632
"66229",892.3405,80.69459,187.56258
"66230",892.3538,80.46754,187.35724
"66231",892.3671,80.255135,187.15945
"66232",892.38043,80.062256,186.97455
"66233",892.39374,79.888916,186.80316
"66234",892.40704,79.73754,186.64832
"66235",892.42035,79.59838,186.50095
"66236",892.43365,79.47387,186.36388
"66237",892.44696,79.37133,186.24489
"66238",892.46027,79.28344,186.13734
"66239",892.4736,79.21263,186.04414
"66240",892.4869,79.15648,185.96338
"66241",892.5002,79.11742,185.89795
"66242",892.5135,79.080795,185.83374
"66243",892.5268,79.0515,185.77571
"66244",892.5401,79.01976,185.71432
"66245",892.5534,78.992905,185.65683
"66246",892.5667,78.96361,185.59605
"66247",892.58,78.93187,185.53192
"66248",892.5933,78.90257,185.46924
"66249",892.6066,78.87572,185.40808
"66250",892.61993,78.84886,185.34608
"66251",892.63324,78.819565,185.2808
"66252",892.64655,78.79027,185.21461
"66253",892.65985,78.75853,185.14507
"66254",892.67316,78.72434,185.07208
"66255",892.68646,78.68772,184.99559
"66256",892.69977,78.64866,184.91551
"66257",892.7131,78.61692,184.84154
"66258",892.7264,78.58274,184.76413
"66259",892.7397,78.54856,184.68565
"66260",892.753,78.51438,184.60611
"66261",892.7663,78.48264,184.52794
"66262",892.7796,78.45335,184.45122
"66263",892.7929,78.42893,184.37846
"66264",892.8062,78.40696,184.30739
"66265",892.8195,78.38743,184.23807
"66266",892.8328,78.37522,184.17546
"66267",892.8461,78.397194,184.14665
"66268",892.85944,78.49973,184.1991
"66269",892.87274,78.74143,184.3939
"66270",892.88605,79.17357,184.78671
"66271",892.89935,79.80591,185.39322
"66272",892.91266,80.59693,186.17818
"66273",892.92596,81.461205,187.06111
"66274",892.9393,82.28886,187.93443
"66275",892.9526,82.967575,188.68468
"66276",892.9659,83.43389,189.24373
"66277",892.9792,83.66338,189.58054
"66278",892.9925,83.67803,189.70967
"66279",893.0058,83.52178,189.66837
"66280",893.0191,83.265434,189.52208
"66281",893.0324,82.97002,189.3287
"66282",893.0457,82.67948,189.13098
"66283",893.059,82.42069,188.95593
"66284",893.0723,82.2034,188.81429
"66285",893.08563,82.022736,188.70248
"66286",893.09894,81.8616,188.60457
"66287",893.11224,81.71511,188.51625
"66288",893.12555,81.58816,188.4429
"66289",893.13885,81.4905,188.39488
"66290",893.15216,81.43679,188.38776
"66291",893.16547,81.44167,188.43755
"66292",893.1788,81.50271,188.54364
"66293",893.1921,81.60769,188.69559
"66294",893.2054,81.72488,188.86302
"66295",893.2187,81.82254,189.01459
"66296",893.232,81.87137,189.12038
"66297",893.2453,81.849396,189.15689
"66298",893.2586,81.75418,189.11948
"66299",893.2719,81.59548,189.0156
"66300",893.2852,81.38552,188.8555
"66301",893.2985,81.15358,188.66685
"66302",893.3118,80.91188,188.46121
"66303",893.32513,80.672615,188.25044
"66304",893.33844,80.45289,188.05174
"66305",893.35175,80.25269,187.8657
"66306",893.36505,80.07446,187.69537
"66307",893.37836,79.91577,187.539
"66308",893.39166,79.77905,187.39966
"66309",893.40497,79.66674,187.28044
"66310",893.4183,79.571526,187.1748
"66311",893.4316,79.48852,187.0784
"66312",893.4449,79.4226,186.99649
"66313",893.4582,79.36645,186.92229
"66314",893.4715,79.31518,186.85121
"66315",893.4848,79.26635,186.78098
"66316",893.4981,79.219955,186.71165
"66317",893.5114,79.17601,186.64333
"66318",893.5247,79.13451,186.57607
"66319",893.538,79.09056,186.50507
"66320",893.55133,79.046616,186.4327
"66321",893.56464,78.99779,186.35406
"66322",893.57794,78.94408,186.26903
"66323",893.59125,78.88304,186.17499
"66324",893.60455,78.819565,186.0766
"66325",893.61786,78.75853,185.97867
"66326",893.63116,78.69749,185.87883
"66327",893.6445,78.63157,185.7722
"66328",893.6578,78.56077,185.65863
"66329",893.6711,78.48264,185.53552
"66330",893.6844,78.40208,185.40753
"66331",893.6977,78.31663,185.27214
"66332",893.711,78.23605,185.13896
"66333",893.7243,78.16525,185.01303
"66334",893.7376,78.12375,184.91418
"66335",893.7509,78.133514,184.86531
"66336",893.7642,78.24826,184.92172
"66337",893.7775,78.51194,185.13066
"66338",893.79083,78.958725,185.53094
"66339",893.80414,79.57641,186.11609
"66340",893.81744,80.308846,186.83528
"66341",893.83075,81.05348,187.58957
"66342",893.84406,81.70779,188.2768
"66343",893.85736,82.18387,188.80624
"66344",893.87067,82.442665,189.13329
"66345",893.884,82.48173,189.24869
"66346",893.8973,82.34745,189.19197
"66347",893.9106,82.09354,189.01141
"66348",893.9239,81.78592,188.76923
"66349",893.9372,81.47097,188.51009
"66350",893.9505,81.18288,188.26796
"66351",893.9638,80.93385,188.05591
"66352",893.9771,80.719,187.87024
"66353",893.9904,80.52613,187.69984
"66354",894.0037,80.34547,187.53563
"66355",894.017,80.18677,187.38773
"66356",894.03033,80.059814,187.2666
"66357",894.04364,79.98413,187.19278
"66358",894.05695,79.971924,187.18008
"66359",894.07025,80.01831,187.22559
"66360",894.08356,80.111084,187.31894
"66361",894.09686,80.21362,187.42496
"66362",894.11017,80.30396,187.52197
"66363",894.1235,80.35035,187.57787
"66364",894.1368,80.3357,187.57417
"66365",894.1501,80.25025,187.49922
"66366",894.1634,80.10132,187.35811
"66367",894.1767,79.90112,187.16107
"66368",894.19,79.68139,186.93825
"66369",894.2033,79.45434,186.70123
"66370",894.2166,79.24193,186.47177
"66371",894.2299,79.0515,186.25764
"66372",894.2432,78.890366,186.06686
"66373",894.25653,78.74876,185.89058
"66374",894.26984,78.62913,185.73184
"66375",894.28314,78.53147,185.59134
"66376",894.29645,78.45335,185.46732
"66377",894.30975,78.39475,185.36038
"66378",894.32306,78.35081,185.26627
"66379",894.33636,78.32151,185.18542
"66380",894.3497,78.29221,185.10367
"66381",894.363,78.27268,185.03076
"66382",894.3763,78.25559,184.95969
"66383",894.3896,78.23361,184.8832
"66384",894.4029,78.20676,184.80113
"66385",894.4162,78.17258,184.7109
"66386",894.4295,78.13107,184.61229
"66387",894.4428,78.0798,184.50261
"66388",894.4561,78.02609,184.38889
"66389",894.4694,77.96994,184.27104
"66390",894.4827,77.91623,184.15388
"66391",894.49603,77.86008,184.03261
"66392",894.50934,77.806366,183.91202
"66393",894.52264,77.76242,183.79951
"66394",894.53595,77.752655,183.71982
"66395",894.54926,77.81125,183.70818
"66396",894.56256,77.99191,183.82043
"66397",894.57587,78.32151,184.08728
"66398",894.5892,78.8098,184.52312
"66399",894.6025,79.40795,185.08408
"66400",894.6158,80.042725,185.70035
"66401",894.6291,80.61402,186.27298
"66402",894.6424,81.04616,186.7243
"66403",894.6557,81.29519,187.00603
"66404",894.669,81.35378,187.1051
"66405",894.6823,81.26101,187.05464
"66406",894.6956,81.06569,186.89873
"66407",894.7089,80.82887,186.69522
"66408",894.7222,80.59449,186.48674
"66409",894.73553,80.396736,186.30757
"66410",894.74884,80.235596,186.15883
"66411",894.76215,80.10132,186.03192
"66412",894.77545,79.974365,185.90814
"66413",894.78876,79.85474,185.78772
"66414",894.80206,79.742424,185.67087
"66415",894.81537,79.65453,185.57492
"66416",894.8287,79.61059,185.52017
"66417",894.842,79.62768,185.52509
"66418",894.8553,79.70336,185.58913
"66419",894.8686,79.818115,185.69461
"66420",894.8819,79.94995,185.82077
"66421",894.8952,80.07202,185.94128
"66422",894.9085,80.15503,186.02655
"66423",894.9218,80.177,186.05338
"66424",894.9351,80.1355,186.0174
"66425",894.9484,80.02319,185.90933
"66426",894.96173,79.8645,185.75137
"66427",894.97504,79.67895,185.56158
"66428",894.98834,79.500725,185.37332
"66429",895.00165,79.32983,185.18681
"66430",895.01495,79.185776,185.02182
"66431",895.02826,79.07103,184.88162
"66432",895.04156,78.9807,184.76225
"66433",895.0549,78.91234,184.66203
"66434",895.0682,78.873276,184.58897
"66435",895.0815,78.8513,184.53178
"66436",895.0948,78.84398,184.48856
"66437",895.1081,78.84398,184.45242
"66438",895.1214,78.84642,184.41873
"66439",895.1347,78.8513,184.38756
"66440",895.148,78.856186,184.35654
"66441",895.1613,78.86107,184.32567
"66442",895.1746,78.86107,184.29007
"66443",895.1879,78.856186,184.24959
"66444",895.20123,78.83421,184.19186
"66445",895.21454,78.802475,184.12369
"66446",895.22784,78.76097,184.04475
"66447",895.24115,78.712135,183.9572
"66448",895.25446,78.66331,183.86812
"66449",895.26776,78.61692,183.77995
"66450",895.28107,78.58518,183.70499
"66451",895.2944,78.58274,183.65833
"66452",895.3077,78.643776,183.67506
"66453",895.321,78.81224,183.80115
"66454",895.3343,79.12474,184.07652
"66455",895.3476,79.57641,184.50084
"66456",895.3609,80.1355,185.04669
"66457",895.3742,80.726326,185.64175
"66458",895.3875,81.26101,186.19914
"66459",895.4008,81.6614,186.63895
"66460",895.4141,81.883575,186.91304
"66461",895.4274,81.92264,187.01097
"66462",895.44073,81.815216,186.96364
"66463",895.45404,81.61501,186.82016
"66464",895.46735,81.38064,186.63626
"66465",895.48065,81.160904,186.45967
"66466",895.49396,80.99245,186.3275
"66467",895.50726,80.87526,186.24133
"66468",895.52057,80.797134,186.19057
"66469",895.5339,80.726326,186.14467
"66470",895.5472,80.65064,186.09169
"66471",895.5605,80.56275,186.02414
"66472",895.5738,80.462654,185.94164
"66473",895.5871,80.377205,185.87065
"66474",895.6004,80.33082,185.83606
"66475",895.6137,80.34058,185.85617
"66476",895.627,80.39918,185.92542
"66477",895.6403,80.49683,186.03555
"66478",895.6536,80.601814,186.15607
"66479",895.66693,80.68238,186.25545
"66480",895.68024,80.71412,186.30852
"66481",895.69354,80.68238,186.2991
"66482",895.70685,80.58961,186.22766
"66483",895.72015,80.45777,186.11426
"66484",895.73346,80.29908,185.96988
"66485",895.74677,80.130615,185.81076
"66486",895.7601,79.971924,185.65616
"66487",895.7734,79.82788,185.51123
"66488",895.7867,79.7058,185.38377
"66489",895.8,79.60815,185.27692
"66490",895.8133,79.534904,185.19142
"66491",895.8266,79.48119,185.12317
"66492",895.8399,79.447014,185.07277
"66493",895.8532,79.432365,185.04083
"66494",895.8665,79.42748,185.0182
"66495",895.8798,79.42748,185.0003
"66496",895.8931,79.432365,184.98729
"66497",895.90643,79.432365,184.96954
"66498",895.91974,79.4226,184.94203
"66499",895.93304,79.40063,184.90201
"66500",895.94635,79.37377,184.85641
"66501",895.95966,79.33959,184.80266
"66502",895.97296,79.30785,184.75027
"66503",895.98627,79.273674,184.69446
"66504",895.9996,79.24925,184.64734
"66505",896.0129,79.22728,184.6019
"66506",896.0262,79.21263,184.5631
"66507",896.0395,79.202866,184.52872
"66508",896.0528,79.1931,184.49403
"66509",896.0661,79.185776,184.46149
"66510",896.0794,79.17357,184.42383
"66511",896.0927,79.15892,184.38335
"66512",896.106,79.13695,184.33508
"66513",896.1193,79.10765,184.27881
"66514",896.1326,79.07103,184.2143
"66515",896.14594,79.03929,184.15352
"66516",896.15924,79.01488,184.09908
"66517",896.17255,79.009995,184.0634
"66518",896.18585,79.044174,184.06664
"66519",896.19916,79.166245,184.15883
"66520",896.21246,79.415276,184.3818
"66521",896.22577,79.82788,184.77614
"66522",896.2391,80.38697,185.32985
"66523",896.2524,81.03639,185.99136
"66524",896.2657,81.68093,186.66829
"66525",896.279,82.213165,187.25305
"66526",896.2923,82.562294,187.67134
"66527",896.3056,82.69901,187.88814
"66528",896.3189,82.64774,187.92122
"66529",896.3322,82.4622,187.81842
"66530",896.3455,82.20828,187.64145
"66531",896.3588,81.94949,187.45168
"66532",896.37213,81.7322,187.2953
"66533",896.38544,81.5906,187.20784
"66534",896.39874,81.52224,187.1892
"66535",896.41205,81.51003,187.22456
"66536",896.42535,81.51003,187.27176
"66537",896.43866,81.48318,187.2921
"66538",896.45197,81.40749,187.26277
"66539",896.4653,81.28054,187.17981
"66540",896.4786,81.12428,187.06357
"66541",896.4919,80.972916,186.94734
"66542",896.5052,80.85573,186.86057
"66543",896.5185,80.78981,186.8214
"66544",896.5318,80.77272,186.829
"66545",896.5451,80.78981,186.87024
"66546",896.5584,80.81911,186.92422
"66547",896.5717,80.83864,186.96936
"66548",896.585,80.82887,186.98581
"66549",896.5983,80.78493,186.96777
"66550",896.61163,80.70191,186.90929
"66551",896.62494,80.587166,186.81648
"66552",896.63824,80.445564,186.69324
"66553",896.65155,80.28687,186.54848
"66554",896.66486,80.12573,186.3963
"66555",896.67816,79.98169,186.2562
"66556",896.69147,79.852295,186.12622
"66557",896.7048,79.744865,186.01418
"66558",896.7181,79.65942,185.92075
"66559",896.7314,79.59106,185.84174
"66560",896.7447,79.537346,185.77524
"66561",896.758,79.49584,185.71927
"66562",896.7713,79.466545,185.67421
"66563",896.7846,79.449455,185.64044
"66564",896.7979,79.43725,185.61102
"66565",896.8112,79.42504,185.58122
"66566",896.8245,79.40795,185.54616
"66567",896.8378,79.38354,185.50323
"66568",896.85114,79.3518,185.45222
"66569",896.86444,79.31762,185.39778
"66570",896.87775,79.27856,185.33739
"66571",896.89105,79.237045,185.27333
"66572",896.90436,79.19798,185.21042
"66573",896.91766,79.16136,185.14873
"66574",896.93097,79.1223,185.08345
"66575",896.9443,79.08324,185.01695
"66576",896.9576,79.044174,184.94923
"66577",896.9709,79.009995,184.88518
"66578",896.9842,78.9807,184.82494
"66579",896.9975,78.95628,184.76866
"66580",897.0108,78.93675,184.7165
"66581",897.0241,78.924545,184.67107
"66582",897.0374,78.91234,184.62524
"66583",897.0507,78.89525,184.57416
"66584",897.064,78.88548,184.52986
"66585",897.07733,78.873276,184.48282
"66586",897.09064,78.86351,184.43784
"66587",897.10394,78.85863,184.39743
"66588",897.11725,78.856186,184.35931
"66589",897.13055,78.856186,184.32356
"66590",897.14386,78.856186,184.28781
"66591",897.15717,78.853745,184.24962
"66592",897.1705,78.8513,184.21135
"66593",897.1838,78.84642,184.17056
"66594",897.1971,78.84398,184.13206
"66595",897.2104,78.84398,184.09593
"66596",897.2237,78.84886,184.06468
"66597",897.237,78.856186,184.03603
"66598",897.2503,78.86107,184.00516
"66599",897.2636,78.86839,183.97688
"66600",897.2769,78.873276,183.9464
"66601",897.2902,78.873276,183.91118
"66602",897.3035,78.87572,183.8784
"66603",897.31683,78.88548,183.85303
"66604",897.33014,78.89525,183.82796
"66605",897.34344,78.905014,183.80319
"66606",897.35675,78.91722,183.78117
"66607",897.37006,78.92943,183.75954
"66608",897.38336,78.93919,183.73584
"66609",897.39667,78.941635,183.70512
"66610",897.41,78.94652,183.67693
"66611",897.4233,78.9514,183.64888
"66612",897.4366,78.975815,183.64052
"66613",897.4499,79.05394,183.68663
"66614",897.4632,79.24681,183.84993
"66615",897.4765,79.60815,184.18773
"66616",897.4898,80.15015,184.71748
"66617",897.5031,80.84352,185.41556
"66618",897.5164,81.60769,186.20609
"66619",897.5297,82.32304,186.97168
"66620",897.543,82.88457,187.6058
"66621",897.55634,83.226364,188.03775
"66622",897.56964,83.336235,188.24844
"66623",897.58295,83.25323,188.2697
"66624",897.59625,83.04082,188.15895
"66625",897.60956,82.777145,187.99031
"66626",897.62286,82.52567,187.82562
"66627",897.63617,82.3328,187.71169
"66628",897.6495,82.22781,187.6796
"66629",897.6628,82.210724,187.73213
"66630",897.6761,82.25712,187.84761
"66631",897.6894,82.32792,187.98895
"66632",897.7027,82.37675,188.11053
"66633",897.716,82.36454,188.1726
"66634",897.7293,82.27909,188.16106
"66635",897.7426,82.127716,188.0809
"66636",897.7559,81.93973,187.95941
"66637",897.7692,81.75418,187.83449
"66638",897.78253,81.602806,187.73793
"66639",897.79584,81.51003,187.69525
"66640",897.80914,81.46609,187.6985
"66641",897.82245,81.45632,187.73456
"66642",897.83575,81.461205,187.78496
"66643",897.84906,81.463646,187.83307
"66644",897.86237,81.43923,187.8544
"66645",897.8757,81.38308,187.84323
"66646",897.889,81.29519,187.79857
"66647",897.9023,81.16823,187.71208
"66648",897.9156,81.01442,187.59479
"66649",897.9289,80.848404,187.46048
"66650",897.9422,80.6775,187.31609
"66651",897.9555,80.516365,187.17613
"66652",897.9688,80.37476,187.05067
"66653",897.9821,80.257576,186.9452
"66654",897.9954,80.16235,186.85803
"66655",898.0087,80.08911,186.78986
"66656",898.02203,80.028076,186.7316
"66657",898.03534,79.96704,186.67145
"66658",898.04865,79.906006,186.60938
"66659",898.06195,79.84009,186.54053
"66660",898.07526,79.77417,186.4696
"66661",898.08856,79.71801,186.40639
"66662",898.10187,79.66674,186.3463
"66663",898.1152,79.62524,186.29437
"66664",898.1285,79.58129,186.23871
"66665",898.1418,79.53002,186.17435
"66666",898.1551,79.46899,186.09862
"66667",898.1684,79.40307,186.0161
"66668",898.1817,79.33227,185.92664
"66669",898.195,79.26879,185.84229
"66670",898.2083,79.21019,185.76083
"66671",898.2216,79.15892,185.68488
"66672",898.2349,79.11009,185.60976
"66673",898.2482,79.06615,185.538
"66674",898.26154,79.01732,185.45998
"66675",898.27484,78.97093,185.38287
"66676",898.28815,78.924545,185.30432
"66677",898.30145,78.890366,185.23653
"66678",898.31476,78.86595,185.17743
"66679",898.32806,78.8513,185.12733
"66680",898.3414,78.836655,185.07678
"66681",898.3547,78.82201,185.02577
"66682",898.368,78.802475,184.96942
"66683",898.3813,78.7805,184.91002
"66684",898.3946,78.75365,184.84505
"66685",898.4079,78.73411,184.78656
"66686",898.4212,78.72434,184.73723
"66687",898.4345,78.72434,184.69736
"66688",898.4478,78.72434,184.65749
"66689",898.4611,78.72678,184.62006
"66690",898.4744,78.73167,184.58514
"66691",898.48773,78.73411,184.54794
"66692",898.50104,78.73899,184.51326
"66693",898.51434,78.746315,184.48117
"66694",898.52765,78.75365,184.44933
"66695",898.54095,78.75853,184.41525
"66696",898.55426,78.76341,184.38133
"66697",898.56757,78.765854,184.34512
"66698",898.5809,78.768295,184.30899
"66699",898.5942,78.768295,184.2705
"66700",898.6075,78.77074,184.23444
"66701",898.6208,78.765854,184.19113
"66702",898.6341,78.75365,184.14035
"66703",898.6474,78.73655,184.0843
"66704",898.6607,78.71946,184.02773
"66705",898.674,78.70725,183.9755
"66706",898.6873,78.72434,183.95218
"66707",898.7006,78.80736,183.99533
"66708",898.7139,79.01732,184.16801
"66709",898.72723,79.40063,184.52061
"66710",898.74054,79.96948,185.07074
"66711",898.75385,80.68238,185.78268
"66712",898.76715,81.449,186.57063
"66713",898.78046,82.15213,187.31905
"66714",898.79376,82.686806,187.92097
"66715",898.80707,82.99687,188.315
"66716",898.8204,83.07744,188.48923
"66717",898.8337,82.97978,188.48775
"66718",898.847,82.76494,188.36603
"66719",898.8603,82.5037,188.1912
"66720",898.8736,82.252235,188.01797
"66721",898.8869,82.056915,187.89304
"66722",898.9002,81.92996,187.83037
"66723",898.9135,81.881134,187.84186
"66724",898.9268,81.88846,187.90797
"66725",898.9401,81.917755,187.99629
"66726",898.9534,81.934845,188.07332
"66727",898.96674,81.898224,188.09717
"66728",898.98004,81.795685,188.05396
"66729",898.99335,81.62966,187.94405
"66730",899.00665,81.43191,187.79723
"66731",899.01996,81.23659,187.64665
"66732",899.03326,81.077896,187.52661
"66733",899.0466,80.96803,187.45044
"66734",899.0599,80.91188,187.42455
"66735",899.0732,80.88747,187.42863
"66736",899.0865,80.8777,187.44661
"66737",899.0998,80.85329,187.44963
"66738",899.1131,80.8069,187.42992
"66739",899.1264,80.726326,187.37456
"66740",899.1397,80.60914,187.28008
"66741",899.153,80.462654,187.15263
"66742",899.1663,80.30152,187.00597
"66743",899.1796,80.130615,186.84448
"66744",899.19293,79.96216,186.68011
"66745",899.20624,79.801025,186.51779
"66746",899.21954,79.65942,186.36996
"66747",899.23285,79.53246,186.23236
"66748",899.24615,79.42748,186.11276
"66749",899.25946,79.344475,186.01186
"66750",899.27277,79.28344,185.93033
"66751",899.2861,79.234604,185.8591
"66752",899.2994,79.19554,185.79611
"66753",899.3127,79.1638,185.73923
"66754",899.326,79.13695,185.68623
"66755",899.3393,79.10765,185.62996
"66756",899.3526,79.07347,185.56789
"66757",899.3659,79.03929,185.50475
"66758",899.3792,79.00511,185.44054
"66759",899.3925,78.96849,185.37282
"66760",899.4058,78.92699,185.29907
"66761",899.4191,78.887924,185.22647
"66762",899.43243,78.8513,185.15509
"66763",899.44574,78.81468,185.08257
"66764",899.45905,78.7805,185.01134
"66765",899.47235,78.751205,184.94392
"66766",899.48566,78.72434,184.87804
"66767",899.49896,78.695045,184.80887
"66768",899.51227,78.67063,184.74367
"66769",899.5256,78.643776,184.67526
"66770",899.5389,78.61936,184.60846
"66771",899.5522,78.59739,184.54333
"66772",899.5655,78.57786,184.47997
"66773",899.5788,78.56321,184.42087
"66774",899.5921,78.555885,184.36864
"66775",899.6054,78.553444,184.32106
"66776",899.6187,78.553444,184.27585
"66777",899.632,78.56077,184.23796
"66778",899.6453,78.56321,184.19542
"66779",899.6586,78.56321,184.15051
"66780",899.67194,78.56077,184.10316
"66781",899.68524,78.56077,184.05818
"66782",899.69855,78.56565,184.01808
"66783",899.71185,78.572975,183.98058
"66784",899.72516,78.58762,183.95062
"66785",899.73846,78.60471,183.92357
"66786",899.7518,78.6218,183.89705
"66787",899.7651,78.63645,183.86862
"66788",899.7784,78.64622,183.83577
"66789",899.7917,78.658424,183.80566
"66790",899.805,78.66819,183.7735
"66791",899.8183,78.677956,183.74164
"66792",899.8316,78.68772,183.71008
"66793",899.8449,78.69993,183.68127
"66794",899.8582,78.70725,183.64796
"66795",899.8715,78.71702,183.61732
"66796",899.8848,78.7219,183.5821
"66797",899.89813,78.729225,183.54948
"66798",899.91144,78.73411,183.51465
"66799",899.92474,78.74143,183.4824
"66800",899.93805,78.75853,183.46017
"66801",899.95135,78.81224,183.47508
"66802",899.96466,78.9514,183.57712
"66803",899.97797,79.22972,183.82266
"66804",899.9913,79.676506,184.24538
"66805",900.0046,80.27955,184.8383
"66806",900.0179,80.970474,185.53796
"66807",900.0312,81.64675,186.24457
"66808",900.0445,82.193634,186.84291
"66809",900.0578,82.533,187.25082
"66810",900.0711,82.63798,187.43497
"66811",900.0844,82.54276,187.4222
"66812",900.0977,82.30839,187.26729
"66813",900.111,81.99832,187.02936
"66814",900.1243,81.68337,186.77686
"66815",900.13763,81.41238,186.55847
"66816",900.15094,81.22194,186.41217
"66817",900.16425,81.11696,186.34538
"66818",900.17755,81.092545,186.35588
"66819",900.19086,81.1194,186.41689
"66820",900.20416,81.160904,186.49338
"66821",900.21747,81.16823,186.53699
"66822",900.2308,81.12428,186.52956
"66823",900.2441,81.02907,186.46948
"66824",900.2574,80.89723,186.36981
"66825",900.2707,80.76051,186.26114
"66826",900.284,80.65064,186.17503
"66827",900.2973,80.584724,186.12946
"66828",900.3106,80.56031,186.12332
"66829",900.3239,80.570076,186.1506
"66830",900.3372,80.59693,186.19528
"66831",900.3505,80.61646,186.23347
"66832",900.36383,80.61402,186.2503
"66833",900.37714,80.58228,186.23776
"66834",900.39044,80.516365,186.19005
"66835",900.40375,80.413826,186.10365
"66836",900.41705,80.291756,185.99452
"66837",900.43036,80.16235,185.87424
"66838",900.44366,80.03784,185.75479
"66839",900.457,79.923096,185.64124
"66840",900.4703,79.82544,185.54117
"66841",900.4836,79.744865,185.45514
"66842",900.4969,79.676506,185.3788
"66843",900.5102,79.62035,185.31253
"66844",900.5235,79.58129,185.2616
"66845",900.5368,79.554436,185.22165
"66846",900.5501,79.53002,185.1833
"66847",900.5634,79.51293,185.15152
"66848",900.5767,79.50317,185.12653
"66849",900.59,79.4934,185.10123
"66850",900.60333,79.483635,185.07562
"66851",900.61664,79.47875,185.0546
"66852",900.62994,79.47875,185.0383
"66853",900.64325,79.47143,185.01468
"66854",900.65656,79.45922,184.98595
"66855",900.66986,79.44213,184.95195
"66856",900.68317,79.42016,184.91254
"66857",900.6965,79.3933,184.86755
"66858",900.7098,79.364006,184.81929
"66859",900.7231,79.34203,184.77744
"66860",900.7364,79.327385,184.74222
"66861",900.7497,79.31274,184.70654
"66862",900.763,79.30053,184.67285
"66863",900.7763,79.28832,184.63878
"66864",900.7896,79.273674,184.60188
"66865",900.8029,79.26147,184.56697
"66866",900.8162,79.24681,184.52924
"66867",900.8295,79.24193,184.50081
"66868",900.84283,79.234604,184.46979
"66869",900.85614,79.23216,184.44342
"66870",900.86945,79.22972,184.41698
"66871",900.88275,79.23216,184.39534
"66872",900.89606,79.234604,184.37378
"66873",900.90936,79.237045,184.3523
"66874",900.92267,79.23949,184.33089
"66875",900.936,79.24437,184.312
"66876",900.9493,79.24925,184.29326
"66877",900.9626,79.2517,184.27225
"66878",900.9759,79.25414,184.2513
"66879",900.9892,79.25414,184.22798
"66880",901.0025,79.256584,184.2071
"66881",901.0158,79.26147,184.18875
"66882",901.0291,79.27123,184.17543
"66883",901.0424,79.281,184.16241
"66884",901.0557,79.28832,184.14726
"66885",901.06903,79.293205,184.1299
"66886",901.08234,79.293205,184.1078
"66887",901.09564,79.28344,184.07594
"66888",901.10895,79.273674,184.04378
"66889",901.12225,79.273674,184.02107
"66890",901.13556,79.290764,184.01546
"66891",901.14886,79.35668,184.0592
"66892",901.1622,79.520256,184.20267
"66893",901.1755,79.823,184.49042
"66894",901.1888,80.28443,184.94632
"66895",901.2021,80.87282,185.5436
"66896",901.2154,81.514915,186.21297
"66897",901.2287,82.11551,186.8609
"66898",901.242,82.57206,187.38356
"66899",901.2553,82.82109,187.71297
"66900",901.2686,82.86015,187.8402
"66901",901.2819,82.720985,187.7904
"66902",901.2952,82.4622,187.61665
"66903",901.30853,82.14969,187.38109
"66904",901.32184,81.83963,187.13821
"66905",901.33514,81.57595,186.93202
"66906",901.34845,81.38552,186.79085
"66907",901.36176,81.270775,186.7194
"66908",901.37506,81.22438,186.71272
"66909",901.38837,81.21217,186.73878
"66910",901.4017,81.20485,186.76935
"66911",901.415,81.17555,186.77771
"66912",901.4283,81.112076,186.75098
"66913",901.4416,81.024185,186.69785
"66914",901.4549,80.936295,186.64197
"66915",901.4682,80.867935,186.60287
"66916",901.4815,80.831314,186.59338
"66917",901.4948,80.831314,186.61937
"66918",901.5081,80.85329,186.66733
"66919",901.5214,80.88258,186.7233
"66920",901.5347,80.907,186.7753
"66921",901.54803,80.90944,186.80609
"66922",901.56134,80.88747,186.81255
"66923",901.57465,80.82399,186.77681
"66924",901.58795,80.73121,186.70978
"66925",901.60126,80.61158,186.613
"66926",901.61456,80.482185,186.50273
"66927",901.62787,80.343025,186.37865
"66928",901.6412,80.218506,186.26485
"66929",901.6545,80.1062,186.15936
"66930",901.6678,80.01099,186.06747
"66931",901.6811,79.93286,185.98969
"66932",901.6944,79.87427,185.92899
"66933",901.7077,79.83032,185.8811
"66934",901.721,79.801025,185.8465
"66935",901.7343,79.783936,185.82318
"66936",901.7476,79.77661,185.80911
"66937",901.7609,79.77417,185.79968
"66938",901.77423,79.76929,185.78775
"66939",901.78754,79.766846,185.7781
"66940",901.80084,79.76196,185.76593
"66941",901.81415,79.7522,185.74872
"66942",901.82745,79.742424,185.7312
"66943",901.84076,79.727776,185.7085
"66944",901.85406,79.708244,185.68045
"66945",901.8674,79.68627,185.64935
"66946",901.8807,79.65942,185.61269
"66947",901.894,79.63012,185.57274
"66948",901.9073,79.605705,185.53676
"66949",901.9206,79.58129,185.50002
"66950",901.9339,79.55932,185.46495
"66951",901.9472,79.53246,185.42432
"66952",901.9605,79.50561,185.38284
"66953",901.9738,79.47143,185.3332
"66954",901.9871,79.44213,185.28738
"66955",902.0004,79.415276,185.24309
"66956",902.01373,79.398186,185.20772
"66957",902.02704,79.38842,185.17914
"66958",902.04034,79.381096,185.1527
"66959",902.05365,79.37377,185.12602
"66960",902.06696,79.36645,185.09912
"66961",902.08026,79.35912,185.07199
"66962",902.09357,79.34936,185.04219
"66963",902.1069,79.33471,185.0072
"66964",902.1202,79.3225,184.9742
"66965",902.1335,79.31762,184.94814
"66966",902.1468,79.31274,184.92192
"66967",902.1601,79.310295,184.898
"66968",902.1734,79.30785,184.874
"66969",902.1867,79.30785,184.85236
"66970",902.2,79.30297,184.82584
"66971",902.2133,79.293205,184.79428
"66972",902.2266,79.28344,184.76242
"66973",902.2399,79.276115,184.7327
"66974",902.25323,79.28344,184.71739
"66975",902.26654,79.32983,184.74138
"66976",902.27985,79.466545,184.85715
"66977",902.29315,79.73754,185.11147
"66978",902.30646,80.16235,185.52808
"66979",902.31976,80.726326,186.09712
"66980",902.33307,81.36599,186.75949
"66981",902.3464,81.98123,187.41742
"66982",902.3597,82.47196,187.97006
"66983",902.373,82.77959,188.35493
"66984",902.3863,82.8748,188.53702
"66985",902.3996,82.78447,188.53653
"66986",902.4129,82.562294,188.40137
"66987",902.4262,82.262,188.18115
"66988",902.4395,81.94217,187.932
"66989",902.4528,81.651634,187.70216
"66990",902.4661,81.427025,187.52917
"66991",902.47943,81.28298,187.42973
"66992",902.49274,81.20729,187.39413
"66993",902.50604,81.17555,187.40013
"66994",902.51935,81.15602,187.41734
"66995",902.53265,81.12428,187.42174
"66996",902.54596,81.06569,187.39828
"66997",902.55927,80.99733,187.36324
"66998",902.5726,80.93385,187.33093
"66999",902.5859,80.89967,187.32594
"67000",902.5992,80.91188,187.36627
"67001",902.6125,80.972916,187.45581
"67002",902.6258,81.08766,187.60097
"67003",902.6391,81.234146,187.78145
"67004",902.6524,81.35378,187.93965
"67005",902.6657,81.38796,188.01614
"67006",902.679,81.307396,187.97896
"67007",902.6923,81.08034,187.79276
"67008",902.7056,80.72144,187.46762
"67009",902.71893,80.27711,187.04584
"67010",902.73224,79.81323,186.59062
"67011",902.74554,79.38842,186.15997
"67012",902.75885,79.029526,185.78197
"67013",902.77216,78.75853,185.48064
"67014",902.78546,78.5803,185.26361
"67015",902.79877,78.47776,185.1167
"67016",902.8121,78.43137,185.02274
"67017",902.8254,78.41917,184.9615
"67018",902.8387,78.42649,184.91942
"67019",902.852,78.44358,184.88733
"67020",902.8653,78.45823,184.85333
"67021",902.8786,78.46067,184.80759
"67022",902.8919,78.44602,184.74483
"67023",902.9052,78.42405,184.67429
"67024",902.9185,78.399635,184.60062
"67025",902.9318,78.38743,184.53839
"67026",902.9451,78.39475,184.49532
"67027",902.95844,78.42405,184.47444
"67028",902.97174,78.470436,184.47157
"67029",902.98505,78.519264,184.4726
"67030",902.99835,78.551,184.45805
"67031",903.01166,78.55833,184.42009
"67032",903.02496,78.551,184.3677
"67033",903.03827,78.53147,184.30289
"67034",903.0516,78.519264,184.24478
"67035",903.0649,78.51682,184.19606
"67036",903.0782,78.52659,184.15947
"67037",903.0915,78.54368,184.13051
"67038",903.1048,78.56565,184.10696
"67039",903.1181,78.58518,184.08167
"67040",903.1314,78.60471,184.05698
"67041",903.1447,78.626686,184.03534
"67042",903.158,78.64866,184.01439
"67043",903.1713,78.675514,183.99901
"67044",903.18463,78.69993,183.98203
"67045",903.19794,78.7219,183.96336
"67046",903.21124,78.746315,183.94783
"67047",903.22455,78.765854,183.92819
"67048",903.23785,78.78294,183.90671
"67049",903.25116,78.79515,183.88087
"67050",903.26447,78.82445,183.87251
"67051",903.2778,78.887924,183.89925
"67052",903.2911,79.029526,184.00609
"67053",903.3044,79.29809,184.24432
"67054",903.3177,79.72289,184.64719
"67055",903.331,80.291756,185.20738
"67056",903.3443,80.94606,185.8708
"67057",903.3576,81.59792,186.55223
"67058",903.3709,82.144806,187.14905
"67059",903.3842,82.52323,187.5945
"67060",903.3975,82.69901,187.84914
"67061",903.4108,82.686806,187.92128
"67062",903.42413,82.533,187.85144
"67063",903.43744,82.286415,187.68402
"67064",903.45074,82.01541,187.48447
"67065",903.46405,81.76395,187.29599
"67066",903.47736,81.566185,187.15335
"67067",903.49066,81.42947,187.06558
"67068",903.50397,81.3489,187.0297
"67069",903.5173,81.30007,187.02303
"67070",903.5306,81.253685,187.01727
"67071",903.5439,81.197525,187.00029
"67072",903.5572,81.13649,186.97668
"67073",903.5705,81.077896,186.95361
"67074",903.5838,81.041275,186.95068
"67075",903.5971,81.03639,186.97835
"67076",903.6104,81.07057,187.04492
"67077",903.6237,81.129166,187.13698
"67078",903.637,81.197525,187.24063
"67079",903.6503,81.25857,187.3391
"67080",903.66364,81.29275,187.41261
"67081",903.67694,81.29519,187.45546
"67082",903.69025,81.25124,187.452
"67083",903.70355,81.163345,187.4032
"67084",903.71686,81.03639,187.3126
"67085",903.73016,80.885025,187.19363
"67086",903.74347,80.726326,187.06259
"67087",903.7568,80.57252,186.93149
"67088",903.7701,80.44068,186.81755
"67089",903.7834,80.33326,186.7239
"67090",903.7967,80.24536,186.64642
"67091",903.81,80.17456,186.58328
"67092",903.8233,80.113525,186.52771
"67093",903.8366,80.05493,186.47266
"67094",903.8499,80.0061,186.42554
"67095",903.8632,79.96216,186.38177
"67096",903.8765,79.92554,186.34396
"67097",903.88983,79.89624,186.31235
"67098",903.90314,79.87427,186.28714
"67099",903.91644,79.85962,186.26855
"67100",903.92975,79.84497,186.24951
"67101",903.94305,79.82544,186.22513
"67102",903.95636,79.80347,186.1977
"67103",903.96967,79.781494,186.16959
"67104",903.983,79.7522,186.13345
"67105",903.9963,79.72289,186.0964
"67106",904.0096,79.693596,186.05844
"67107",904.0229,79.65942,186.01468
"67108",904.0362,79.62524,185.96985
"67109",904.0495,79.59106,185.92395
"67110",904.0628,79.55688,185.87698
"67111",904.0761,79.52514,185.83139
"67112",904.0894,79.49096,185.78236
"67113",904.1027,79.4519,185.72739
"67114",904.116,79.41039,185.66875
"67115",904.12933,79.36645,185.60637
"67116",904.14264,79.32983,185.54994
"67117",904.15594,79.30053,185.4997
"67118",904.16925,79.276115,185.45341
"67119",904.18256,79.2517,185.40637
"67120",904.19586,79.22484,185.35612
"67121",904.20917,79.19066,185.29771
"67122",904.2225,79.15404,185.2358
"67123",904.2358,79.11986,185.17517
"67124",904.2491,79.093,185.1208
"67125",904.2624,79.080795,185.08025
"67126",904.2757,79.10033,185.07104
"67127",904.289,79.19798,185.14058
"67128",904.3023,79.41772,185.33525
"67129",904.3156,79.7937,185.69304
"67130",904.3289,80.325935,186.21883
"67131",904.3422,80.970474,186.87355
"67132",904.3555,81.63943,187.57283
"67133",904.36884,82.2327,188.21733
"67134",904.38214,82.66483,188.71924
"67135",904.39545,82.89433,189.03201
"67136",904.40875,82.92363,189.15176
"67137",904.42206,82.794235,189.11374
"67138",904.43536,82.55497,188.96179
"67139",904.44867,82.269325,188.756
"67140",904.462,81.99344,188.55103
"67141",904.4753,81.76639,188.38628
"67142",904.4886,81.59792,188.27301
"67143",904.5019,81.48562,188.21065
"67144",904.5152,81.41482,188.18628
"67145",904.5285,81.35378,188.16946
"67146",904.5418,81.28542,188.14342
"67147",904.5551,81.20973,188.1079
"67148",904.5684,81.13161,188.06758
"67149",904.5817,81.07057,188.04192
"67150",904.59503,81.041275,188.04608
"67151",904.60834,81.05348,188.09084
"67152",904.62164,81.094986,188.16527
"67153",904.63495,81.15602,188.26053
"67154",904.64825,81.214615,188.35526
"67155",904.66156,81.253685,188.43228
"67156",904.67487,81.253685,188.47147
"67157",904.6882,81.20485,188.4618
"67158",904.7015,81.109634,188.40425
"67159",904.7148,80.98024,188.30954
"67160",904.7281,80.82643,188.18637
"67161",904.7414,80.66529,188.05106
"67162",904.7547,80.5066,187.91316
"67163",904.768,80.36256,187.78496
"67164",904.7813,80.233154,187.66689
"67165",904.7946,80.11841,187.55942
"67166",904.8079,80.01831,187.46301
"67167",904.8212,79.92554,187.37082
"67168",904.83453,79.83765,187.28061
"67169",904.84784,79.75464,187.19254
"67170",904.86115,79.68627,187.1165
"67171",904.87445,79.62768,187.0481
"67172",904.88776,79.57885,186.98763
"67173",904.90106,79.54711,186.94272
"67174",904.91437,79.517815,186.89926
"67175",904.9277,79.48608,186.85245
"67176",904.941,79.44457,186.79488
"67177",904.9543,79.40063,186.73357
"67178",904.9676,79.3518,186.666
"67179",904.9809,79.30541,186.59935
"67180",904.9942,79.26635,186.53857
"67181",905.0075,79.237045,186.48634
"67182",905.0208,79.21019,186.43564
"67183",905.0341,79.18822,186.38898
"67184",905.0474,79.166245,186.34163
"67185",905.0607,79.132065,186.28139
"67186",905.07404,79.09056,186.21275
"67187",905.08734,79.04173,186.1355
"67188",905.10065,78.99779,186.0616
"67189",905.11395,78.94896,185.98145
"67190",905.12726,78.91234,185.91197
"67191",905.14056,78.88304,185.84868
"67192",905.1539,78.85863,185.78935
"67193",905.1672,78.839096,185.73415
"67194",905.1805,78.819565,185.67833
"67195",905.1938,78.79515,185.61702
"67196",905.2071,78.765854,185.55006
"67197",905.2204,78.73411,185.47975
"67198",905.2337,78.69993,185.406
"67199",905.247,78.66819,185.33363
"67200",905.2603,78.64622,185.27003
"67201",905.2736,78.64866,185.23016
"67202",905.2869,78.712135,185.2514
"67203",905.30023,78.88304,185.38206
"67204",905.31354,79.200424,185.66454
"67205",905.32684,79.676506,186.11563
"67206",905.34015,80.28687,186.71588
"67207",905.35345,80.95827,187.39624
"67208",905.36676,81.600365,188.06828
"67209",905.38007,82.12039,188.63832
"67210",905.3934,82.46464,189.04883
"67211",905.4067,82.61112,189.27234
"67212",905.42,82.579384,189.3222
"67213",905.4333,82.41093,189.23436
"67214",905.4466,82.161896,189.06067
"67215",905.4599,81.88602,188.85236
"67216",905.4732,81.62722,188.6525
"67217",905.4865,81.40749,188.48363
"67218",905.4998,81.23659,188.3567
"67219",905.5131,81.10475,188.26352
"67220",905.5264,80.99245,188.18575
"67221",905.53973,80.89723,188.12155
"67222",905.55304,80.816666,188.06903
"67223",905.56635,80.76784,188.04573
"67224",905.57965,80.762955,188.06485
"67225",905.59296,80.8069,188.13264
"67226",905.60626,80.902115,188.25308
"67227",905.61957,81.02663,188.40579
"67228",905.6329,81.15602,188.56728
"67229",905.6462,81.26589,188.71327
"67230",905.6595,81.33425,188.8212
"67231",905.6728,81.34402,188.87267
"67232",905.6861,81.290306,188.86096
"67233",905.6994,81.17555,188.78653
"67234",905.7127,81.01198,188.6597
"67235",905.726,80.82155,188.5009
"67236",905.7393,80.621346,188.32637
"67237",905.7526,80.428474,188.15292
"67238",905.7659,80.25025,187.9881
"67239",905.77924,80.096436,187.8421
"67240",905.79254,79.96704,187.71573
"67241",905.80585,79.86206,187.60971
"67242",905.81915,79.77905,187.5224
"67243",905.83246,79.71557,187.45201
"67244",905.84576,79.6643,187.39185
"67245",905.8591,79.62035,187.3374
"67246",905.8724,79.586174,187.29135
"67247",905.8857,79.55688,187.24911
"67248",905.899,79.534904,187.21329
"67249",905.9123,79.517815,187.18166
"67250",905.9256,79.50317,187.15193
"67251",905.9389,79.48119,187.11443
"67252",905.9522,79.4519,187.06891
"67253",905.9655,79.41772,187.0176
"67254",905.9788,79.38354,186.96521
"67255",905.9921,79.344475,186.90688
"67256",906.00543,79.30053,186.84244
"67257",906.01874,79.24925,186.7693
"67258",906.03204,79.18822,186.6848
"67259",906.04535,79.11986,186.59106
"67260",906.05865,79.04906,186.49275
"67261",906.07196,78.98558,186.39955
"67262",906.08527,78.93675,186.31902
"67263",906.0986,78.91966,186.26869
"67264",906.1119,78.97093,186.2862
"67265",906.1252,79.13695,186.42004
"67266",906.1385,79.44457,186.7007
"67267",906.1518,79.90112,187.1399
"67268",906.1651,80.47242,187.7081
"67269",906.1784,81.08278,188.33322
"67270",906.1917,81.64675,188.93103
"67271",906.205,82.08621,189.42195
"67272",906.2183,82.35233,189.75327
"67273",906.2316,82.43534,189.90979
"67274",906.24493,82.35966,189.91022
"67275",906.25824,82.16678,189.79108
"67276",906.27155,81.91043,189.60245
"67277",906.28485,81.63943,189.39114
"67278",906.29816,81.38552,189.18848
"67279",906.31146,81.163345,189.0096
"67280",906.32477,80.97536,188.85797
"67281",906.3381,80.8069,188.72
"67282",906.3514,80.64576,188.58408
"67283",906.3647,80.50172,188.46022
"67284",906.378,80.38941,188.3636
"67285",906.3913,80.32105,188.30742
"67286",906.4046,80.31373,188.31013
"67287",906.4179,80.37965,188.38586
"67288",906.4312,80.499275,188.51736
"67289",906.4445,80.638435,188.67213
"67290",906.4578,80.76784,188.82149
"67291",906.4711,80.850845,188.9285
"67292",906.48444,80.86305,188.9673
"67293",906.49774,80.80446,188.93568
"67294",906.51105,80.67994,188.8363
"67295",906.52435,80.50904,188.68666
"67296",906.53766,80.31617,188.5097
"67297",906.55096,80.11597,188.31938
"67298",906.5643,79.91821,188.12524
"67299",906.5776,79.73754,187.94202
