"","Time..s.","PPG.trace","Preprocessed.PPG"
"77566",1044.023,85.51156,181.9665
"77567",1044.0363,84.681465,181.30865
"77568",1044.0496,83.9173,180.69078
"77569",1044.0629,83.250786,180.14668
"77570",1044.0762,82.66483,179.66232
"77571",1044.0895,82.12283,179.2036
"77572",1044.1028,81.600365,178.74747
"77573",1044.1161,81.08766,178.28477
"77574",1044.1294,80.60914,177.84024
"77575",1044.1427,80.20874,177.45888
"77576",1044.156,79.93286,177.18951
"77577",1044.1693,79.80347,177.05801
"77578",1044.1826,79.815674,177.06409
"77579",1044.1959,79.92554,177.16818
"77580",1044.2092,80.08423,177.32455
"77581",1044.2225,80.22339,177.46634
"77582",1044.2358,80.28443,177.53436
"77583",1044.2491,80.22827,177.48709
"77584",1044.2625,80.045166,177.31113
"77585",1044.2758,79.73266,177.00003
"77586",1044.2891,79.31762,176.57663
"77587",1044.3024,78.839096,176.07678
"77588",1044.3157,78.331276,175.53268
"77589",1044.329,77.8259,174.97516
"77590",1044.3423,77.35226,174.43358
"77591",1044.3556,76.929886,173.92847
"77592",1044.3689,76.57099,173.47363
"77593",1044.3822,76.27802,173.0735
"77594",1044.3955,76.050964,172.73013
"77595",1044.4088,75.88495,172.4407
"77596",1044.4221,75.77753,172.20468
"77597",1044.4354,75.71404,172.00925
"77598",1044.4487,75.68963,171.85089
"77599",1044.462,75.69451,171.72107
"77600",1044.4753,75.716484,171.60849
"77601",1044.4886,75.74578,171.50392
"77602",1044.502,75.7702,171.3954
"77603",1044.5153,75.78729,171.2803
"77604",1044.5286,75.77753,171.13889
"77605",1044.5419,75.7409,170.9703
"77606",1044.5552,75.67498,170.77129
"77607",1044.5685,75.58709,170.54823
"77608",1044.5818,75.494316,170.31755
"77609",1044.5951,75.45037,170.1328
"77610",1044.6084,75.562675,170.10292
"77611",1044.6217,75.982605,170.38419
"77612",1044.635,76.83467,171.1107
"77613",1044.6483,78.170135,172.34724
"77614",1044.6616,79.91577,174.03569
"77615",1044.6749,81.8909,176.00818
"77616",1044.6882,83.844055,178.02043
"77617",1044.7015,85.51888,179.81538
"77618",1044.7148,86.74204,181.21101
"77619",1044.7281,87.4403,182.11996
"77620",1044.7415,87.63073,182.54291
"77621",1044.7548,87.38659,182.53723
"77622",1044.7681,86.83482,182.2163
"77623",1044.7814,86.11215,181.70721
"77624",1044.7947,85.3431,181.12917
"77625",1044.808,84.62287,180.57591
"77626",1044.8213,84.00275,180.10025
"77627",1044.8346,83.47784,179.70042
"77628",1044.8479,83.00908,179.34035
"77629",1044.8612,82.56718,178.99248
"77630",1044.8745,82.125275,178.6308
"77631",1044.8878,81.69314,178.26508
"77632",1044.9011,81.304955,177.92981
"77633",1044.9144,81.00954,177.67517
"77634",1044.9277,80.83864,177.53583
"77635",1044.941,80.79469,177.5181
"77636",1044.9543,80.850845,177.59909
"77637",1044.9677,80.970474,177.74532
"77638",1044.981,81.092545,177.89772
"77639",1044.9943,81.16579,178.00511
"77640",1045.0076,81.143814,178.01958
"77641",1045.0209,80.99977,177.91129
"77642",1045.0342,80.726326,177.66908
"77643",1045.0475,80.34547,177.31093
"77644",1045.0608,79.87915,176.85541
"77645",1045.0741,79.37377,176.34625
"77646",1045.0874,78.86351,175.81642
"77647",1045.1007,78.380104,175.2975
"77648",1045.114,77.945526,174.8123
"77649",1045.1273,77.56954,174.37212
"77650",1045.1406,77.25948,173.9861
"77651",1045.1539,77.015335,173.65631
"77652",1045.1672,76.83467,173.38237
"77653",1045.1805,76.70283,173.15161
"77654",1045.1938,76.61494,172.96068
"77655",1045.2072,76.561226,172.80118
"77656",1045.2205,76.52705,172.65953
"77657",1045.2338,76.50019,172.52414
"77658",1045.2471,76.48066,172.39523
"77659",1045.2604,76.46845,172.27304
"77660",1045.2737,76.46113,172.15535
"77661",1045.287,76.453804,172.03743
"77662",1045.3003,76.44648,171.91928
"77663",1045.3136,76.42695,171.7887
"77664",1045.3269,76.39277,171.64285
"77665",1045.3402,76.33173,171.46909
"77666",1045.3535,76.24872,171.27144
"77667",1045.3668,76.14618,171.05167
"77668",1045.3801,76.02899,170.81404
"77669",1045.3934,75.92645,170.5874
"77670",1045.4067,75.90692,170.44057
"77671",1045.42,76.09003,170.49576
"77672",1045.4333,76.61494,170.89848
"77673",1045.4467,77.58663,171.76439
"77674",1045.46,79.0222,173.12454
"77675",1045.4733,80.816666,174.88844
"77676",1045.4866,82.760056,176.85736
"77677",1045.4999,84.6009,178.78445
"77678",1045.5132,86.10971,180.43704
"77679",1045.5265,87.14488,181.66315
"77680",1045.5398,87.66247,182.404
"77681",1045.5531,87.70153,182.68253
"77682",1045.5664,87.35973,182.5814
"77683",1045.5797,86.76158,182.21324
"77684",1045.593,86.04379,181.70676
"77685",1045.6063,85.31869,181.17052
"77686",1045.6196,84.66926,180.6873
"77687",1045.6329,84.122375,180.28633
"77688",1045.6462,83.65362,179.9464
"77689",1045.6595,83.22392,179.63087
"77690",1045.6729,82.794235,179.30194
"77691",1045.6862,82.34989,178.94492
"77692",1045.6995,81.90555,178.574
"77693",1045.7128,81.50027,178.22827
"77694",1045.7261,81.17799,177.95288
"77695",1045.7394,80.9778,177.7895
"77696",1045.7527,80.90456,177.74683
"77697",1045.766,80.92897,177.79951
"77698",1045.7793,81.01198,177.91156
"77699",1045.7926,81.09987,178.03108
"77700",1045.8059,81.13649,178.10208
"77701",1045.8192,81.075455,178.07657
"77702",1045.8325,80.89479,177.92952
"77703",1045.8458,80.59449,177.65718
"77704",1045.8591,80.198975,177.28024
"77705",1045.8724,79.73022,176.8177
"77706",1045.8857,79.23216,176.31122
"77707",1045.899,78.729225,175.78429
"77708",1045.9124,78.25315,175.2685
"77709",1045.9257,77.821014,174.78177
"77710",1045.939,77.44991,174.34258
"77711",1045.9523,77.14473,173.9577
"77712",1045.9656,76.90547,173.62921
"77713",1045.9789,76.72236,173.3494
"77714",1045.9922,76.58076,173.10536
"77715",1046.0055,76.47578,172.89352
"77716",1046.0188,76.39277,172.70038
"77717",1046.0321,76.32929,172.52417
"77718",1046.0454,76.282906,172.36307
"77719",1046.0587,76.24872,172.21272
"77720",1046.072,76.21454,172.06131
"77721",1046.0853,76.17792,171.90639
"77722",1046.0986,76.13397,171.743
"77723",1046.1119,76.085144,171.57335
"77724",1046.1252,76.03143,171.3973
"77725",1046.1385,75.98016,171.222
"77726",1046.1519,75.93378,171.04999
"77727",1046.1652,75.88495,170.87408
"77728",1046.1785,75.83856,170.6991
"77729",1046.1918,75.80194,170.53242
"77730",1046.2051,75.76532,170.36461
"77731",1046.2184,75.73113,170.19809
"77732",1046.2317,75.69451,170.02806
"77733",1046.245,75.65301,169.852
"77734",1046.2583,75.60174,169.66489
"77735",1046.2716,75.53582,169.46152
"77736",1046.2849,75.46746,169.25365
"77737",1046.2982,75.41863,169.06317
"77738",1046.3115,75.45525,168.95662
"77739",1046.3248,75.69451,169.05385
"77740",1046.3381,76.27314,169.49792
"77741",1046.3514,77.279015,170.38733
"77742",1046.3647,78.69993,171.7232
"77743",1046.378,80.413826,173.39647
"77744",1046.3914,82.210724,175.2063
"77745",1046.4047,83.83917,176.90384
"77746",1046.418,85.09407,178.27872
"77747",1046.4313,85.87778,179.22162
"77748",1046.4446,86.19516,179.72269
"77749",1046.4579,86.10483,179.82596
"77750",1046.4712,85.70687,179.61877
"77751",1046.4845,85.12581,179.21605
"77752",1046.4978,84.471504,178.72192
"77753",1046.5111,83.84161,178.23177
"77754",1046.5244,83.299614,177.80981
"77755",1046.5377,82.8748,177.48811
"77756",1046.551,82.55009,177.25323
"77757",1046.5643,82.28153,177.06438
"77758",1046.5776,82.01541,176.86955
"77759",1046.591,81.72488,176.642
"77760",1046.6042,81.41482,176.38585
"77761",1046.6176,81.112076,176.12732
"77762",1046.6309,80.85573,175.90573
"77763",1046.6442,80.68482,175.76157
"77764",1046.6575,80.61402,175.71217
"77765",1046.6708,80.635994,175.75334
"77766",1046.6841,80.71656,175.85379
"77767",1046.6974,80.81178,175.9714
"77768",1046.7107,80.87038,176.05537
"77769",1046.724,80.85817,176.07037
"77770",1046.7373,80.74586,175.98488
"77771",1046.7506,80.53101,175.79335
"77772",1046.7639,80.22339,175.50232
"77773",1046.7772,79.84985,175.13577
"77774",1046.7905,79.43969,174.72092
"77775",1046.8038,79.01732,174.28104
"77776",1046.8171,78.61204,173.84505
"77777",1046.8304,78.24582,173.43546
"77778",1046.8438,77.95041,173.08522
"77779",1046.857,77.72579,172.79655
"77780",1046.8704,77.5671,172.56679
"77781",1046.8837,77.46456,172.38821
"77782",1046.897,77.39864,172.24306
"77783",1046.9103,77.347374,172.11049
"77784",1046.9236,77.30099,171.9812
"77785",1046.9369,77.264366,171.86023
"77786",1046.9502,77.23262,171.743
"77787",1046.9635,77.205765,171.62965
"77788",1046.9768,77.18135,171.51791
"77789",1046.9901,77.15938,171.40785
"77790",1047.0034,77.134964,171.29466
"77791",1047.0167,77.11055,171.18071
"77792",1047.03,77.086136,171.066
"77793",1047.0433,77.05928,170.94807
"77794",1047.0566,77.032425,170.82932
"77795",1047.07,77.00557,170.70972
"77796",1047.0833,76.978714,170.58928
"77797",1047.0966,76.9543,170.47044
"77798",1047.1099,76.93233,170.35329
"77799",1047.1232,76.912796,170.23788
"77800",1047.1365,76.895706,170.12431
"77801",1047.1498,76.87862,170.01021
"77802",1047.1631,76.86885,169.9029
"77803",1047.1764,76.86153,169.79771
"77804",1047.1897,76.85176,169.68987
"77805",1047.203,76.83711,169.57683
"77806",1047.2163,76.81758,169.45845
"77807",1047.2296,76.79317,169.33458
"77808",1047.2429,76.76143,169.20262
"77809",1047.2562,76.732124,169.07211
"77810",1047.2695,76.7248,168.96266
"77811",1047.2828,76.81758,168.9531
"77812",1047.2961,77.1252,169.16125
"77813",1047.3094,77.76486,169.71107
"77814",1047.3228,78.79271,170.66907
"77815",1047.336,80.16724,172.00586
"77816",1047.3494,81.72732,173.57117
"77817",1047.3627,83.25811,175.15594
"77818",1047.376,84.53742,176.53708
"77819",1047.3893,85.41634,177.5578
"77820",1047.4026,85.8436,178.15431
"77821",1047.4159,85.86069,178.35402
"77822",1047.4292,85.55306,178.22954
"77823",1047.4425,85.030594,177.8806
"77824",1047.4558,84.39826,177.40547
"77825",1047.4691,83.758606,176.90326
"77826",1047.4824,83.18486,176.44698
"77827",1047.4957,82.72587,176.08751
"77828",1047.509,82.39872,175.84555
"77829",1047.5223,82.178986,175.70078
"77830",1047.5356,82.02518,175.61507
"77831",1047.549,81.881134,175.53432
"77832",1047.5623,81.71999,175.43196
"77833",1047.5756,81.53445,175.30017
"77834",1047.5889,81.35134,175.16502
"77835",1047.6022,81.20973,175.06564
"77836",1047.6155,81.14137,175.0351
"77837",1047.6288,81.15602,175.08542
"77838",1047.6421,81.24147,175.207
"77839",1047.6554,81.37087,175.3752
"77840",1047.6687,81.50515,175.55232
"77841",1047.682,81.602806,175.69702
"77842",1047.6953,81.62722,175.77153
"77843",1047.7086,81.55154,175.7467
"77844",1047.7219,81.373314,175.61697
"77845",1047.7352,81.10719,175.39377
"77846",1047.7485,80.782486,175.10367
"77847",1047.7618,80.430916,174.77655
"77848",1047.7751,80.079346,174.43845
"77849",1047.7885,79.7522,174.11377
"77850",1047.8018,79.4641,173.81793
"77851",1047.8151,79.22728,173.56436
"77852",1047.8284,79.044174,173.3571
"77853",1047.8417,78.91722,173.20027
"77854",1047.855,78.839096,173.0883
"77855",1047.8683,78.80003,173.01295
"77856",1047.8816,78.785385,172.9608
"77857",1047.8949,78.785385,172.92284
"77858",1047.9082,78.79027,172.88976
"77859",1047.9215,78.78783,172.8495
"77860",1047.9348,78.77806,172.80185
"77861",1047.9481,78.75853,172.74413
"77862",1047.9614,78.729225,172.67603
"77863",1047.9747,78.69749,172.60457
"77864",1047.988,78.65598,172.52235
"77865",1048.0013,78.61692,172.44128
"77866",1048.0146,78.572975,172.35411
"77867",1048.028,78.53147,172.268
"77868",1048.0413,78.48997,172.1806
"77869",1048.0546,78.45823,172.10167
"77870",1048.0679,78.42405,172.0193
"77871",1048.0812,78.39475,171.94075
"77872",1048.0945,78.35813,171.85396
"77873",1048.1078,78.31663,171.76114
"77874",1048.1211,78.27268,171.66458
"77875",1048.1344,78.23117,171.56909
"77876",1048.1477,78.19211,171.47475
"77877",1048.161,78.16525,171.39139
"77878",1048.1743,78.14328,171.31207
"77879",1048.1876,78.12863,171.2394
"77880",1048.2009,78.11398,171.16626
"77881",1048.2142,78.09689,171.09023
"77882",1048.2275,78.07492,171.00877
"77883",1048.2408,78.04074,170.91443
"77884",1048.2542,77.99191,170.80437
"77885",1048.2675,77.95529,170.70499
"77886",1048.2808,78.011444,170.69724
"77887",1048.2941,78.28489,170.90854
"77888",1048.3074,78.90013,171.47018
"77889",1048.3207,79.89624,172.43192
"77890",1048.334,81.20729,173.73972
"77891",1048.3473,82.66239,175.23254
"77892",1048.3606,84.03937,176.69272
"77893",1048.3739,85.12337,177.90295
"77894",1048.3872,85.79477,178.73447
"77895",1048.4005,86.03403,179.15482
"77896",1048.4138,85.88754,179.1969
"77897",1048.4271,85.45541,178.94875
"77898",1048.4404,84.83772,178.50154
"77899",1048.4537,84.14191,177.95691
"77900",1048.467,83.46075,177.40518
"77901",1048.4803,82.865036,176.91762
"77902",1048.4937,82.39628,176.53839
"77903",1048.507,82.07645,176.29344
"77904",1048.5203,81.881134,176.16302
"77905",1048.5336,81.76395,176.10463
"77906",1048.5469,81.671165,176.06697
"77907",1048.5602,81.566185,176.01422
"77908",1048.5735,81.43191,175.9289
"77909",1048.5868,81.27566,175.8174
"77910",1048.6001,81.13161,175.71321
"77911",1048.6134,81.041275,175.65825
"77912",1048.6267,81.02174,175.67126
"77913",1048.64,81.075455,175.75691
"77914",1048.6533,81.18532,175.90039
"77915",1048.6666,81.304955,176.05707
"77916",1048.6799,81.40017,176.19307
"77917",1048.6932,81.42947,176.26613
"77918",1048.7065,81.375755,176.2571
"77919",1048.7198,81.22682,176.15115
"77920",1048.7332,80.99733,175.96
"77921",1048.7465,80.71168,175.70552
"77922",1048.7598,80.396736,175.41283
"77923",1048.7731,80.07446,175.10295
"77924",1048.7864,79.76929,174.80011
"77925",1048.7997,79.50317,174.52678
"77926",1048.813,79.28832,174.2964
"77927",1048.8263,79.1223,174.10814
"77928",1048.8396,79.00755,173.96596
"77929",1048.8529,78.94652,173.8739
"77930",1048.8662,78.922104,173.81656
"77931",1048.8795,78.924545,173.78531
"77932",1048.8928,78.93919,173.76634
"77933",1048.9061,78.9514,173.74539
"77934",1048.9194,78.958725,173.71994
"77935",1048.9327,78.95628,173.68495
"77936",1048.946,78.94652,173.64256
"77937",1048.9594,78.93431,173.59743
"77938",1048.9727,78.91478,173.54459
"77939",1048.986,78.890366,173.48625
"77940",1048.9993,78.86351,173.42471
"77941",1049.0126,78.83421,173.3599
"77942",1049.0259,78.80492,173.29416
"77943",1049.0392,78.77318,173.22507
"77944",1049.0525,78.74143,173.15498
"77945",1049.0658,78.70725,173.08147
"77946",1049.0791,78.67063,173.00444
"77947",1049.0924,78.62913,172.92139
"77948",1049.1057,78.58518,172.8346
"77949",1049.119,78.54612,172.75131
"77950",1049.1323,78.5095,172.66925
"77951",1049.1456,78.47532,172.58849
"77952",1049.1589,78.44846,172.51398
"77953",1049.1722,78.42405,172.44107
"77954",1049.1855,78.40452,172.37228
"77955",1049.1989,78.38499,172.30289
"77956",1049.2122,78.37034,172.23776
"77957",1049.2255,78.35813,172.17462
"77958",1049.2388,78.35325,172.11842
"77959",1049.2521,78.35569,172.0694
"77960",1049.2654,78.36057,172.02289
"77961",1049.2787,78.37034,171.98141
"77962",1049.292,78.380104,171.94025
"77963",1049.3053,78.38499,171.8945
"77964",1049.3186,78.38499,171.84402
"77965",1049.3319,78.382545,171.7911
"77966",1049.3452,78.382545,171.74055
"77967",1049.3585,78.44114,171.7486
"77968",1049.3718,78.658424,171.91716
"77969",1049.3851,79.1638,172.38062
"77970",1049.3984,80.045166,173.23584
"77971",1049.4117,81.287865,174.47995
"77972",1049.425,82.78691,176.01924
"77973",1049.4384,84.33723,177.65665
"77974",1049.4517,85.71664,179.1716
"77975",1049.465,86.73472,180.36833
"77976",1049.4783,87.32067,181.16475
"77977",1049.4916,87.47936,181.55222
"77978",1049.5049,87.276726,181.58331
"77979",1049.5182,86.800644,181.33463
"77980",1049.5315,86.16586,180.91237
"77981",1049.5448,85.47494,180.41412
"77982",1049.5581,84.82063,179.93091
"77983",1049.5714,84.26887,179.52979
"77984",1049.5847,83.86359,179.2579
"77985",1049.598,83.60723,179.12228
"77986",1049.6113,83.47295,179.10074
"77987",1049.6246,83.407036,179.14336
"77988",1049.638,83.35577,179.19856
"77989",1049.6512,83.27032,179.21799
"77990",1049.6646,83.13359,179.18346
"77991",1049.6779,82.96025,179.10805
"77992",1049.6912,82.77959,179.0199
"77993",1049.7045,82.62821,178.95538
"77994",1049.7178,82.533,178.9423
"77995",1049.7311,82.496376,178.98485
"77996",1049.7444,82.50858,179.07507
"77997",1049.7577,82.545204,179.1901
"77998",1049.771,82.57694,179.30138
"77999",1049.7843,82.57206,179.37703
"78000",1049.7976,82.50614,179.3915
"78001",1049.8109,82.354774,179.31845
"78002",1049.8242,82.125275,179.16254
"78003",1049.8375,81.82742,178.9311
"78004",1049.8508,81.48562,178.64641
"78005",1049.8641,81.129166,178.33638
"78006",1049.8774,80.780045,178.02255
"78007",1049.8907,80.46021,177.7271
"78008",1049.904,80.17944,177.46071
"78009",1049.9174,79.94507,177.23193
"78010",1049.9307,79.7522,177.03735
"78011",1049.944,79.59594,176.87335
"78012",1049.9573,79.47631,176.74109
"78013",1049.9706,79.38842,176.63683
"78014",1049.9839,79.32494,176.55423
"78015",1049.9972,79.276115,176.4843
"78016",1050.0105,79.24193,176.42749
"78017",1050.0238,79.20531,176.36717
"78018",1050.0371,79.1638,176.30083
"78019",1050.0504,79.11009,176.22098
"78020",1050.0637,79.03929,176.12236
"78021",1050.077,78.96361,176.01665
"78022",1050.0903,78.8806,175.90125
"78023",1050.1036,78.79759,175.78325
"78024",1050.117,78.71946,175.66754
"78025",1050.1302,78.64866,175.55672
"78026",1050.1436,78.5803,175.44612
"78027",1050.1569,78.51438,175.33583
"78028",1050.1702,78.44358,175.2186
"78029",1050.1835,78.37522,175.1016
"78030",1050.1968,78.30442,174.98001
"78031",1050.2101,78.238495,174.8611
"78032",1050.2234,78.17502,174.74257
"78033",1050.2367,78.118866,174.62938
"78034",1050.25,78.0676,174.51932
"78035",1050.2633,78.02121,174.41254
"78036",1050.2766,77.977264,174.30675
"78037",1050.2899,77.94064,174.20691
"78038",1050.3032,77.90402,174.10593
"78039",1050.3165,77.86984,174.00624
"78040",1050.3298,77.83566,173.90549
"78041",1050.3431,77.80881,173.81099
"78042",1050.3564,77.79172,173.72542
"78043",1050.3698,77.78195,173.64664
"78044",1050.383,77.78439,173.57976
"78045",1050.3964,77.79172,173.51784
"78046",1050.4097,77.7966,173.4537
"78047",1050.423,77.79904,173.38728
"78048",1050.4363,77.79416,173.31361
"78049",1050.4496,77.78439,173.23491
"78050",1050.4629,77.769745,173.15102
"78051",1050.4762,77.7673,173.07887
"78052",1050.4895,77.7966,173.03839
"78053",1050.5028,77.95041,173.12334
"78054",1050.5161,78.35325,173.46213
"78055",1050.5294,79.12718,174.1846
"78056",1050.5427,80.308846,175.33899
"78057",1050.556,81.83963,176.87943
"78058",1050.5693,83.5584,178.65569
"78059",1050.5826,85.23567,180.44415
"78060",1050.596,86.65415,182.02625
"78061",1050.6093,87.67223,183.25227
"78062",1050.6226,88.24597,184.06577
"78063",1050.6359,88.39735,184.47482
"78064",1050.6492,88.19714,184.53703
"78065",1050.6625,87.74059,184.33664
"78066",1050.6758,87.132675,183.97061
"78067",1050.6891,86.47349,183.53432
"78068",1050.7024,85.855804,183.11893
"78069",1050.7157,85.33822,182.78433
"78070",1050.729,84.95003,182.56296
"78071",1050.7423,84.70344,182.47105
"78072",1050.7556,84.56428,182.47888
"78073",1050.7689,84.47639,182.53363
"78074",1050.7822,84.38361,182.58075
"78075",1050.7955,84.24689,182.58101
"78076",1050.8088,84.054016,182.52086
"78077",1050.8221,83.82208,182.41562
"78078",1050.8354,83.5877,182.30067
"78079",1050.8488,83.39239,182.21748
"78080",1050.862,83.25567,182.18678
"78081",1050.8754,83.18242,182.21527
"78082",1050.8887,83.15312,182.28543
"78083",1050.902,83.14824,182.37909
"78084",1050.9153,83.12871,182.45795
"78085",1050.9286,83.06767,182.49469
"78086",1050.9419,82.94072,182.46361
"78087",1050.9552,82.72587,182.34065
"78088",1050.9685,82.43046,182.13043
"78089",1050.9818,82.06912,181.84505
"78090",1050.9951,81.66384,181.50443
"78091",1051.0084,81.23659,181.12917
"78092",1051.0217,80.814224,180.74545
"78093",1051.035,80.411385,180.36806
"78094",1051.0483,80.045166,180.0147
"78095",1051.0616,79.72045,179.69139
"78096",1051.075,79.44457,179.40677
"78097",1051.0883,79.217514,179.16235
"78098",1051.1016,79.03441,178.95479
"78099",1051.1149,78.88304,178.77324
"78100",1051.1282,78.76097,178.61626
"78101",1051.1415,78.65598,178.47255
"78102",1051.1548,78.55833,178.33289
"78103",1051.1681,78.46311,178.19261
"78104",1051.1814,78.37278,178.05424
"78105",1051.1947,78.277565,177.90817
"78106",1051.208,78.17746,177.75424
"78107",1051.2213,78.07248,177.5923
"78108",1051.2346,77.9675,177.42708
"78109",1051.2479,77.857635,177.2537
"78110",1051.2612,77.75021,177.07932
"78111",1051.2745,77.64767,176.90646
"78112",1051.2878,77.55001,176.73529
"78113",1051.3011,77.45968,176.56839
"78114",1051.3145,77.37179,176.40111
"78115",1051.3278,77.28878,176.23596
"78116",1051.3411,77.20332,176.06578
"78117",1051.3544,77.12276,175.89781
"78118",1051.3677,77.04219,175.72733
"78119",1051.381,76.96895,175.56165
"78120",1051.3943,76.90303,175.401
"78121",1051.4076,76.84688,175.24806
"78122",1051.4209,76.80293,175.10558
"78123",1051.4342,76.771194,174.97392
"78124",1051.4475,76.74189,174.84372
"78125",1051.4608,76.717476,174.71748
"78126",1051.4741,76.6955,174.59293
"78127",1051.4874,76.67597,174.47012
"78128",1051.5007,76.663765,174.35403
"78129",1051.514,76.65888,174.24489
"78130",1051.5273,76.66621,174.1478
"78131",1051.5406,76.67841,174.05582
"78132",1051.554,76.69306,173.96666
"78133",1051.5673,76.70527,173.87552
"78134",1051.5806,76.71992,173.7872
"78135",1051.5939,76.72968,173.69446
"78136",1051.6072,76.73945,173.60202
"78137",1051.6205,76.76143,173.52211
"78138",1051.6338,76.859085,173.51855
"78139",1051.6471,77.134964,173.69627
"78140",1051.6604,77.74044,174.21222
"78141",1051.6737,78.77806,175.17923
"78142",1051.687,80.26002,176.623
"78143",1051.7003,82.09354,178.46465
"78144",1051.7136,84.09308,180.52962
"78145",1051.7269,86.01938,182.58383
"78146",1051.7402,87.66003,184.41258
"78147",1051.7535,88.88075,185.87268
"78148",1051.7668,89.63271,186.90216
"78149",1051.7802,89.92813,187.4986
"78150",1051.7935,89.81827,187.69899
"78151",1051.8068,89.391014,187.57855
"78152",1051.8201,88.75868,187.23969
"78153",1051.8334,88.03601,186.79073
"78154",1051.8467,87.31335,186.31918
"78155",1051.86,86.6688,185.90318
"78156",1051.8733,86.14877,185.59155
"78157",1051.8866,85.76059,185.39552
"78158",1051.8999,85.47494,185.28989
"78159",1051.9132,85.24544,185.23148
"78160",1051.9265,85.01106,185.16103
"78161",1051.9398,84.735176,185.04173
"78162",1051.9531,84.41047,184.865
"78163",1051.9664,84.0589,184.65126
"78164",1051.9797,83.71221,184.43141
"78165",1051.993,83.40948,184.24469
"78166",1052.0063,83.17998,184.12173
"78167",1052.0197,83.018845,184.05998
"78168",1052.033,82.913864,184.04935
"78169",1052.0463,82.83818,184.06473
"78170",1052.0596,82.760056,184.0753
"78171",1052.0729,82.63554,184.03703
"78172",1052.0862,82.43778,183.92165
"78173",1052.0995,82.144806,183.70485
"78174",1052.1128,81.76395,183.39102
"78175",1052.1261,81.307396,182.9896
"78176",1052.1394,80.80934,182.5324
"78177",1052.1527,80.291756,182.0401
"78178",1052.166,79.781494,181.53896
"78179",1052.1793,79.293205,181.04384
"78180",1052.1926,78.84154,180.57008
"78181",1052.2059,78.43626,180.1286
"78182",1052.2192,78.08713,179.7306
"78183",1052.2325,77.7966,179.3803
"78184",1052.2458,77.55978,179.07462
"78185",1052.2592,77.36935,178.80792
"78186",1052.2725,77.22041,178.57678
"78187",1052.2858,77.0959,178.3654
"78188",1052.2991,76.998245,178.17699
"78189",1052.3124,76.90791,177.99284
"78190",1052.3257,76.83223,177.82053
"78191",1052.339,76.75899,177.64828
"78192",1052.3523,76.68818,177.4762
"78193",1052.3656,76.61494,177.29945
"78194",1052.3789,76.541695,177.12042
"78195",1052.3922,76.46601,176.93666
"78196",1052.4055,76.387886,176.7481
"78197",1052.4188,76.30976,176.55708
"78198",1052.4321,76.22919,176.36119
"78199",1052.4454,76.15106,176.16522
"78200",1052.4587,76.07538,175.96925
"78201",1052.472,75.999695,175.77092
"78202",1052.4854,75.92645,175.57266
"78203",1052.4987,75.85321,175.37212
"78204",1052.512,75.78485,175.17416
"78205",1052.5253,75.72381,174.9814
"78206",1052.5386,75.6701,174.79405
"78207",1052.5519,75.62615,174.61479
"78208",1052.5652,75.596855,174.4488
"78209",1052.5785,75.58221,174.29655
"78210",1052.5918,75.57488,174.15117
"78211",1052.6051,75.579765,174.01776
"78212",1052.6184,75.59441,173.89427
"78213",1052.6317,75.613945,173.77612
"78214",1052.645,75.63836,173.66347
"78215",1052.6583,75.6701,173.5589
"78216",1052.6716,75.70672,173.4602
"78217",1052.6849,75.74578,173.3651
"78218",1052.6982,75.77997,173.26634
"78219",1052.7115,75.80438,173.15887
"78220",1052.7249,75.82391,173.04729
"78221",1052.7382,75.85321,172.94608
"78222",1052.7515,75.96307,172.92635
"78223",1052.7648,76.282906,173.12003
"78224",1052.7781,76.964066,173.68503
"78225",1052.7914,78.12131,174.74739
"78226",1052.8047,79.76929,176.33665
"78227",1052.818,81.812775,178.37292
"78228",1052.8313,84.051575,180.66838
"78229",1052.8446,86.22446,182.96788
"78230",1052.8579,88.09949,185.03743
"78231",1052.8712,89.52285,186.7139
"78232",1052.8845,90.41154,187.90018
"78233",1052.8978,90.76311,188.5771
"78234",1052.9111,90.633705,188.78404
"78235",1052.9244,90.121,188.60364
"78236",1052.9377,89.34707,188.14598
"78237",1052.951,88.44373,187.53474
"78238",1052.9644,87.52087,186.87575
"78239",1052.9777,86.67124,186.26115
"78240",1052.991,85.95102,185.7494
"78241",1053.0043,85.37484,185.35919
"78242",1053.0176,84.91829,185.0706
"78243",1053.0309,84.5301,184.8361
"78244",1053.0442,84.16388,184.61145
"78245",1053.0575,83.792786,184.37048
"78246",1053.0708,83.41436,184.11058
"78247",1053.0841,83.06035,183.86327
"78248",1053.0974,82.76738,183.66594
"78249",1053.1107,82.562294,183.54733
"78250",1053.124,82.45243,183.51755
"78251",1053.1373,82.42069,183.56245
"78252",1053.1506,82.4329,183.65031
"78253",1053.164,82.44999,183.74344
"78254",1053.1772,82.4329,183.80292
"78255",1053.1906,82.32792,183.77397
"78256",1053.2039,82.11063,183.62943
"78257",1053.2172,81.77371,183.35847
"78258",1053.2305,81.32937,182.96956
"78259",1053.2438,80.80446,182.48619
"78260",1053.2571,80.23804,181.94492
"78261",1053.2704,79.66186,181.37617
"78262",1053.2837,79.10277,180.80652
"78263",1053.297,78.58518,180.2609
"78264",1053.3103,78.118866,179.75037
"78265",1053.3236,77.713585,179.2863
"78266",1053.3369,77.37179,178.87305
"78267",1053.3502,77.09834,178.51747
"78268",1053.3635,76.88106,178.2095
"78269",1053.3768,76.717476,177.94846
"78270",1053.3901,76.59052,177.71892
"78271",1053.4034,76.49775,177.51959
"78272",1053.4167,76.422066,177.33446
"78273",1053.43,76.36591,177.16649
"78274",1053.4434,76.317085,177.00409
"78275",1053.4567,76.2707,176.8426
"78276",1053.47,76.22186,176.67723
"78277",1053.4833,76.16815,176.50545
"78278",1053.4966,76.112,176.32954
"78279",1053.5099,76.05585,176.15189
"78280",1053.5232,76.00214,175.97491
"78281",1053.5365,75.95331,175.80115
"78282",1053.5498,75.90936,175.63074
"78283",1053.5631,75.86542,175.45895
"78284",1053.5764,75.81903,175.28336
"78285",1053.5897,75.775085,175.10875
"78286",1053.603,75.7409,174.94254
"78287",1053.6163,75.71404,174.78258
"78288",1053.6296,75.68719,174.62178
"78289",1053.643,75.665215,174.46503
"78290",1053.6562,75.63592,174.30026
"78291",1053.6696,75.60174,174.1297
"78292",1053.6829,75.57,173.96051
"78293",1053.6962,75.55047,173.80254
"78294",1053.7095,75.543144,173.65616
"78295",1053.7228,75.54803,173.52176
"78296",1053.7361,75.56512,173.39972
"78297",1053.7494,75.58709,173.2831
"78298",1053.7627,75.6115,173.1696
"78299",1053.776,75.63592,173.05687
"78300",1053.7893,75.65789,172.94246
"78301",1053.8026,75.67254,172.82141
"78302",1053.8159,75.67742,172.69106
"78303",1053.8292,75.69695,172.5755
"78304",1053.8425,75.78485,172.52893
"78305",1053.8558,76.06073,172.67308
"78306",1053.8691,76.67109,173.16034
"78307",1053.8824,77.74532,174.13054
"78308",1053.8958,79.310295,175.62505
"78309",1053.909,81.30007,177.59326
"78310",1053.9224,83.529106,179.86293
"78311",1053.9357,85.74593,182.19005
"78312",1053.949,87.708855,184.33253
"78313",1053.9623,89.22987,186.09445
"78314",1053.9756,90.211334,187.36435
"78315",1053.9889,90.62882,188.10094
"78316",1054.0022,90.528725,188.333
"78317",1054.0155,90.003815,188.1371
"78318",1054.0288,89.17128,187.61719
"78319",1054.0421,88.17029,186.9028
"78320",1054.0554,87.12535,186.11319
"78321",1054.0687,86.12192,185.33243
"78322",1054.082,85.223465,184.62529
"78323",1054.0953,84.44465,184.0097
"78324",1054.1086,83.773254,183.4772
"78325",1054.122,83.18242,183.00429
"78326",1054.1353,82.65507,182.57639
"78327",1054.1486,82.2034,182.20769
"78328",1054.1619,81.85428,181.92743
"78329",1054.1752,81.6321,181.7632
"78330",1054.1885,81.55642,181.73853
"78331",1054.2018,81.619896,181.85065
"78332",1054.2151,81.7908,182.07217
"78333",1054.2284,82.01297,182.35031
"78334",1054.2417,82.22537,182.62563
"78335",1054.255,82.37675,182.84654
"78336",1054.2683,82.41093,182.955
"78337",1054.2816,82.29862,182.91805
"78338",1054.2949,82.03006,182.72131
"78339",1054.3082,81.619896,182.37459
"78340",1054.3215,81.09743,181.90274
"78341",1054.3348,80.50904,181.34865
"78342",1054.3481,79.8938,180.74931
"78343",1054.3615,79.28344,180.13564
"78344",1054.3748,78.70481,179.5346
"78345",1054.3881,78.1799,178.96922
"78346",1054.4014,77.71847,178.45091
"78347",1054.4147,77.32784,177.98898
"78348",1054.428,77.01045,177.58809
"78349",1054.4413,76.771194,177.2554
"78350",1054.4546,76.592964,176.97627
"78351",1054.4679,76.46601,176.74284
"78352",1054.4812,76.37812,176.54451
"78353",1054.4945,76.31953,176.37273
"78354",1054.5078,76.27802,176.2162
"78355",1054.5211,76.25117,176.07303
"78356",1054.5344,76.23407,175.93878
"78357",1054.5477,76.22186,175.80888
"78358",1054.561,76.2121,175.68105
"78359",1054.5743,76.20477,175.55534
"78360",1054.5876,76.192566,175.42453
"78361",1054.601,76.17792,175.2909
"78362",1054.6143,76.155945,175.14948
"78363",1054.6276,76.12421,174.9976
"78364",1054.6409,76.087585,174.83986
"78365",1054.6542,76.04608,174.67609
"78366",1054.6675,76.00214,174.50858
"78367",1054.6808,75.95819,174.33969
"78368",1054.6941,75.91913,174.17432
"78369",1054.7074,75.88495,174.0126
"78370",1054.7207,75.85321,173.85226
"78371",1054.734,75.83124,173.7007
"78372",1054.7473,75.81171,173.55089
"78373",1054.7606,75.79706,173.40535
"78374",1054.7739,75.792175,173.26912
"78375",1054.7872,75.79462,173.14006
"78376",1054.8005,75.7995,173.01352
"78377",1054.8138,75.80682,172.88957
"78378",1054.8271,75.81171,172.76341
"78379",1054.8405,75.81903,172.63985
"78380",1054.8538,75.82391,172.51407
"78381",1054.8671,75.83124,172.39088
"78382",1054.8804,75.83856,172.26793
"78383",1054.8937,75.89227,172.19159
"78384",1054.907,76.08026,172.2512
"78385",1054.9203,76.56611,172.61456
"78386",1054.9336,77.51095,173.45209
"78387",1054.9469,79.00755,174.87091
"78388",1054.9602,81.03395,176.86629
"78389",1054.9735,83.44854,179.31319
"78390",1054.9868,85.994965,181.96738
"78391",1055.0001,88.39246,184.55222
"78392",1055.0134,90.389565,186.81158
"78393",1055.0267,91.8349,188.58159
"78394",1055.04,92.65034,189.76686
"78395",1055.0533,92.843216,190.35506
"78396",1055.0667,92.49409,190.40727
"78397",1055.08,91.73968,190.0433
"78398",1055.0933,90.72404,189.39453
"78399",1055.1066,89.60586,188.61148
"78400",1055.1199,88.50721,187.81302
"78401",1055.1332,87.51354,187.0852
"78402",1055.1465,86.6688,186.47527
"78403",1055.1598,85.97299,185.98785
"78404",1055.1731,85.38705,185.58856
"78405",1055.1864,84.86702,185.23688
"78406",1055.1997,84.38117,184.90312
"78407",1055.213,83.91974,184.5786
"78408",1055.2263,83.492485,184.27383
"78409",1055.2396,83.12627,184.01675
"78410",1055.2529,82.85527,183.84346
"78411",1055.2662,82.69169,183.7691
"78412",1055.2795,82.62089,183.78242
"78413",1055.2928,82.61356,183.85701
"78414",1055.3062,82.63065,183.95578
"78415",1055.3195,82.62089,184.02823
"78416",1055.3328,82.53544,184.02469
"78417",1055.3461,82.33524,183.90373
"78418",1055.3594,82.00809,183.64955
"78419",1055.3727,81.55642,183.26064
"78420",1055.386,80.99733,182.75018
"78421",1055.3993,80.36744,182.15146
"78422",1055.4126,79.710686,181.5062
"78423",1055.4259,79.05638,180.84285
"78424",1055.4392,78.433815,180.1908
"78425",1055.4525,77.86252,179.57056
"78426",1055.4658,77.3547,178.99594
"78427",1055.4791,76.91768,178.47626
"78428",1055.4924,76.55634,178.0186
"78429",1055.5057,76.265816,177.62045
"78430",1055.519,76.0412,177.27914
"78431",1055.5323,75.87518,176.98941
"78432",1055.5457,75.755554,176.74088
"78433",1055.559,75.6701,176.52278
"78434",1055.5723,75.6115,176.32887
"78435",1055.5856,75.57,176.15022
"78436",1055.5989,75.53338,175.97516
"78437",1055.6122,75.50164,175.80383
"78438",1055.6255,75.4699,175.63152
"78439",1055.6388,75.44305,175.46309
"78440",1055.6521,75.41619,175.29382
"78441",1055.6654,75.386894,175.12128
"78442",1055.6787,75.3576,174.94781
"78443",1055.692,75.33074,174.77588
"78444",1055.7053,75.299,174.59822
"78445",1055.7186,75.26238,174.41469
"78446",1055.7319,75.22087,174.22513
"78447",1055.7452,75.17937,174.03427
"78448",1055.7585,75.13054,173.8348
"78449",1055.7719,75.08659,173.63867
"78450",1055.7852,75.04753,173.44606
"78451",1055.7985,75.01579,173.25955
"78452",1055.8118,74.99382,173.08182
"78453",1055.8251,74.97917,172.91072
"78454",1055.8384,74.97185,172.74649
"78455",1055.8517,74.97185,172.58936
"78456",1055.865,74.986496,172.44687
"78457",1055.8783,75.01335,172.31705
"78458",1055.8916,75.04753,172.19539
"78459",1055.9049,75.08171,172.0748
"78460",1055.9182,75.11345,171.95284
"78461",1055.9315,75.13786,171.82454
"78462",1055.9448,75.1696,171.70433
"78463",1055.9581,75.27215,171.65593
"78464",1055.9714,75.57,171.80603
"78465",1055.9847,76.23651,172.3341
"78466",1055.998,77.42306,173.40305
"78467",1056.0114,79.18822,175.08768
"78468",1056.0247,81.47097,177.34506
"78469",1056.038,84.08087,180.00093
"78470",1056.0513,86.73228,182.77986
"78471",1056.0646,89.13222,185.39018
"78472",1056.0779,91.04631,187.58966
"78473",1056.0912,92.33784,189.22638
"78474",1056.1045,92.96529,190.23938
"78475",1056.1178,92.97261,190.65187
"78476",1056.1311,92.46479,190.54944
"78477",1056.1444,91.59319,190.06737
"78478",1056.1577,90.5214,189.35786
"78479",1056.171,89.38857,188.55383
"78480",1056.1843,88.3119,187.77055
"78481",1056.1976,87.3695,187.0879
"78482",1056.2109,86.588234,186.53694
"78483",1056.2242,85.95834,186.11293
"78484",1056.2375,85.42855,185.76933
"78485",1056.2509,84.93538,185.4458
"78486",1056.2642,84.44953,185.11418
"78487",1056.2775,83.95636,184.76006
"78488",1056.2908,83.475395,184.40273
"78489",1056.3041,83.03105,184.06699
"78490",1056.3174,82.66239,183.79305
"78491",1056.3307,82.38651,183.60037
"78492",1056.344,82.196075,183.48451
"78493",1056.3573,82.06912,183.4262
"78494",1056.3706,81.97879,183.40053
"78495",1056.3839,81.88602,183.3696
"78496",1056.3972,81.74197,183.28448
"78497",1056.4105,81.512474,183.10944
"78498",1056.4238,81.18288,182.8271
"78499",1056.4371,80.7483,182.42949
"78500",1056.4504,80.22583,181.9304
"78501",1056.4637,79.639885,181.35152
"78502",1056.477,79.02464,180.72502
"78503",1056.4904,78.4094,180.0793
"78504",1056.5037,77.8259,179.44609
"78505",1056.517,77.28878,178.84103
"78506",1056.5303,76.81026,178.27779
"78507",1056.5436,76.39765,177.7655
"78508",1056.5569,76.053406,177.30869
"78509",1056.5702,75.77753,176.90947
"78510",1056.5835,75.562675,176.56267
"78511",1056.5968,75.403984,176.2653
"78512",1056.6101,75.28924,176.00693
"78513",1056.6234,75.21355,175.78403
"78514",1056.6367,75.159836,175.58073
"78515",1056.65,75.13054,175.40018
"78516",1056.6633,75.12077,175.23824
"78517",1056.6766,75.125656,175.09064
"78518",1056.69,75.1281,174.94075
"78519",1056.7032,75.1281,174.7885
"78520",1056.7166,75.12077,174.62892
"78521",1056.7299,75.10368,174.45935
"78522",1056.7432,75.08171,174.28436
"78523",1056.7565,75.0573,174.10625
"78524",1056.7698,75.03288,173.92737
"78525",1056.7831,75.01091,173.75017
"78526",1056.7964,74.986496,173.56984
"78527",1056.8097,74.96452,173.39119
"78528",1056.823,74.94499,173.2143
"78529",1056.8363,74.93034,173.04167
"78530",1056.8496,74.92302,172.87592
"78531",1056.8629,74.92058,172.71481
"78532",1056.8762,74.92058,172.55608
"78533",1056.8895,74.92546,172.40222
"78534",1056.9028,74.94011,172.25829
"78535",1056.9161,74.96452,172.12457
"78536",1056.9294,74.99382,171.9965
"78537",1056.9427,75.035324,171.88156
"78538",1056.956,75.08415,171.77524
"78539",1056.9694,75.13298,171.67044
"78540",1056.9827,75.17204,171.5574
"78541",1056.996,75.20622,171.4407
"78542",1057.0093,75.2404,171.32507
"78543",1057.0226,75.32098,171.25691
"78544",1057.0359,75.560234,171.34995
"78545",1057.0492,76.12665,171.77762
"78546",1057.0625,77.18135,172.71127
"78547",1057.0758,78.82445,174.26628
"78548",1057.0891,81.03883,176.44392
"78549",1057.1024,83.6585,179.09605
"78550",1057.1157,86.41001,181.9619
"78551",1057.129,88.98573,184.73793
"78552",1057.1423,91.121994,187.155
"78553",1057.1556,92.64301,189.02357
"78554",1057.169,93.47555,190.2512
"78555",1057.1823,93.644005,190.84077
"78556",1057.1956,93.25338,190.87653
"78557",1057.2089,92.44282,190.48013
"78558",1057.2222,91.39056,189.81671
"78559",1057.2355,90.250404,189.03252
"78560",1057.2488,89.15419,188.25662
"78561",1057.2621,88.18005,187.56856
"78562",1057.2754,87.37194,187.01607
"78563",1057.2887,86.72251,186.59702
"78564",1057.302,86.185394,186.26997
"78565",1057.3153,85.69222,185.9701
"78566",1057.3286,85.20393,185.65968
"78567",1057.3419,84.68879,185.30716
"78568",1057.3552,84.16632,184.93121
"78569",1057.3685,83.67071,184.5658
"78570",1057.3818,83.24101,184.25081
"78571",1057.3951,82.896774,184.00786
"78572",1057.4084,82.64286,183.84447
"78573",1057.4218,82.459755,183.74396
"78574",1057.435,82.31815,183.67923
"78575",1057.4484,82.178986,183.6125
"78576",1057.4617,82.00809,183.5097
"78577",1057.475,81.77615,183.34053
"78578",1057.4883,81.446556,183.06644
"78579",1057.5016,81.01686,182.68195
"78580",1057.5149,80.499275,182.19614
"78581",1057.5282,79.920654,181.63312
"78582",1057.5415,79.30541,181.0154
"78583",1057.5548,78.68528,180.37355
"78584",1057.5681,78.08713,179.73431
"78585",1057.5814,77.5256,179.113
"78586",1057.5947,77.02266,178.53275
"78587",1057.608,76.5832,178.00024
"78588",1057.6213,76.21454,177.52481
"78589",1057.6346,75.911804,177.10378
"78590",1057.648,75.67254,176.73676
"78591",1057.6613,75.48943,176.41841
"78592",1057.6746,75.355156,176.14317
"78593",1057.6879,75.2575,175.90036
"78594",1057.7012,75.194016,175.68867
"78595",1057.7145,75.15495,175.49942
"78596",1057.7278,75.13786,175.33092
"78597",1057.7411,75.13054,175.17165
"78598",1057.7544,75.13054,175.01947
"78599",1057.7677,75.1281,174.86485
"78600",1057.781,75.1281,174.7126
"78601",1057.7943,75.125656,174.5579
"78602",1057.8076,75.11345,174.39337
"78603",1057.8209,75.0988,174.22601
"78604",1057.8342,75.07683,174.05087
"78605",1057.8475,75.052414,173.8726
"78606",1057.8608,75.03044,173.69601
"78607",1057.8741,75.00603,173.5163
"78608",1057.8875,74.98161,173.33582
"78609",1057.9008,74.95964,173.15701
"78610",1057.9141,74.93767,172.97752
"78611",1057.9274,74.92058,172.80223
"78612",1057.9407,74.90837,172.63129
"78613",1057.954,74.90349,172.46729
"78614",1057.9673,74.90593,172.31046
"78615",1057.9806,74.91814,172.16347
"78616",1057.9939,74.94255,172.02907
"78617",1058.0072,74.97917,171.90764
"78618",1058.0205,75.020676,171.79224
"78619",1058.0338,75.06218,171.67813
"78620",1058.0471,75.09148,171.55312
"78621",1058.0604,75.10857,171.41681
"78622",1058.0737,75.123215,171.2786
"78623",1058.087,75.16472,171.1677
"78624",1058.1003,75.318535,171.17041
"78625",1058.1136,75.72625,171.43182
"78626",1058.127,76.561226,172.13324
"78627",1058.1403,77.945526,173.41008
"78628",1058.1536,79.91089,175.31123
"78629",1058.1669,82.35966,177.75722
"78630",1058.1802,85.05989,180.53119
"78631",1058.1935,87.70397,183.33339
"78632",1058.2068,90.003815,185.87398
"78633",1058.2201,91.73968,187.92245
"78634",1058.2334,92.79683,189.34647
"78635",1058.2467,93.16548,190.11502
"78636",1058.26,92.92134,190.2823
"78637",1058.2733,92.19867,189.96342
"78638",1058.2866,91.16106,189.30702
"78639",1058.2999,89.98428,188.47903
"78640",1058.3132,88.80995,187.61671
"78641",1058.3265,87.74792,186.82999
"78642",1058.3398,86.854355,186.17854
"78643",1058.3531,86.13168,185.67007
"78644",1058.3665,85.5433,185.2733
"78645",1058.3798,85.030594,184.93382
"78646",1058.3931,84.53986,184.6003
"78647",1058.4064,84.051575,184.25388
"78648",1058.4197,83.56573,183.89464
"78649",1058.433,83.1165,183.55684
"78650",1058.4463,82.735634,183.27336
"78651",1058.4596,82.44999,183.07321
"78652",1058.4729,82.25468,182.95447
"78653",1058.4862,82.13748,182.90773
"78654",1058.4995,82.056915,182.89397
"78655",1058.5128,81.97635,182.87769
"78656",1058.5261,81.846954,182.81006
"78657",1058.5394,81.636986,182.6578
"78658",1058.5527,81.33181,182.4038
"78659",1058.566,80.92653,182.04013
"78660",1058.5793,80.430916,181.57347
"78661",1058.5927,79.871826,181.02785
"78662",1058.606,79.273674,180.42569
"78663",1058.6193,78.66575,179.79506
"78664",1058.6326,78.07492,179.16254
"78665",1058.6459,77.52071,178.54817
"78666",1058.6592,77.0251,177.97508
"78667",1058.6725,76.59052,177.44754
"78668",1058.6858,76.224304,176.97478
"78669",1058.6991,75.92401,176.55649
"78670",1058.7124,75.68963,176.19473
"78671",1058.7257,75.51385,175.88425
"78672",1058.739,75.389336,175.61954
"78673",1058.7523,75.30389,175.39
"78674",1058.7656,75.25262,175.19197
"78675",1058.7789,75.22575,175.01675
"78676",1058.7922,75.21843,174.86023
"78677",1058.8055,75.22575,174.71812
"78678",1058.8188,75.24284,174.58601
"78679",1058.8322,75.264824,174.45934
"78680",1058.8455,75.2868,174.33333
"78681",1058.8588,75.301445,174.20068
"78682",1058.8721,75.31609,174.0685
"78683",1058.8854,75.32586,173.93188
"78684",1058.8987,75.33074,173.7907
"78685",1058.912,75.3283,173.64233
"78686",1058.9253,75.318535,173.48657
"78687",1058.9386,75.30389,173.32562
"78688",1058.9519,75.284355,173.15933
"78689",1058.9652,75.264824,172.99243
"78690",1058.9785,75.245285,172.82492
"78691",1058.9918,75.23308,172.66412
"78692",1059.0051,75.228195,172.51027
"78693",1059.0184,75.23308,172.36603
"78694",1059.0317,75.245285,172.22926
"78695",1059.045,75.25994,172.09534
"78696",1059.0583,75.267265,171.95453
"78697",1059.0717,75.26238,171.80174
"78698",1059.085,75.250175,171.64148
"78699",1059.0983,75.23308,171.47595
"78700",1059.1116,75.228195,171.3221
"78701",1059.1249,75.30389,171.24867
"78702",1059.1382,75.579765,171.37779
"78703",1059.1515,76.224304,171.8842
"78704",1059.1648,77.37667,172.91858
"78705",1059.1781,79.097885,174.55782
"78706",1059.1914,81.31472,176.74646
"78707",1059.2047,83.83185,179.30467
"78708",1059.218,86.363625,181.95619
"78709",1059.2313,88.61219,184.40363
"78710",1059.2446,90.34562,186.40619
"78711",1059.2579,91.43694,187.82082
"78712",1059.2712,91.85199,188.59326
"78713",1059.2845,91.63958,188.75122
"78714",1059.2979,90.92424,188.39961
"78715",1059.3112,89.85733,187.67409
"78716",1059.3245,88.602425,186.72722
"78717",1059.3378,87.30358,185.6972
"78718",1059.3511,86.065765,184.68762
"78719",1059.3644,84.95003,183.76144
"78720",1059.3777,83.97345,182.93956
"78721",1059.391,83.13359,182.22388
"78722",1059.4043,82.41093,181.59914
"78723",1059.4176,81.812775,181.07632
"78724",1059.4309,81.3489,180.6691
"78725",1059.4442,81.05104,180.41339
"78726",1059.4575,80.93385,180.32906
"78727",1059.4708,80.99489,180.41928
"78728",1059.4841,81.20485,180.66034
"78729",1059.4974,81.512474,181.00562
"78730",1059.5107,81.84207,181.38248
"78731",1059.524,82.13016,181.72813
"78732",1059.5374,82.30106,181.9656
"78733",1059.5507,82.31571,182.05217
"78734",1059.564,82.142365,181.95119
"78735",1059.5773,81.7908,181.66658
"78736",1059.5906,81.28542,181.21716
"78737",1059.6039,80.67017,180.64209
"78738",1059.6172,79.99634,179.9892
"78739",1059.6305,79.30541,179.29816
"78740",1059.6438,78.63889,178.60992
"78741",1059.6571,78.02121,177.9497
"78742",1059.6704,77.47677,177.34343
"78743",1059.6837,77.01289,176.8007
"78744",1059.697,76.63691,176.33138
"78745",1059.7103,76.34638,175.93575
"78746",1059.7236,76.138855,175.61404
"78747",1059.7369,76.00214,175.35666
"78748",1059.7502,75.92401,175.1536
"78749",1059.7635,75.894714,174.99692
"78750",1059.7769,75.897156,174.87106
"78751",1059.7902,75.92157,174.76726
"78752",1059.8035,75.95575,174.67398
"78753",1059.8168,75.99237,174.58421
"78754",1059.8301,76.02411,174.4907
"78755",1059.8434,76.050964,174.39331
"78756",1059.8567,76.07294,174.29187
"78757",1059.87,76.09247,174.18867
"78758",1059.8833,76.10712,174.0812
"78759",1059.8966,76.11688,173.96931
"78760",1059.9099,76.11444,173.84552
"78761",1059.9232,76.102234,173.71188
"78762",1059.9365,76.07782,173.56566
"78763",1059.9498,76.03876,173.40402
"78764",1059.9631,75.98749,173.22896
"78765",1059.9764,75.91913,173.0352
"78766",1059.9897,75.83856,172.8271
"78767",1060.003,75.755554,172.61404
"78768",1060.0164,75.699394,172.42525
"78769",1060.0297,75.755554,172.34702
"78770",1060.043,76.070496,172.52931
"78771",1060.0563,76.805374,173.14139
"78772",1060.0696,78.07492,174.3111
"78773",1060.0829,79.888916,176.06493
"78774",1060.0962,82.13504,178.30759
"78775",1060.1095,84.56916,180.80843
"78776",1060.1228,86.908066,183.29012
"78777",1060.1361,88.87343,185.47136
"78778",1060.1494,90.284584,187.1598
"78779",1060.1627,91.04631,188.24292
"78780",1060.176,91.16838,188.71019
"78781",1060.1893,90.72404,188.61485
"78782",1060.2026,89.847565,188.0735
"78783",1060.216,88.68299,187.21666
"78784",1060.2292,87.39147,186.19649
"78785",1060.2426,86.09262,185.12862
"78786",1060.2559,84.86702,184.09341
"78787",1060.2692,83.74883,183.12732
"78788",1060.2825,82.75029,182.24593
"78789",1060.2958,81.866486,181.44807
"78790",1060.3091,81.112076,180.752
"78791",1060.3224,80.516365,180.19104
"78792",1060.3357,80.11597,179.80678
"78793",1060.349,79.94751,179.64194
"78794",1060.3623,80.01587,179.70865
"78795",1060.3756,80.289314,179.98259
"78796",1060.3889,80.71656,180.41888
"78797",1060.4022,81.20241,180.92712
"78798",1060.4155,81.654076,181.41637
"78799",1060.4288,81.99344,181.80742
"78800",1060.4421,82.14969,182.02597
"78801",1060.4554,82.08865,182.03212
"78802",1060.4688,81.80789,181.81664
"78803",1060.482,81.34402,181.40926
"78804",1060.4954,80.73609,180.84334
"78805",1060.5087,80.0354,180.16565
"78806",1060.522,79.30053,179.43188
"78807",1060.5353,78.57542,178.6849
"78808",1060.5486,77.8967,177.96167
"78809",1060.5619,77.30099,177.30023
"78810",1060.5752,76.80049,176.7154
"78811",1060.5885,76.39765,176.21257
"78812",1060.6018,76.09247,175.79482
"78813",1060.6151,75.880066,175.4603
"78814",1060.6284,75.74578,175.19727
"78815",1060.6417,75.684746,175.00328
"78816",1060.655,75.67742,174.8611
"78817",1060.6683,75.70672,174.75531
"78818",1060.6816,75.755554,174.66998
"78819",1060.695,75.80438,174.58617
"78820",1060.7083,75.83612,174.48679
"78821",1060.7216,75.843445,174.36398
"78822",1060.7349,75.82147,174.21211
"78823",1060.7482,75.775085,174.03514
"78824",1060.7615,75.73846,173.86649
"78825",1060.7748,75.77753,173.77238
"78826",1060.7881,76.0119,173.8748
"78827",1060.8014,76.595406,174.33368
"78828",1060.8147,77.662315,175.29419
"78829",1060.828,79.256584,176.8154
"78830",1060.8413,81.30984,178.84541
"78831",1060.8546,83.63409,181.2106
"78832",1060.8679,85.95834,183.64842
"78833",1060.8812,87.99451,185.87079
"78834",1060.8945,89.52041,187.64651
"78835",1060.9078,90.41154,188.83516
"78836",1060.9211,90.650795,189.39978
"78837",1060.9344,90.29923,189.38106
"78838",1060.9478,89.48623,188.88991
"78839",1060.961,88.36805,188.06818
"78840",1060.9744,87.10338,187.065
"78841",1060.9877,85.824066,186.00768
"78842",1061.001,84.61799,184.9836
"78843",1061.0143,83.52178,184.03171
"78844",1061.0276,82.54276,183.16275
"78845",1061.0409,81.66628,182.36574
"78846",1061.0542,80.89235,181.64388
"78847",1061.0675,80.24048,181.0199
"78848",1061.0808,79.7522,180.53912
"78849",1061.0941,79.466545,180.24573
"78850",1061.1074,79.40063,180.16313
"78851",1061.1207,79.55688,180.30064
"78852",1061.134,79.88403,180.61395
"78853",1061.1473,80.30396,181.03026
"78854",1061.1606,80.73121,181.46701
"78855",1061.174,81.08034,181.83899
"78856",1061.1873,81.27322,182.06563
"78857",1061.2006,81.26101,182.09322
"78858",1061.2139,81.02663,181.89824
"78859",1061.2272,80.59205,181.49574
"78860",1061.2405,80.00366,180.92586
"78861",1061.2538,79.310295,180.2326
"78862",1061.2671,78.572975,179.47372
"78863",1061.2804,77.84299,178.69914
"78864",1061.2937,77.16426,177.953
"78865",1061.307,76.56367,177.2638
"78866",1061.3203,76.06317,176.65591
"78867",1061.3336,75.667656,176.13737
"78868",1061.3469,75.37713,175.71146
"78869",1061.3602,75.17204,175.36191
"78870",1061.3735,75.04509,175.08408
"78871",1061.3868,74.97429,174.85843
"78872",1061.4001,74.94255,174.66963
"78873",1061.4135,74.93034,174.49937
"78874",1061.4268,74.92302,174.33362
"78875",1061.4401,74.90349,174.15543
"78876",1061.4534,74.86687,173.95953
"78877",1061.4667,74.830246,173.7625
"78878",1061.48,74.85222,173.62291
"78879",1061.4933,75.04021,173.65002
"78880",1061.5066,75.55291,174.00774
"78881",1061.5199,76.541695,174.85754
"78882",1061.5332,78.08469,176.29247
"78883",1061.5465,80.128174,178.2761
"78884",1061.5598,82.50858,180.6605
"78885",1061.5731,84.945145,183.17546
"78886",1061.5864,87.14732,185.53218
"78887",1061.5997,88.85878,187.467
"78888",1061.613,89.933014,188.81807
"78889",1061.6263,90.33341,189.52887
"78890",1061.6396,90.108795,189.62717
"78891",1061.653,89.38125,189.21552
"78892",1061.6663,88.31922,188.44666
"78893",1061.6796,87.08873,187.47614
"78894",1061.6929,85.83383,186.44276
"78895",1061.7062,84.664375,185.45561
"78896",1061.7195,83.6292,184.56621
"78897",1061.7328,82.72343,183.77385
"78898",1061.7461,81.91531,183.05084
"78899",1061.7594,81.180435,182.37582
"78900",1061.7727,80.50904,181.74132
"78901",1061.786,79.92554,181.17372
"78902",1061.7993,79.47143,180.71729
"78903",1061.8126,79.19554,180.42488
"78904",1061.8259,79.11253,180.31673
"78905",1061.8392,79.21263,180.38908
"78906",1061.8525,79.44213,180.59398
"78907",1061.8658,79.73754,180.87195
"78908",1061.8792,80.01343,181.13963
"78909",1061.8925,80.19409,181.32071
"78910",1061.9058,80.218506,181.3512
"78911",1061.9191,80.05249,181.19202
"78912",1061.9324,79.69604,180.8372
"78913",1061.9457,79.183334,180.315
"78914",1061.959,78.555885,179.66203
"78915",1061.9723,77.872284,178.9333
"78916",1061.9856,77.17891,178.17343
"78917",1061.9989,76.52216,177.42853
"78918",1062.0122,75.93378,176.73146
"78919",1062.0255,75.43572,176.10634
"78920",1062.0388,75.03044,175.55843
"78921",1062.0521,74.72526,175.09795
"78922",1062.0654,74.50553,174.71338
"78923",1062.0787,74.36637,174.40251
"78924",1062.092,74.288246,174.14833
"78925",1062.1053,74.25895,173.94054
"78926",1062.1187,74.25407,173.75624
"78927",1062.132,74.26627,173.58888
"78928",1062.1453,74.27848,173.4219
"78929",1062.1586,74.28092,173.24554
"78930",1062.1719,74.26383,173.04973
"78931",1062.1852,74.24429,172.85094
"78932",1062.1985,74.27604,172.70282
"78933",1062.2118,74.47135,172.71925
"78934",1062.2251,74.99382,173.06895
"78935",1062.2384,75.99481,173.9135
"78936",1062.2517,77.55489,175.34842
"78937",1062.265,79.63012,177.34723
"78938",1062.2783,82.04227,179.74782
"78939",1062.2916,84.51301,182.28238
"78940",1062.3049,86.73228,184.64268
"78941",1062.3182,88.4535,186.5743
"78942",1062.3315,89.53506,187.92003
"78943",1062.3448,89.9379,188.62083
"78944",1062.3582,89.72793,188.72142
"78945",1062.3715,89.039444,188.33693
"78946",1062.3848,88.04089,187.62086
"78947",1062.3981,86.8983,186.72955
"78948",1062.4114,85.750824,185.79765
"78949",1062.4247,84.701,184.92754
"78950",1062.438,83.790344,184.16379
"78951",1062.4513,83.018845,183.51074
"78952",1062.4646,82.34257,182.9288
"78953",1062.4779,81.71511,182.37456
"78954",1062.4912,81.11696,181.83
"78955",1062.5045,80.55787,181.30582
"78956",1062.5178,80.07446,180.83984
"78957",1062.5311,79.71557,180.48328
"78958",1062.5444,79.520256,180.27907
"78959",1062.5577,79.48608,180.22989
"78960",1062.571,79.57641,180.30415
"78961",1062.5844,79.744865,180.45937
"78962",1062.5977,79.91821,180.62474
"78963",1062.611,80.028076,180.73206
"78964",1062.6243,80.01343,180.71829
"78965",1062.6376,79.83765,180.54294
"78966",1062.6509,79.50317,180.20338
"78967",1062.6642,79.01976,179.70445
"78968",1062.6775,78.433815,179.08788
"78969",1062.6908,77.7966,178.40172
"78970",1062.7041,77.152054,177.68831
"78971",1062.7174,76.53437,176.98163
"78972",1062.7307,75.97528,176.31424
"78973",1062.744,75.48699,175.70018
"78974",1062.7573,75.09392,175.16608
"78975",1062.7706,74.793625,174.71246
"78976",1062.7839,74.581215,174.33736
"78977",1062.7972,74.45182,174.03862
"78978",1062.8105,74.38834,173.80176
"78979",1062.8239,74.371254,173.6093
"78980",1062.8372,74.390785,173.45293
"78981",1062.8505,74.424965,173.31181
"78982",1062.8638,74.476234,173.18886
"78983",1062.8771,74.52506,173.06506
"78984",1062.8904,74.56657,172.93547
"78985",1062.9037,74.59098,172.79008
"78986",1062.917,74.58854,172.6186
"78987",1062.9303,74.5568,172.41776
"78988",1062.9436,74.512856,172.2037
"78989",1062.9569,74.50553,172.0249
"78990",1062.9702,74.65446,172.00212
"78991",1062.9835,75.11589,172.29651
"78992",1062.9968,76.053406,173.08139
"78993",1063.0101,77.55245,174.4571
"78994",1063.0234,79.588615,176.41678
"78995",1063.0367,81.99588,178.81119
"78996",1063.05,84.49348,181.37115
"78997",1063.0634,86.77135,183.78944
"78998",1063.0767,88.56092,185.79062
"78999",1063.09,89.703514,187.20074
"79000",1063.1033,90.162506,187.96297
"79001",1063.1166,89.99649,188.11453
"79002",1063.1299,89.34707,187.7775
"79003",1063.1432,88.38758,187.1101
"79004",1063.1565,87.293816,186.27846
"79005",1063.1698,86.20981,185.42238
"79006",1063.1831,85.23079,184.63742
"79007",1063.1964,84.403145,183.97324
"79008",1063.2097,83.70977,183.41747
"79009",1063.223,83.09453,182.91815
"79010",1063.2363,82.5037,182.42403
"79011",1063.2496,81.90311,181.90167
"79012",1063.263,81.29275,181.35078
"79013",1063.2762,80.723885,180.82233
"79014",1063.2896,80.25269,180.37376
"79015",1063.3029,79.923096,180.05206
"79016",1063.3162,79.75952,179.88608
"79017",1063.3295,79.744865,179.8639
"79018",1063.3428,79.835205,179.94627
"79019",1063.3561,79.96216,180.06808
"79020",1063.3694,80.05737,180.16211
"79021",1063.3827,80.05737,180.16391
"79022",1063.396,79.91577,180.02411
"79023",1063.4093,79.61791,179.72362
"79024",1063.4226,79.17357,179.26733
"79025",1063.4359,78.61448,178.68242
"79026",1063.4492,77.98703,178.01167
"79027",1063.4625,77.332726,177.29446
"79028",1063.4758,76.6955,176.57388
"79029",1063.4891,76.10712,175.88223
"79030",1063.5024,75.58953,175.243
"79031",1063.5157,75.159836,174.67548
"79032",1063.529,74.81804,174.18242
"79033",1063.5424,74.564125,173.76657
"79034",1063.5557,74.38834,173.42091
"79035",1063.569,74.28336,173.14056
"79036",1063.5823,74.229645,172.9082
"79037",1063.5956,74.22232,172.72055
"79038",1063.6089,74.246735,172.5644
"79039",1063.6222,74.302895,172.44078
"79040",1063.6355,74.38346,172.3433
"79041",1063.6488,74.48356,172.26788
"79042",1063.6621,74.5861,172.19803
"79043",1063.6754,74.683754,172.1265
"79044",1063.6887,74.76677,172.04338
"79045",1063.702,74.830246,171.94331
"79046",1063.7153,74.87419,171.8257
"79047",1063.7286,74.90349,171.69481
"79048",1063.742,74.9279,171.55995
"79049",1063.7552,74.93767,171.41121
"79050",1063.7686,74.93523,171.25056
"79051",1063.7819,74.92546,171.08252
"79052",1063.7952,74.90349,170.90196
"79053",1063.8085,74.86687,170.70607
"79054",1063.8218,74.82292,170.50171
"79055",1063.8351,74.76921,170.28621
"79056",1063.8484,74.71305,170.06659
"79057",1063.8617,74.67887,169.86719
"79058",1063.875,74.73991,169.76193
"79059",1063.8883,75.04021,169.89786
"79060",1063.9016,75.76776,170.47041
"79061",1063.9149,77.069046,171.63943
"79062",1063.9282,78.98558,173.46437
"79063",1063.9415,81.41482,175.86191
"79064",1063.9548,84.11017,178.60147
"79065",1063.9681,86.74937,181.36911
"79066",1063.9814,89.00038,183.83104
"79067",1063.9948,90.64347,185.75539
"79068",1064.008,91.5761,187.02063
"79069",1064.0214,91.810486,187.61676
"79070",1064.0347,91.44915,187.6245
"79071",1064.048,90.65812,187.19125
"79072",1064.0613,89.63027,186.49648
"79073",1064.0746,88.534065,185.70122
"79074",1064.0879,87.51598,184.94983
"79075",1064.1012,86.66392,184.33264
"79076",1064.1145,85.997406,183.87437
"79077",1064.1278,85.47982,183.5442
"79078",1064.1411,85.03548,183.2711
"79079",1064.1544,84.58137,182.97435
"79080",1064.1677,84.06378,182.59993
"79081",1064.181,83.475395,182.13853
"79082",1064.1943,82.85039,181.62213
"79083",1064.2076,82.25712,181.11794
"79084",1064.221,81.75174,180.68309
"79085",1064.2343,81.373314,180.3594
"79086",1064.2476,81.13161,180.16061
"79087",1064.2609,80.99977,180.06415
"79088",1064.2742,80.938736,180.03436
"79089",1064.2875,80.88747,180.01244
"79090",1064.3008,80.78981,179.94252
"79091",1064.3141,80.601814,179.7792
"79092",1064.3274,80.29664,179.49284
"79093",1064.3407,79.871826,179.0773
"79094",1064.354,79.35424,178.55571
"79095",1064.3673,78.768295,177.94958
"79096",1064.3806,78.15549,177.29828
"79097",1064.3939,77.55489,176.64005
"79098",1064.4072,76.995804,176.00455
"79099",1064.4205,76.50507,175.41994
"79100",1064.4338,76.102234,174.90788
"79101",1064.4471,75.78241,174.46625
"79102",1064.4604,75.543144,174.09518
"79103",1064.4738,75.37957,173.79233
"79104",1064.487,75.27703,173.5454
"79105",1064.5004,75.22575,173.34653
"79106",1064.5137,75.21355,173.18512
"79107",1064.527,75.228195,173.05019
"79108",1064.5403,75.25506,172.92793
"79109",1064.5536,75.284355,172.80894
"79110",1064.5669,75.30877,172.68599
"79111",1064.5802,75.3283,172.55891
"79112",1064.5935,75.338066,172.42268
"79113",1064.6068,75.34051,172.27943
"79114",1064.6201,75.33318,172.1265
"79115",1064.6334,75.32098,171.96844
"79116",1064.6467,75.30389,171.80513
"79117",1064.66,75.284355,171.63884
"79118",1064.6733,75.264824,171.47194
"79119",1064.6866,75.25262,171.31175
"79120",1064.7,75.245285,171.15607
"79121",1064.7133,75.24284,171.00504
"79122",1064.7266,75.24284,170.85637
"79123",1064.7399,75.24284,170.7077
"79124",1064.7532,75.24773,170.56392
"79125",1064.7665,75.25994,170.42763
"79126",1064.7798,75.27459,170.29414
"79127",1064.7931,75.29168,170.16356
"79128",1064.8064,75.318535,170.04327
"79129",1064.8197,75.34783,169.92627
"79130",1064.833,75.38201,169.81506
"79131",1064.8463,75.41619,169.70493
"79132",1064.8596,75.46258,169.60806
"79133",1064.8729,75.51873,169.52242
"79134",1064.8862,75.58465,169.44829
"79135",1064.8995,75.66277,169.38843
"79136",1064.9128,75.75311,169.34323
"79137",1064.9261,75.84833,169.30573
"79138",1064.9395,75.93866,169.26631
"79139",1064.9528,76.016785,169.21751
"79140",1064.9661,76.085144,169.16139
"79141",1064.9794,76.1535,169.1074
"79142",1064.9927,76.27558,169.10928
"79143",1065.006,76.56855,169.28586
"79144",1065.0193,77.20332,169.8134
"79145",1065.0326,78.331276,170.85396
"79146",1065.0459,80.04028,172.51082
"79147",1065.0592,82.27421,174.746
"79148",1065.0725,84.84749,177.39035
"79149",1065.0858,87.4696,180.16394
"79150",1065.0991,89.83292,182.76068
"79151",1065.1124,91.68108,184.91612
"79152",1065.1257,92.87984,186.4799
"79153",1065.139,93.40475,187.4073
"79154",1065.1523,93.3193,187.74075
"79155",1065.1656,92.75044,187.58812
"79156",1065.179,91.8764,187.11253
"79157",1065.1923,90.87053,186.4778
"79158",1065.2056,89.881744,185.82872
"79159",1065.2189,89.01015,185.26593
"79160",1065.2322,88.31434,184.85168
"79161",1065.2455,87.78943,184.5866
"79162",1065.2588,87.379265,184.41985
"79163",1065.2721,87.00084,184.27202
"79164",1065.2854,86.588234,184.07819
"79165",1065.2987,86.09506,183.7909
"79166",1065.312,85.514,183.4003
"79167",1065.3253,84.87923,182.93784
"79168",1065.3386,84.25422,182.4653
"79169",1065.3519,83.69268,182.03671
"79170",1065.3652,83.23369,181.69312
"79171",1065.3785,82.882126,181.44261
"79172",1065.3918,82.63065,181.2812
"79173",1065.4052,82.44755,181.18031
"79174",1065.4185,82.28397,181.09323
"79175",1065.4318,82.09354,180.97417
"79176",1065.4451,81.83719,180.78325
"79177",1065.4584,81.4905,180.49397
"79178",1065.4717,81.0486,180.09865
"79179",1065.485,80.51881,179.60162
"79180",1065.4983,79.937744,179.03677
"79181",1065.5116,79.33227,178.42935
"79182",1065.5249,78.73167,177.80788
"79183",1065.5382,78.170135,177.20671
"79184",1065.5515,77.6672,176.64659
"79185",1065.5648,77.23262,176.13911
"79186",1065.5781,76.87129,175.6913
"79187",1065.5914,76.58808,175.31032
"79188",1065.6047,76.37324,174.98885
"79189",1065.618,76.21942,174.7217
"79190",1065.6313,76.121765,174.50589
"79191",1065.6447,76.06317,174.3261
"79192",1065.658,76.036316,174.17621
"79193",1065.6713,76.02411,174.04013
"79194",1065.6846,76.02167,173.91344
"79195",1065.6979,76.016785,173.78423
"79196",1065.7112,75.999695,173.64265
"79197",1065.7245,75.96796,173.4859
"79198",1065.7378,75.92645,173.31839
"79199",1065.7511,75.87518,173.13982
"79200",1065.7644,75.81903,172.95476
"79201",1065.7777,75.76044,172.7655
"79202",1065.791,75.70916,172.58174
"79203",1065.8043,75.66033,172.39882
"79204",1065.8176,75.613945,172.21681
"79205",1065.8309,75.577324,172.04312
"79206",1065.8442,75.55047,171.87805
"79207",1065.8575,75.53094,171.71947
"79208",1065.8708,75.51629,171.56516
"79209",1065.8842,75.50652,171.41527
"79210",1065.8975,75.50164,171.26996
"79211",1065.9108,75.50408,171.13182
"79212",1065.9241,75.51873,171.00597
"79213",1065.9374,75.5407,170.8879
"79214",1065.9507,75.57488,170.78271
"79215",1065.964,75.61883,170.68837
"79216",1065.9773,75.667656,170.60028
"79217",1065.9906,75.72381,170.52104
"79218",1066.0039,75.78241,170.44601
"79219",1066.0172,75.84833,170.38013
"79220",1066.0305,75.92157,170.32362
"79221",1066.0438,76.00214,170.27673
"79222",1066.0571,76.08026,170.22992
"79223",1066.0704,76.15106,170.17822
"79224",1066.0837,76.2121,170.11897
"79225",1066.097,76.26093,170.04944
"79226",1066.1104,76.30488,169.97653
"79227",1066.1237,76.3708,169.92697
"79228",1066.137,76.54902,169.99178
"79229",1066.1503,76.98848,170.3234
"79230",1066.1636,77.84787,171.08867
"79231",1066.1769,79.24193,172.41547
"79232",1066.1902,81.17799,174.32784
"79233",1066.2035,83.543755,176.73041
"79234",1066.2168,86.099945,179.39734
"79235",1066.2301,88.54871,182.03673
"79236",1066.2434,90.6215,184.37666
"79237",1066.2567,92.137634,186.22472
"79238",1066.27,93.01167,187.47806
"79239",1066.2833,93.25094,188.12393
"79240",1066.2966,92.95552,188.2426
"79241",1066.3099,92.26948,187.96141
"79242",1066.3232,91.36126,187.43661
"79243",1066.3365,90.392006,186.8224
"79244",1066.3499,89.48623,186.24138
"79245",1066.3632,88.72694,185.77853
"79246",1066.3765,88.14099,185.4653
"79247",1066.3898,87.708855,185.28757
"79248",1066.4031,87.362175,185.1818
"79249",1066.4164,87.01305,185.06273
"79250",1066.4297,86.598,184.86684
"79251",1066.443,86.082855,184.55788
"79252",1066.4563,85.48226,184.14737
"79253",1066.4696,84.84505,183.68147
"79254",1066.4829,84.23224,183.22008
"79255",1066.4962,83.69756,182.81766
"79256",1066.5095,83.267876,182.50352
"79257",1066.5228,82.948044,182.28581
"79258",1066.5361,82.71366,182.14355
"79259",1066.5494,82.533,182.0477
"79260",1066.5627,82.35966,181.95352
"79261",1066.576,82.14725,181.81485
"79262",1066.5894,81.85672,181.59143
"79263",1066.6027,81.47585,181.26859
"79264",1066.616,81.00221,180.84106
"79265",1066.6293,80.45777,180.32794
"79266",1066.6426,79.8645,179.74898
"79267",1066.6559,79.256584,179.13683
"79268",1066.6692,78.660866,178.51787
"79269",1066.6825,78.10422,177.91937
"79270",1066.6958,77.60128,177.3572
"79271",1066.7091,77.1667,176.84766
"79272",1066.7224,76.805374,176.39778
"79273",1066.7357,76.51972,176.0123
"79274",1066.749,76.30732,175.69113
"79275",1066.7623,76.15106,175.41948
"79276",1066.7756,76.0412,175.18933
"79277",1066.789,75.96796,174.99237
"79278",1066.8022,75.92401,174.82242
"79279",1066.8156,75.897156,174.66818
"79280",1066.8289,75.88251,174.52531
"79281",1066.8422,75.86786,174.38199
"79282",1066.8555,75.843445,174.22844
"79283",1066.8688,75.80682,174.06192
"79284",1066.8821,75.76288,173.88693
"79285",1066.8954,75.716484,173.70813
"79286",1066.9087,75.67254,173.53032
"79287",1066.922,75.62859,173.35114
"79288",1066.9353,75.58465,173.17058
"79289",1066.9486,75.543144,172.99109
"79290",1066.9619,75.49676,172.80542
"79291",1066.9752,75.45037,172.6183
"79292",1066.9885,75.41375,172.4395
"79293",1067.0018,75.38201,172.26443
"79294",1067.0151,75.36004,172.09814
"79295",1067.0284,75.34783,171.94093
"79296",1067.0417,75.34051,171.78822
"79297",1067.055,75.338066,171.64017
"79298",1067.0684,75.34295,171.49936
"79299",1067.0817,75.34783,171.3587
"79300",1067.095,75.36492,171.23041
"79301",1067.1083,75.389336,171.10997
"79302",1067.1216,75.4284,171.00494
"79303",1067.1349,75.47723,170.9109
"79304",1067.1482,75.53338,170.82571
"79305",1067.1615,75.59197,170.74472
"79306",1067.1748,75.65789,170.67288
"79307",1067.1881,75.72869,170.60799
"79308",1067.2014,75.80194,170.54776
"79309",1067.2147,75.88495,170.49957
"79310",1067.228,75.97284,170.45886
"79311",1067.2413,76.05829,170.41846
"79312",1067.2546,76.1413,170.37828
"79313",1067.268,76.2121,170.32849
"79314",1067.2812,76.27314,170.27116
"79315",1067.2946,76.32441,170.20596
"79316",1067.3079,76.39765,170.16434
"79317",1067.3212,76.578316,170.23242
"79318",1067.3345,77.01045,170.55763
"79319",1067.3478,77.86252,171.31627
"79320",1067.3611,79.25414,172.6411
"79321",1067.3744,81.20973,174.57338
"79322",1067.3877,83.617,177.01845
"79323",1067.401,86.24155,179.75603
"79324",1067.4143,88.78798,182.49751
"79325",1067.4276,90.97307,184.95723
"79326",1067.4409,92.594185,186.92125
"79327",1067.4542,93.55123,188.27187
"79328",1067.4675,93.83444,188.97855
"79329",1067.4808,93.52682,189.10324
"79330",1067.4941,92.772415,188.77155
"79331",1067.5074,91.74456,188.14282
"79332",1067.5208,90.616615,187.3819
"79333",1067.534,89.52773,186.62479
"79334",1067.5474,88.57557,185.97037
"79335",1067.5607,87.80896,185.47174
"79336",1067.574,87.220566,185.12738
"79337",1067.5873,86.7567,184.88916
"79338",1067.6006,86.35142,184.69502
"79339",1067.6139,85.93393,184.47601
"79340",1067.6272,85.46761,184.19513
"79341",1067.6405,84.964676,183.86305
"79342",1067.6538,84.456856,183.51038
"79343",1067.6671,83.9881,183.1809
"79344",1067.6804,83.597466,182.91489
"79345",1067.6937,83.30694,182.73679
"79346",1067.707,83.104294,182.63748
"79347",1067.7203,82.967575,182.59778
"79348",1067.7336,82.85039,182.57333
"79349",1067.747,82.71122,182.52324
"79350",1067.7603,82.50614,182.4029
"79351",1067.7736,82.20828,182.18335
"79352",1067.7869,81.80545,181.84953
"79353",1067.8002,81.30984,181.41034
"79354",1067.8135,80.73609,180.87753
"79355",1067.8268,80.11841,180.28285
"79356",1067.8401,79.483635,179.65178
"79357",1067.8534,78.86595,179.01796
"79358",1067.8667,78.28245,178.39902
"79359",1067.88,77.75998,177.82288
"79360",1067.8933,77.313194,177.30609
"79361",1067.9066,76.944534,176.85347
"79362",1067.9199,76.65644,176.4699
"79363",1067.9332,76.44404,176.153
"79364",1067.9465,76.297554,175.89539
"79365",1067.9598,76.19989,175.68202
"79366",1067.9731,76.1413,175.50467
"79367",1067.9865,76.10712,175.3499
"79368",1067.9998,76.09491,175.21603
"79369",1068.0131,76.09003,175.08911
"79370",1068.0264,76.085144,174.96204
"79371",1068.0397,76.07294,174.82748
"79372",1068.053,76.050964,174.68279
"79373",1068.0663,76.016785,174.52519
"79374",1068.0796,75.97528,174.3592
"79375",1068.0929,75.931335,174.18948
"79376",1068.1062,75.88739,174.01839
"79377",1068.1195,75.83856,173.84103
"79378",1068.1328,75.792175,173.6646
"79379",1068.1461,75.75067,173.4916
"79380",1068.1594,75.7116,173.31973
"79381",1068.1727,75.67498,173.1491
"79382",1068.186,75.64324,172.9822
"79383",1068.1993,75.61639,172.81918
"79384",1068.2126,75.58953,172.65533
"79385",1068.226,75.56756,172.49553
"79386",1068.2393,75.560234,172.34969
"79387",1068.2526,75.562675,172.21338
"79388",1068.2659,75.57244,172.08447
"79389",1068.2792,75.58465,171.95831
"79390",1068.2925,75.60418,171.83986
"79391",1068.3058,75.62371,171.72202
"79392",1068.3191,75.65545,171.61699
"79393",1068.3324,75.701836,171.5276
"79394",1068.3457,75.757996,171.44945
"79395",1068.359,75.81903,171.37791
"79396",1068.3723,75.88495,171.31317
"79397",1068.3856,75.93866,171.23828
"79398",1068.3989,75.982605,171.1553
"79399",1068.4122,76.016785,171.06393
"79400",1068.4255,76.0412,170.96387
"79401",1068.4388,76.07538,170.87433
"79402",1068.4521,76.18524,170.86154
"79403",1068.4655,76.50263,171.05972
"79404",1068.4788,77.188675,171.63647
"79405",1068.4921,78.38499,172.74493
"79406",1068.5054,80.14282,174.4523
"79407",1068.5187,82.39628,176.71022
"79408",1068.532,84.945145,179.33397
"79409",1068.5453,87.50866,182.05202
"79410",1068.5586,89.78897,184.56697
"79411",1068.5719,91.55901,186.64291
"79412",1068.5852,92.67719,188.12231
"79413",1068.5985,93.10689,188.94817
"79414",1068.6118,92.911575,189.16245
"79415",1068.6251,92.20599,188.86035
"79416",1068.6384,91.15617,188.19197
"79417",1068.6517,89.92569,187.31012
"79418",1068.665,88.66834,186.36295
"79419",1068.6783,87.48669,185.45218
"79420",1068.6917,86.43931,184.63876
"79421",1068.705,85.538414,183.9391
"79422",1068.7183,84.75716,183.33092
"79423",1068.7316,84.05646,182.77888
"79424",1068.7449,83.424126,182.27332
"79425",1068.7582,82.86748,181.82367
"79426",1068.7715,82.41825,181.46405
"79427",1068.7848,82.11063,181.232
"79428",1068.7981,81.97391,181.16124
"79429",1068.8114,81.99588,181.2449
"79430",1068.8247,82.142365,181.45377
"79431",1068.838,82.34989,181.72824
"79432",1068.8513,82.55253,182.00432
"79433",1068.8646,82.67948,182.21104
"79434",1068.8779,82.67216,182.28746
"79435",1068.8912,82.5037,182.20251
"79436",1068.9045,82.16434,181.94139
"79437",1068.9178,81.67361,181.5183
"79438",1068.9312,81.06813,180.96512
"79439",1068.9445,80.39185,180.32222
"79440",1068.9578,79.691154,179.63377
"79441",1068.9711,79.00023,178.9332
"79442",1068.9844,78.35081,178.25253
"79443",1068.9977,77.76486,177.61505
"79444",1069.011,77.25948,177.03983
"79445",1069.0243,76.83711,176.53181
"79446",1069.0376,76.50019,176.09605
"79447",1069.0509,76.24628,175.73277
"79448",1069.0642,76.068054,175.43724
"79449",1069.0775,75.95087,175.19717
"79450",1069.0908,75.88739,175.00716
"79451",1069.1041,75.86786,174.8591
"79452",1069.1174,75.877625,174.73973
"79453",1069.1307,75.90204,174.63531
"79454",1069.144,75.928894,174.5341
"79455",1069.1573,75.95819,174.43617
"79456",1069.1707,75.982605,174.33427
"79457",1069.184,75.99725,174.22337
"79458",1069.1973,76.00458,174.1056
"79459",1069.2106,76.00214,173.9783
"79460",1069.2239,75.98749,173.83871
"79461",1069.2372,75.96307,173.6889
"79462",1069.2505,75.93378,173.53345
"79463",1069.2638,75.90448,173.37708
"79464",1069.2771,75.8703,173.2149
"79465",1069.2904,75.83368,173.04922
"79466",1069.3037,75.79706,172.8824
"79467",1069.317,75.76044,172.71443
"79468",1069.3303,75.73113,172.55264
"79469",1069.3436,75.70428,172.39238
"79470",1069.3569,75.68719,172.24104
"79471",1069.3702,75.682304,172.10138
"79472",1069.3835,75.68963,171.97377
"79473",1069.3969,75.70672,171.85616
"79474",1069.4102,75.733574,171.74884
"79475",1069.4235,75.76776,171.6497
"79476",1069.4368,75.80438,171.55406
"79477",1069.4501,75.83124,171.4498
"79478",1069.4634,75.85321,171.34149
"79479",1069.4767,75.8703,171.22899
"79480",1069.49,75.90936,171.13899
"79481",1069.5033,76.04852,171.15031
"79482",1069.5166,76.439156,171.41747
"79483",1069.5299,77.25216,172.11919
"79484",1069.5432,78.63889,173.42004
"79485",1069.5565,80.6482,175.38681
"79486",1069.5698,83.18242,177.94128
"79487",1069.5831,86.01694,180.87526
"79488",1069.5964,88.831924,183.87828
"79489",1069.6097,91.31243,186.63478
"79490",1069.623,93.21675,188.89261
"79491",1069.6364,94.41062,190.4995
"79492",1069.6497,94.86229,191.40149
"79493",1069.663,94.64744,191.6511
"79494",1069.6763,93.90036,191.36174
"79495",1069.6896,92.79683,190.6926
"79496",1069.7029,91.51263,189.80829
"79497",1069.7162,90.20645,188.86188
"79498",1069.7295,88.99794,187.97232
"79499",1069.7428,87.955444,187.21101
"79500",1069.7561,87.09361,186.5978
"79501",1069.7694,86.383156,186.10901
"79502",1069.7827,85.767914,185.69324
"79503",1069.796,85.19905,185.30463
"79504",1069.8093,84.644844,184.91289
"79505",1069.8226,84.105286,184.51848
"79506",1069.8359,83.612114,184.1536
"79507",1069.8492,83.19707,183.85143
"79508",1069.8625,82.882126,183.6364
"79509",1069.8759,82.667274,183.51161
"79510",1069.8892,82.53788,183.46558
"79511",1069.9025,82.45731,183.46432
"79512",1069.9158,82.38651,183.47032
"79513",1069.9291,82.27177,183.43016
"79514",1069.9424,82.074005,183.30339
"79515",1069.9557,81.75906,183.05327
"79516",1069.969,81.31472,182.6639
"79517",1069.9823,80.76051,182.15077
"79518",1069.9956,80.12573,181.53976
"79519",1070.0089,79.449455,180.86742
"79520",1070.0222,78.76341,180.16417
"79521",1070.0355,78.099335,179.46144
"79522",1070.0488,77.47921,178.78192
"79523",1070.0621,76.92256,178.1465
"79524",1070.0754,76.4416,177.56937
"79525",1070.0887,76.0412,177.05777
"79526",1070.102,75.72381,176.61667
"79527",1070.1154,75.47967,176.23889
"79528",1070.1287,75.29656,175.91452
"79529",1070.142,75.16716,175.63814
"79530",1070.1553,75.07927,175.39922
"79531",1070.1686,75.028,175.19417
"79532",1070.1819,75.00603,175.01682
"79533",1070.1952,75.003586,174.8583
"79534",1070.2085,75.00847,174.70705
"79535",1070.2218,75.018234,174.56082
"79536",1070.2351,75.02556,174.41246
"79537",1070.2484,75.02312,174.25456
"79538",1070.2617,75.018234,174.09415
"79539",1070.275,75.01091,173.93114
"79540",1070.2883,75.001144,173.76546
"79541",1070.3016,74.984055,173.59215
"79542",1070.315,74.96208,173.41342
"79543",1070.3282,74.93523,173.22913
"79544",1070.3416,74.90593,173.04155
"79545",1070.3549,74.87419,172.85062
"79546",1070.3682,74.84978,172.66602
"79547",1070.3815,74.82536,172.48065
"79548",1070.3948,74.80339,172.29697
"79549",1070.4081,74.79118,172.12236
"79550",1070.4214,74.78874,171.95714
"79551",1070.4347,74.80339,171.80893
"79552",1070.448,74.83269,171.67583
"79553",1070.4613,74.87663,171.55829
"79554",1070.4746,74.9279,171.44945
"79555",1070.4879,74.986496,171.34953
"79556",1070.5012,75.04265,171.24901
"79557",1070.5145,75.10124,171.15268
"79558",1070.5278,75.15495,171.0533
"79559",1070.5411,75.208664,170.9556
"79560",1070.5544,75.25994,170.85715
"79561",1070.5677,75.34051,170.78958
"79562",1070.581,75.53094,170.8344
"79563",1070.5944,75.99725,171.16106
"79564",1070.6077,76.929886,171.9686
"79565",1070.621,78.470436,173.41321
"79566",1070.6343,80.66285,175.55782
"79567",1070.6476,83.39239,178.30807
"79568",1070.6609,86.41001,181.43172
"79569",1070.6742,89.376366,184.59839
"79570",1070.6875,91.96918,187.4842
"79571",1070.7008,93.93942,189.82849
"79572",1070.7141,95.16014,191.48482
"79573",1070.7274,95.61181,192.41025
"79574",1070.7407,95.37255,192.65886
"79575",1070.754,94.588844,192.35555
"79576",1070.7673,93.45602,191.67862
"79577",1070.7806,92.15961,190.8027
"79578",1070.794,90.86809,189.89117
"79579",1070.8073,89.69619,189.0589
"79580",1070.8206,88.71229,188.378
"79581",1070.8339,87.92859,187.86656
"79582",1070.8472,87.29626,187.482
"79583",1070.8605,86.744484,187.15823
"79584",1070.8738,86.20004,186.82455
"79585",1070.8871,85.62386,186.44212
"79586",1070.9004,85.02815,186.02216
"79587",1070.9137,84.44465,185.59578
"79588",1070.927,83.912415,185.20244
"79589",1070.9403,83.47051,184.8828
"79590",1070.9536,83.13359,184.65433
"79591",1070.9669,82.88457,184.50323
"79592",1070.9802,82.69413,184.40294
"79593",1070.9935,82.528114,184.32112
"79594",1071.0068,82.34745,184.21947
"79595",1071.0201,82.108185,184.05356
"79596",1071.0334,81.778595,183.78986
"79597",1071.0468,81.34646,183.4133
"79598",1071.06,80.816666,182.92558
"79599",1071.0734,80.2063,182.34074
"79600",1071.0867,79.54955,181.69044
"79601",1071.1,78.870834,180.99765
"79602",1071.1133,78.20187,180.2934
"79603",1071.1266,77.56954,179.60487
"79604",1071.1399,76.995804,178.95518
"79605",1071.1532,76.490425,178.35593
"79606",1071.1665,76.05829,177.81412
"79607",1071.1798,75.70672,177.33937
"79608",1071.1931,75.42596,176.92444
"79609",1071.2064,75.211105,176.56665
"79610",1071.2197,75.054855,176.26074
"79611",1071.233,74.94499,175.99634
"79612",1071.2463,74.879074,175.77245
"79613",1071.2596,74.847336,175.58067
"79614",1071.273,74.84001,175.41232
"79615",1071.2863,74.847336,175.25839
"79616",1071.2996,74.86687,175.1169
"79617",1071.3129,74.88396,174.97357
"79618",1071.3262,74.89128,174.82101
"79619",1071.3395,74.89128,174.66136
"79620",1071.3528,74.881516,174.49194
"79621",1071.3661,74.864426,174.3149
"79622",1071.3794,74.84001,174.12999
"79623",1071.3927,74.813156,173.94188
"79624",1071.406,74.78874,173.75537
"79625",1071.4193,74.759445,173.56322
"79626",1071.4326,74.73258,173.37259
"79627",1071.4459,74.703285,173.17868
"79628",1071.4592,74.67643,172.9863
"79629",1071.4725,74.652016,172.79552
"79630",1071.4858,74.632484,172.60886
"79631",1071.4991,74.62272,172.43135
"79632",1071.5125,74.6276,172.26819
"79633",1071.5258,74.64713,172.11983
"79634",1071.5391,74.68131,171.98672
"79635",1071.5524,74.73258,171.87178
"79636",1071.5657,74.79851,171.7731
"79637",1071.579,74.864426,171.67647
"79638",1071.5923,74.932785,171.58434
"79639",1071.6056,74.986496,171.47969
"79640",1071.6189,75.03044,171.36696
"79641",1071.6322,75.07439,171.2556
"79642",1071.6455,75.15251,171.1798
"79643",1071.6588,75.36004,171.23584
"79644",1071.6721,75.8703,171.6011
"79645",1071.6854,76.87862,172.48036
"79646",1071.6987,78.52659,174.03079
"79647",1071.712,80.82887,176.28703
"79648",1071.7253,83.65606,179.14012
"79649",1071.7386,86.73472,182.33304
"79650",1071.752,89.71084,185.51962
"79651",1071.7653,92.2475,188.35974
"79652",1071.7786,94.115204,190.61018
"79653",1071.7919,95.1992,192.13528
"79654",1071.8052,95.50439,192.91544
"79655",1071.8185,95.11864,193.01419
"79656",1071.8318,94.21042,192.57843
"79657",1071.8451,92.97505,191.78714
"79658",1071.8584,91.61028,190.82784
"79659",1071.8717,90.27238,189.85275
"79660",1071.885,89.07851,188.97989
"79661",1071.8983,88.0824,188.26749
"79662",1071.9116,87.27917,187.71683
"79663",1071.9249,86.61997,187.28511
"79664",1071.9382,86.03891,186.91092
"79665",1071.9515,85.47982,186.54054
"79666",1071.9648,84.91829,186.15025
"79667",1071.9781,84.3592,185.74486
"79668",1071.9915,83.83673,185.35861
"79669",1072.0048,83.387505,185.02928
"79670",1072.0181,83.04082,184.78845
"79671",1072.0314,82.79668,184.63934
"79672",1072.0447,82.633095,184.56316
"79673",1072.058,82.50858,184.52094
"79674",1072.0713,82.37675,184.4675
"79675",1072.0846,82.196075,184.3611
"79676",1072.0979,81.92508,184.15874
"79677",1072.1112,81.54421,183.83803
"79678",1072.1245,81.05348,183.39555
"79679",1072.1378,80.47486,182.84985
"79680",1072.1511,79.82788,182.21771
"79681",1072.1644,79.14427,181.52872
"79682",1072.1777,78.45579,180.81349
"79683",1072.191,77.7966,180.10605
"79684",1072.2043,77.188675,179.42926
"79685",1072.2177,76.646675,178.79941
"79686",1072.231,76.1828,178.23074
"79687",1072.2443,75.79706,177.72571
"79688",1072.2576,75.48211,177.27942
"79689",1072.2709,75.23308,176.8892
"79690",1072.2842,75.04753,176.55469
"79691",1072.2975,74.915695,176.26808
"79692",1072.3108,74.827805,176.0213
"79693",1072.3241,74.776535,175.8084
"79694",1072.3374,74.75456,175.62318
"79695",1072.3507,74.74723,175.45193
"79696",1072.364,74.74967,175.29022
"79697",1072.3773,74.757,175.13348
"79698",1072.3906,74.76677,174.9794
"79699",1072.4039,74.776535,174.82562
"79700",1072.4172,74.78142,174.66727
"79701",1072.4305,74.78142,174.50418
"79702",1072.4438,74.77898,174.33865
"79703",1072.4572,74.77165,174.16817
"79704",1072.4705,74.757,173.99013
"79705",1072.4838,74.737465,173.80675
"79706",1072.4971,74.71305,173.61787
"79707",1072.5104,74.68864,173.42824
"79708",1072.5237,74.66422,173.23784
"79709",1072.537,74.64225,173.04912
"79710",1072.5503,74.6276,172.86703
"79711",1072.5636,74.62028,172.69182
"79712",1072.5769,74.6276,172.53102
"79713",1072.5902,74.64469,172.38022
"79714",1072.6035,74.67155,172.23972
"79715",1072.6168,74.6984,172.10005
"79716",1072.6301,74.720375,171.95634
"79717",1072.6434,74.7277,171.79868
"79718",1072.6567,74.73014,171.63635
"79719",1072.67,74.73502,171.47655
"79720",1072.6833,74.79607,171.37306
"79721",1072.6967,75.01579,171.43016
"79722",1072.71,75.57244,171.83105
"79723",1072.7233,76.64912,172.76936
"79724",1072.7366,78.3679,174.38342
"79725",1072.7499,80.73365,176.69817
"79726",1072.7632,83.5877,179.57515
"79727",1072.7765,86.63706,182.73663
"79728",1072.7898,89.52773,185.83472
"79729",1072.8031,91.932556,188.53728
"79730",1072.8164,93.6318,190.6094
"79731",1072.8297,94.53025,191.93385
"79732",1072.843,94.645,192.50267
"79733",1072.8563,94.08835,192.40367
"79734",1072.8696,93.04341,191.799
"79735",1072.8829,91.700615,190.8638
"79736",1072.8962,90.252846,189.78168
"79737",1072.9095,88.85634,188.70557
"79738",1072.9229,87.61852,187.7445
"79739",1072.9362,86.571144,186.93521
"79740",1072.9495,85.70931,186.27873
"79741",1072.9628,84.98421,185.73204
"79742",1072.9761,84.349434,185.25302
"79743",1072.9894,83.77814,184.81764
"79744",1073.0027,83.27032,184.42789
"79745",1073.016,82.85039,184.11015
"79746",1073.0293,82.55009,183.89893
"79747",1073.0426,82.371864,183.8004
"79748",1073.0559,82.303505,183.80617
"79749",1073.0692,82.30106,183.87572
"79750",1073.0825,82.32304,183.9696
"79751",1073.0958,82.31083,184.03
"79752",1073.1091,82.22293,184.01431
"79753",1073.1224,82.01785,183.87871
"79754",1073.1357,81.68337,183.60728
"79755",1073.149,81.22194,183.19846
"79756",1073.1624,80.64332,182.65802
"79757",1073.1757,79.98413,182.01894
"79758",1073.189,79.28344,181.31775
"79759",1073.2023,78.5803,180.59221
"79760",1073.2156,77.908905,179.87645
"79761",1073.2289,77.298546,179.20074
"79762",1073.2422,76.76143,178.57921
"79763",1073.2555,76.29511,178.01169
"79764",1073.2688,75.90448,177.50528
"79765",1073.2821,75.579765,177.05258
"79766",1073.2954,75.318535,176.65321
"79767",1073.3087,75.11101,176.2994
"79768",1073.322,74.9572,175.9928
"79769",1073.3353,74.8571,175.7351
"79770",1073.3486,74.80095,175.51823
"79771",1073.3619,74.77898,175.33379
"79772",1073.3752,74.78874,175.18039
"79773",1073.3885,74.813156,175.04195
"79774",1073.4019,74.84001,174.90671
"79775",1073.4152,74.864426,174.76987
"79776",1073.4285,74.88884,174.63379
"79777",1073.4418,74.90593,174.49115
"79778",1073.4551,74.91814,174.34416
"79779",1073.4684,74.92546,174.19267
"79780",1073.4817,74.92546,174.03409
"79781",1073.495,74.915695,173.86574
"79782",1073.5083,74.90105,173.6922
"79783",1073.5216,74.8864,173.5182
"79784",1073.5349,74.87419,173.34619
"79785",1073.5482,74.86931,173.18112
"79786",1073.5615,74.86931,173.02078
"79787",1073.5748,74.87419,172.86533
"79788",1073.5881,74.879074,172.71002
"79789",1073.6014,74.87419,172.5451
"79790",1073.6147,74.864426,172.37515
"79791",1073.628,74.84245,172.19269
"79792",1073.6414,74.810715,171.99977
"79793",1073.6547,74.77165,171.79854
"79794",1073.668,74.75212,171.61562
"79795",1073.6813,74.81804,171.51753
"79796",1073.6946,75.11101,171.64856
"79797",1073.7079,75.82391,172.20868
"79798",1073.7212,77.12764,173.3819
"79799",1073.7345,79.10521,175.2697
"79800",1073.7478,81.6907,177.82722
"79801",1073.7611,84.65217,180.84154
"79802",1073.7744,87.65026,183.98502
"79803",1073.7877,90.33341,186.90724
"79804",1073.801,92.403755,189.3005
"79805",1073.8143,93.697716,190.98209
"79806",1073.8276,94.17624,191.88866
"79807",1073.841,93.907684,192.06311
"79808",1073.8542,93.03609,191.62613
"79809",1073.8676,91.756775,190.7542
"79810",1073.8809,90.26505,189.62987
"79811",1073.8942,88.741585,188.42719
"79812",1073.9075,87.31579,187.27457
"79813",1073.9208,86.05844,186.24583
"79814",1073.9341,84.98665,185.36337
"79815",1073.9474,84.07843,184.611
"79816",1073.9607,83.30938,183.96939
"79817",1073.974,82.65507,183.4185
"79818",1073.9873,82.12283,182.96924
"79819",1074.0006,81.73464,182.64738
"79820",1074.0139,81.514915,182.48187
"79821",1074.0272,81.46609,182.4804
"79822",1074.0405,81.56374,182.62387
"79823",1074.0538,81.75906,182.86806
"79824",1074.0671,81.98367,183.14764
"79825",1074.0804,82.16922,183.39519
"79826",1074.0938,82.247345,183.5411
"79827",1074.107,82.16922,183.53322
"79828",1074.1204,81.91531,183.3471
"79829",1074.1337,81.480736,182.97238
"79830",1074.147,80.89967,182.43759
"79831",1074.1603,80.21118,181.77722
"79832",1074.1736,79.45922,181.03186
"79833",1074.1869,78.69749,180.25322
"79834",1074.2002,77.9675,179.48253
"79835",1074.2135,77.29366,178.74518
"79836",1074.2268,76.6955,178.06244
"79837",1074.2401,76.192566,177.45624
"79838",1074.2534,75.77753,176.92221
"79839",1074.2667,75.45037,176.4631
"79840",1074.28,75.20378,176.07434
"79841",1074.2933,75.02556,175.74623
"79842",1074.3066,74.91081,175.47603
"79843",1074.32,74.84978,175.25595
"79844",1074.3333,74.830246,175.07547
"79845",1074.3466,74.84245,174.92612
"79846",1074.3599,74.87419,174.79668
"79847",1074.3732,74.91814,174.68044
"79848",1074.3865,74.966965,174.57045
"79849",1074.3998,75.01335,174.45955
"79850",1074.4131,75.05974,174.3501
"79851",1074.4264,75.10368,174.23965
"79852",1074.4397,75.140305,174.12326
"79853",1074.453,75.16716,173.99825
"79854",1074.4663,75.18425,173.8643
"79855",1074.4796,75.18181,173.71136
"79856",1074.4929,75.159836,173.53882
"79857",1074.5062,75.11101,173.33873
"79858",1074.5195,75.035324,173.11026
"79859",1074.5328,74.93523,172.85501
"79860",1074.5461,74.83269,172.5942
"79861",1074.5594,74.76921,172.36923
"79862",1074.5728,74.844894,172.28145
"79863",1074.586,75.21843,172.49388
"79864",1074.5994,76.068054,173.19408
"79865",1074.6127,77.5256,174.52875
"79866",1074.626,79.5935,176.51932
"79867",1074.6393,82.13992,179.05304
"79868",1074.6526,84.893875,181.87387
"79869",1074.6659,87.51354,184.64647
"79870",1074.6792,89.6791,187.04683
"79871",1074.6925,91.175705,188.8459
"79872",1074.7058,91.913025,189.93246
"79873",1074.7191,91.91058,190.3023
"79874",1074.7324,91.27093,190.03485
"79875",1074.7457,90.16495,189.28108
"79876",1074.759,88.77089,188.20468
"79877",1074.7723,87.259636,186.96751
"79878",1074.7856,85.75815,185.69289
"79879",1074.799,84.34699,184.46167
"79880",1074.8123,83.06279,183.31331
"79881",1074.8256,81.92264,182.26888
"79882",1074.8389,80.938736,181.34506
"79883",1074.8522,80.14282,180.57849
"79884",1074.8655,79.57885,180.01898
"79885",1074.8788,79.28832,179.71529
"79886",1074.8921,79.29565,179.70036
"79887",1074.9054,79.57885,179.96155
"79888",1074.9187,80.07202,180.44156
"79889",1074.932,80.67017,181.04196
"79890",1074.9453,81.26833,181.66107
"79891",1074.9586,81.75906,182.19144
"79892",1074.9719,82.054474,182.54182
"79893",1074.9852,82.108185,182.65974
"79894",1074.9985,81.90799,182.52544
"79895",1075.0118,81.47585,182.15292
"79896",1075.0251,80.85573,181.57892
"79897",1075.0385,80.111084,180.86102
"79898",1075.0518,79.30297,180.05638
"79899",1075.0651,78.48997,179.22159
"79900",1075.0784,77.71847,178.4029
"79901",1075.0917,77.02266,177.63579
"79902",1075.105,76.422066,176.94215
"79903",1075.1183,75.928894,176.33717
"79904",1075.1316,75.55047,175.83153
"79905",1075.1449,75.28924,175.43124
"79906",1075.1582,75.1281,175.1229
"79907",1075.1715,75.04997,174.89252
"79908",1075.1848,75.04021,174.72806
"79909",1075.1981,75.071945,174.6048
"79910",1075.2114,75.123215,174.50206
"79911",1075.2247,75.17204,174.39848
"79912",1075.238,75.20622,174.28178
"79913",1075.2513,75.21599,174.14174
"79914",1075.2646,75.20134,173.97758
"79915",1075.278,75.176926,173.8032
"79916",1075.2913,75.18669,173.66225
"79917",1075.3046,75.34051,173.66565
"79918",1075.3179,75.79462,173.97415
"79919",1075.3312,76.71259,174.76071
"79920",1075.3445,78.2092,176.15459
"79921",1075.3578,80.274666,178.1641
"79922",1075.3711,82.7625,180.6605
"79923",1075.3844,85.401695,183.38603
"79924",1075.3977,87.86755,186.02069
"79925",1075.411,89.86954,188.26854
"79926",1075.4243,91.205,189.91243
"79927",1075.4376,91.79828,190.85587
"79928",1075.4509,91.6762,191.10248
"79929",1075.4642,90.951096,190.74225
"79930",1075.4775,89.79385,189.92723
"79931",1075.4908,88.38758,188.82701
"79932",1075.5042,86.8983,187.59984
"79933",1075.5175,85.4432,186.3603
"79934",1075.5308,84.09064,185.17784
"79935",1075.5441,82.85771,184.07275
"79936",1075.5574,81.75662,183.06097
"79937",1075.5707,80.79469,182.15395
"79938",1075.584,80.01099,181.39508
"79939",1075.5973,79.449455,180.8339
"79940",1075.6106,79.15648,180.52371
"79941",1075.6239,79.15892,180.49979
"79942",1075.6372,79.432365,180.74695
"79943",1075.6505,79.91333,181.21017
"79944",1075.6638,80.49683,181.79097
"79945",1075.6771,81.07057,182.38023
"79946",1075.6904,81.532005,182.87512
"79947",1075.7037,81.78836,183.17935
"79948",1075.717,81.7908,183.23769
"79949",1075.7303,81.532005,183.03485
"79950",1075.7437,81.04372,182.59444
"79951",1075.757,80.37476,181.9581
"79952",1075.7703,79.5935,181.18855
"79953",1075.7836,78.76097,180.34332
"79954",1075.7969,77.9382,179.48183
"79955",1075.8102,77.171585,178.65077
"79956",1075.8235,76.49775,177.88855
"79957",1075.8368,75.94354,177.2249
"79958",1075.8501,75.51385,176.66844
"79959",1075.8634,75.20378,176.21819
"79960",1075.8767,75.003586,175.8681
"79961",1075.89,74.88396,175.59233
"79962",1075.9033,74.81804,175.36653
"79963",1075.9166,74.7863,175.17285
"79964",1075.9299,74.759445,174.98306
"79965",1075.9432,74.72526,174.78511
"79966",1075.9565,74.686195,174.5812
"79967",1075.9698,74.67643,174.40538
"79968",1075.9832,74.7863,174.34889
"79969",1075.9965,75.174484,174.57414
"79970",1076.0098,76.02167,175.27052
"79971",1076.0231,77.454796,176.57933
"79972",1076.0364,79.4934,178.53839
"79973",1076.0497,82.005646,181.0348
"79974",1076.063,84.73762,183.82945
"79975",1076.0763,87.345085,186.58498
"79976",1076.0896,89.51064,188.98007
"79977",1076.1029,91.01213,190.77876
"79978",1076.1162,91.75189,191.86266
"79979",1076.1295,91.75189,192.2299
"79980",1076.1428,91.121994,191.96725
"79981",1076.1561,90.03067,191.2235
"79982",1076.1694,88.67567,190.18195
"79983",1076.1827,87.22789,189.00528
"79984",1076.196,85.821625,187.82489
"79985",1076.2094,84.53498,186.72017
"79986",1076.2227,83.38262,185.70953
"79987",1076.236,82.35233,184.78496
"79988",1076.2493,81.44167,183.94781
"79989",1076.2626,80.65308,183.20428
"79990",1076.2759,80.01831,182.58992
"79991",1076.2892,79.5935,182.16568
"79992",1076.3025,79.412834,181.9723
"79993",1076.3158,79.483635,182.02475
"79994",1076.3291,79.76196,182.28694
"79995",1076.3424,80.17212,182.68967
"79996",1076.3557,80.61402,183.13695
"79997",1076.369,80.987564,183.52968
"79998",1076.3823,81.1902,183.76318
"79999",1076.3956,81.163345,183.77353
"80000",1076.4089,80.88258,183.52913
"80001",1076.4222,80.36988,183.044
"80002",1076.4355,79.68383,182.36952
"80003",1076.4489,78.88304,181.55885
"80004",1076.4622,78.0383,180.6792
"80005",1076.4755,77.21065,179.79024
"80006",1076.4888,76.44892,178.94135
"80007",1076.5021,75.78241,178.16386
"80008",1076.5154,75.23796,177.48761
"80009",1076.5287,74.82048,176.92131
"80010",1076.542,74.52262,176.4616
"80011",1076.5553,74.31754,176.08534
"80012",1076.5686,74.175934,175.76616
"80013",1076.5819,74.073395,175.48161
"80014",1076.5952,73.987946,175.21095
"80015",1076.6085,73.91226,174.94739
"80016",1076.6218,73.865875,174.71075
"80017",1076.6351,73.917145,174.57033
"80018",1076.6484,74.20767,174.67076
"80019",1076.6617,74.91081,175.19289
"80020",1076.675,76.17792,176.30095
"80021",1076.6884,78.06271,178.0663
"80022",1076.7017,80.479744,180.42279
"80023",1076.715,83.194626,183.15266
"80024",1076.7283,85.87045,185.92833
"80025",1076.7416,88.17517,188.4165
"80026",1076.7549,89.85245,190.34926
"80027",1076.7682,90.78264,191.58734
"80028",1076.7815,90.96086,192.10252
"80029",1076.7948,90.4921,191.97629
"80030",1076.8081,89.54238,191.35445
"80031",1076.8214,88.309456,190.41972
"80032",1076.8347,86.97154,189.34148
"80033",1076.848,85.66781,188.2556
"80034",1076.8613,84.473946,187.23886
"80035",1076.8746,83.407036,186.31177
"80036",1076.888,82.44022,185.45143
"80037",1076.9012,81.54177,184.62924
"80038",1076.9146,80.70191,183.83757
"80039",1076.9279,79.94751,183.1051
"80040",1076.9412,79.33471,182.49066
"80041",1076.9545,78.922104,182.05727
"80042",1076.9678,78.751205,181.85268
"80043",1076.9811,78.8098,181.87224
"80044",1076.9944,79.046616,182.07185
"80045",1077.0077,79.37377,182.36922
"80046",1077.021,79.68871,182.66458
"80047",1077.0343,79.89624,182.86238
"80048",1077.0476,79.920654,182.88354
"80049",1077.0609,79.725334,182.68575
"80050",1077.0742,79.310295,182.26212
"80051",1077.0875,78.70481,181.63507
"80052",1077.1008,77.96994,180.85973
"80053",1077.1141,77.16426,179.9906
"80054",1077.1274,76.351265,179.08899
"80055",1077.1407,75.58709,178.21078
"80056",1077.154,74.91325,177.39905
"80057",1077.1674,74.356606,176.68344
"80058",1077.1807,73.93179,176.08228
"80059",1077.194,73.633934,175.59479
"80060",1077.2073,73.45571,175.21762
"80061",1077.2206,73.36294,174.92033
"80062",1077.2339,73.32876,174.67874
"80063",1077.2472,73.31899,174.4605
"80064",1077.2605,73.306786,174.2395
"80065",1077.2738,73.27749,174.00104
"80066",1077.2871,73.233536,173.74701
"80067",1077.3004,73.2018,173.50381
"80068",1077.3137,73.26284,173.35242
"80069",1077.327,73.5729,173.45193
"80070",1077.3403,74.319984,173.99817
"80071",1077.3536,75.66033,175.16101
"80072",1077.367,77.645226,177.01028
"80073",1077.3802,80.177,179.46848
"80074",1077.3936,82.99443,182.29144
"80075",1077.4069,85.748375,185.13896
"80076",1077.4202,88.097046,187.66727
"80077",1077.4335,89.78897,189.61223
"80078",1077.4468,90.71183,190.84099
"80079",1077.4601,90.880295,191.3442
"80080",1077.4734,90.41154,191.21544
"80081",1077.4867,89.48867,190.61794
"80082",1077.5,88.31434,189.74013
"80083",1077.5133,87.06676,188.75237
"80084",1077.5266,85.88754,187.79399
"80085",1077.5399,84.840164,186.9306
"80086",1077.5532,83.92462,186.16632
"80087",1077.5665,83.087204,185.45155
"80088",1077.5798,82.269325,184.73015
"80089",1077.5931,81.444115,183.97586
"80090",1077.6064,80.62623,183.20311
"80091",1077.6198,79.87915,182.4756
"80092",1077.633,79.281,181.87367
"80093",1077.6464,78.89281,181.46301
"80094",1077.6597,78.73411,181.26971
"80095",1077.673,78.77562,181.27167
"80096",1077.6863,78.94896,181.40674
"80097",1077.6996,79.15892,181.58385
"80098",1077.7129,79.31762,181.71626
"80099",1077.7262,79.344475,181.72179
"80100",1077.7395,79.18822,181.54504
"80101",1077.7528,78.84154,181.17299
"80102",1077.7661,78.31663,180.61188
"80103",1077.7794,77.6672,179.90984
"80104",1077.7927,76.93965,179.10939
"80105",1077.806,76.192566,178.26666
"80106",1077.8193,75.474785,177.4299
"80107",1077.8326,74.827805,176.64151
"80108",1077.846,74.2736,175.92567
"80109",1077.8593,73.83414,175.30727
"80110",1077.8726,73.514305,174.79475
"80111",1077.8859,73.306786,174.38455
"80112",1077.8992,73.196915,174.06552
"80113",1077.9125,73.162735,173.81874
"80114",1077.9258,73.179825,173.62216
"80115",1077.9391,73.22865,173.45786
"80116",1077.9524,73.287254,173.30486
"80117",1077.9657,73.338524,173.14635
"80118",1077.979,73.36294,172.96259
"80119",1077.9923,73.35561,172.74785
"80120",1078.0056,73.31411,172.4987
"80121",1078.0189,73.253075,172.22873
"80122",1078.0322,73.22377,171.98859
"80123",1078.0455,73.34829,171.90135
"80124",1078.0588,73.795074,172.14027
"80125",1078.0721,74.74723,172.89853
"80126",1078.0854,76.31953,174.30667
"80127",1078.0988,78.504616,176.37674
"80128",1078.112,81.13405,178.95944
"80129",1078.1254,83.90997,181.77081
"80130",1078.1387,86.48081,184.46384
"80131",1078.152,88.54139,186.72694
"80132",1078.1653,89.901276,188.35374
"80133",1078.1786,90.511635,189.27351
"80134",1078.1919,90.43351,189.52388
"80135",1078.2052,89.82071,189.23712
"80136",1078.2185,88.868546,188.59186
"80137",1078.2318,87.767456,187.76791
"80138",1078.2451,86.68101,186.9242
"80139",1078.2584,85.70443,186.1564
"80140",1078.2717,84.86458,185.49481
"80141",1078.285,84.122375,184.90463
"80142",1078.2983,83.404594,184.31567
"80143",1078.3116,82.652626,183.6701
"80144",1078.325,81.84451,182.94489
"80145",1078.3383,81.01442,182.17244
"80146",1078.3516,80.24292,181.43265
"80147",1078.3649,79.61059,180.8079
"80148",1078.3782,79.185776,180.37093
"80149",1078.3915,78.98314,180.14284
"80150",1078.4048,78.97826,180.10617
"80151",1078.4181,79.10033,180.1963
"80152",1078.4314,79.26391,180.33177
"80153",1078.4447,79.37377,180.41862
"80154",1078.458,79.35668,180.38196
"80155",1078.4713,79.168686,180.17386
"80156",1078.4846,78.79271,179.7719
"80157",1078.4979,78.260475,179.20193
"80158",1078.5112,77.608604,178.4957
"80159",1078.5245,76.895706,177.70807
"80160",1078.5378,76.17059,176.88594
"80161",1078.5511,75.48455,176.08023
"80162",1078.5645,74.87419,175.32877
"80163",1078.5778,74.36393,174.65833
"80164",1078.5911,73.96353,174.0818
"80165",1078.6044,73.67788,173.60751
"80166",1078.6177,73.49966,173.23172
"80167",1078.631,73.409325,172.93825
"80168",1078.6443,73.38979,172.71275
"80169",1078.6576,73.41665,172.53304
"80170",1078.6709,73.47524,172.3859
"80171",1078.6842,73.55337,172.26012
"80172",1078.6975,73.63149,172.13678
"80173",1078.7108,73.70718,172.01344
"80174",1078.7241,73.77066,171.88028
"80175",1078.7374,73.81705,171.732
"80176",1078.7507,73.846344,171.56807
"80177",1078.764,73.86099,171.39041
"80178",1078.7773,73.85855,171.19612
"80179",1078.7906,73.83414,170.97978
"80180",1078.804,73.78287,170.73582
"80181",1078.8173,73.70962,170.46829
"80182",1078.8306,73.62661,170.1887
"80183",1078.8439,73.58999,169.95291
"80184",1078.8572,73.724266,169.88687
"80185",1078.8705,74.215,170.18149
"80186",1078.8838,75.245285,171.03099
"80187",1078.8971,76.912796,172.54991
"80188",1078.9104,79.185776,174.72641
"80189",1078.9237,81.864044,177.37923
"80190",1078.937,84.63752,180.21095
"80191",1078.9503,87.15465,182.873
"80192",1078.9636,89.127335,185.06927
"80193",1078.9769,90.39689,186.62405
"80194",1078.9902,90.93645,187.48851
"80195",1079.0035,90.829025,187.72285
"80196",1079.0168,90.230865,187.4631
"80197",1079.0302,89.33242,186.88437
"80198",1079.0435,88.324104,186.1677
"80199",1079.0568,87.35729,185.46101
"80200",1079.0701,86.51499,184.84863
"80201",1079.0834,85.8143,184.35153
"80202",1079.0967,85.21614,183.93507
"80203",1079.11,84.627754,183.50969
"80204",1079.1233,83.97833,183.00488
"80205",1079.1366,83.22392,182.3748
"80206",1079.1499,82.38651,181.63814
"80207",1079.1632,81.529564,180.85577
"80208",1079.1765,80.74586,180.11987
"80209",1079.1898,80.10132,179.49864
"80210",1079.2031,79.64477,179.04526
"80211",1079.2164,79.364006,178.75339
"80212",1079.2297,79.217514,178.58702
"80213",1079.243,79.14427,178.48932
"80214",1079.2563,79.07347,178.39177
"80215",1079.2697,78.93187,178.2212
"80216",1079.283,78.67307,177.92903
"80217",1079.2963,78.28001,177.49449
"80218",1079.3096,77.75754,176.91827
"80219",1079.3229,77.134964,176.22562
"80220",1079.3362,76.44892,175.45004
"80221",1079.3495,75.75311,174.64326
"80222",1079.3628,75.07683,173.83426
"80223",1079.3761,74.4567,173.06029
"80224",1079.3894,73.91226,172.34262
"80225",1079.4027,73.460594,171.70071
"80226",1079.416,73.1017,171.13747
"80227",1079.4293,72.82094,170.64113
"80228",1079.4426,72.60853,170.20438
"80229",1079.4559,72.447395,169.81226
"80230",1079.4692,72.32777,169.4566
"80231",1079.4825,72.234985,169.12407
"80232",1079.4958,72.16907,168.81549
"80233",1079.5092,72.11536,168.51706
"80234",1079.5225,72.07141,168.22672
"80235",1079.5358,72.027466,167.935
"80236",1079.5491,71.98108,167.63947
"80237",1079.5624,71.93225,167.34004
"80238",1079.5757,71.88342,167.0391
"80239",1079.589,71.837036,166.73906
"80240",1079.6023,71.79309,166.44002
"80241",1079.6156,71.75403,166.14449
"80242",1079.6289,71.724724,165.8575
"80243",1079.6422,71.707634,165.5818
"80244",1079.6555,71.70031,165.31534
"80245",1079.6688,71.70031,165.05597
"80246",1079.6821,71.707634,164.80392
"80247",1079.6954,71.71496,164.55211
"80248",1079.7087,71.724724,164.30296
"80249",1079.722,71.73693,164.05656
"80250",1079.7354,71.75891,163.82033
"80251",1079.7487,71.78821,163.59209
"80252",1079.762,71.82971,163.37697
"80253",1079.7753,71.88342,163.17535
"80254",1079.7886,71.94446,162.98274
"80255",1079.8019,72.01282,162.79936
"80256",1079.8152,72.09094,162.62788
"80257",1079.8285,72.17639,162.46617
"80258",1079.8418,72.26673,162.31203
"80259",1079.8551,72.36927,162.1729
"80260",1079.8684,72.48402,162.04918
"80261",1079.8817,72.60609,161.93637
"80262",1079.895,72.73548,161.8347
"80263",1079.9083,72.87221,161.74442
"80264",1079.9216,73.00893,161.65839
"80265",1079.9349,73.14809,161.57907
"80266",1079.9482,73.27993,161.4968
"80267",1079.9615,73.409325,161.41618
"80268",1079.9749,73.52895,161.32985
"80269",1079.9882,73.64126,161.23993
"80270",1080.0015,73.78531,161.18527
"80271",1080.0148,74.0441,161.24985
"80272",1080.0281,74.54948,161.5691
"80273",1080.0414,75.41375,162.26305
"80274",1080.0547,76.68818,163.39415
"80275",1080.068,78.30686,164.90933
"80276",1080.0813,80.111084,166.66064
"80277",1080.0946,81.87869,168.43173
"80278",1080.1079,83.39727,170.00902
"80279",1080.1212,84.52766,171.24557
"80280",1080.1345,85.23079,172.0902
"80281",1080.1478,85.53353,172.5564
"80282",1080.1611,85.504234,172.70003
"80283",1080.1744,85.243,172.6108
"80284",1080.1877,84.85481,172.38646
"80285",1080.201,84.43244,172.1158
"80286",1080.2144,84.051575,171.87344
"80287",1080.2277,83.76349,171.71198
"80288",1080.241,83.58282,171.64891
"80289",1080.2543,83.48028,171.65834
"80290",1080.2676,83.41192,171.69875
"80291",1080.2809,83.3167,171.71016
"80292",1080.2942,83.15312,171.65022
"80293",1080.3075,82.91142,171.50706
"80294",1080.3208,82.61112,171.29774
"80295",1080.3341,82.28886,171.05708
"80296",1080.3474,82.00076,170.84052
"80297",1080.3607,81.78104,170.68332
"80298",1080.374,81.64675,170.60469
"80299",1080.3873,81.58816,170.59756
"80300",1080.4006,81.583275,170.64232
"80301",1080.414,81.59792,170.70645
"80302",1080.4272,81.59304,170.75151
"80303",1080.4406,81.532005,170.74026
"80304",1080.4539,81.40261,170.65875
"80305",1080.4672,81.197525,170.4975
"80306",1080.4805,80.93141,170.26881
"80307",1080.4938,80.62867,169.99518
"80308",1080.5071,80.31373,169.69989
"80309",1080.5204,80.00366,169.39963
"80310",1080.5337,79.71557,169.11165
"80311",1080.547,79.4641,168.85129
"80312",1080.5603,79.2517,168.62213
"80313",1080.5736,79.080795,168.42784
"80314",1080.5869,78.95628,168.2746
"80315",1080.6002,78.870834,168.15652
"80316",1080.6135,78.81712,168.06752
"80317",1080.6268,78.785385,167.99881
"80318",1080.6401,78.768295,167.94376
"80319",1080.6534,78.751205,167.88817
"80320",1080.6667,78.73411,167.83205
"80321",1080.68,78.71458,167.77295
"80322",1080.6934,78.695045,167.71324
"80323",1080.7067,78.67063,167.64804
"80324",1080.72,78.641335,167.5772
"80325",1080.7333,78.61204,167.50543
"80326",1080.7466,78.58274,167.43275
"80327",1080.7599,78.54856,167.35428
"80328",1080.7732,78.51194,167.2723
"80329",1080.7865,78.48264,167.19649
"80330",1080.7998,78.45335,167.11977
"80331",1080.8131,78.42893,167.04701
"80332",1080.8264,78.41184,166.98082
"80333",1080.8397,78.399635,166.91898
"80334",1080.853,78.39475,166.86407
"80335",1080.8663,78.38987,166.80902
"80336",1080.8796,78.39231,166.76114
"80337",1080.893,78.397194,166.71577
"80338",1080.9062,78.41184,166.68033
"80339",1080.9196,78.42893,166.64778
"80340",1080.9329,78.45335,166.6231
"80341",1080.9462,78.48264,166.60405
"80342",1080.9595,78.51682,166.5908
"80343",1080.9728,78.555885,166.58351
"80344",1080.9861,78.59739,166.57988
"80345",1080.9994,78.63889,166.57755
"80346",1081.0127,78.6804,166.5765
"80347",1081.026,78.72434,166.57921
"80348",1081.0393,78.768295,166.5833
"80349",1081.0526,78.81224,166.58875
"80350",1081.0659,78.86351,166.60289
"80351",1081.0792,78.91234,166.6162
"80352",1081.0925,78.95628,166.62614
"80353",1081.1058,78.992905,166.63014
"80354",1081.1191,79.01488,166.62064
"80355",1081.1324,79.027084,166.60205
"80356",1081.1458,79.05394,166.5985
"80357",1081.159,79.16136,166.67635
"80358",1081.1724,79.43969,166.92847
"80359",1081.1857,79.98413,167.4554
"80360",1081.199,80.84352,168.3143
"80361",1081.2123,81.971466,169.46861
"80362",1081.2256,83.228806,170.78757
"80363",1081.2389,84.439766,172.09943
"80364",1081.2522,85.42123,173.21964
"80365",1081.2655,86.05112,174.01894
"80366",1081.2788,86.29282,174.44974
"80367",1081.2921,86.20004,174.5536
"80368",1081.3054,85.85336,174.40068
"80369",1081.3187,85.34554,174.07578
"80370",1081.332,84.77425,173.67152
"80371",1081.3453,84.2298,173.27628
"80372",1081.3586,83.76837,172.94704
"80373",1081.372,83.424126,172.72055
"80374",1081.3853,83.209274,172.6127
"80375",1081.3986,83.09941,172.60313
"80376",1081.4119,83.05058,172.65117
"80377",1081.4252,83.00908,172.705
"80378",1081.4385,82.933395,172.72336
"80379",1081.4518,82.79668,172.67831
"80380",1081.4651,82.61356,172.5826
"80381",1081.4784,82.4036,172.45432
"80382",1081.4917,82.19852,172.32434
"80383",1081.505,82.0325,172.22704
"80384",1081.5183,81.92264,172.1807
"80385",1081.5316,81.86893,172.18707
"80386",1081.5449,81.8616,172.23816
"80387",1081.5582,81.881134,172.31587
"80388",1081.5715,81.89578,172.38931
"80389",1081.5848,81.87869,172.43147
"80390",1081.5981,81.80545,172.41695
"80391",1081.6115,81.671165,172.33908
"80392",1081.6248,81.480736,172.20088
"80393",1081.6381,81.253685,172.02011
"80394",1081.6514,81.00954,171.81514
"80395",1081.6647,80.77028,171.60744
"80396",1081.678,80.552986,171.41422
"80397",1081.6913,80.365,171.24352
"80398",1081.7046,80.2063,171.09622
"80399",1081.7179,80.08179,170.97815
"80400",1081.7312,79.9939,170.89282
"80401",1081.7445,79.9353,170.83405
"80402",1081.7578,79.906006,170.80273
"80403",1081.7711,79.89624,170.79004
"80404",1081.7844,79.90112,170.79169
"80405",1081.7977,79.906006,170.79349
"80406",1081.811,79.906006,170.79056
"80407",1081.8243,79.89868,170.7803
"80408",1081.8376,79.88403,170.76248
"80409",1081.851,79.85718,170.732
"80410",1081.8643,79.82544,170.6958
"80411",1081.8776,79.79126,170.65616
"80412",1081.8909,79.75464,170.613
"80413",1081.9042,79.71557,170.56627
"80414",1081.9175,79.676506,170.51831
"80415",1081.9308,79.63256,170.46425
"80416",1081.9441,79.588615,170.40881
"80417",1081.9574,79.54711,170.35445
"80418",1081.9707,79.51049,170.30367
"80419",1081.984,79.47387,170.25174
"80420",1081.9973,79.43969,170.20111
"80421",1082.0106,79.40307,170.14697
"80422",1082.0239,79.364006,170.08925
"80423",1082.0372,79.33227,170.03763
"80424",1082.0505,79.30297,169.98746
"80425",1082.0638,79.281,169.9437
"80426",1082.0771,79.26879,169.90901
"80427",1082.0905,79.26635,169.88371
"80428",1082.1038,79.26391,169.85834
"80429",1082.1171,79.259026,169.83044
"80430",1082.1304,79.256584,169.80484
"80431",1082.1437,79.24681,169.77184
"80432",1082.157,79.22972,169.7312
"80433",1082.1703,79.19554,169.67294
"80434",1082.1836,79.14427,169.59653
"80435",1082.1969,79.080795,169.5063
"80436",1082.2102,79.01488,169.41165
"80437",1082.2235,78.958725,169.3247
"80438",1082.2368,78.92943,169.26286
"80439",1082.2501,78.924545,169.22452
"80440",1082.2634,78.93675,169.20311
"80441",1082.2767,78.958725,169.19185
"80442",1082.29,78.97826,169.17883
"80443",1082.3033,78.98802,169.15666
"80444",1082.3167,78.99046,169.12747
"80445",1082.33,78.992905,169.09836
"80446",1082.3433,79.03197,169.10594
"80447",1082.3566,79.18089,169.22461
"80448",1082.3699,79.54711,169.56523
"80449",1082.3832,80.20386,170.20782
"80450",1082.3965,81.15114,171.16147
"80451",1082.4098,82.29862,172.34492
"80452",1082.4231,83.48272,173.60086
"80453",1082.4364,84.51057,174.73755
"80454",1082.4497,85.23079,175.59872
"80455",1082.463,85.56771,176.0991
"80456",1082.4763,85.538414,176.2438
"80457",1082.4896,85.21614,176.0946
"80458",1082.5029,84.69611,175.73758
"80459",1082.5162,84.07599,175.2642
"80460",1082.5295,83.44854,174.76413
"80461",1082.5428,82.89189,174.31525
"80462",1082.5562,82.45487,173.9686
"80463",1082.5695,82.16434,173.75478
"80464",1082.5828,82.005646,173.66373
"80465",1082.5961,81.94949,173.67026
"80466",1082.6094,81.94949,173.73119
"80467",1082.6227,81.95682,173.79944
"80468",1082.636,81.917755,173.82153
"80469",1082.6493,81.8201,173.78381
"80470",1082.6626,81.6614,173.68199
"80471",1082.6759,81.46609,173.5386
"80472",1082.6892,81.27322,173.39156
"80473",1082.7025,81.109634,173.26776
"80474",1082.7158,81.004654,173.19746
"80475",1082.7291,80.95827,173.18248
"80476",1082.7424,80.95827,173.21243
"80477",1082.7557,80.9778,173.26192
"80478",1082.769,80.99245,173.30713
"80479",1082.7823,80.98268,173.32838
"80480",1082.7957,80.93141,173.30783
"80481",1082.809,80.82887,173.2344
"80482",1082.8223,80.68238,173.11382
"80483",1082.8356,80.499275,172.95204
"80484",1082.8489,80.28687,172.75525
"80485",1082.8622,80.07446,172.5518
"80486",1082.8755,79.871826,172.3515
"80487",1082.8888,79.693596,172.16927
"80488",1082.9021,79.551994,172.01808
"80489",1082.9154,79.4519,171.90398
"80490",1082.9287,79.39086,171.8258
"80491",1082.942,79.36645,171.78235
"80492",1082.9553,79.37133,171.76743
"80493",1082.9686,79.40063,171.77707
"80494",1082.9819,79.44457,171.80228
"80495",1082.9952,79.49096,171.8313
"80496",1083.0085,79.534904,171.85933
"80497",1083.0219,79.57397,171.88385
"80498",1083.0352,79.60082,171.89738
"80499",1083.0485,79.61059,171.89467
"80500",1083.0618,79.605705,171.87761
"80501",1083.0751,79.5935,171.85307
"80502",1083.0884,79.571526,171.81839
"80503",1083.1017,79.54467,171.77814
"80504",1083.115,79.51537,171.7346
"80505",1083.1283,79.48119,171.68527
"80506",1083.1416,79.44457,171.63243
"80507",1083.1549,79.40551,171.576
"80508",1083.1682,79.36889,171.5208
"80509",1083.1815,79.33715,171.46933
"80510",1083.1948,79.310295,171.42175
"80511",1083.2081,79.28344,171.37334
"80512",1083.2214,79.259026,171.32652
"80513",1083.2347,79.24193,171.28627
"80514",1083.248,79.22728,171.24792
"80515",1083.2614,79.21507,171.21156
"80516",1083.2747,79.21019,171.18214
"80517",1083.288,79.20775,171.15501
"80518",1083.3013,79.202866,171.12537
"80519",1083.3146,79.19798,171.09557
"80520",1083.3279,79.19554,171.06805
"80521",1083.3412,79.19798,171.04535
"80522",1083.3545,79.21019,171.03249
"80523",1083.3678,79.22484,171.02245
"80524",1083.3811,79.23949,171.01286
"80525",1083.3944,79.24681,170.99641
"80526",1083.4077,79.256584,170.98265
"80527",1083.421,79.26635,170.96918
"80528",1083.4343,79.273674,170.95357
"80529",1083.4476,79.28344,170.94063
"80530",1083.4609,79.29809,170.93288
"80531",1083.4742,79.310295,170.92314
"80532",1083.4875,79.31762,170.9089
"80533",1083.5009,79.32006,170.89001
"80534",1083.5142,79.31762,170.86632
"80535",1083.5275,79.31518,170.84254
"80536",1083.5408,79.33959,170.84555
"80537",1083.5541,79.4519,170.93721
"80538",1083.5674,79.73754,171.20572
"80539",1083.5807,80.272224,171.7322
"80540",1083.594,81.06569,172.53416
"80541",1083.6073,82.04959,173.55138
"80542",1083.6206,83.08232,174.64816
"80543",1083.6339,83.99054,175.65271
"80544",1083.6472,84.63752,176.4244
"80545",1083.6605,84.947586,176.87938
"80546",1083.6738,84.92317,177.00958
"80547",1083.6871,84.630196,176.87045
"80548",1083.7004,84.14923,176.53418
"80549",1083.7137,83.560844,176.07545
"80550",1083.727,82.948044,175.57393
"80551",1083.7404,82.38407,175.10208
"80552",1083.7537,81.9202,174.7127
"80553",1083.767,81.5906,174.44312
"80554",1083.7803,81.392845,174.29507
"80555",1083.7936,81.307396,174.25316
"80556",1083.8069,81.29519,174.28181
"80557",1083.8202,81.29763,174.32474
"80558",1083.8335,81.27322,174.34088
"80559",1083.8468,81.20485,174.3123
"80560",1083.8601,81.10475,174.24986
"80561",1083.8734,80.99489,174.17453
"80562",1083.8867,80.89967,174.11041
"80563",1083.9,80.84596,174.08482
"80564",1083.9133,80.84596,174.11127
"80565",1083.9266,80.88258,174.17433
"80566",1083.94,80.936295,174.25563
"80567",1083.9532,80.990005,174.33861
"80568",1083.9666,81.024185,174.40373
"80569",1083.9799,81.01442,174.42598
"80570",1083.9932,80.9485,174.39177
"80571",1084.0065,80.82399,174.2969
"80572",1084.0198,80.6482,174.14687
"80573",1084.0331,80.44068,173.95961
"80574",1084.0464,80.22095,173.75365
"80575",1084.0597,80.01099,173.5506
"80576",1084.073,79.82788,173.36783
"80577",1084.0863,79.68383,173.2184
"80578",1084.0996,79.57641,173.10109
"80579",1084.1129,79.500725,173.01216
"80580",1084.1262,79.447014,172.94284
"80581",1084.1395,79.41772,172.89626
"80582",1084.1528,79.40795,172.86829
"80583",1084.1661,79.412834,172.85466
"80584",1084.1794,79.43725,172.86072
"80585",1084.1927,79.47143,172.8773
"80586",1084.206,79.50805,172.8974
"80587",1084.2194,79.53979,172.91376
"80588",1084.2327,79.5642,172.92378
"80589",1084.246,79.57641,172.92236
"80590",1084.2593,79.57885,172.91156
"80591",1084.2726,79.571526,172.89107
"80592",1084.2859,79.56176,172.8679
"80593",1084.2992,79.54711,172.83955
"80594",1084.3125,79.53002,172.8083
"80595",1084.3258,79.51293,172.77652
"80596",1084.3391,79.48852,172.73688
"80597",1084.3524,79.45922,172.69159
"80598",1084.3657,79.42748,172.64294
"80599",1084.379,79.398186,172.59575
"80600",1084.3923,79.37377,172.55252
"80601",1084.4056,79.35668,172.51585
"80602",1084.419,79.34203,172.4811
"80603",1084.4323,79.327385,172.44588
"80604",1084.4456,79.30785,172.40532
"80605",1084.4589,79.28832,172.36415
"80606",1084.4722,79.26879,172.32237
"80607",1084.4855,79.2517,172.28242
"80608",1084.4988,79.24193,172.24927
"80609",1084.5121,79.234604,172.21825
"80610",1084.5254,79.22728,172.187
"80611",1084.5387,79.219955,172.15552
"80612",1084.552,79.2224,172.13358
"80613",1084.5653,79.22728,172.11415
"80614",1084.5786,79.23949,172.1022
"80615",1084.5919,79.26147,172.10042
"80616",1084.6052,79.28832,172.10419
"80617",1084.6185,79.31762,172.11124
"80618",1084.6318,79.34936,172.12164
"80619",1084.6451,79.378654,172.1306
"80620",1084.6584,79.398186,172.1307
"80621",1084.6718,79.412834,172.12654
"80622",1084.685,79.42016,172.11551
"80623",1084.6984,79.41772,172.09494
"80624",1084.7117,79.412834,172.07185
"80625",1084.725,79.41772,172.05838
"80626",1084.7383,79.483635,172.1061
"80627",1084.7516,79.68139,172.2877
"80628",1084.7649,80.10132,172.69768
"80629",1084.7782,80.782486,173.38202
"80630",1084.7915,81.688255,174.31224
"80631",1084.8048,82.71366,175.39041
"80632",1084.8181,83.70733,176.46889
"80633",1084.8314,84.505684,177.3831
"80634",1084.8447,85.0013,178.01952
"80635",1084.858,85.169754,178.34427
"80636",1084.8713,85.04524,178.38132
"80637",1084.8846,84.69367,178.18741
"80638",1084.898,84.18829,177.8287
"80639",1084.9113,83.617,177.38829
"80640",1084.9246,83.05791,176.94223
"80641",1084.9379,82.55985,176.53973
"80642",1084.9512,82.159454,176.21933
"80643",1084.9645,81.87869,176.00606
"80644",1084.9778,81.71511,175.90118
"80645",1084.9911,81.63943,175.8791
"80646",1085.0044,81.619896,175.91081
"80647",1085.0177,81.617455,175.959
"80648",1085.031,81.59548,175.98758
"80649",1085.0443,81.53445,175.97641
"80650",1085.0576,81.446556,175.93648
"80651",1085.0709,81.34402,175.87915
"80652",1085.0842,81.253685,175.83083
"80653",1085.0975,81.19508,175.8114
"80654",1085.1108,81.17067,175.82434
"80655",1085.1241,81.17555,175.86581
"80656",1085.1375,81.19508,175.92209
"80657",1085.1508,81.21217,175.97653
"80658",1085.1641,81.214615,176.01686
"80659",1085.1774,81.1902,176.03041
"80660",1085.1907,81.126724,176.00414
"80661",1085.204,81.02174,175.93437
"80662",1085.2173,80.8777,175.82227
"80663",1085.2306,80.71168,175.68367
"80664",1085.2439,80.53101,175.52525
"80665",1085.2572,80.35279,175.36363
"80666",1085.2705,80.18677,175.20863
"80667",1085.2838,80.03784,175.06555
"80668",1085.2971,79.91577,174.94467
"80669",1085.3104,79.815674,174.84195
"80670",1085.3237,79.73754,174.75806
"80671",1085.337,79.68871,174.70102
"80672",1085.3503,79.66186,174.66443
"80673",1085.3636,79.656975,174.64897
"80674",1085.377,79.66674,174.64801
"80675",1085.3903,79.68871,174.65956
"80676",1085.4036,79.708244,174.66936
"80677",1085.4169,79.72045,174.67244
"80678",1085.4302,79.727776,174.67102
"80679",1085.4435,79.725334,174.66006
"80680",1085.4568,79.71801,174.64415
"80681",1085.4701,79.708244,174.62556
"80682",1085.4834,79.69604,174.60423
"80683",1085.4967,79.68139,174.58008
"80684",1085.51,79.66186,174.55058
"80685",1085.5233,79.64233,174.52048
"80686",1085.5366,79.61791,174.48488
"80687",1085.5499,79.588615,174.44363
"80688",1085.5632,79.55932,174.40147
"80689",1085.5765,79.53246,174.36084
"80690",1085.5898,79.50561,174.31937
"80691",1085.6031,79.47875,174.27705
"80692",1085.6165,79.45678,174.23878
"80693",1085.6298,79.43725,174.20227
"80694",1085.6431,79.42016,174.16759
"80695",1085.6564,79.40307,174.13237
"80696",1085.6697,79.38842,174.09906
"80697",1085.683,79.37621,174.06773
"80698",1085.6963,79.364006,174.03603
"80699",1085.7096,79.35424,174.00638
"80700",1085.7229,79.34936,173.98131
"80701",1085.7362,79.34936,173.96097
"80702",1085.7495,79.3518,173.94307
"80703",1085.7628,79.35668,173.92769
"80704",1085.7761,79.361565,173.91246
"80705",1085.7894,79.36889,173.89983
"80706",1085.8027,79.37133,173.88254
"80707",1085.816,79.36889,173.86044
"80708",1085.8293,79.364006,173.83583
"80709",1085.8427,79.361565,173.8135
"80710",1085.856,79.35668,173.78867
"80711",1085.8693,79.3518,173.76367
"80712",1085.8826,79.35668,173.74829
"80713",1085.8959,79.40063,173.77213
"80714",1085.9092,79.56176,173.91452
"80715",1085.9225,79.93042,174.26949
"80716",1085.9358,80.567635,174.90453
"80717",1085.9491,81.45876,175.8134
"80718",1085.9624,82.51591,176.91614
"80719",1085.9757,83.5877,178.06656
"80720",1085.989,84.505684,179.09666
"80721",1086.0023,85.14534,179.87712
"80722",1086.0156,85.46029,180.35286
"80723",1086.0289,85.46761,180.53082
"80724",1086.0422,85.223465,180.45753
"80725",1086.0555,84.805984,180.2033
"80726",1086.0688,84.29572,179.84322
"80727",1086.0822,83.76349,179.44522
"80728",1086.0955,83.27032,179.06966
"80729",1086.1088,82.85527,178.7568
"80730",1086.1221,82.54276,178.53352
"80731",1086.1354,82.33036,178.40059
"80732",1086.1487,82.213165,178.35622
"80733",1086.162,82.16434,178.37656
"80734",1086.1753,82.13992,178.41978
