"","Time..s.","PPG.trace","Preprocessed.PPG"
"34420",468.84686,72.10315,168.57892
"34421",468.86023,72.05432,168.28331
"34422",468.87354,71.98596,167.96664
"34423",468.8869,71.920044,167.65028
"34424",468.9002,71.854126,167.33186
"34425",468.91357,71.8053,167.02847
"34426",468.92688,71.77112,166.7382
"34427",468.94025,71.75403,166.46396
"34428",468.95355,71.75159,166.20383
"34429",468.96692,71.77112,165.96559
"34430",468.98022,71.8053,165.74261
"34431",468.9936,71.86145,165.54268
"34432",469.0069,71.93713,165.36403
"34433",469.02026,72.042114,165.21704
"34434",469.03357,72.166626,165.09286
"34435",469.04694,72.31556,164.99701
"34436",469.06024,72.47425,164.91556
"34437",469.0736,72.64759,164.85371
"34438",469.0869,72.82582,164.80219
"34439",469.10028,72.99916,164.75133
"34440",469.1136,73.16029,164.69368
"34441",469.12695,73.304344,164.624
"34442",469.14026,73.42397,164.53438
"34443",469.15363,73.51675,164.42165
"34444",469.16693,73.62417,164.32646
"34445",469.1803,73.865875,164.36893
"34446",469.1936,74.47379,164.78516
"34447",469.20697,75.76044,165.89911
"34448",469.22028,77.96506,167.97124
"34449",469.23364,81.13893,171.08151
"34450",469.24695,85.08919,175.06737
"34451",469.2603,89.393456,179.53067
"34452",469.27362,93.51461,183.94537
"34453",469.287,96.96925,187.82234
"34454",469.3003,99.4522,190.83557
"34455",469.31366,100.87312,192.86438
"34456",469.32697,101.30526,193.9488
"34457",469.34033,100.91951,194.22885
"34458",469.35364,99.9527,193.91577
"34459",469.367,98.648964,193.23557
"34460",469.3803,97.24025,192.40964
"34461",469.39368,95.904785,191.61293
"34462",469.40698,94.745094,190.95026
"34463",469.42035,93.78073,190.44667
"34464",469.43365,92.9604,190.05699
"34465",469.44702,92.18402,189.68562
"34466",469.46033,91.35638,189.23872
"34467",469.4737,90.41886,188.6561
"34468",469.487,89.373924,187.93675
"34469",469.50037,88.28504,187.14081
"34470",469.51367,87.237656,186.35233
"34471",469.52704,86.312355,185.6532
"34472",469.54034,85.55306,185.09117
"34473",469.5537,84.96712,184.67876
"34474",469.56702,84.52033,184.38719
"34475",469.58038,84.15167,184.15979
"34476",469.5937,83.79523,183.93309
"34477",469.60706,83.389946,183.64641
"34478",469.62036,82.88457,183.24696
"34479",469.63373,82.252235,182.70477
"34480",469.64703,81.495384,182.01831
"34481",469.6604,80.62623,181.19589
"34482",469.6737,79.68383,180.27307
"34483",469.68707,78.70725,179.2866
"34484",469.70038,77.75021,178.28917
"34485",469.71375,76.84444,177.31308
"34486",469.72705,76.019226,176.38925
"34487",469.74042,75.29656,175.54219
"34488",469.75372,74.686195,174.78484
"34489",469.7671,74.18814,174.12073
"34490",469.7804,73.79996,173.55092
"34491",469.79376,73.50942,173.06664
"34492",469.80707,73.3019,172.65628
"34493",469.82043,73.16029,172.30536
"34494",469.83374,73.06264,171.99396
"34495",469.8471,72.99916,171.71368
"34496",469.8604,72.955215,171.45096
"34497",469.87378,72.921036,171.19662
"34498",469.8871,72.89418,170.94855
"34499",469.90045,72.86488,170.69719
"34500",469.91376,72.82826,170.43759
"34501",469.92712,72.78432,170.16953
"34502",469.94043,72.725716,169.88544
"34503",469.9538,72.654915,169.58731
"34504",469.9671,72.57435,169.2772
"34505",469.98047,72.48402,168.95482
"34506",469.99377,72.38392,168.61984
"34507",470.00714,72.28382,168.28174
"34508",470.02045,72.183716,167.9405
"34509",470.0338,72.08606,167.59859
"34510",470.04712,71.993286,167.2585
"34511",470.0605,71.91272,166.92772
"34512",470.0738,71.851685,166.61395
"34513",470.08716,71.80286,166.31049
"34514",470.10046,71.77356,166.02502
"34515",470.11383,71.766235,165.76062
"34516",470.12714,71.783325,165.5204
"34517",470.1405,71.81506,165.29536
"34518",470.1538,71.86633,165.09085
"34519",470.16718,71.93469,164.90503
"34520",470.18048,72.0177,164.736
"34521",470.19385,72.112915,164.58176
"34522",470.20715,72.22278,164.44514
"34523",470.22052,72.34486,164.32419
"34524",470.23383,72.46937,164.20947
"34525",470.2472,72.589,164.09377
"34526",470.2605,72.69398,163.96715
"34527",470.27386,72.77699,163.82185
"34528",470.28717,72.83559,163.65472
"34529",470.30054,72.88197,163.47722
"34530",470.31384,72.952774,163.32558
"34531",470.3272,73.14809,163.30066
"34532",470.3405,73.65591,163.59436
"34533",470.35388,74.70084,164.44104
"34534",470.3672,76.45136,166.02596
"34535",470.38055,78.91478,168.37848
"34536",470.39386,81.92508,171.35486
"34537",470.40723,85.14778,174.63773
"34538",470.42053,88.18494,177.83575
"34539",470.4339,90.68986,180.59645
"34540",470.4472,92.46967,182.71033
"34541",470.46057,93.47799,184.10832
"34542",470.47388,93.78317,184.83469
"34543",470.48724,93.51217,184.9944
"34544",470.50055,92.83101,184.73549
"34545",470.51392,91.91547,184.22092
"34546",470.52722,90.9218,183.59961
"34547",470.5406,89.97452,182.99364
"34548",470.5539,89.146866,182.47769
"34549",470.56726,88.448616,182.06528
"34550",470.58057,87.835815,181.71649
"34551",470.59393,87.24498,181.37053
"34552",470.60724,86.61509,180.96704
"34553",470.6206,85.93149,180.49016
"34554",470.6339,85.22102,179.96506
"34555",470.64728,84.53742,179.44461
"34556",470.66058,83.95148,179.00046
"34557",470.67395,83.50713,178.6796
"34558",470.68726,83.20439,178.48645
"34559",470.70062,83.021286,178.40349
"34560",470.71393,82.91142,178.38805
"34561",470.7273,82.811325,178.37894
"34562",470.7406,82.65995,178.31541
"34563",470.75397,82.41337,178.15196
"34564",470.76727,82.04715,177.86116
"34565",470.78064,81.55398,177.43196
"34566",470.79395,80.953384,176.87993
"34567",470.8073,80.274666,176.231
"34568",470.82062,79.54711,175.51204
"34569",470.83398,78.80492,174.75569
"34570",470.8473,78.082245,173.99567
"34571",470.86066,77.40841,173.2619
"34572",470.87396,76.80049,172.573
"34573",470.88733,76.27314,171.94566
"34574",470.90063,75.83612,171.39218
"34575",470.914,75.47967,170.90561
"34576",470.9273,75.1989,170.48358
"34577",470.94067,74.984055,170.1187
"34578",470.95398,74.830246,169.80814
"34579",470.96735,74.7277,169.54404
"34580",470.98065,74.66422,169.3158
"34581",470.99402,74.632484,169.11731
"34582",471.00732,74.62272,168.9398
"34583",471.0207,74.62516,168.7742
"34584",471.034,74.632484,168.61356
"34585",471.04736,74.63737,168.4507
"34586",471.06067,74.63981,168.28555
"34587",471.07404,74.632484,168.11072
"34588",471.08734,74.60807,167.91856
"34589",471.1007,74.57145,167.71344
"34590",471.114,74.52018,167.49252
"34591",471.12738,74.45426,167.25536
"34592",471.1407,74.38102,167.0088
"34593",471.15405,74.302895,166.75508
"34594",471.16736,74.22232,166.49648
"34595",471.18073,74.144196,166.2378
"34596",471.19403,74.06851,165.97911
"34597",471.2074,74.00015,165.72539
"34598",471.2207,73.94156,165.4793
"34599",471.23407,73.90494,165.25334
"34600",471.24738,73.88785,165.04578
"34601",471.26074,73.88785,164.85477
"34602",471.27405,73.900055,164.67596
"34603",471.2874,73.92691,164.51219
"34604",471.30072,73.95865,164.35414
"34605",471.3141,74.00748,164.21417
"34606",471.3274,74.07095,164.09038
"34607",471.34076,74.14908,163.98322
"34608",471.35406,74.232086,163.88338
"34609",471.36743,74.31022,163.78127
"34610",471.38074,74.371254,163.66449
"34611",471.3941,74.41032,163.52765
"34612",471.4074,74.424965,163.36761
"34613",471.42078,74.424965,163.19339
"34614",471.43408,74.41764,163.01184
"34615",471.44745,74.44694,162.86668
"34616",471.46075,74.617836,162.86404
"34617",471.47412,75.09392,163.17194
"34618",471.48743,76.05829,163.98299
"34619",471.5008,77.61349,165.41501
"34620",471.5141,79.725334,167.45227
"34621",471.52747,82.22537,169.94373
"34622",471.54077,84.81575,172.60365
"34623",471.55414,87.1815,175.1199
"34624",471.56744,89.05653,177.21936
"34625",471.5808,90.309,178.75484
"34626",471.59412,90.91936,179.68735
"34627",471.60748,90.948654,180.05788
"34628",471.6208,90.50919,179.96056
"34629",471.63416,89.73769,179.51747
"34630",471.64746,88.780655,178.86473
"34631",471.66083,87.75525,178.11372
"34632",471.67413,86.7567,177.35753
"34633",471.6875,85.82895,176.64093
"34634",471.7008,84.981766,175.9759
"34635",471.71417,84.210266,175.36009
"34636",471.72748,83.51446,174.79585
"34637",471.74084,82.91142,174.30264
"34638",471.75415,82.44511,173.9273
"34639",471.76752,82.16434,173.72295
"34640",471.78082,82.09842,173.72467
"34641",471.7942,82.23758,173.92941
"34642",471.8075,82.547646,174.3094
"34643",471.82086,82.950485,174.79185
"34644",471.83417,83.35821,175.29178
"34645",471.84753,83.685356,175.72388
"34646",471.86084,83.86359,176.01727
"34647",471.8742,83.8465,176.12093
"34648",471.8875,83.62188,176.01651
"34649",471.90088,83.211716,175.71953
"34650",471.91418,82.652626,175.2608
"34651",471.92755,81.99344,174.68451
"34652",471.94086,81.28298,174.03635
"34653",471.95422,80.56519,173.35866
"34654",471.96753,79.87671,172.68784
"34655",471.9809,79.24437,172.05164
"34656",471.9942,78.69016,171.47382
"34657",472.00757,78.22385,170.96657
"34658",472.02087,77.84299,170.5302
"34659",472.03424,77.54757,170.16737
"34660",472.04755,77.32296,169.86612
"34661",472.0609,77.16426,169.62376
"34662",472.07422,77.0544,169.42528
"34663",472.0876,76.98604,169.26486
"34664",472.1009,76.94942,169.13405
"34665",472.11426,76.93721,169.0265
"34666",472.12756,76.94209,168.93567
"34667",472.14093,76.94942,168.84743
"34668",472.15424,76.95918,168.76186
"34669",472.1676,76.964066,168.6717
"34670",472.1809,76.95918,168.57195
"34671",472.19427,76.93965,168.45738
"34672",472.20758,76.91524,168.33733
"34673",472.22095,76.876175,168.20186
"34674",472.23425,76.824905,168.05296
"34675",472.24762,76.76143,167.89026
"34676",472.26093,76.6833,167.71092
"34677",472.2743,76.595406,167.51938
"34678",472.2876,76.49531,167.31288
"34679",472.30096,76.39765,167.1057
"34680",472.31427,76.30488,166.90034
"34681",472.32764,76.22186,166.70186
"34682",472.34094,76.15106,166.51299
"34683",472.3543,76.09003,166.33167
"34684",472.3676,76.036316,166.15576
"34685",472.38098,75.982605,165.97818
"34686",472.3943,75.92401,165.79404
"34687",472.40765,75.85809,165.60074
"34688",472.42096,75.78729,165.4005
"34689",472.43433,75.71404,165.1956
"34690",472.44763,75.67254,165.02016
"34691",472.461,75.736015,164.9484
"34692",472.4743,76.033875,165.113
"34693",472.48767,76.72724,165.68243
"34694",472.50098,77.93332,166.78624
"34695",472.51434,79.6643,168.45264
"34696",472.52765,81.81033,170.58818
"34697",472.54102,84.13458,172.96901
"34698",472.55432,86.35142,175.31505
"34699",472.5677,88.19714,177.35925
"34700",472.581,89.5082,178.92647
"34701",472.59436,90.23331,179.9487
"34702",472.60767,90.40177,180.43695
"34703",472.62103,90.091705,180.45193
"34704",472.63434,89.427635,180.10323
"34705",472.6477,88.531624,179.50183
"34706",472.661,87.51354,178.75037
"34707",472.67438,86.46372,177.93535
"34708",472.68768,85.44076,177.11438
"34709",472.70105,84.47639,176.32004
"34710",472.71436,83.577934,175.56148
"34711",472.72772,82.774704,174.87006
"34712",472.74103,82.09842,174.28049
"34713",472.7544,81.600365,173.848
"34714",472.7677,81.33181,173.62947
"34715",472.78107,81.322044,173.66133
"34716",472.79437,81.56374,173.94435
"34717",472.80774,82.005646,174.43512
"34718",472.82104,82.562294,175.05444
"34719",472.8344,83.12871,175.70093
"34720",472.84772,83.60235,176.27234
"34721",472.86108,83.90021,176.68277
"34722",472.8744,83.96857,176.87302
"34723",472.88776,83.80255,176.83102
"34724",472.90106,83.42657,176.57387
"34725",472.91443,82.879684,176.13406
"34726",472.92773,82.21561,175.55998
"34727",472.9411,81.495384,174.909
"34728",472.9544,80.762955,174.2233
"34729",472.96777,80.05737,173.54156
"34730",472.98108,79.41039,172.89638
"34731",472.99445,78.84642,172.31398
"34732",473.00775,78.37278,171.80429
"34733",473.02112,77.996796,171.37746
"34734",473.03442,77.71114,171.0292
"34735",473.0478,77.506065,170.7526
"34736",473.0611,77.36935,170.53793
"34737",473.07446,77.28634,170.37271
"34738",473.08777,77.23506,170.23663
"34739",473.10114,77.21065,170.12581
"34740",473.11444,77.188675,170.01666
"34741",473.1278,77.15938,169.8995
"34742",473.1411,77.10811,169.75946
"34743",473.15448,77.03487,169.59584
"34744",473.1678,76.946976,169.41528
"34745",473.18115,76.86153,169.23442
"34746",473.19446,76.80049,169.0753
"34747",473.20782,76.82002,168.99484
"34748",473.22113,77.02266,169.0981
"34749",473.2345,77.52804,169.51044
"34750",473.2478,78.44602,170.35117
"34751",473.26117,79.80591,171.66249
"34752",473.27448,81.54665,173.39717
"34753",473.28784,83.492485,175.39134
"34754",473.30115,85.4139,177.4219
"34755",473.3145,87.08385,179.26103
"34756",473.32782,88.33143,180.72998
"34757",473.3412,89.08095,181.73985
"34758",473.3545,89.33242,182.2751
"34759",473.36786,89.14198,182.3763
"34760",473.38116,88.60731,182.1273
"34761",473.39453,87.83826,181.62723
"34762",473.40784,86.94469,180.9786
"34763",473.4212,85.997406,180.24835
"34764",473.4345,85.04036,179.47873
"34765",473.44788,84.09308,178.68896
"34766",473.46118,83.17998,177.90378
"34767",473.47455,82.32304,177.14621
"34768",473.48785,81.57595,176.47173
"34769",473.50122,80.99245,175.93747
"34770",473.51453,80.64332,175.61935
"34771",473.5279,80.55787,175.55402
"34772",473.5412,80.73853,175.75212
"34773",473.55457,81.13161,176.16827
"34774",473.56787,81.651634,176.72366
"34775",473.58124,82.19119,177.31483
"34776",473.59454,82.63798,177.8301
"34777",473.6079,82.9041,178.17865
"34778",473.62122,82.9456,178.31091
"34779",473.63458,82.75273,178.2101
"34780",473.6479,82.357216,177.9006
"34781",473.66125,81.80301,177.42006
"34782",473.67456,81.143814,176.81721
"34783",473.68793,80.43336,176.1425
"34784",473.70123,79.72289,175.44559
"34785",473.7146,79.046616,174.76065
"34786",473.7279,78.4387,174.12294
"34787",473.74127,77.92111,173.55656
"34788",473.75458,77.50118,173.07167
"34789",473.76794,77.17647,172.66887
"34790",473.78125,76.93721,172.34137
"34791",473.79462,76.76875,172.0772
"34792",473.80792,76.65156,171.85902
"34793",473.8213,76.56611,171.66893
"34794",473.8346,76.49287,171.48837
"34795",473.84796,76.419624,171.30553
"34796",473.86127,76.34394,171.11795
"34797",473.87463,76.263374,170.92313
"34798",473.88794,76.18524,170.72823
"34799",473.9013,76.138855,170.56262
"34800",473.9146,76.19501,170.49811
"34801",473.92798,76.4831,170.6673
"34802",473.94128,77.14717,171.22147
"34803",473.95465,78.29221,172.27736
"34804",473.96796,79.940186,173.87196
"34805",473.98132,81.97879,175.90869
"34806",473.99463,84.19562,178.18736
"34807",474.008,86.31968,180.44254
"34808",474.0213,88.10681,182.42715
"34809",474.03467,89.38613,183.95981
"34810",474.04797,90.09415,184.96114
"34811",474.06134,90.247955,185.43039
"34812",474.07465,89.92813,185.43082
"34813",474.088,89.254295,185.06723
"34814",474.10132,88.35584,184.45798
"34815",474.1147,87.35973,183.72299
"34816",474.128,86.35142,182.94467
"34817",474.14136,85.37728,182.16902
"34818",474.15466,84.44953,181.40932
"34819",474.16803,83.57305,180.67189
"34820",474.18134,82.75517,179.96567
"34821",474.1947,82.02518,179.32178
"34822",474.208,81.43191,178.7918
"34823",474.22137,81.03151,178.43614
"34824",474.23468,80.86305,178.29993
"34825",474.24805,80.92653,178.39038
"34826",474.26135,81.18776,178.68057
"34827",474.27472,81.5613,179.09123
"34828",474.28802,81.95926,179.53798
"34829",474.3014,82.27909,179.91904
"34830",474.3147,82.43778,180.14896
"34831",474.32806,82.388954,180.17632
"34832",474.34137,82.11795,179.97997
"34833",474.35474,81.64919,179.5774
"34834",474.36804,81.02663,179.00636
"34835",474.3814,80.306404,178.31822
"34836",474.3947,79.53979,177.56119
"34837",474.40808,78.7805,176.78752
"34838",474.4214,78.06271,176.03162
"34839",474.43475,77.41085,175.31921
"34840",474.44806,76.84932,174.67677
"34841",474.46143,76.39033,174.11932
"34842",474.47473,76.02899,173.64519
"34843",474.4881,75.76288,173.25497
"34844",474.5014,75.579765,172.93945
"34845",474.51477,75.46014,172.68169
"34846",474.52808,75.386894,172.46657
"34847",474.54144,75.34783,172.28334
"34848",474.55475,75.3283,172.11842
"34849",474.5681,75.318535,171.96266
"34850",474.58142,75.31121,171.80904
"34851",474.5948,75.29412,171.64542
"34852",474.6081,75.25506,171.45929
"34853",474.62146,75.194016,171.24997
"34854",474.63477,75.11101,171.01677
"34855",474.64813,75.001144,170.75412
"34856",474.66144,74.881516,170.47827
"34857",474.6748,74.78386,170.22066
"34858",474.6881,74.78386,170.05765
"34859",474.70148,75.03044,170.14122
"34860",474.71478,75.70428,170.65976
"34861",474.72815,76.93721,171.75845
"34862",474.74146,78.76341,173.48894
"34863",474.75482,81.06813,175.755
"34864",474.76813,83.60723,178.32748
"34865",474.7815,86.065765,180.89874
"34866",474.7948,88.148315,183.17085
"34867",474.80817,89.65713,184.9343
"34868",474.82147,90.51408,186.09303
"34869",474.83484,90.74113,186.64865
"34870",474.84814,90.43107,186.67426
"34871",474.8615,89.73281,186.30197
"34872",474.87482,88.79286,185.66617
"34873",474.88818,87.76013,184.90822
"34874",474.9015,86.73716,184.12775
"34875",474.91486,85.77768,183.3788
"34876",474.92816,84.88167,182.66335
"34877",474.94153,84.03204,181.96628
"34878",474.95483,83.20683,181.26707
"34879",474.9682,82.41337,180.57382
"34880",474.9815,81.688255,179.92413
"34881",474.99487,81.0901,179.37874
"34882",475.00818,80.68238,179.00508
"34883",475.02155,80.48707,178.8311
"34884",475.03485,80.49683,178.8561
"34885",475.04822,80.65064,179.02544
"34886",475.06152,80.87282,179.26794
"34887",475.0749,81.06569,179.4881
"34888",475.0882,81.146255,179.60197
"34889",475.10156,81.05104,179.54259
"34890",475.11487,80.76051,179.28491
"34891",475.12823,80.27711,178.82527
"34892",475.14154,79.64233,178.19916
"34893",475.1549,78.89769,177.44334
"34894",475.1682,78.10422,176.61542
"34895",475.18158,77.30831,175.76027
"34896",475.1949,76.54658,174.91441
"34897",475.20825,75.85809,174.11801
"34898",475.22156,75.264824,173.39531
"34899",475.23492,74.77898,172.76149
"34900",475.24823,74.407875,172.22723
"34901",475.2616,74.144196,171.7888
"34902",475.2749,73.97574,171.43735
"34903",475.28827,73.88052,171.15387
"34904",475.30157,73.8439,170.92601
"34905",475.31494,73.83902,170.72874
"34906",475.32825,73.86099,170.55818
"34907",475.3416,73.89273,170.39807
"34908",475.35492,73.92447,170.23895
"34909",475.3683,73.94888,170.0735
"34910",475.3816,73.96353,169.89905
"34911",475.39496,73.970856,169.71773
"34912",475.40826,73.968414,169.52687
"34913",475.42163,73.953766,169.32373
"34914",475.43494,73.93179,169.11281
"34915",475.4483,73.9025,168.89388
"34916",475.4616,73.863434,168.66426
"34917",475.47498,73.81949,168.42854
"34918",475.48828,73.76822,168.18413
"34919",475.50165,73.704735,167.9259
"34920",475.51495,73.636375,167.66081
"34921",475.52832,73.55337,167.37894
"34922",475.54163,73.46792,167.09203
"34923",475.555,73.37759,166.79756
"34924",475.5683,73.306786,166.5198
"34925",475.58167,73.340965,166.34482
"34926",475.59497,73.62661,166.42236
"34927",475.60834,74.354164,166.95074
"34928",475.62164,75.665215,168.08536
"34929",475.635,77.58663,169.8713
"34930",475.64832,79.97925,172.1885
"34931",475.66168,82.579384,174.788
"34932",475.675,85.03548,177.32469
"34933",475.68835,87.0399,179.48648
"34934",475.70166,88.411995,181.07857
"34935",475.71503,89.10048,182.02992
"34936",475.72833,89.16884,182.38268
"34937",475.7417,88.744026,182.24438
"34938",475.755,87.9823,181.7559
"34939",475.76837,87.04967,181.07272
"34940",475.78168,86.09018,180.33354
"34941",475.79504,85.20393,179.63762
"34942",475.80835,84.44221,179.03851
"34943",475.82172,83.80011,178.53523
"34944",475.83502,83.23369,178.08757
"34945",475.8484,82.69657,177.6515
"34946",475.8617,82.15457,177.19377
"34947",475.87506,81.619896,176.72643
"34948",475.88837,81.13161,176.28876
"34949",475.90173,80.743416,175.93593
"34950",475.91504,80.499275,175.71503
"34951",475.9284,80.40406,175.63542
"34952",475.9417,80.42359,175.66759
"34953",475.95508,80.51148,175.76872
"34954",475.96838,80.59937,175.8726
"34955",475.98175,80.62867,175.92064
"34956",475.99506,80.5481,175.85973
"34957",476.00842,80.33326,175.66202
"34958",476.02173,79.97681,175.31598
"34959",476.0351,79.50317,174.84161
"34960",476.0484,78.93919,174.26212
"34961",476.06177,78.32639,173.61617
"34962",476.07507,77.70382,172.94128
"34963",476.08844,77.11299,172.2787
"34964",476.10175,76.58076,171.65625
"34965",476.1151,76.11932,171.08797
"34966",476.12842,75.73113,170.5785
"34967",476.14178,75.41619,170.13016
"34968",476.1551,75.176926,169.74765
"34969",476.16846,75.00847,169.42847
"34970",476.18176,74.90349,169.1675
"34971",476.19513,74.85466,168.9594
"34972",476.20844,74.84245,168.78639
"34973",476.2218,74.85222,168.63498
"34974",476.2351,74.86931,168.4912
"34975",476.24847,74.8864,168.34795
"34976",476.26178,74.90105,168.20279
"34977",476.27515,74.91325,168.05565
"34978",476.28845,74.91814,167.90157
"34979",476.30182,74.915695,167.74031
"34980",476.31512,74.90349,167.56921
"34981",476.3285,74.8864,167.39285
"34982",476.3418,74.85466,167.20131
"34983",476.35516,74.82048,167.00633
"34984",476.36847,74.7863,166.81029
"34985",476.38184,74.757,166.61806
"34986",476.39514,74.7277,166.42491
"34987",476.4085,74.703285,166.23573
"34988",476.4218,74.686195,166.05312
"34989",476.43518,74.67399,165.87485
"34990",476.4485,74.666664,165.70108
"34991",476.46185,74.67399,165.54173
"34992",476.47516,74.68864,165.38994
"34993",476.48853,74.71549,165.25081
"34994",476.50183,74.75212,165.1223
"34995",476.5152,74.80339,165.00957
"34996",476.5285,74.85954,164.90332
"34997",476.54187,74.92546,164.8086
"34998",476.55518,74.99626,164.72081
"34999",476.56854,75.0695,164.63768
"35000",476.58185,75.14519,164.55928
"35001",476.5952,75.22331,164.48569
"35002",476.60852,75.30389,164.41699
"35003",476.6219,75.386894,164.35324
"35004",476.6352,75.47234,164.29453
"35005",476.64856,75.55779,164.23848
"35006",476.66187,75.63836,164.18022
"35007",476.67523,75.718925,164.12448
"35008",476.68854,75.80194,164.07372
"35009",476.7019,75.91669,164.05727
"35010",476.7152,76.1535,164.16647
"35011",476.72858,76.680855,164.57362
"35012",476.74188,77.67696,165.466
"35013",476.75525,79.24193,166.95837
"35014",476.76855,81.341576,169.03433
"35015",476.78192,83.78302,171.5177
"35016",476.79523,86.24887,174.10178
"35017",476.8086,88.40467,176.45285
"35018",476.8219,89.99405,178.30487
"35019",476.83527,90.90715,179.53029
"35020",476.84857,91.17082,180.13481
"35021",476.86194,90.899826,180.2129
"35022",476.87524,90.247955,179.90166
"35023",476.8886,89.373924,179.34787
"35024",476.90192,88.431526,178.69841
"35025",476.91528,87.5404,178.07077
"35026",476.9286,86.785995,177.552
"35027",476.94196,86.204926,177.183
"35028",476.95526,85.785,176.95699
"35029",476.96863,85.470055,176.82281
"35030",476.98193,85.189285,176.71298
"35031",476.9953,84.88167,176.56754
"35032",477.0086,84.52277,176.36119
"35033",477.02197,84.12482,176.10457
"35034",477.03528,83.734184,175.84283
"35035",477.04865,83.407036,175.63239
"35036",477.06195,83.177536,175.50935
"35037",477.07532,83.055466,175.48659
"35038",477.08862,83.021286,175.5479
"35039",477.102,83.03105,175.65208
"35040",477.1153,83.03349,175.74925
"35041",477.12866,82.9749,175.78546
"35042",477.14197,82.81377,175.7173
"35043",477.15533,82.53544,175.5269
"35044",477.16864,82.144806,175.2155
"35045",477.182,81.668724,174.80644
"35046",477.1953,81.13405,174.32391
"35047",477.20868,80.57496,173.80026
"35048",477.222,80.02319,173.26646
"35049",477.23535,79.50317,172.74716
"35050",477.24866,79.03929,172.26776
"35051",477.26202,78.63645,171.8349
"35052",477.27533,78.314186,171.47002
"35053",477.2887,78.07004,171.17319
"35054",477.302,77.8967,170.93953
"35055",477.31537,77.78439,170.76149
"35056",477.32867,77.72091,170.62877
"35057",477.34204,77.68917,170.5258
"35058",477.35535,77.679405,170.44382
"35059",477.3687,77.67696,170.36885
"35060",477.38202,77.67696,170.29625
"35061",477.3954,77.67452,170.2212
"35062",477.4087,77.6672,170.1412
"35063",477.42206,77.64767,170.04877
"35064",477.43536,77.62081,169.9484
"35065",477.44873,77.57931,169.83253
"35066",477.46204,77.53048,169.70805
"35067",477.4754,77.47433,169.57472
"35068",477.4887,77.41573,169.4372
"35069",477.50208,77.3547,169.2954
"35070",477.51538,77.296104,169.15413
"35071",477.52875,77.23262,169.00615
"35072",477.54205,77.16914,168.85619
"35073",477.55542,77.0959,168.69447
"35074",477.56873,77.02022,168.52803
"35075",477.5821,76.93965,168.35434
"35076",477.5954,76.86397,168.18301
"35077",477.60876,76.79561,168.01665
"35078",477.62207,76.74189,167.8628
"35079",477.63544,76.697945,167.71703
"35080",477.64874,76.67353,167.58942
"35081",477.6621,76.65644,167.46837
"35082",477.6754,76.65156,167.359
"35083",477.68878,76.65644,167.25923
"35084",477.7021,76.67597,167.17427
"35085",477.71545,76.70527,167.09969
"35086",477.72876,76.74677,167.03822
"35087",477.74213,76.79317,166.98296
"35088",477.75543,76.83711,166.92668
"35089",477.7688,76.87373,166.86446
"35090",477.7821,76.90059,166.79361
"35091",477.79547,76.92256,166.71872
"35092",477.80878,76.9543,166.65428
"35093",477.82214,77.03975,166.64455
"35094",477.83545,77.29366,166.80595
"35095",477.84882,77.88205,167.30977
"35096",477.86212,78.958725,168.32025
"35097",477.8755,80.5774,169.90639
"35098",477.8888,82.63554,171.98257
"35099",477.90216,84.90608,174.33548
"35100",477.91547,87.07164,176.65436
"35101",477.92883,88.834366,178.63808
"35102",477.94214,90.01602,180.09581
"35103",477.9555,90.57267,180.96545
"35104",477.9688,90.57267,181.29585
"35105",477.98218,90.13077,181.18434
"35106",477.99548,89.3959,180.76605
"35107",478.00885,88.497444,180.16122
"35108",478.02216,87.57702,179.50635
"35109",478.03552,86.727394,178.89351
"35110",478.04883,86.012054,178.3884
"35111",478.0622,85.46029,178.0245
"35112",478.0755,85.04524,177.78009
"35113",478.08887,84.71076,177.60327
"35114",478.10217,84.39826,177.43799
"35115",478.11554,84.06622,177.2434
"35116",478.12885,83.717094,177.02133
"35117",478.1422,83.38018,176.80058
"35118",478.15552,83.09941,176.62544
"35119",478.16888,82.91875,176.54164
"35120",478.1822,82.85527,176.56938
"35121",478.19556,82.88945,176.6928
"35122",478.20886,82.984665,176.87831
"35123",478.22223,83.087204,177.07413
"35124",478.23553,83.13603,177.21944
"35125",478.2489,83.087204,177.26862
"35126",478.2622,82.91142,177.18932
"35127",478.27557,82.60136,176.97023
"35128",478.28888,82.18387,176.63403
"35129",478.30225,81.688255,176.20667
"35130",478.31555,81.15358,175.72475
"35131",478.32892,80.61646,175.22368
"35132",478.34222,80.10376,174.73024
"35133",478.3556,79.63744,174.26717
"35134",478.3689,79.22728,173.84567
"35135",478.38226,78.88548,173.47972
"35136",478.39557,78.61204,173.17145
"35137",478.40894,78.40452,172.92055
"35138",478.42224,78.25315,172.71931
"35139",478.4356,78.153046,172.56462
"35140",478.4489,78.08713,172.44098
"35141",478.46228,78.05051,172.34457
"35142",478.4756,78.030975,172.26411
"35143",478.48895,78.01633,172.18793
"35144",478.50226,78.00168,172.11128
"35145",478.51562,77.98947,172.03662
"35146",478.52893,77.97238,171.9567
"35147",478.5423,77.943085,171.86403
"35148",478.5556,77.90402,171.76068
"35149",478.56897,77.855194,171.64635
"35150",478.58228,77.79172,171.51584
"35151",478.59564,77.72335,171.37846
"35152",478.60895,77.65011,171.23407
"35153",478.6223,77.576866,171.08739
"35154",478.63562,77.51095,170.94574
"35155",478.649,77.452354,170.80936
"35156",478.6623,77.39864,170.67603
"35157",478.67566,77.347374,170.54346
"35158",478.68896,77.298546,170.41173
"35159",478.70233,77.24483,170.27359
"35160",478.71564,77.19112,170.13377
"35161",478.729,77.137405,169.99228
"35162",478.7423,77.09346,169.85887
"35163",478.75568,77.05928,169.73386
"35164",478.76898,77.04219,169.62486
"35165",478.78235,77.03975,169.52998
"35166",478.79565,77.051956,169.44968
"35167",478.80902,77.07149,169.37708
"35168",478.82233,77.09834,169.31241
"35169",478.8357,77.12276,169.24614
"35170",478.849,77.14473,169.17819
"35171",478.86237,77.16182,169.10605
"35172",478.87567,77.17891,169.03444
"35173",478.88904,77.18623,168.9536
"35174",478.90234,77.18623,168.86566
"35175",478.9157,77.18379,168.77528
"35176",478.92902,77.208206,168.71169
"35177",478.94238,77.349815,168.76605
"35178",478.9557,77.76486,169.09828
"35179",478.96906,78.62913,169.8927
"35180",478.98236,80.05737,171.2781
"35181",478.99573,82.01785,173.24039
"35182",479.00903,84.33723,175.62282
"35183",479.0224,86.729836,178.15097
"35184",479.0357,88.87343,180.50487
"35185",479.04907,90.52628,182.43501
"35186",479.06238,91.563896,183.80157
"35187",479.07574,91.98627,184.58531
"35188",479.08905,91.87152,184.84514
"35189",479.10242,91.32708,184.67168
"35190",479.11572,90.4921,184.19067
"35191",479.1291,89.5082,183.53465
"35192",479.1424,88.514534,182.83812
"35193",479.15576,87.59899,182.18866
"35194",479.16907,86.82994,181.65707
"35195",479.18243,86.20981,181.25038
"35196",479.19574,85.711754,180.94638
"35197",479.2091,85.279625,180.69275
"35198",479.2224,84.874344,180.45245
"35199",479.23578,84.48615,180.21658
"35200",479.24908,84.12726,179.99788
"35201",479.26245,83.83429,179.8339
"35202",479.27576,83.648735,179.76816
"35203",479.28912,83.59258,179.82603
"35204",479.30243,83.648735,179.99446
"35205",479.3158,83.77814,180.23788
"35206",479.3291,83.929504,180.50732
"35207",479.34247,84.03204,180.73267
"35208",479.35577,84.034485,180.86111
"35209",479.36914,83.888,180.84071
"35210",479.38245,83.59014,180.66435
"35211",479.3958,83.15068,180.33708
"35212",479.40912,82.598915,179.88377
"35213",479.4225,81.969025,179.3351
"35214",479.4358,81.307396,178.735
"35215",479.44916,80.65308,178.12155
"35216",479.46246,80.025635,177.51451
"35217",479.47583,79.4519,176.94157
"35218",479.48914,78.941635,176.41418
"35219",479.5025,78.49973,175.93921
"35220",479.5158,78.12131,175.5139
"35221",479.52917,77.80881,175.14268
"35222",479.54248,77.55245,174.81786
"35223",479.55585,77.34493,174.53384
"35224",479.56915,77.17891,174.28485
"35225",479.58252,77.049515,174.06729
"35226",479.59583,76.94942,173.87498
"35227",479.6092,76.87129,173.70152
"35228",479.6225,76.81514,173.54759
"35229",479.63586,76.773636,173.40656
"35230",479.64917,76.73945,173.27155
"35231",479.66254,76.717476,173.14767
"35232",479.67584,76.70527,173.03288
"35233",479.6892,76.697945,172.92259
"35234",479.7025,76.6955,172.81696
"35235",479.71588,76.6955,172.71368
"35236",479.7292,76.68818,172.60309
"35237",479.74255,76.67353,172.48494
"35238",479.75586,76.64912,172.35657
"35239",479.76923,76.61494,172.21767
"35240",479.78253,76.57343,172.07037
"35241",479.7959,76.52705,171.9169
"35242",479.8092,76.470894,171.75221
"35243",479.82257,76.4123,171.58333
"35244",479.83588,76.34882,171.40773
"35245",479.84924,76.282906,171.2277
"35246",479.86255,76.224304,171.05295
"35247",479.87592,76.173035,170.88368
"35248",479.88922,76.13641,170.72746
"35249",479.9026,76.11444,170.58475
"35250",479.9159,76.09979,170.44867
"35251",479.92926,76.09735,170.32434
"35252",479.94257,76.10712,170.21214
"35253",479.95593,76.12421,170.10757
"35254",479.96924,76.14618,170.00842
"35255",479.9826,76.16815,169.90996
"35256",479.9959,76.18768,169.80974
"35257",480.00928,76.19989,169.7028
"35258",480.02258,76.209656,169.59381
"35259",480.03595,76.22919,169.49489
"35260",480.04926,76.29023,169.4381
"35261",480.06262,76.49287,169.5248
"35262",480.07593,77.00557,169.9279
"35263",480.0893,78.00168,170.83043
"35264",480.1026,79.588615,172.35492
"35265",480.11597,81.73708,174.49052
"35266",480.12927,84.2591,177.06683
"35267",480.14264,86.854355,179.79518
"35268",480.15594,89.20546,182.36049
"35269",480.1693,91.05119,184.4939
"35270",480.18262,92.26948,186.05753
"35271",480.19598,92.8481,187.01956
"35272",480.2093,92.84566,187.41862
"35273",480.22266,92.367134,187.34152
"35274",480.23596,91.544365,186.90523
"35275",480.24933,90.511635,186.23326
"35276",480.26263,89.39834,185.44846
"35277",480.276,88.309456,184.65327
"35278",480.2893,87.30602,183.90952
"35279",480.30267,86.40269,183.2345
"35280",480.31598,85.58724,182.61914
"35281",480.32935,84.840164,182.04666
"35282",480.34265,84.16388,181.52164
"35283",480.35602,83.5877,181.07558
"35284",480.36932,83.15556,180.75555
"35285",480.3827,82.913864,180.61247
"35286",480.396,82.89433,180.684
"35287",480.40936,83.07744,180.95757
"35288",480.42267,83.40948,181.38577
"35289",480.43604,83.8172,181.90004
"35290",480.44934,84.20538,182.40752
"35291",480.4627,84.48615,182.8197
"35292",480.476,84.59113,183.06488
"35293",480.48938,84.48127,183.0985
"35294",480.5027,84.159,182.91626
"35295",480.51605,83.65118,182.5384
"35296",480.52936,83.00908,182.0104
"35297",480.54272,82.27665,181.37201
"35298",480.55603,81.50271,180.66922
"35299",480.5694,80.72877,179.94225
"35300",480.5827,79.991455,179.2277
"35301",480.59607,79.3225,178.55849
"35302",480.60938,78.729225,177.94403
"35303",480.62274,78.22629,177.40138
"35304",480.63605,77.81369,176.93335
"35305",480.6494,77.47921,176.53055
"35306",480.66272,77.21309,176.18565
"35307",480.6761,77.00801,175.89348
"35308",480.6894,76.85176,175.64372
"35309",480.70276,76.74189,175.43547
"35310",480.71606,76.65888,175.25064
"35311",480.72943,76.60029,175.08763
"35312",480.74274,76.55634,174.93744
"35313",480.7561,76.52216,174.79564
"35314",480.7694,76.490425,174.65521
"35315",480.78278,76.46357,174.51868
"35316",480.79608,76.43427,174.37886
"35317",480.80945,76.404976,174.23813
"35318",480.82275,76.36591,174.08672
"35319",480.83612,76.317085,173.92432
"35320",480.84943,76.25605,173.74818
"35321",480.8628,76.1828,173.55794
"35322",480.8761,76.09491,173.35075
"35323",480.88947,76.00458,173.13838
"35324",480.90277,75.911804,172.92075
"35325",480.91614,75.81171,172.69289
"35326",480.92944,75.716484,172.46678
"35327",480.9428,75.62615,172.24258
"35328",480.95612,75.543144,172.02289
"35329",480.96948,75.46746,171.80792
"35330",480.9828,75.403984,171.6028
"35331",480.99615,75.35027,171.40546
"35332",481.00946,75.30389,171.21376
"35333",481.02283,75.267265,171.03038
"35334",481.03613,75.24284,170.85806
"35335",481.0495,75.228195,170.69475
"35336",481.0628,75.22331,170.54074
"35337",481.07617,75.23308,170.40123
"35338",481.08948,75.25262,170.2718
"35339",481.10284,75.27459,170.14542
"35340",481.11615,75.29412,170.01727
"35341",481.12952,75.30633,169.88242
"35342",481.14282,75.31609,169.7455
"35343",481.1562,75.34539,169.62842
"35344",481.1695,75.47234,169.60991
"35345",481.18286,75.862976,169.85905
"35346",481.19617,76.72968,170.59648
"35347",481.20953,78.25559,172.02019
"35348",481.22284,80.49195,174.20203
"35349",481.2362,83.319145,177.0446
"35350",481.2495,86.46372,180.29291
"35351",481.26288,89.56191,183.5931
"35352",481.27618,92.26948,186.59947
"35353",481.28955,94.3447,189.05812
"35354",481.30286,95.67773,190.83942
"35355",481.31622,96.26856,191.92018
"35356",481.32953,96.19043,192.35043
"35357",481.3429,95.56298,192.22894
"35358",481.3562,94.54734,191.69965
"35359",481.36957,93.314415,190.92133
"35360",481.38287,92.02045,190.04343
"35361",481.39624,90.777756,189.17638
"35362",481.40955,89.65713,188.39255
"35363",481.4229,88.673225,187.71043
"35364",481.43622,87.79431,187.10255
"35365",481.4496,86.98375,186.53557
"35366",481.4629,86.2269,185.99696
"35367",481.47626,85.52865,185.4933
"35368",481.48956,84.92317,185.0606
"35369",481.50293,84.4593,184.75056
"35370",481.51624,84.16876,184.59938
"35371",481.5296,84.054016,184.61491
"35372",481.5429,84.08087,184.76846
"35373",481.55627,84.19318,185.0083
"35374",481.56958,84.32746,185.27362
"35375",481.58295,84.39582,185.47722
"35376",481.59625,84.334785,185.55356
"35377",481.60962,84.1004,185.45464
"35378",481.62292,83.67315,185.15552
"35379",481.6363,83.075,184.67215
"35380",481.6496,82.34257,184.03581
"35381",481.66296,81.52224,183.2887
"35382",481.67627,80.66041,182.47444
"35383",481.68964,79.801025,181.6357
"35384",481.70294,78.97093,180.79938
"35385",481.7163,78.204315,180.0006
"35386",481.7296,77.51339,179.25356
"35387",481.74298,76.90547,178.56793
"35388",481.7563,76.39277,177.95853
"35389",481.76965,75.965515,177.41855
"35390",481.78296,75.62127,176.94823
"35391",481.79633,75.34539,176.5355
"35392",481.80963,75.1281,176.17276
"35393",481.823,74.95964,175.85205
"35394",481.8363,74.82536,175.56026
"35395",481.84967,74.720375,175.29356
"35396",481.86298,74.63004,175.03824
"35397",481.87634,74.54948,174.78986
"35398",481.88965,74.476234,174.54628
"35399",481.903,74.40299,174.30042
"35400",481.91632,74.33463,174.05714
"35401",481.9297,74.26139,173.80685
"35402",481.943,74.19302,173.55916
"35403",481.95636,74.11978,173.30444
"35404",481.96967,74.04898,173.04988
"35405",481.98303,73.97818,172.7931
"35406",481.99634,73.90982,172.53656
"35407",482.0097,73.8439,172.28032
"35408",482.023,73.78287,172.0269
"35409",482.03638,73.72915,171.7789
"35410",482.04968,73.68032,171.5341
"35411",482.06305,73.63882,171.2951
"35412",482.07635,73.60708,171.06458
"35413",482.08972,73.57534,170.83305
"35414",482.10303,73.55337,170.6103
"35415",482.1164,73.53628,170.39175
"35416",482.1297,73.53384,170.18732
"35417",482.14307,73.53872,169.99013
"35418",482.15637,73.55337,169.80286
"35419",482.16974,73.58022,169.62825
"35420",482.18304,73.616844,169.46425
"35421",482.1964,73.66323,169.31116
"35422",482.20972,73.721825,169.17172
"35423",482.22308,73.78775,169.04146
"35424",482.2364,73.85855,168.91812
"35425",482.24976,73.92691,168.79456
"35426",482.26306,73.99039,168.66824
"35427",482.27643,74.0441,168.53415
"35428",482.28973,74.10025,168.40417
"35429",482.3031,74.21744,168.33699
"35430",482.3164,74.52506,168.46391
"35431",482.32977,75.250175,169.01793
"35432",482.34308,76.63447,170.25378
"35433",482.35645,78.82445,172.3386
"35434",482.36975,81.78592,175.26332
"35435",482.38312,85.29183,178.82504
"35436",482.39642,88.96864,182.66722
"35437",482.4098,92.38911,186.36795
"35438",482.4231,95.1992,189.5652
"35439",482.43646,97.19386,192.03484
"35440",482.44977,98.319374,193.69766
"35441",482.46313,98.61967,194.57043
"35442",482.47644,98.214386,194.74702
"35443",482.4898,97.289085,194.39093
"35444",482.5031,96.03418,193.6763
"35445",482.51648,94.63035,192.77353
"35446",482.5298,93.221634,191.822
"35447",482.54315,91.92035,190.9339
"35448",482.55646,90.76799,190.15405
"35449",482.56982,89.75235,189.47491
"35450",482.58313,88.831924,188.85925
"35451",482.5965,87.97009,188.27342
"35452",482.6098,87.14,187.6924
"35453",482.62317,86.346535,187.12206
"35454",482.63647,85.63119,186.60504
"35455",482.64984,85.0428,186.19263
"35456",482.66315,84.61555,185.92296
"35457",482.6765,84.351875,185.80353
"35458",482.68982,84.23224,185.81989
"35459",482.7032,84.20538,185.9253
"35460",482.7165,84.19318,186.04451
"35461",482.72986,84.119934,186.10231
"35462",482.74316,83.92218,186.03331
"35463",482.75653,83.55596,185.78966
"35464",482.76984,83.00664,185.35146
"35465",482.7832,82.29374,184.73251
"35466",482.7965,81.463646,183.9741
"35467",482.80988,80.55787,183.11407
"35468",482.82318,79.62524,182.19888
"35469",482.83655,78.709694,181.27162
"35470",482.84985,77.840546,180.36215
"35471",482.86322,77.04219,179.4963
"35472",482.87653,76.32929,178.69098
"35473",482.8899,75.70672,177.95369
"35474",482.9032,75.17937,177.29218
"35475",482.91656,74.74235,176.70451
"35476",482.92987,74.39811,176.19597
"35477",482.94324,74.127106,175.74991
"35478",482.95654,73.93179,175.37106
"35479",482.9699,73.79019,175.03983
"35480",482.98322,73.69741,174.75299
"35481",482.99658,73.633934,174.49255
"35482",483.0099,73.59487,174.25455
"35483",483.02325,73.568016,174.02753
"35484",483.03656,73.55093,173.80943
"35485",483.04993,73.54604,173.60301
"35486",483.06323,73.54116,173.39644
"35487",483.0766,73.5436,173.19704
"35488",483.0899,73.548485,173.00015
"35489",483.10327,73.55093,172.80098
"35490",483.11658,73.55093,172.59944
"35491",483.12994,73.54604,172.39302
"35492",483.14325,73.53628,172.18156
"35493",483.15662,73.514305,171.9576
"35494",483.16992,73.480125,171.72073
"35495",483.1833,73.43618,171.47304
"35496",483.1966,73.38735,171.21909
"35497",483.20996,73.338524,170.96361
"35498",483.22327,73.29458,170.71149
"35499",483.23663,73.25796,170.46532
"35500",483.24994,73.22865,170.22533
"35501",483.2633,73.21156,169.99663
"35502",483.2766,73.20668,169.7796
"35503",483.28998,73.214005,169.57463
"35504",483.30328,73.23598,169.38454
"35505",483.31665,73.270164,169.20735
"35506",483.32996,73.31655,169.04343
"35507",483.34332,73.37759,168.8956
"35508",483.35663,73.44839,168.75945
"35509",483.37,73.52651,168.63283
"35510",483.3833,73.61196,168.51598
"35511",483.39667,73.69985,168.40424
"35512",483.40997,73.78531,168.29282
"35513",483.42334,73.863434,168.17673
"35514",483.43665,73.936676,168.0582
"35515",483.45,74.019684,167.95172
"35516",483.46332,74.19058,167.93573
"35517",483.47668,74.617836,168.18144
"35518",483.49,75.55779,168.9532
"35519",483.50336,77.24727,170.50386
"35520",483.51666,79.79126,172.96182
"35521",483.53003,83.09453,176.25858
"35522",483.54333,86.86168,180.12244
"35523",483.5567,90.667885,184.14307
"35524",483.57,94.07614,187.88469
"35525",483.58337,96.75685,191.00528
"35526",483.59668,98.54887,193.32095
"35527",483.61005,99.43267,194.78441
"35528",483.62335,99.47906,195.43806
"35529",483.63672,98.83696,195.4047
"35530",483.65002,97.6968,194.8532
"35531",483.6634,96.26124,193.97066
"35532",483.6767,94.7158,192.93338
"35533",483.69006,93.206985,191.88443
"35534",483.70337,91.825134,190.9153
"35535",483.71674,90.599525,190.05922
"35536",483.73004,89.513084,189.30402
"35537",483.7434,88.516975,188.6052
"35538",483.7567,87.57458,187.92896
"35539",483.77008,86.67124,187.26233
"35540",483.7834,85.82651,186.62607
"35541",483.79675,85.09407,186.07571
"35542",483.81006,84.51545,185.65628
"35543",483.82343,84.11505,185.39699
"35544",483.83673,83.888,185.29854
"35545",483.8501,83.7879,185.31995
"35546",483.8634,83.74883,185.39925
"35547",483.87677,83.69268,185.46025
"35548",483.89008,83.55352,185.4365
"35549",483.90344,83.27276,185.26678
"35550",483.91675,82.8333,184.9296
"35551",483.9301,82.2327,184.41754
"35552",483.94342,81.48806,183.74268
"35553",483.9568,80.62867,182.9298
"35554",483.9701,79.69848,182.01926
"35555",483.98346,78.74387,181.05522
"35556",483.99677,77.81125,180.08334
"35557",484.01013,76.93965,179.14334
"35558",484.02344,76.155945,178.26399
"35559",484.0368,75.47234,177.46027
"35560",484.0501,74.8864,176.73283
"35561",484.06348,74.40299,176.08963
"35562",484.07678,74.0148,175.52654
"35563",484.09015,73.71206,175.03676
"35564",484.10345,73.48989,174.61809
"35565",484.11682,73.33364,174.25839
"35566",484.13013,73.231094,173.94753
"35567",484.1435,73.17738,173.68228
"35568",484.1568,73.15297,173.44466
"35569",484.17017,73.16029,173.238
"35570",484.18347,73.18715,173.05112
"35571",484.19684,73.22133,172.87239
"35572",484.21014,73.253075,172.6923
"35573",484.2235,73.28237,172.51076
"35574",484.23682,73.30923,172.32768
"35575",484.25018,73.33364,172.143
"35576",484.2635,73.34829,171.94933
"35577",484.27686,73.35317,171.74634
"35578",484.29016,73.34829,171.53374
"35579",484.30353,73.32876,171.30634
"35580",484.31683,73.29702,171.06612
"35581",484.3302,73.253075,170.8127
"35582",484.3435,73.21156,170.56035
"35583",484.35687,73.1725,170.30914
"35584",484.37018,73.13832,170.0616
"35585",484.38354,73.11391,169.82275
"35586",484.39685,73.09926,169.59291
"35587",484.41022,73.094376,169.37238
"35588",484.42352,73.09926,169.16145
"35589",484.4369,73.109024,168.95557
"35590",484.4502,73.131,168.76219
"35591",484.46356,73.17006,168.5866
"35592",484.47687,73.22865,168.43175
"35593",484.49023,73.3019,168.2934
"35594",484.50354,73.39468,168.17685
"35595",484.5169,73.494774,168.07053
"35596",484.5302,73.59487,167.96733
"35597",484.54358,73.69741,167.8697
"35598",484.5569,73.797516,167.77286
"35599",484.57025,73.89029,167.6718
"35600",484.58356,73.970856,167.56143
"35601",484.59692,74.04166,167.44382
"35602",484.61023,74.11734,167.3333
"35603",484.6236,74.25895,167.29108
"35604",484.6369,74.60563,167.45834
"35605",484.65027,75.386894,168.07103
"35606",484.66357,76.839554,169.37953
"35607",484.67694,79.11009,171.5513
"35608",484.69025,82.15701,174.5704
"35609",484.7036,85.748375,178.22917
"35610",484.71692,89.47646,182.1369
"35611",484.7303,92.90425,185.86082
"35612",484.7436,95.655754,189.01558
"35613",484.75696,97.52102,191.37009
"35614",484.77026,98.44877,192.84537
"35615",484.78363,98.50736,193.48048
"35616",484.79694,97.83597,193.38745
"35617",484.8103,96.62989,192.73874
"35618",484.8236,95.09178,191.7203
"35619",484.83698,93.416954,190.51709
"35620",484.85028,91.75922,189.27863
"35621",484.86365,90.213776,188.10066
"35622",484.87695,88.81239,187.01846
"35623",484.89032,87.5404,186.02185
"35624",484.90363,86.37583,185.09293
"35625",484.917,85.31136,184.2277
"35626",484.9303,84.36164,183.44397
"35627",484.94366,83.57305,182.79169
"35628",484.95697,82.99443,182.32472
"35629",484.97034,82.65751,182.08138
"35630",484.98364,82.55009,182.057
"35631",484.997,82.62821,182.21483
"35632",485.0103,82.82109,182.48984
"35633",485.02368,83.035934,182.79285
"35634",485.037,83.18242,183.03421
"35635",485.05035,83.1873,183.13855
"35636",485.06366,82.98955,183.0404
"35637",485.07703,82.57694,182.72122
"35638",485.09033,81.9617,182.18651
"35639",485.1037,81.17799,181.46411
"35640",485.117,80.27711,180.60004
"35641",485.13037,79.31274,179.64433
"35642",485.14368,78.3386,178.64871
"35643",485.15704,77.39132,177.6495
"35644",485.17035,76.50996,176.68661
"35645",485.18372,75.718925,175.78651
"35646",485.19702,75.03044,174.96425
"35647",485.2104,74.444496,174.223
"35648",485.2237,73.96353,173.56844
"35649",485.23706,73.58022,172.99649
"35650",485.25037,73.287254,172.5029
"35651",485.26373,73.074844,172.08072
"35652",485.27704,72.9308,171.72026
"35653",485.2904,72.84047,171.40901
"35654",485.3037,72.80141,171.14621
"35655",485.31708,72.798965,170.91881
"35656",485.33038,72.82582,170.72063
"35657",485.34375,72.88197,170.55258
"35658",485.35706,72.9601,170.40826
"35659",485.37042,73.04555,170.27371
"35660",485.38373,73.13588,170.14671
"35661",485.3971,73.22865,170.02498
"35662",485.4104,73.31411,169.89883
"35663",485.42377,73.38735,169.76314
"35664",485.43707,73.45083,169.61996
"35665",485.45044,73.49966,169.46413
"35666",485.46375,73.53384,169.29517
"35667",485.4771,73.56069,169.11995
"35668",485.49042,73.5729,168.93092
"35669",485.50378,73.57778,168.73495
"35670",485.5171,73.5729,168.52937
"35671",485.53046,73.55581,168.31143
"35672",485.54376,73.52895,168.08319
"35673",485.55713,73.5021,167.85411
"35674",485.57043,73.47524,167.62419
"35675",485.5838,73.45571,167.40076
"35676",485.5971,73.445946,167.18648
"35677",485.61047,73.45327,166.98898
"35678",485.62378,73.48501,166.81613
"35679",485.63715,73.53628,166.6638
"35680",485.65045,73.602196,166.52773
"35681",485.66382,73.68276,166.40836
"35682",485.67712,73.76578,166.29396
"35683",485.6905,73.846344,166.1797
"35684",485.7038,73.92203,166.06308
"35685",485.71716,73.985504,165.93661
"35686",485.73047,74.039215,165.80237
"35687",485.74384,74.092926,165.6698
"35688",485.75714,74.19302,165.5853
"35689",485.7705,74.47379,165.6846
"35690",485.7838,75.14763,166.18575
"35691",485.79718,76.453804,167.34029
"35692",485.8105,78.538795,169.31445
"35693",485.82385,81.36599,172.09598
"35694",485.83716,84.71076,175.48344
"35695",485.85052,88.19714,179.11703
"35696",485.86383,91.39788,182.57393
"35697",485.8772,93.961395,185.49362
"35698",485.8905,95.68505,187.65356
"35699",485.90387,96.52491,188.98358
"35700",485.91718,96.532234,189.50731
"35701",485.93054,95.8291,189.3208
"35702",485.94385,94.58396,188.57031
"35703",485.9572,92.97505,187.41714
"35704",485.97052,91.17082,186.01839
"35705",485.9839,89.2958,184.49245
"35706",485.9972,87.4403,182.92744
"35707",486.01056,85.65804,181.3777
"35708",486.02386,83.9881,179.88457
"35709",486.03723,82.48417,178.50526
"35710",486.05054,81.21706,177.31578
"35711",486.0639,80.2649,176.40166
"35712",486.0772,79.71313,175.85817
"35713",486.09058,79.603264,175.73933
"35714",486.10388,79.923096,176.04677
"35715",486.11725,80.59205,176.71332
"35716",486.13055,81.480736,177.62051
"35717",486.14392,82.423134,178.60919
"35718",486.15723,83.265434,179.52722
"35719",486.1706,83.88556,180.24939
"35720",486.1839,84.210266,180.69553
"35721",486.19727,84.21515,180.83199
"35722",486.21057,83.914856,180.66342
"35723",486.22394,83.35577,180.22667
"35724",486.23724,82.59403,179.56981
"35725",486.2506,81.69558,178.75243
"35726",486.26392,80.72144,177.83128
"35727",486.27728,79.73754,176.86993
"35728",486.2906,78.78783,175.91202
"35729",486.30396,77.91379,175.00009
"35730",486.31726,77.134964,174.15607
"35731",486.33063,76.46601,173.39758
"35732",486.34393,75.91669,172.73782
"35733",486.3573,75.48211,172.17564
"35734",486.3706,75.157394,171.70975
"35735",486.38397,74.932785,171.3338
"35736",486.39728,74.79118,171.03384
"35737",486.41064,74.71549,170.79538
"35738",486.42395,74.69108,170.60582
"35739",486.43732,74.71061,170.45944
"35740",486.45062,74.77165,170.3552
"35741",486.464,74.861984,170.28214
"35742",486.4773,74.97429,170.23387
"35743",486.49066,75.0988,170.20132
"35744",486.50397,75.21599,170.16534
"35745",486.51733,75.31609,170.11595
"35746",486.53064,75.386894,170.04037
"35747",486.544,75.421074,169.93039
"35748",486.5573,75.41863,169.78485
"35749",486.57068,75.37469,169.59773
"35750",486.58398,75.29412,169.37262
"35751",486.59735,75.20134,169.13278
"35752",486.61066,75.15251,168.93399
"35753",486.62402,75.25262,168.88261
"35754",486.63733,75.684746,169.16638
"35755",486.6507,76.65888,170.00566
"35756",486.664,78.30198,171.54434
"35757",486.67737,80.61646,173.80576
"35758",486.69067,83.42657,176.63513
"35759",486.70404,86.42222,179.73787
"35760",486.71735,89.22987,182.74622
"35761",486.7307,91.527275,185.33205
"35762",486.74402,93.10933,187.27432
"35763",486.7574,93.907684,188.48235
"35764",486.7707,93.94675,188.95602
"35765",486.78406,93.32906,188.77417
"35766",486.79736,92.19379,188.05542
"35767",486.81073,90.69474,186.93742
"35768",486.82404,88.97597,185.55286
"35769",486.8374,87.15221,184.0096
"35770",486.8507,85.296715,182.37761
"35771",486.86407,83.475395,180.72182
"35772",486.87738,81.75906,179.11409
"35773",486.89075,80.22095,177.63095
"35774",486.90405,78.96361,176.38052
"35775",486.91742,78.09689,175.48141
"35776",486.93073,77.69894,175.02399
"35777",486.9441,77.7966,175.04974
"35778",486.9574,78.345924,175.53021
"35779",486.97076,79.22484,176.35744
"35780",486.98407,80.26978,177.37816
"35781",486.99744,81.30251,178.41933
"35782",487.01074,82.16678,179.3243
"35783",487.0241,82.75029,179.97552
"35784",487.0374,83.004196,180.31538
"35785",487.05078,82.92119,180.32626
"35786",487.0641,82.54032,180.03668
"35787",487.07745,81.917755,179.4935
"35788",487.09076,81.12428,178.75996
"35789",487.10413,80.22095,177.89177
"35790",487.11743,79.28344,176.96117
"35791",487.1308,78.36057,176.0159
"35792",487.1441,77.49874,175.10283
"35793",487.15747,76.72968,174.2556
"35794",487.17078,76.07294,173.49666
"35795",487.18414,75.53826,172.83926
"35796",487.19745,75.13298,172.29456
"35797",487.21082,74.84978,171.85925
"35798",487.22412,74.67643,171.52496
"35799",487.2375,74.59342,171.27559
"35800",487.2508,74.57389,171.0871
"35801",487.26416,74.581215,170.92485
"35802",487.27747,74.600746,170.77504
"35803",487.29083,74.62028,170.62584
"35804",487.30414,74.63004,170.46748
"35805",487.3175,74.632484,170.30211
"35806",487.3308,74.65446,170.15634
"35807",487.34418,74.75456,170.0894
"35808",487.35748,75.06462,170.23553
"35809",487.37085,75.78485,170.80153
"35810",487.38416,77.10567,171.99062
"35811",487.39752,79.11986,173.91435
"35812",487.41083,81.76883,176.53581
"35813",487.4242,84.823074,179.64534
"35814",487.4375,87.93591,182.9089
"35815",487.45087,90.736244,185.95723
"35816",487.46417,92.91646,188.47295
"35817",487.47754,94.312965,190.27309
"35818",487.49084,94.8745,191.28189
"35819",487.5042,94.6572,191.52942
"35820",487.51752,93.79294,191.12318
"35821",487.53088,92.43549,190.19676
"35822",487.5442,90.758224,188.9081
"35823",487.55756,88.91737,187.40344
"35824",487.57086,87.027695,185.79243
"35825",487.58423,85.155106,184.13947
"35826",487.59753,83.34844,182.4939
"35827",487.6109,81.65652,180.90662
"35828",487.6242,80.15015,179.45201
"35829",487.63757,78.91966,178.22623
"35830",487.65088,78.0676,177.3404
"35831",487.66425,77.67452,176.88693
"35832",487.67755,77.76486,176.9046
"35833",487.69092,78.28001,177.3499
"35834",487.70422,79.10521,178.12135
"35835",487.7176,80.076904,179.06508
"35836",487.7309,81.0193,180.00989
"35837",487.74426,81.78104,180.80348
"35838",487.75757,82.25712,181.33522
"35839",487.77094,82.39628,181.54492
"35840",487.78424,82.19852,181.42204
"35841",487.7976,81.705345,180.99757
"35842",487.8109,80.9778,180.32332
"35843",487.82428,80.093994,179.47008
"35844",487.8376,79.1223,178.50131
"35845",487.85095,78.13107,177.48265
"35846",487.86426,77.18379,176.47696
"35847",487.87762,76.32441,175.52957
"35848",487.89093,75.579765,174.67006
"35849",487.9043,74.966965,173.91913
"35850",487.9176,74.49088,173.28577
"35851",487.93097,74.12955,172.75227
"35852",487.94427,73.87076,172.31003
"35853",487.95764,73.69741,171.94514
"35854",487.97095,73.585106,171.63588
"35855",487.9843,73.50454,171.35484
"35856",487.99762,73.44106,171.08838
"35857",488.011,73.38247,170.82481
"35858",488.0243,73.32632,170.56186
"35859",488.03766,73.304344,170.33133
"35860",488.05096,73.39712,170.21486
"35861",488.06433,73.77066,170.38206
"35862",488.07764,74.65446,171.0712
"35863",488.091,76.241394,172.49109
"35864",488.1043,78.59739,174.72963
"35865",488.11768,81.617455,177.70586
"35866",488.13098,85.02083,181.15977
"35867",488.14435,88.39735,184.69319
"35868",488.15765,91.34905,187.90732
"35869",488.17102,93.56832,190.48125
"35870",488.18433,94.908676,192.2456
"35871",488.1977,95.35302,193.15585
"35872",488.211,94.994125,193.27673
"35873",488.22437,93.98581,192.73698
"35874",488.23767,92.52827,191.71649
"35875",488.25104,90.81438,190.3941
"35876",488.26434,89.01015,188.92783
"35877",488.2777,87.22545,187.4247
"35878",488.29102,85.51644,185.94148
"35879",488.30438,83.914856,184.51228
"35880",488.3177,82.43534,183.1551
"35881",488.33105,81.11696,181.91283
"35882",488.34436,80.02319,180.85397
"35883",488.35773,79.22972,180.06122
"35884",488.37103,78.79759,179.60501
"35885",488.3844,78.76097,179.5308
"35886",488.3977,79.080795,179.8119
"35887",488.41107,79.65453,180.35692
"35888",488.42438,80.35279,181.04437
"35889",488.43774,81.0193,181.72191
"35890",488.45105,81.52224,182.2567
"35891",488.46442,81.75906,182.54109
"35892",488.47772,81.68337,182.52037
"35893",488.4911,81.307396,182.197
"35894",488.5044,80.67017,181.60065
"35895",488.51776,79.835205,180.78662
"35896",488.53107,78.8806,179.82687
"35897",488.54443,77.874725,178.78601
"35898",488.55774,76.876175,177.72104
"35899",488.5711,75.93866,176.6859
"35900",488.5844,75.0988,175.71912
"35901",488.59778,74.3859,174.85306
"35902",488.61108,73.80972,174.10144
"35903",488.62445,73.375145,173.47342
"35904",488.63776,73.06996,172.96121
"35905",488.65112,72.87953,172.55421
"35906",488.66443,72.77699,172.22916
"35907",488.6778,72.73548,171.96193
"35908",488.6911,72.72816,171.72758
"35909",488.70447,72.73304,171.50522
"35910",488.71777,72.73304,171.27812
"35911",488.73114,72.72083,171.03882
"35912",488.74445,72.69886,170.78937
"35913",488.7578,72.71107,170.57341
"35914",488.77112,72.867325,170.50189
"35915",488.7845,73.36782,170.7795
"35916",488.7978,74.4567,171.66112
"35917",488.81116,76.30732,173.3385
"35918",488.82446,78.941635,175.85742
"35919",488.83783,82.196075,179.07878
"35920",488.85114,85.72152,182.67285
"35921",488.8645,89.07851,186.20863
"35922",488.8778,91.86908,189.28291
"35923",488.89117,93.83688,191.62163
"35924",488.90448,94.88182,193.09897
"35925",488.91785,95.03807,193.72028
"35926",488.93115,94.44236,193.59451
"35927",488.94452,93.29244,192.89592
"35928",488.95782,91.79584,191.8147
"35929",488.9712,90.142975,190.53046
"35930",488.9845,88.482796,189.18724
"35931",488.99786,86.890976,187.8605
"35932",489.01117,85.384605,186.56947
"35933",489.02454,83.9588,185.31194
"35934",489.03784,82.598915,184.07576
"35935",489.0512,81.31472,182.87279
"35936",489.0645,80.164795,181.76395
"35937",489.07788,79.29565,180.89995
"35938",489.0912,78.84398,180.42627
"35939",489.10455,78.870834,180.41699
"35940",489.11786,79.32983,180.8407
"35941",489.13123,80.09155,181.58148
"35942",489.14453,80.94362,182.4364
"35943",489.1579,81.66628,183.18855
"35944",489.1712,82.13504,183.70938
"35945",489.18457,82.29374,183.9348
"35946",489.19788,82.144806,183.85754
"35947",489.21124,81.71023,183.48999
"35948",489.22455,81.041275,182.87448
"35949",489.2379,80.198975,182.06473
"35950",489.25122,79.2517,181.12367
"35951",489.2646,78.28245,180.13103
"35952",489.2779,77.36202,179.15692
"35953",489.29126,76.53681,178.24927
"35954",489.30457,75.826355,177.43059
"35955",489.31793,75.23796,176.71176
"35956",489.33124,74.76921,176.0942
"35957",489.3446,74.407875,175.5694
"35958",489.3579,74.141754,175.12852
"35959",489.37128,73.95621,174.7599
"35960",489.38458,73.84146,174.45628
"35961",489.39795,73.78531,174.20767
"35962",489.41125,73.76822,173.99637
"35963",489.42462,73.78287,173.81627
"35964",489.43793,73.814606,173.65372
"35965",489.4513,73.848785,173.4946
"35966",489.4646,73.8732,173.32678
"35967",489.47797,73.87564,173.13776
"35968",489.49127,73.846344,172.91707
"35969",489.50464,73.77554,172.65396
"35970",489.51794,73.66811,172.35202
"35971",489.5313,73.52895,172.01498
"35972",489.54462,73.39956,171.68336
"35973",489.55798,73.38491,171.46245
"35974",489.5713,73.68032,171.55113
"35975",489.58466,74.527504,172.20082
"35976",489.59796,76.13397,173.63628
"35977",489.61133,78.56321,175.9447
"35978",489.62463,81.6907,179.02728
"35979",489.638,85.1844,182.57382
"35980",489.6513,88.61219,186.16362
"35981",489.66467,91.54925,189.36981
"35982",489.67798,93.697716,191.8792
"35983",489.69135,94.925766,193.5353
"35984",489.70465,95.25536,194.33133
"35985",489.71802,94.8159,194.36859
"35986",489.73132,93.805145,193.82083
"35987",489.7447,92.45014,192.89723
"35988",489.758,90.94133,191.77748
"35989",489.77136,89.43984,190.6179
"35990",489.78467,88.03601,189.50906
"35991",489.79803,86.751816,188.476
"35992",489.81134,85.55062,187.4858
"35993",489.8247,84.403145,186.51178
"35994",489.838,83.299614,185.54585
"35995",489.85138,82.26444,184.6138
"35996",489.8647,81.35378,183.77391
"35997",489.87805,80.64332,183.10576
"35998",489.89136,80.19409,182.67664
"35999",489.90472,80.01099,182.4996
"36000",489.91803,80.042725,182.53168
"36001",489.9314,80.216064,182.70636
"36002",489.9447,80.41871,182.91576
"36003",489.95807,80.54322,183.05336
"36004",489.97137,80.49195,183.01907
"36005",489.98474,80.21362,182.75612
"36006",489.99805,79.7058,182.25497
"36007",490.0114,78.98802,181.528
"36008",490.02472,78.118866,180.62721
"36009",490.0381,77.16182,179.61137
"36010",490.0514,76.1828,178.54366
"36011",490.06476,75.23308,177.47464
"36012",490.07806,74.356606,176.4492
"36013",490.09143,73.582664,175.4989
"36014",490.10474,72.93324,174.64894
"36015",490.1181,72.41566,173.91052
"36016",490.1314,72.02258,173.28044
"36017",490.14478,71.7467,172.75526
"36018",490.15808,71.570915,172.32156
"36019",490.17145,71.48058,171.96782
"36020",490.18475,71.45861,171.67961
"36021",490.19812,71.48791,171.44199
"36022",490.21143,71.54162,171.22969
"36023",490.2248,71.61242,171.03616
"36024",490.2381,71.692986,170.85461
"36025",490.25146,71.77112,170.67316
"36026",490.26477,71.834595,170.47948
"36027",490.27814,71.885864,170.27557
"36028",490.29144,71.92493,170.06107
"36029",490.3048,71.9469,169.83069
"36030",490.3181,71.95422,169.58635
"36031",490.33148,71.95422,169.33492
"36032",490.3448,71.95422,169.08348
"36033",490.35815,71.94934,168.82716
"36034",490.37146,71.93713,168.56337
"36035",490.38483,71.920044,168.29431
"36036",490.39813,71.90051,168.02228
"36037",490.4115,71.88098,167.74963
"36038",490.4248,71.86633,167.48126
"36039",490.43817,71.86145,167.2222
"36040",490.45148,71.871216,166.97763
"36041",490.46484,71.89563,166.74802
"36042",490.47815,71.93469,166.53381
"36043",490.49152,71.98596,166.33304
"36044",490.50482,72.05432,166.15096
"36045",490.5182,72.13489,165.98322
"36046",490.5315,72.234985,165.83752
"36047",490.54486,72.34974,165.70963
"36048",490.55817,72.46937,165.59018
"36049",490.57153,72.601204,165.48668
"36050",490.58484,72.73792,165.39218
"36051",490.5982,72.87465,165.30197
"36052",490.6115,73.01137,165.21602
"36053",490.62488,73.13832,165.12457
"36054",490.63818,73.255516,165.02734
"36055",490.65155,73.35073,164.91179
"36056",490.66486,73.4313,164.78456
"36057",490.67822,73.55581,164.7038
"36058",490.69153,73.88052,164.82713
"36059",490.7049,74.6569,165.41228
"36060",490.7182,76.17059,166.759
"36061",490.73157,78.58762,169.05637
"36062",490.74487,81.87381,172.29842
"36063",490.75824,85.76059,176.24376
"36064",490.77155,89.79874,180.46193
"36065",490.7849,93.48531,184.45471
"36066",490.79822,96.410164,187.80098
"36067",490.81158,98.35844,190.26207
"36068",490.8249,99.29351,191.77084
"36069",490.83826,99.30572,192.38597
"36070",490.85156,98.57572,192.25928
"36071",490.86493,97.32571,191.58975
"36072",490.87823,95.79248,190.59796
"36073",490.8916,94.18356,189.48256
"36074",490.9049,92.65766,188.39989
"36075",490.91827,91.30511,187.44289
"36076",490.93158,90.13809,186.62915
"36077",490.94495,89.1078,185.91568
"36078",490.95825,88.148315,185.24081
"36079",490.97162,87.20836,184.5555
"36080",490.98492,86.28062,183.85301
"36081",490.9983,85.40414,183.1728
"36082",491.0116,84.6424,182.57996
"36083",491.02496,84.068665,182.15129
"36084",491.03827,83.71221,181.92198
"36085",491.05164,83.5584,181.88419
"36086",491.06494,83.55596,181.99295
"36087",491.0783,83.61944,182.16756
"36088",491.0916,83.66094,182.32217
"36089",491.10498,83.5877,182.36334
"36090",491.1183,83.336235,182.224
"36091",491.13165,82.87724,181.86926
"36092",491.14496,82.210724,181.29266
"36093",491.15833,81.37087,180.5219
"36094",491.17163,80.41627,179.61014
"36095",491.185,79.40551,178.6124
"36096",491.1983,78.397194,177.5855
"36097",491.21167,77.44991,176.58812
"36098",491.22498,76.592964,175.65147
"36099",491.23834,75.85321,174.80525
"36100",491.25165,75.23796,174.06041
"36101",491.265,74.75456,173.42819
"36102",491.27832,74.39811,172.90782
"36103",491.2917,74.15396,172.48862
"36104",491.305,74.002594,172.15456
"36105",491.31836,73.92447,171.889
"36106",491.33167,73.9025,171.67717
"36107",491.34503,73.90982,171.49394
"36108",491.35834,73.934235,171.32803
"36109",491.3717,73.96597,171.17021
"36110",491.385,73.99527,171.01094
"36111",491.39838,74.01724,170.84526
"36112",491.41168,74.02457,170.66562
"36113",491.42505,74.019684,170.474
"36114",491.43835,73.99283,170.26025
"36115",491.45172,73.951324,170.03102
"36116",491.46503,73.89517,169.78584
"36117",491.4784,73.82681,169.5267
"36118",491.4917,73.75113,169.2581
"36119",491.50507,73.67788,168.98958
"36120",491.51837,73.602196,168.71632
"36121",491.53174,73.52895,168.44315
"36122",491.54504,73.463036,168.175
"36123",491.5584,73.409325,167.917
"36124",491.57172,73.375145,167.67686
"36125",491.58508,73.358055,167.45274
"36126",491.5984,73.36538,167.2525
"36127",491.61176,73.39468,167.07446
"36128",491.62506,73.44106,166.91443
"36129",491.63843,73.5021,166.7705
"36130",491.65173,73.57778,166.64311
"36131",491.6651,73.66567,166.5303
"36132",491.6784,73.760895,166.42758
"36133",491.69177,73.863434,166.33514
"36134",491.70508,73.968414,166.24835
"36135",491.71844,74.06363,166.15508
"36136",491.73175,74.14664,166.05257
"36137",491.74512,74.212555,165.93556
"36138",491.75842,74.25651,165.79866
"36139",491.7718,74.28092,165.64359
"36140",491.7851,74.3151,165.49904
"36141",491.79846,74.42985,165.43613
"36142",491.81177,74.80583,165.63805
"36143",491.82513,75.69451,166.36441
"36144",491.83844,77.33517,167.87051
"36145",491.8518,79.835205,170.28728
"36146",491.8651,83.09941,173.54633
"36147",491.87848,86.82994,177.37372
"36148",491.89178,90.57511,181.33232
"36149",491.90515,93.88571,184.97339
"36150",491.91846,96.42481,187.94641
"36151",491.93182,98.03616,190.07104
"36152",491.94513,98.71244,191.31094
"36153",491.9585,98.56107,191.74434
"36154",491.9718,97.75784,191.52115
"36155",491.98517,96.515144,190.83337
"36156",491.99847,95.03807,189.8724
"36157",492.01184,93.51949,188.82376
"36158",492.02515,92.09369,187.82043
"36159",492.0385,90.83391,186.93858
"36160",492.05182,89.74502,186.18825
"36161",492.0652,88.7831,185.53085
"36162",492.0785,87.87488,184.89711
"36163",492.09186,86.98131,184.24963
"36164",492.10516,86.09506,183.58156
"36165",492.11853,85.25521,182.93217
"36166",492.13184,84.5301,182.37129
"36167",492.1452,83.98566,181.96841
"36168",492.1585,83.65606,181.76337
"36169",492.17188,83.529106,181.75067
"36170",492.18518,83.54864,181.8805
"36171",492.19855,83.63409,182.07684
"36172",492.21185,83.69268,182.24901
"36173",492.22522,83.6292,182.30093
"36174",492.23853,83.37774,182.16289
"36175",492.2519,82.91875,181.80945
"36176",492.2652,82.25956,181.24147
"36177",492.27856,81.43923,180.49176
"36178",492.29187,80.51881,179.61632
"36179",492.30524,79.55932,178.67305
"36180",492.31854,78.60471,177.70467
"36181",492.3319,77.70382,176.76016
"36182",492.3452,76.88594,175.87053
"36183",492.35858,76.173035,175.0603
"36184",492.3719,75.579765,174.34744
"36185",492.38525,75.11345,173.743
"36186",492.39856,74.76189,173.23872
"36187",492.41193,74.51774,172.83089
"36188",492.42523,74.36637,172.5082
"36189",492.4386,74.285805,172.25157
"36190",492.4519,74.25651,172.0437
"36191",492.46527,74.25651,171.86421
"36192",492.47858,74.2736,171.70181
"36193",492.49194,74.29069,171.53995
"36194",492.50525,74.305336,171.37617
"36195",492.51862,74.3151,171.20798
"36196",492.53192,74.31754,171.03276
"36197",492.5453,74.31022,170.84785
"36198",492.5586,74.29313,170.65295
"36199",492.57196,74.268715,170.4502
"36200",492.58527,74.23697,170.23935
"36201",492.59863,74.20035,170.02263
"36202",492.61194,74.161285,169.80232
"36203",492.6253,74.11734,169.57591
"36204",492.6386,74.06851,169.34325
"36205",492.65198,74.0148,169.10417
"36206",492.66528,73.95865,168.86098
"36207",492.67865,73.900055,168.61359
"36208",492.69196,73.84146,168.36436
"36209",492.70532,73.78775,168.1182
"36210",492.71863,73.7438,167.88011
"36211",492.732,73.71206,167.65286
"36212",492.7453,73.70229,167.4466
"36213",492.75867,73.70718,167.25467
"36214",492.77197,73.73159,167.08243
"36215",492.78534,73.77066,166.92561
"36216",492.79865,73.82681,166.7871
"36217",492.812,73.89029,166.65765
"36218",492.82532,73.96109,166.53752
"36219",492.83868,74.03677,166.42448
"36220",492.852,74.1149,166.31625
"36221",492.86536,74.18326,166.2007
"36222",492.87866,74.24185,166.07751
"36223",492.89203,74.29557,165.9513
"36224",492.90533,74.36637,165.84383
"36225",492.9187,74.54459,165.846
"36226",492.932,75.02556,166.15648
"36227",492.94537,76.068054,167.04352
"36228",492.95868,77.88205,168.73463
"36229",492.97205,80.54566,171.33206
"36230",492.98535,83.93927,174.74272
"36231",492.99872,87.73083,178.65738
"36232",493.01202,91.46868,182.63683
"36233",493.0254,94.71824,186.24478
"36234",493.0387,97.16945,189.15593
"36235",493.05206,98.67094,191.19397
"36236",493.06537,99.23491,192.34142
"36237",493.07874,98.97124,192.67883
"36238",493.09204,98.06058,192.36102
"36239",493.1054,96.72022,191.58505
"36240",493.1187,95.16502,190.55237
"36241",493.13208,93.58053,189.44177
"36242",493.1454,92.10101,188.38664
"36243",493.15875,90.79729,187.46107
"36244",493.17206,89.671776,186.67297
"36245",493.18542,88.66834,185.97179
"36246",493.19873,87.725945,185.30028
"36247",493.2121,86.800644,184.61641
"36248",493.2254,85.8851,183.91339
"36249",493.23877,85.015945,183.22815
"36250",493.25208,84.25666,182.62561
"36251",493.26544,83.67803,182.18001
"36252",493.27875,83.30694,181.92386
"36253",493.2921,83.140915,181.86118
"36254",493.30542,83.12627,181.94469
"36255",493.3188,83.1873,182.10342
"36256",493.3321,83.22392,182.23965
"36257",493.34546,83.140915,182.2574
"36258",493.35876,82.87236,182.087
"36259",493.37213,82.38651,181.69092
"36260",493.38544,81.7029,181.0819
"36261",493.3988,80.85817,180.29037
"36262",493.4121,79.90845,179.36748
"36263",493.42548,78.91234,178.3685
"36264",493.43878,77.92355,177.34572
"36265",493.45215,76.978714,176.33598
"36266",493.46545,76.104675,175.36752
"36267",493.47882,75.33318,174.4743
"36268",493.49213,74.683754,173.67903
"36269",493.5055,74.161285,172.99043
"36270",493.5188,73.76578,172.41246
"36271",493.53217,73.48501,171.93687
"36272",493.54547,73.30923,171.5575
"36273",493.55884,73.21156,171.25075
"36274",493.57214,73.17738,171.00443
"36275",493.5855,73.18715,170.80098
"36276",493.59882,73.22377,170.6247
"36277",493.61218,73.27993,170.4691
"36278",493.6255,73.340965,170.32013
"36279",493.63885,73.39956,170.17062
"36280",493.65216,73.45815,170.02295
"36281",493.66553,73.514305,169.87466
"36282",493.67883,73.56069,169.71837
"36283",493.6922,73.59487,169.55132
"36284",493.7055,73.61196,169.36824
"36285",493.71887,73.60952,169.16617
"36286",493.73218,73.59731,168.95425
"36287",493.74554,73.57534,168.7322
"36288",493.75885,73.548485,168.50456
"36289",493.77222,73.52407,168.27853
"36290",493.78552,73.49966,168.05174
"36291",493.7989,73.47524,167.82419
"36292",493.8122,73.45571,167.60075
"36293",493.82556,73.445946,167.38647
"36294",493.83887,73.443504,167.17921
"36295",493.85223,73.445946,166.97676
"36296",493.86554,73.45571,166.78171
"36297",493.8789,73.4728,166.59428
"36298",493.8922,73.5021,166.4196
"36299",493.90558,73.548485,166.26292
"36300",493.91888,73.61196,166.12479
"36301",493.93225,73.69009,166.00328
"36302",493.94556,73.777985,165.894
"36303",493.95892,73.8732,165.79477
"36304",493.97223,73.970856,165.70096
"36305",493.9856,74.06363,165.60532
"36306",493.9989,74.14664,165.5028
"36307",494.01227,74.21744,165.39069
"36308",494.02557,74.29557,165.28812
"36309",494.03894,74.45182,165.2661
"36310",494.05225,74.84978,165.49068
"36311",494.0656,75.733574,166.21353
"36312",494.07892,77.34493,167.69156
"36313",494.0923,79.81323,170.07689
"36314",494.1056,83.070114,173.32794
"36315",494.11896,86.84215,177.19592
"36316",494.13226,90.71183,181.27942
"36317",494.14563,94.205536,185.10786
"36318",494.15894,96.954605,188.30086
"36319",494.1723,98.758835,190.63492
"36320",494.1856,99.57671,192.03902
"36321",494.19897,99.493706,192.56778
"36322",494.21228,98.69047,192.37372
"36323",494.22565,97.38186,191.64919
"36324",494.23895,95.80469,190.6152
"36325",494.25232,94.15671,189.46112
"36326",494.26562,92.5893,188.3361
"36327",494.279,91.20012,187.34033
"36328",494.2923,90.01114,186.50136
"36329",494.30566,88.97841,185.78148
"36330",494.31897,88.03601,185.11966
"36331",494.33234,87.12291,184.45769
"36332",494.34564,86.222015,183.77939
"36333",494.359,85.34554,183.09735
"36334",494.3723,84.55451,182.47337
"36335",494.38568,83.914856,181.97604
"36336",494.399,83.475395,181.65892
"36337",494.41235,83.23369,181.52582
"36338",494.42566,83.15556,181.54875
"36339",494.43903,83.17998,181.67178
"36340",494.45233,83.211716,181.8029
"36341",494.4657,83.16533,181.85689
"36342",494.479,82.97002,181.7605
"36343",494.49237,82.57694,181.46024
"36344",494.50568,81.986115,180.94994
"36345",494.51904,81.22194,180.24783
"36346",494.53235,80.34058,179.40466
"36347",494.54572,79.38842,178.46315
"36348",494.55902,78.42405,177.47966
"36349",494.5724,77.488976,176.49533
"36350",494.5857,76.62226,175.55014
"36351",494.59906,75.85077,174.6731
"36352",494.61237,75.18669,173.87935
"36353",494.62573,74.64225,173.1845
"36354",494.63904,74.21988,172.5947
"36355",494.6524,73.90738,172.10156
"36356",494.6657,73.687645,171.69144
"36357",494.67908,73.548485,171.35501
"36358",494.69238,73.47524,171.08015
"36359",494.70575,73.45327,170.85428
"36360",494.71906,73.463036,170.65945
"36361",494.73242,73.494774,170.48691
"36362",494.74573,73.5436,170.33244
"36363",494.7591,73.58999,170.17706
"36364",494.7724,73.633934,170.02069
"36365",494.78577,73.673,169.86081
"36366",494.79907,73.70229,169.69238
"36367",494.81244,73.724266,169.51755
"36368",494.82574,73.7438,169.34096
"36369",494.8391,73.75113,169.15279
"36370",494.85242,73.74868,168.95506
"36371",494.86578,73.73647,168.7475
"36372",494.8791,73.7145,168.52979
"36373",494.89246,73.6852,168.30406
"36374",494.90576,73.66079,168.0823
"36375",494.91913,73.636375,167.85979
"36376",494.93243,73.616844,167.64139
"36377",494.9458,73.59731,167.42238
"36378",494.9591,73.585106,167.21008
"36379",494.97247,73.57534,166.99985
"36380",494.98578,73.58022,166.80396
"36381",494.99915,73.59487,166.61798
"36382",495.01245,73.62417,166.44711
"36383",495.02582,73.66567,166.28937
"36384",495.03912,73.72915,166.15489
"36385",495.0525,73.80728,166.03706
"36386",495.0658,73.89761,165.93387
"36387",495.07916,73.99527,165.84082
"36388",495.09247,74.09781,165.7557
"36389",495.10583,74.19791,165.67136
"36390",495.11914,74.285805,165.57794
"36391",495.1325,74.36149,165.47505
"36392",495.1458,74.42985,165.3672
"36393",495.15918,74.50065,165.26393
"36394",495.1725,74.634926,165.22635
"36395",495.18585,74.97429,165.39806
"36396",495.19916,75.755554,166.02226
"36397",495.21252,77.239944,167.37401
"36398",495.22583,79.60815,169.65596
"36399",495.2392,82.84062,172.87619
"36400",495.2525,86.6981,176.82243
"36401",495.26587,90.76555,181.0992
"36402",495.27917,94.554665,185.22473
"36403",495.29254,97.635765,188.76067
"36404",495.30585,99.75983,191.43585
"36405",495.3192,100.84383,193.13734
"36406",495.33252,100.95857,193.90346
"36407",495.3459,100.27253,193.87238
"36408",495.3592,99.00786,193.24123
"36409",495.37256,97.408714,192.23608
"36410",495.38586,95.69726,191.06865
"36411",495.39923,94.046844,189.90878
"36412",495.41254,92.56733,188.86823
"36413",495.4259,91.29778,187.99141
"36414",495.4392,90.20889,187.25557
"36415",495.45258,89.22743,186.59314
"36416",495.46588,88.289925,185.94398
"36417",495.47925,87.34997,185.26309
"36418",495.49255,86.41245,184.55527
"36419",495.50592,85.52621,183.86942
"36420",495.51923,84.754715,183.27061
"36421",495.5326,84.15167,182.81616
"36422",495.5459,83.74639,182.54062
"36423",495.55927,83.5169,182.4282
"36424",495.57257,83.41192,182.43314
"36425",495.58594,83.353325,182.48117
"36426",495.59924,83.265434,182.49808
"36427",495.6126,83.06767,182.40236
"36428",495.62592,82.703896,182.13445
"36429",495.63928,82.161896,181.67694
"36430",495.6526,81.45388,181.03648
"36431",495.66595,80.61402,180.24207
"36432",495.67926,79.693596,179.34084
"36433",495.69263,78.73655,178.3742
"36434",495.70593,77.79172,177.3899
"36435",495.7193,76.90059,176.42975
"36436",495.7326,76.09003,175.52232
"36437",495.74597,75.37957,174.68968
"36438",495.75928,74.78142,173.94714
"36439",495.77264,74.30045,173.3031
"36440",495.78595,73.92447,172.74901
"36441",495.79932,73.6437,172.27838
"36442",495.81262,73.44839,171.88443
"36443",495.826,73.321434,171.55273
"36444",495.8393,73.248184,171.27078
"36445",495.85266,73.22133,171.03293
"36446",495.86597,73.22377,170.82353
"36447",495.87933,73.253075,170.64108
"36448",495.89264,73.29702,170.47418
"36449",495.906,73.35073,170.31842
"36450",495.9193,73.40444,170.16434
"36451",495.93268,73.45327,170.00705
"36452",495.94598,73.49233,169.84152
"36453",495.95935,73.52407,169.66989
"36454",495.97266,73.54116,169.4846
"36455",495.98602,73.5436,169.2852
"36456",495.99933,73.54116,169.081
"36457",496.0127,73.531395,168.86938
"36458",496.026,73.50942,168.64526
"36459",496.03937,73.48257,168.41557
"36460",496.05267,73.45571,168.18504
"36461",496.06604,73.428856,167.95367
"36462",496.07935,73.40444,167.7239
"36463",496.0927,73.38979,167.50314
"36464",496.10602,73.392235,167.29901
"36465",496.1194,73.40444,167.10472
"36466",496.1327,73.4313,166.92546
"36467",496.14606,73.46792,166.7568
"36468",496.15936,73.514305,166.59906
"36469",496.17273,73.57534,166.45741
"36470",496.18604,73.65591,166.3372
"36471",496.1994,73.74868,166.23172
"36472",496.2127,73.85611,166.1438
"36473",496.22607,73.97574,166.07143
"36474",496.23938,74.10269,166.01012
"36475",496.25275,74.232086,165.95522
"36476",496.26605,74.36149,165.90437
"36477",496.27942,74.48356,165.85023
"36478",496.29272,74.598305,165.79259
"36479",496.3061,74.69596,165.72144
"36480",496.3194,74.77898,165.6387
"36481",496.33276,74.86931,165.56587
"36482",496.34607,75.035324,165.57155
"36483",496.35944,75.43816,165.81924
"36484",496.37274,76.32197,166.56049
"36485",496.3861,77.9675,168.09108
"36486",496.3994,80.5481,170.60817
"36487",496.41278,84.02716,174.10435
"36488",496.4261,88.14099,178.34404
"36489",496.43945,92.44038,182.89783
"36490",496.45276,96.410164,187.25638
"36491",496.46613,99.62066,190.97969
"36492",496.47943,101.81308,193.78526
"36493",496.4928,102.92149,195.57533
"36494",496.5061,103.02403,196.39417
"36495",496.51947,102.294044,196.38368
"36496",496.53278,100.9659,195.75223
"36497",496.54614,99.29107,194.73259
"36498",496.55945,97.49416,193.53853
"36499",496.5728,95.75342,192.34448
"36500",496.58612,94.17868,191.26204
"36501",496.5995,92.806595,190.33304
"36502",496.6128,91.612724,189.53937
"36503",496.62616,90.52628,188.81583
"36504",496.63947,89.478905,188.0974
"36505",496.65283,88.43397,187.34868
"36506",496.66614,87.39391,186.57219
"36507",496.6795,86.397804,185.80714
"36508",496.6928,85.51644,185.12572
"36509",496.70618,84.80354,184.5852
"36510",496.71948,84.28596,184.21773
"36511",496.73285,83.949036,184.01474
"36512",496.74615,83.74883,183.93794
"36513",496.75952,83.614555,183.92082
"36514",496.77283,83.46563,183.88486
"36515",496.7862,83.226364,183.75389
"36516",496.7995,82.83818,183.46654
"36517",496.81287,82.27421,182.99126
"36518",496.82617,81.54665,182.33478
"36519",496.83954,80.68238,181.51884
"36520",496.85284,79.73022,180.58801
"36521",496.8662,78.73655,179.5859
"36522",496.87952,77.75021,178.56009
"36523",496.89288,76.81514,177.5547
"36524",496.9062,75.95819,176.59822
"36525",496.91956,75.194016,175.70773
"36526",496.93286,74.53483,174.89836
"36527",496.94623,73.98306,174.17581
"36528",496.95953,73.53872,173.54344
"36529",496.9729,73.199356,173.00217
"36530",496.9862,72.9601,172.55038
"36531",496.99957,72.80629,172.17657
"36532",497.01288,72.71839,171.86388
"36533",497.02625,72.67689,171.59482
"36534",497.03955,72.672005,171.36108
"36535",497.05292,72.68665,171.14673
"36536",497.06622,72.71839,170.94992
"36537",497.0796,72.76723,170.77121
"36538",497.0929,72.82826,170.60622
"36539",497.10626,72.886856,170.44069
"36540",497.11957,72.938126,170.26967
"36541",497.13293,72.97719,170.08804
"36542",497.14624,73.00404,169.89543
"36543",497.1596,73.01869,169.69145
"36544",497.1729,73.02602,169.4806
"36545",497.18628,73.0309,169.26755
"36546",497.1996,73.02846,169.04732
"36547",497.21295,73.02113,168.82213
"36548",497.22626,73.00893,168.59183
"36549",497.23962,72.99428,168.3587
"36550",497.25293,72.972305,168.1178
"36551",497.2663,72.955215,167.88109
"36552",497.2796,72.94301,167.64873
"36553",497.29297,72.938126,167.42331
"36554",497.30627,72.938126,167.20262
"36555",497.31964,72.94789,166.9917
"36556",497.33295,72.972305,166.79573
"36557",497.3463,73.00893,166.61273
"36558",497.35962,73.060196,166.44553
"36559",497.373,73.131,166.29945
"36560",497.3863,73.216446,166.17024
"36561",497.39966,73.31899,166.0608
"36562",497.41296,73.43618,165.96921
"36563",497.42633,73.56313,165.89104
"36564",497.43964,73.69497,165.82172
"36565",497.453,73.82437,165.75409
"36566",497.4663,73.953766,165.69049
"36567",497.47968,74.07828,165.62605
"36568",497.49298,74.195465,165.55818
"36569",497.50635,74.302895,165.48422
"36570",497.51965,74.40543,165.40872
"36571",497.53302,74.529945,165.3584
"36572",497.54633,74.78142,165.43893
"36573",497.5597,75.36736,165.8618
"36574",497.573,76.56855,166.91821
"36575",497.58636,78.63889,168.88132
"36576",497.59967,81.66628,171.86617
"36577",497.61304,85.50912,175.76108
"36578",497.62634,89.80362,180.22774
"36579",497.6397,94.032196,184.76268
"36580",497.653,97.6968,188.86578
"36581",497.66638,100.42878,192.15079
"36582",497.6797,102.05966,194.42007
"36583",497.69305,102.58701,195.6368
"36584",497.70636,102.149994,195.90562
"36585",497.71973,100.963455,195.41127
"36586",497.73303,99.27398,194.3769
"36587",497.7464,97.33547,193.04071
"36588",497.7597,95.35058,191.59755
"36589",497.77307,93.470665,190.19734
"36590",497.78638,91.776306,188.92393
"36591",497.79974,90.27238,187.78801
"36592",497.81305,88.93202,186.76866
"36593",497.82642,87.70641,185.82217
"36594",497.83972,86.58091,184.9375
"36595",497.8531,85.557945,184.1202
"36596",497.8664,84.67902,183.41496
"36597",497.87976,83.99542,182.87758
"36598",497.89307,83.54864,182.55565
"36599",497.90643,83.336235,182.45415
"36600",497.91974,83.319145,182.54132
"36601",497.9331,83.42901,182.75491
"36602",497.9464,83.57549,183.00856
"36603",497.95978,83.66338,183.20819
"36604",497.97308,83.612114,183.27141
"36605",497.98645,83.36553,183.13771
"36606",497.99976,82.899216,182.77657
"36607",498.01312,82.22781,182.19577
"36608",498.02643,81.38552,181.4231
"36609",498.0398,80.430916,180.5118
"36610",498.0531,79.42504,179.5194
"36611",498.06647,78.42161,178.49799
"36612",498.07977,77.467,177.49405
"36613",498.09314,76.59052,176.5384
"36614",498.10645,75.81659,175.65793
"36615",498.1198,75.15495,174.86555
"36616",498.13312,74.60807,174.16727
"36617",498.14648,74.17105,173.56175
"36618",498.1598,73.83658,173.04512
"36619",498.17316,73.58755,172.60349
"36620",498.18646,73.409325,172.22487
"36621",498.19983,73.29214,171.90172
"36622",498.21313,73.22865,171.62862
"36623",498.2265,73.21156,171.39992
"36624",498.2398,73.233536,171.20975
"36625",498.25317,73.28481,171.04958
"36626",498.26648,73.35561,170.91052
"36627",498.27985,73.43862,170.78589
"36628",498.29315,73.52651,170.66873
"36629",498.30652,73.61196,170.55188
"36630",498.31982,73.6852,170.42549
"36631",498.3332,73.74868,170.29163
"36632",498.3465,73.797516,170.14511
"36633",498.35986,73.82681,169.98058
"36634",498.37317,73.8439,169.80475
"36635",498.38654,73.85123,169.61969
"36636",498.39984,73.846344,169.42265
"36637",498.4132,73.82681,169.21082
"36638",498.4265,73.79996,168.99104
"36639",498.43988,73.76822,168.76555
"36640",498.4532,73.73159,168.53418
"36641",498.46655,73.70229,168.30899
"36642",498.47986,73.673,168.08289
"36643",498.49323,73.65591,167.86807
"36644",498.50653,73.651024,167.66493
"36645",498.5199,73.66079,167.47629
"36646",498.5332,73.68032,167.29771
"36647",498.54657,73.7145,167.1344
"36648",498.55988,73.760895,166.98438
"36649",498.57324,73.81705,166.84555
"36650",498.58655,73.88785,166.72313
"36651",498.5999,73.968414,166.61269
"36652",498.61322,74.06363,166.51941
"36653",498.6266,74.16373,166.43399
"36654",498.6399,74.268715,166.3566
"36655",498.65326,74.37614,166.28491
"36656",498.66656,74.476234,166.20926
"36657",498.67993,74.564125,166.12453
"36658",498.69324,74.64469,166.03522
"36659",498.7066,74.71793,165.9411
"36660",498.7199,74.8156,165.8737
"36661",498.73328,75.03288,165.92897
"36662",498.74658,75.577324,166.31819
"36663",498.75995,76.72236,167.32501
"36664",498.77325,78.71946,169.21968
"36665",498.78662,81.65896,172.11916
"36666",498.79993,85.40902,175.92107
"36667",498.8133,89.59365,180.27473
"36668",498.8266,93.71969,184.70058
"36669",498.83997,97.27932,188.68895
"36670",498.85327,99.91852,191.86813
"36671",498.86664,101.471275,194.04335
"36672",498.87994,101.95224,195.1953
"36673",498.8933,101.48592,195.415
"36674",498.90662,100.27009,194.87059
"36675",498.91998,98.53422,193.76816
"36676",498.9333,96.50782,192.32095
"36677",498.94666,94.39597,190.72498
"36678",498.95996,92.34272,189.1216
"36679",498.97333,90.4213,187.58589
"36680",498.98663,88.66102,186.15128
"36681",499,87.06676,184.82767
"36682",499.0133,85.63607,183.61781
"36683",499.02667,84.39582,182.5537
"36684",499.03998,83.39483,181.69008
"36685",499.05334,82.684364,181.08571
"36686",499.06665,82.303505,180.78874
"36687",499.08002,82.2449,180.80212
"36688",499.09332,82.46464,181.09201
"36689",499.1067,82.865036,181.56943
"36690",499.12,83.33868,182.1326
"36691",499.13336,83.77081,182.66907
"36692",499.14667,84.04425,183.06035
"36693",499.16003,84.085754,183.22824
"36694",499.17334,83.85626,183.12643
"36695",499.1867,83.36797,182.75865
"36696",499.2,82.652626,182.14856
"36697",499.21338,81.77127,181.3501
"36698",499.22668,80.78737,180.42155
"36699",499.24005,79.76196,179.42076
"36700",499.25336,78.74387,178.39523
"36701",499.26672,77.77951,177.39162
"36702",499.28003,76.90059,176.4433
"36703",499.2934,76.11688,175.56273
"36704",499.3067,75.44305,174.76755
"36705",499.32007,74.87175,174.05385
"36706",499.33337,74.40299,173.42484
"36707",499.34674,74.02457,172.8715
"36708",499.36005,73.73403,172.39424
"36709",499.3734,73.51919,171.98358
"36710",499.38672,73.38003,171.64189
"36711",499.4001,73.3019,171.35689
"36712",499.4134,73.27993,171.1256
"36713",499.42676,73.29946,170.93512
"36714",499.44006,73.358055,170.78432
"36715",499.45343,73.43862,170.65732
"36716",499.46674,73.53628,170.54993
"36717",499.4801,73.64126,170.45291
"36718",499.4934,73.75601,170.36896
"36719",499.50677,73.87076,170.28857
"36720",499.52008,73.97818,170.20445
"36721",499.53345,74.07828,170.11636
"36722",499.54675,74.16617,170.0192
"36723",499.56012,74.23453,169.90524
"36724",499.57343,74.2736,169.76414
"36725",499.5868,74.29801,169.6096
"36726",499.6001,74.30045,169.43385
"36727",499.61346,74.288246,169.24353
"36728",499.62677,74.26627,169.04306
"36729",499.64014,74.24429,168.8419
"36730",499.65344,74.22232,168.64006
"36731",499.6668,74.20035,168.43753
"36732",499.6801,74.17105,168.22699
"36733",499.69348,74.13931,168.01309
"36734",499.7068,74.09781,167.78844
"36735",499.72015,74.04898,167.55516
"36736",499.73346,73.99039,167.3106
"36737",499.74683,73.934235,167.06664
"36738",499.76013,73.9025,166.84534
"36739",499.7735,73.95865,166.71094
"36740",499.7868,74.251625,166.81512
"36741",499.80017,75.02312,167.40698
"36742",499.81348,76.51972,168.74806
"36743",499.82684,78.90013,171.01971
"36744",499.84015,82.127716,174.21292
"36745",499.85352,85.93637,178.08807
"36746",499.86682,89.884186,182.2214
"36747",499.8802,93.48287,186.12897
"36748",499.8935,96.31983,189.38727
"36749",499.90686,98.16312,191.74054
"36750",499.92017,98.96147,193.10649
"36751",499.93353,98.80766,193.54523
"36752",499.94684,97.86282,193.18813
"36753",499.9602,96.33936,192.22287
"36754",499.9735,94.452126,190.84624
"36755",499.98688,92.39643,189.24217
"36756",500.00018,90.31632,187.54945
"36757",500.01355,88.29725,185.85277
"36758",500.02686,86.39048,184.20529
"36759",500.04022,84.63264,182.64716
"36760",500.05353,83.053024,181.21231
"36761",500.0669,81.71511,179.9698
"36762",500.0802,80.689705,178.998
"36763",500.09357,80.03784,178.36769
"36764",500.10687,79.79614,178.12717
"36765",500.12024,79.94263,178.26727
"36766",500.13354,80.40894,178.7318
"36767",500.1469,81.07301,179.40865
"36768",500.16022,81.79324,180.16241
"36769",500.17358,82.425575,180.85078
"36770",500.1869,82.85283,181.35384
"36771",500.20026,83.00908,181.59924
"36772",500.21356,82.86748,181.55168
"36773",500.22693,82.44755,181.22136
"36774",500.24023,81.80057,180.65086
"36775",500.2536,80.98268,179.88925
"36776",500.2669,80.05249,178.98978
"36777",500.28027,79.07103,178.00995
"36778",500.29358,78.08469,176.99457
"36779",500.30695,77.134964,175.98499
"36780",500.32025,76.25849,175.01898
"36781",500.33362,75.47234,174.1159
"36782",500.34692,74.78386,173.28593
"36783",500.3603,74.19791,172.53697
"36784",500.3736,73.71938,171.87714
"36785",500.38696,73.3312,171.29268
"36786",500.40027,73.0309,170.78398
"36787",500.41364,72.81117,170.34647
"36788",500.42694,72.6598,169.97044
"36789",500.4403,72.569466,169.65073
"36790",500.4536,72.54017,169.38922
"36791",500.46698,72.56458,169.18051
"36792",500.4803,72.64027,169.02383
"36793",500.49365,72.7599,168.91348
"36794",500.50696,72.90639,168.83371
"36795",500.52032,73.0724,168.77805
"36796",500.53363,73.24574,168.7349
"36797",500.547,73.41421,168.69229
"36798",500.5603,73.57778,168.65005
"36799",500.57367,73.72915,168.60072
"36800",500.58698,73.86832,168.54393
"36801",500.60034,73.985504,168.4695
"36802",500.61365,74.08072,168.37675
"36803",500.627,74.14908,168.26013
"36804",500.64032,74.19058,168.11879
"36805",500.6537,74.20767,167.95433
"36806",500.667,74.21011,167.77576
"36807",500.68036,74.19791,167.58261
"36808",500.69366,74.16861,167.372
"36809",500.70703,74.11734,167.13849
"36810",500.72034,74.03433,166.87164
"36811",500.7337,73.92691,166.57779
"36812",500.747,73.8024,166.26349
"36813",500.76038,73.67544,165.94286
"36814",500.77368,73.61196,165.68173
"36815",500.78705,73.74868,165.61882
"36816",500.80035,74.31022,165.985
"36817",500.81372,75.56512,167.06209
"36818",500.82703,77.70138,169.05975
"36819",500.8404,80.70435,171.99089
"36820",500.8537,84.33723,175.64578
"36821",500.86707,88.182495,179.62659
"36822",500.88037,91.747,183.4468
"36823",500.89374,94.61814,186.68503
"36824",500.90704,96.55421,189.07791
"36825",500.9204,97.49416,190.53519
"36826",500.93372,97.50393,191.09164
"36827",500.94708,96.722664,190.85738
"36828",500.9604,95.326164,189.98346
"36829",500.97375,93.507286,188.64352
"36830",500.98706,91.44427,187.00261
"36831",501.00043,89.28115,185.19713
"36832",501.01373,87.113144,183.31915
"36833",501.0271,85.00618,181.43448
"36834",501.0404,83.02617,179.61092
"36835",501.05377,81.24391,177.92323
"36836",501.06708,79.75708,176.47528
"36837",501.08044,78.675514,175.38612
"36838",501.09375,78.09689,174.76611
"36839",501.10712,78.07004,174.67978
"36840",501.12042,78.555885,175.10532
"36841",501.1338,79.4519,175.95619
"36842",501.1471,80.584724,177.07188
"36843",501.16046,81.76395,178.26938
"36844",501.17377,82.80644,179.367
"36845",501.18713,83.577934,180.2262
"36846",501.20044,84.00275,180.76282
"36847",501.2138,84.06622,180.95139
"36848",501.2271,83.78546,180.7977
"36849",501.24048,83.211716,180.34225
"36850",501.25378,82.41337,179.64427
"36851",501.26715,81.461205,178.76753
"36852",501.28046,80.42359,177.77559
"36853",501.29382,79.361565,176.7268
"36854",501.30713,78.33372,175.679
"36855",501.3205,77.37911,174.67232
"36856",501.3338,76.51972,173.73102
"36857",501.34717,75.77997,172.8825
"36858",501.36047,75.16472,172.13538
"36859",501.37384,74.67399,171.49355
"36860",501.38715,74.302895,170.95601
"36861",501.4005,74.04166,170.51674
"36862",501.41382,73.8732,170.16208
"36863",501.4272,73.78287,169.88028
"36864",501.4405,73.763336,169.66646
"36865",501.45386,73.797516,169.50574
"36866",501.46716,73.865875,169.38026
"36867",501.48053,73.94888,169.27158
"36868",501.49384,74.02945,169.16304
"36869",501.5072,74.09781,169.04482
"36870",501.5205,74.141754,168.90431
"36871",501.53387,74.16861,168.7481
"36872",501.54718,74.19791,168.59515
"36873",501.56055,74.28092,168.49686
"36874",501.57385,74.53239,168.5696
"36875",501.58722,75.140305,169.00665
"36876",501.60052,76.32441,170.0389
"36877",501.6139,78.22629,171.82591
"36878",501.6272,80.833755,174.37794
"36879",501.64056,83.94415,177.5144
"36880",501.65387,87.218124,180.91164
"36881",501.66724,90.245514,184.1646
"36882",501.68054,92.67475,186.914
"36883",501.6939,94.293434,188.92877
"36884",501.7072,95.03563,190.11763
"36885",501.72058,94.9453,190.49716
"36886",501.7339,94.13229,190.1512
"36887",501.74725,92.76753,189.22807
"36888",501.76056,91.01213,187.87166
"36889",501.77393,89.024796,186.22845
"36890",501.78723,86.922714,184.4084
"36891",501.8006,84.78645,182.48848
"36892",501.8139,82.68925,180.54085
"36893",501.82727,80.70435,178.64
"36894",501.84058,78.93187,176.88953
"36895",501.85394,77.4963,175.42058
"36896",501.86725,76.53193,174.37796
"36897",501.8806,76.13641,173.87407
"36898",501.89392,76.3415,173.95842
"36899",501.9073,77.083694,174.58629
"36900",501.9206,78.21652,175.62798
"36901",501.93396,79.53979,176.89551
"36902",501.94727,80.833755,178.1751
"36903",501.96063,81.91043,179.27783
"36904",501.97394,82.652626,180.07973
"36905",501.9873,83.00664,180.51663
"36906",502.0006,82.967575,180.57153
"36907",502.01398,82.579384,180.27608
"36908",502.02728,81.91287,179.69017
"36909",502.04065,81.04616,178.88324
"36910",502.05396,80.05005,177.91983
"36911",502.06732,79.00267,176.87402
"36912",502.08063,77.960175,175.80035
"36913",502.094,76.978714,174.75514
"36914",502.1073,76.085144,173.76715
"36915",502.12067,75.31121,172.87088
"36916",502.13397,74.67399,172.08713
"36917",502.14734,74.17349,171.4202
"36918",502.16064,73.8024,170.86702
"36919",502.174,73.53628,170.40723
"36920",502.18732,73.35073,170.01968
"36921",502.20068,73.21156,169.67273
"36922",502.214,73.1017,169.35072
"36923",502.22736,73.006485,169.03993
"36924",502.24066,72.938126,168.75302
"36925",502.25403,72.935684,168.52989
"36926",502.26733,73.12367,168.49712
"36927",502.2807,73.70229,168.86086
"36928",502.294,74.91081,169.87257
"36929",502.30737,76.91524,171.71796
"36930",502.32068,79.7058,174.41212
"36931",502.33405,83.06767,177.7648
"36932",502.34735,86.6273,181.42029
"36933",502.36072,89.94522,184.94531
"36934",502.37402,92.630806,187.94168
"36935",502.3874,94.466774,190.17236
"36936",502.4007,95.379875,191.53755
"36937",502.41406,95.42382,192.06212
"36938",502.42737,94.7158,191.83609
"36939",502.44073,93.42184,191.002
"36940",502.45404,91.71282,189.71242
"36941",502.4674,89.75479,188.1204
"36942",502.4807,87.67956,186.35
"36943",502.49408,85.57259,184.48303
"36944",502.5074,83.49981,182.5844
"36945",502.52075,81.52712,180.72108
"36946",502.53406,79.74975,178.99144
"36947",502.54742,78.28489,177.51875
"36948",502.56073,77.25704,176.4373
"36949",502.5741,76.76875,175.8633
"36950",502.5874,76.859085,175.85265
"36951",502.60077,77.46456,176.35997
"36952",502.61407,78.450905,177.26707
"36953",502.62744,79.63256,178.40031
"36954",502.64075,80.80446,179.56073
"36955",502.6541,81.78592,180.56734
"36956",502.66742,82.45487,181.2921
"36957",502.6808,82.74296,181.6569
"36958",502.6941,82.64774,181.64742
"36959",502.70746,82.20096,181.28337
"36960",502.72076,81.47585,180.62704
"36961",502.73413,80.550545,179.74786
"36962",502.74744,79.51049,178.72502
"36963",502.7608,78.42893,177.62816
"36964",502.7741,77.37179,176.52191
"36965",502.78748,76.387886,175.45587
"36966",502.80078,75.51629,174.47139
"36967",502.81415,74.776535,173.59152
"36968",502.82745,74.175934,172.82768
"36969",502.84082,73.704735,172.17448
"36970",502.85413,73.34585,171.61887
"36971",502.8675,73.06996,171.13504
"36972",502.8808,72.85756,170.70607
"36973",502.89417,72.691536,170.31685
"36974",502.90747,72.57191,169.96883
"36975",502.92084,72.535286,169.70007
"36976",502.93414,72.7013,169.63281
"36977",502.9475,73.29214,169.99556
"36978",502.96082,74.547035,171.04083
"36979",502.97418,76.6247,172.94809
"36980",502.9875,79.51049,175.7284
"36981",503.00085,82.9749,179.1775
"36982",503.01416,86.62241,182.91798
"36983",503.02753,89.99405,186.49657
"36984",503.04083,92.70405,189.51888
"36985",503.0542,94.53513,191.74696
"36986",503.0675,95.414055,193.08011
"36987",503.08087,95.41161,193.55936
"36988",503.09418,94.659645,193.289
"36989",503.10754,93.33883,192.4263
"36990",503.12085,91.64446,191.14877
"36991",503.13422,89.74746,189.61566
"36992",503.14752,87.784546,187.95735
"36993",503.1609,85.83139,186.24747
"36994",503.1742,83.93927,184.53758
"36995",503.18756,82.15213,182.87355
"36996",503.20087,80.52857,181.31725
"36997",503.21423,79.166245,179.97144
"36998",503.22754,78.16281,178.94194
"36999",503.2409,77.61349,178.3352
"37000",503.2542,77.55245,178.19958
"37001",503.26758,77.95041,178.52106
"37002",503.28088,78.69016,179.19676
"37003",503.29425,79.62035,180.08601
"37004",503.30756,80.55787,181.01166
"37005",503.32092,81.33425,181.80548
"37006",503.33423,81.832306,182.34523
"37007",503.3476,81.986115,182.5563
"37008",503.3609,81.77127,182.40353
"37009",503.37427,81.231705,181.91933
"37010",503.38757,80.428474,181.15459
"37011",503.40094,79.447014,180.18652
"37012",503.41425,78.3679,179.09012
"37013",503.4276,77.27413,177.94534
"37014",503.44092,76.22919,176.81522
"37015",503.45428,75.28924,175.75743
"37016",503.4676,74.478676,174.79965
"37017",503.48096,73.81949,173.96793
"37018",503.49426,73.31655,173.27185
"37019",503.50763,72.95766,172.7041
"37020",503.52094,72.71595,172.24232
"37021",503.5343,72.5597,171.85844
"37022",503.5476,72.44984,171.51607
"37023",503.56097,72.36927,171.19955
"37024",503.57428,72.30579,170.89761
"37025",503.58765,72.31068,170.66205
"37026",503.60095,72.50599,170.61707
"37027",503.61432,73.11635,170.99324
"37028",503.62762,74.3859,172.04768
"37029",503.641,76.4831,173.96944
"37030",503.6543,79.395744,176.77217
"37031",503.66766,82.9041,180.26164
"37032",503.68097,86.607765,184.05606
"37033",503.69434,90.040436,187.69522
"37034",503.70764,92.80171,190.77026
"37035",503.721,94.66209,193.03069
"37036",503.7343,95.553215,194.38
"37037",503.74768,95.553215,194.86604
"37038",503.761,94.80858,194.60745
"37039",503.77435,93.521935,193.78357
"37040",503.78766,91.90326,192.58745
"37041",503.80103,90.13809,191.19426
"37042",503.81433,88.358284,189.73126
"37043",503.8277,86.641945,188.27612
"37044",503.841,85.01106,186.8528
"37045",503.85437,83.47295,185.47128
"37046",503.86768,82.039825,184.14668
"37047",503.88104,80.76784,182.93845
"37048",503.89435,79.73022,181.92482
"37049",503.9077,79.01488,181.20105
"37050",503.92102,78.67307,180.82846
"37051",503.9344,78.70725,180.82117
"37052",503.9477,79.044174,181.11769
"37053",503.96106,79.571526,181.61517
"37054",503.97437,80.14526,182.17552
"37055",503.98773,80.621346,182.65614
"37056",504.00104,80.88014,182.93436
"37057",504.0144,80.850845,182.93257
"37058",504.0277,80.51148,182.6198
"37059",504.04108,79.888916,182.01321
"37060",504.05438,79.04173,181.16257
"37061",504.06775,78.0383,180.12918
"37062",504.08105,76.961624,178.9912
"37063",504.09442,75.877625,177.81224
"37064",504.10773,74.844894,176.65068
"37065",504.1211,73.91226,175.55695
"37066",504.1344,73.11635,174.57079
"37067",504.14777,72.46937,173.7087
"37068",504.16107,71.98108,172.98508
"37069",504.17444,71.65392,172.40733
"37070",504.18774,71.465935,171.95853
"37071",504.2011,71.38537,171.61127
"37072",504.21442,71.38293,171.33961
"37073",504.22778,71.42687,171.11427
"37074",504.2411,71.483025,170.90251
"37075",504.25446,71.52697,170.6803
"37076",504.26776,71.5465,170.43504
"37077",504.28113,71.54162,170.16599
"37078",504.29443,71.56359,169.92363
"37079",504.3078,71.7467,169.8431
"37080",504.3211,72.31556,170.15404
"37081",504.33447,73.531395,171.12973
"37082",504.34778,75.579765,172.97595
"37083",504.36115,78.45335,175.7114
"37084",504.37445,81.94217,179.15189
"37085",504.38782,85.64095,182.91136
"37086",504.40112,89.08095,186.52763
"37087",504.4145,91.85687,189.58734
"37088",504.4278,93.72701,191.828
"37089",504.44116,94.63035,193.16031
"37090",504.45447,94.64744,193.6346
"37091",504.46783,93.94675,193.39163
"37092",504.48114,92.73579,192.6165
"37093",504.4945,91.23674,191.51544
"37094",504.5078,89.635155,190.265
"37095",504.52118,88.07019,189.00113
"37096",504.5345,86.60044,187.78357
"37097",504.54785,85.22835,186.61774
"37098",504.56116,83.931946,185.48473
"37099",504.57452,82.69413,184.36978
"37100",504.58783,81.52224,183.28209
"37101",504.6012,80.479744,182.28717
"37102",504.6145,79.64233,181.46475
"37103",504.62787,79.08568,180.89693
"37104",504.64117,78.84398,180.62665
"37105",504.65454,78.89281,180.63934
"37106",504.66785,79.14671,180.85864
"37107",504.6812,79.4934,181.17867
"37108",504.69452,79.801025,181.47046
"37109",504.7079,79.95972,181.62292
"37110",504.7212,79.886475,181.54843
"37111",504.73456,79.554436,181.21284
"37112",504.74786,78.97093,180.61542
"37113",504.76123,78.18234,179.79466
"37114",504.77454,77.24971,178.80522
"37115",504.7879,76.243835,177.7134
"37116",504.8012,75.23064,176.58281
"37117",504.81458,74.268715,175.47185
"37118",504.82788,73.39712,174.42114
"37119",504.84125,72.64515,173.46283
"37120",504.85455,72.02991,172.61775
"37121",504.86792,71.55871,171.89749
"37122",504.88123,71.22423,171.29922
"37123",504.8946,71.01915,170.8199
"37124",504.9079,70.923935,170.44403
"37125",504.92126,70.91905,170.15552
"37126",504.93457,70.98009,169.93277
"37127",504.94794,71.08995,169.76076
"37128",504.96124,71.22667,169.61903
"37129",504.9746,71.3756,169.4938
"37130",504.9879,71.52697,169.37566
"37131",505.00128,71.67834,169.26224
"37132",505.0146,71.81995,169.1438
"37133",505.02795,71.95178,169.02
"37134",505.04126,72.06897,168.88568
"37135",505.05463,72.16907,168.73793
"37136",505.06793,72.24719,168.57133
"37137",505.0813,72.28626,168.36813
"37138",505.0946,72.288704,168.12952
"37139",505.10797,72.24231,167.84215
"37140",505.12128,72.15198,167.50938
"37141",505.13464,72.025024,167.13718
"37142",505.14795,71.92981,166.79274
"37143",505.16132,72.02258,166.63332
"37144",505.17462,72.56458,166.92603
"37145",505.188,73.85367,167.98276
"37146",505.2013,76.08026,170.01727
"37147",505.21466,79.22728,173.0418
"37148",505.22797,83.02617,176.81653
"37149",505.24133,87.027695,180.91263
"37150",505.25464,90.70939,184.81393
"37151",505.268,93.64889,188.0881
"37152",505.2813,95.61669,190.48244
"37153",505.29468,96.5713,191.92506
"37154",505.30798,96.60792,192.47954
"37155",505.32135,95.90967,192.3003
"37156",505.33466,94.710915,191.59872
"37157",505.34802,93.23872,190.58624
"37158",505.36133,91.69817,189.4594
"37159",505.3747,90.23819,188.36497
"37160",505.388,88.919815,187.36655
"37161",505.40137,87.728386,186.45386
"37162",505.41467,86.60532,185.57231
"37163",505.42804,85.504234,184.67764
"37164",505.44135,84.4007,183.74612
"37165",505.4547,83.33868,182.82162
"37166",505.46802,82.38651,181.9738
"37167",505.48138,81.634544,181.29642
"37168",505.4947,81.13405,180.847
"37169",505.50806,80.89235,180.64075
"37170",505.52136,80.867935,180.64423
"37171",505.53473,80.972916,180.77634
"37172",505.54803,81.10231,180.93614
"37173",505.5614,81.1487,181.01698
"37174",505.5747,81.024185,180.92838
"37175",505.58807,80.68482,180.62102
"37176",505.60138,80.12329,180.08089
"37177",505.61475,79.36889,179.33034
"37178",505.62805,78.47532,178.41704
"37179",505.64142,77.503624,177.39769
"37180",505.65472,76.51484,176.33089
"37181",505.6681,75.562675,175.2698
"37182",505.6814,74.686195,174.25465
"37183",505.69476,73.91226,173.31467
"37184",505.70807,73.270164,172.48233
"37185",505.72144,72.76723,171.76909
"37186",505.73474,72.40101,171.17685
"37187",505.7481,72.164185,170.70256
"37188",505.7614,72.03967,170.33318
"37189",505.77478,72.00305,170.04779
"37190",505.7881,72.03235,169.82718
"37191",505.80145,72.10315,169.64899
"37192",505.81476,72.198364,169.49742
"37193",505.82812,72.30335,169.35861
"37194",505.84143,72.40833,169.22307
"37195",505.8548,72.498665,169.07616
"37196",505.8681,72.57191,168.91498
"37197",505.88147,72.6305,168.74144
"37198",505.89478,72.66956,168.5502
"37199",505.90814,72.69398,168.34554
"37200",505.92145,72.7013,168.12454
"37201",505.9348,72.69886,167.89401
"37202",505.94812,72.691536,167.65852
"37203",505.9615,72.67933,167.41792
"37204",505.9748,72.65736,167.16718
"37205",505.98816,72.63538,166.91574
"37206",506.00146,72.61341,166.66362
"37207",506.01483,72.589,166.40837
"37208",506.02814,72.56458,166.15236
"37209",506.0415,72.552376,165.90779
"37210",506.0548,72.54505,165.66772
"37211",506.06818,72.54505,165.43475
"37212",506.08148,72.56214,165.21887
"37213",506.09485,72.59388,165.01817
"37214",506.10815,72.64515,164.838
"37215",506.12152,72.71107,164.67407
"37216",506.13483,72.79164,164.52687
"37217",506.1482,72.8893,164.39926
"37218",506.1615,73.0016,164.28935
"37219",506.17487,73.12367,164.19272
"37220",506.18817,73.253075,164.10724
"37221",506.20154,73.38979,164.03311
"37222",506.21484,73.52651,163.96326
"37223",506.2282,73.65591,163.89035
"37224",506.24152,73.7731,163.8093
"37225",506.25488,73.87808,163.71968
"37226",506.2682,73.96353,163.61382
"37227",506.28156,74.06363,163.52527
"37228",506.29486,74.285805,163.56194
"37229",506.30823,74.85954,163.9571
"37230",506.32153,76.0827,165.01962
"37231",506.3349,78.19943,167.01393
"37232",506.3482,81.26589,170.02412
"37233",506.36157,85.101395,173.89919
"37234",506.37488,89.29824,178.25545
"37235",506.38824,93.32906,182.57684
"37236",506.40155,96.71534,186.37965
"37237",506.41492,99.159225,189.34589
"37238",506.42822,100.558174,191.34357
"37239",506.4416,100.9659,192.39374
"37240",506.4549,100.543526,192.62656
"37241",506.46826,99.49859,192.2236
"37242",506.48157,98.06546,191.39981
"37243",506.49493,96.47608,190.37497
"37244",506.50824,94.91112,189.32489
"37245",506.5216,93.4902,188.36993
"37246",506.5349,92.25483,187.55614
"37247",506.54828,91.175705,186.85997
"37248",506.56158,90.16739,186.2009
"37249",506.57495,89.1664,185.51764
"37250",506.58826,88.13855,184.77625
"37251",506.60162,87.10826,184.00029
"37252",506.61493,86.13901,183.25317
"37253",506.6283,85.30648,182.61249
"37254",506.6416,84.67902,182.15086
"37255",506.65497,84.27863,181.8967
"37256",506.66827,84.08087,181.83264
"37257",506.68164,84.01495,181.89426
"37258",506.69495,84.00275,182.00752
"37259",506.7083,83.94171,182.07158
"37260",506.72162,83.73907,181.99211
"37261",506.735,83.33868,181.70857
"37262",506.7483,82.72587,181.2001
"37263",506.76166,81.917755,180.47717
"37264",506.77496,80.96071,179.58006
"37265",506.78833,79.923096,178.57248
"37266",506.80164,78.86107,177.50806
"37267",506.815,77.83078,176.44217
"37268",506.8283,76.87129,175.41489
"37269",506.84167,76.016785,174.4626
"37270",506.85498,75.284355,173.6057
"37271",506.86835,74.69108,172.86505
"37272",506.88165,74.23453,172.2426
"37273",506.89502,73.90494,171.73283
"37274",506.90833,73.69741,171.33484
"37275",506.9217,73.58755,171.02802
"37276",506.935,73.5436,170.78368
"37277",506.94836,73.548485,170.58679
"37278",506.96167,73.57778,170.41447
"37279",506.97504,73.62173,170.25772
"37280",506.98834,73.66079,170.09746
"37281",507.0017,73.69497,169.93353
"37282",507.015,73.721825,169.76335
"37283",507.02838,73.73647,169.5818
"37284",507.0417,73.741356,169.39095
"37285",507.05505,73.73159,169.1856
"37286",507.06836,73.71206,168.97017
"37287",507.08173,73.67544,168.73705
"37288",507.09503,73.62661,168.49057
"37289",507.1084,73.568016,168.2328
"37290",507.1217,73.5021,167.96588
"37291",507.13507,73.4313,167.69202
"37292",507.14838,73.36294,167.41838
"37293",507.16174,73.304344,167.15237
"37294",507.17505,73.255516,166.8943
"37295",507.18842,73.216446,166.64447
"37296",507.20172,73.19447,166.4105
"37297",507.2151,73.18715,166.1905
"37298",507.2284,73.19447,165.98492
"37299",507.24176,73.21156,165.78934
"37300",507.25507,73.24574,165.61137
"37301",507.26843,73.29214,165.4467
"37302",507.28174,73.35561,165.30055
"37303",507.2951,73.43374,165.17104
"37304",507.3084,73.52651,165.05861
"37305",507.32178,73.62661,164.9564
"37306",507.33508,73.72915,164.85977
"37307",507.34845,73.829254,164.76392
"37308",507.36176,73.917145,164.65897
"37309",507.37512,73.987946,164.53967
"37310",507.38843,74.039215,164.40306
"37311",507.4018,74.110016,164.28758
"37312",507.4151,74.29557,164.28908
"37313",507.42847,74.793625,164.60887
"37314",507.44177,75.87274,165.52528
"37315",507.45514,77.75998,167.28354
"37316",507.46844,80.52369,169.97725
"37317",507.4818,84.02716,173.49709
"37318",507.49512,87.923706,177.51949
"37319",507.50848,91.74944,181.59283
"37320",507.5218,95.05272,185.26328
"37321",507.53516,97.530785,188.21173
"37322",507.54846,99.04448,190.27325
"37323",507.56183,99.613335,191.43726
"37324",507.57513,99.35943,191.79626
"37325",507.5885,98.47318,191.515
"37326",507.6018,97.16701,190.78612
"37327",507.61517,95.658195,189.81378
"37328",507.62848,94.13229,188.77719
"37329",507.64185,92.7187,187.80522
"37330",507.65515,91.476006,186.95999
"37331",507.66852,90.389565,186.23218
"37332",507.68182,89.40078,185.56807
"37333",507.6952,88.43885,184.89992
"37334",507.7085,87.464714,184.1895
"37335",507.72186,86.48081,183.43887
"37336",507.73517,85.540855,182.70145
"37337",507.74854,84.71809,182.05183
"37338",507.76184,84.08331,181.5645
"37339",507.7752,83.67803,181.28682
"37340",507.7885,83.48272,181.20645
"37341",507.80188,83.441216,181.27379
"37342",507.8152,83.47051,181.41063
"37343",507.82855,83.47051,181.51909
"37344",507.84186,83.336235,181.49327
"37345",507.85522,83.0164,181.2777
"37346",507.86853,82.48661,180.84216
"37347",507.8819,81.77127,180.20453
"37348",507.8952,80.907,179.39561
"37349",507.90857,79.94507,178.46204
"37350",507.92188,78.94652,177.46176
"37351",507.93524,77.95529,176.4376
"37352",507.94855,77.01045,175.42886
"37353",507.9619,76.14862,174.4736
"37354",507.97522,75.39422,173.59885
"37355",507.9886,74.76433,172.82503
"37356",508.0019,74.26383,172.16092
"37357",508.01526,73.89029,171.60812
"37358",508.02856,73.63882,171.16573
"37359",508.04193,73.48745,170.81557
"37360",508.05524,73.40688,170.53148
"37361",508.0686,73.38247,170.30103
"37362",508.0819,73.392235,170.10399
"37363",508.09528,73.426414,169.93167
"37364",508.10858,73.4728,169.77263
"37365",508.12195,73.52407,169.61992
"37366",508.13525,73.568016,169.46149
"37367",508.14862,73.60952,169.30199
"37368",508.16193,73.636375,169.12914
"37369",508.1753,73.64614,168.94003
"37370",508.1886,73.64614,168.74147
"37371",508.20197,73.63882,168.53558
"37372",508.21527,73.616844,168.31482
"37373",508.22864,73.58755,168.08604
"37374",508.24194,73.55093,167.84903
"37375",508.2553,73.50698,167.60355
"37376",508.26862,73.463036,167.35669
"37377",508.28198,73.41421,167.10358
"37378",508.2953,73.36294,166.8465
"37379",508.30865,73.30923,166.58537
"37380",508.32196,73.26284,166.3299
"37381",508.33533,73.22865,166.08517
"37382",508.34863,73.214005,165.85892
"37383",508.362,73.22133,165.65417
"37384",508.3753,73.255516,165.47653
"37385",508.38867,73.306786,165.31703
"37386",508.40198,73.375145,165.17622
"37387",508.41534,73.45327,165.04732
"37388",508.42865,73.5436,164.93306
"37389",508.44202,73.63882,164.8265
"37390",508.45532,73.73647,164.72537
"37391",508.4687,73.83414,164.6273
"37392",508.482,73.92447,164.52495
"37393",508.49536,74.00748,164.41809
"37394",508.50867,74.0856,164.30894
"37395",508.52203,74.16861,164.20712
"37396",508.53534,74.319984,164.17627
"37397",508.5487,74.69108,164.36986
"37398",508.562,75.52361,165.03648
"37399",508.57538,77.069046,166.44203
"37400",508.58868,79.483635,168.76503
"37401",508.60205,82.73075,171.996
"37402",508.61536,86.56138,175.91197
"37403",508.62872,90.548256,180.1039
"37404",508.64203,94.2153,184.10057
"37405",508.6554,97.16945,187.49895
"37406",508.6687,99.1812,190.04724
"37407",508.68207,100.19928,191.66473
"37408",508.69537,100.29206,192.38875
"37409",508.70874,99.630424,192.36124
"37410",508.72205,98.42924,191.7735
"37411",508.7354,96.920425,190.8406
"37412",508.74872,95.309074,189.75803
"37413",508.7621,93.753876,188.68124
"37414",508.7754,92.35737,187.71454
"37415",508.78876,91.141525,186.88486
"37416",508.80206,90.06485,186.15636
"37417",508.81543,89.05409,185.46013
"37418",508.82874,88.05554,184.74452
"37419",508.8421,87.047226,183.98795
"37420",508.8554,86.06088,183.22183
"37421",508.86877,85.16487,182.51523
"37422",508.88208,84.44953,181.96129
"37423",508.89545,83.96124,181.61205
"37424",508.90875,83.70733,181.48192
"37425",508.92212,83.64141,181.53186
"37426",508.93542,83.69512,181.69937
"37427",508.9488,83.76105,181.88077
"37428",508.9621,83.74395,181.9812
"37429",508.97546,83.560844,181.9151
"37430",508.98877,83.17021,181.63574
"37431",509.00214,82.55985,181.12445
"37432",509.01544,81.761505,180.4061
"37433",509.0288,80.831314,179.53096
"37434",509.0421,79.82788,178.55351
"37435",509.05548,78.8098,177.53006
"37436",509.0688,77.82834,176.5114
"37437",509.08215,76.910355,175.52554
"37438",509.09546,76.09003,174.60866
"37439",509.10883,75.38445,173.7809
"37440",509.12213,74.80583,173.05804
"37441",509.1355,74.35172,172.44162
"37442",509.1488,74.02457,171.93796
"37443",509.16217,73.80728,171.53394
"37444",509.17548,73.68276,171.2159
"37445",509.18884,73.619286,170.955
"37446",509.20215,73.61196,170.74828
"37447",509.2155,73.636375,170.57306
"37448",509.22882,73.67788,170.4157
"37449",509.2422,73.73159,170.27184
"37450",509.2555,73.79019,170.13455
"37451",509.26886,73.84146,169.99176
"37452",509.28217,73.882965,169.8408
"37453",509.29553,73.91226,169.67894
"37454",509.30884,73.93179,169.50822
"37455",509.3222,73.936676,169.32347
"37456",509.3355,73.92447,169.12178
"37457",509.34888,73.900055,168.9075
"37458",509.36218,73.86099,168.67781
"37459",509.37555,73.812164,168.43713
"37460",509.38885,73.75845,168.19005
"37461",509.40222,73.70718,167.94373
"37462",509.41553,73.65835,167.69824
"37463",509.4289,73.61196,167.45367
"37464",509.4422,73.5729,167.21498
"37465",509.45557,73.53872,166.97995
"37466",509.46887,73.51675,166.75606
"37467",509.48224,73.50942,166.54613
"37468",509.49554,73.52163,166.3555
"37469",509.5089,73.55825,166.18967
"37470",509.52222,73.619286,166.0494
"37471",509.53558,73.69741,165.92812
"37472",509.5489,73.795074,165.82883
"37473",509.56226,73.90982,165.74966
"37474",509.57556,74.03433,165.68385
"37475",509.58893,74.16617,165.62926
"37476",509.60223,74.29801,165.5788
"37477",509.6156,74.42985,165.53244
"37478",509.6289,74.55436,165.48288
"37479",509.64227,74.66178,165.42012
"37480",509.65558,74.76433,165.35585
"37481",509.66895,74.90349,165.33139
"37482",509.68225,75.1989,165.46753
"37483",509.69562,75.87274,165.99133
"37484",509.70892,77.19356,167.18317
"37485",509.7223,79.35912,169.26103
"37486",509.7356,82.39628,172.27815
"37487",509.74896,86.13168,176.08844
"37488",509.76227,90.177155,180.32553
"37489",509.77563,94.05661,184.52303
"37490",509.78894,97.32571,188.23138
"37491",509.8023,99.69634,191.14345
"37492",509.8156,101.04402,193.10664
"37493",509.82898,101.39803,194.11829
"37494",509.8423,100.89754,194.28648
"37495",509.85565,99.7525,193.7945
"37496",509.86896,98.197296,192.85655
"37497",509.88232,96.46876,191.69669
"37498",509.89563,94.74998,190.49255
"37499",509.909,93.16792,189.37143
"37500",509.9223,91.776306,188.39131
"37501",509.93567,90.56779,187.5508
"37502",509.94897,89.4667,186.77995
"37503",509.96234,88.411995,186.02109
"37504",509.97565,87.3695,185.24147
"37505",509.989,86.346535,184.4488
"37506",510.00232,85.39437,183.69498
"37507",510.0157,84.58137,183.05055
"37508",510.029,83.97101,182.58336
"37509",510.04236,83.5877,182.32414
"37510",510.05566,83.40948,182.25804
"37511",510.06903,83.37774,182.33286
"37512",510.08234,83.407036,182.46771
"37513",510.0957,83.39971,182.56686
"37514",510.109,83.267876,182.54128
"37515",510.12238,82.95293,182.32845
"37516",510.13568,82.42802,181.89581
"37517",510.14905,81.71023,181.2539
"37518",510.16235,80.833755,180.43088
"37519",510.17572,79.85718,179.48036
"37520",510.18903,78.84154,178.46027
"37521",510.2024,77.838104,177.42062
"37522",510.2157,76.88838,176.40334
"37523",510.22906,76.02411,175.44182
"37524",510.24237,75.27215,174.56561
"37525",510.25574,74.64225,173.78796
"37526",510.26904,74.13199,173.11028
"37527",510.2824,73.7438,172.53871
"37528",510.29572,73.46792,172.06732
"37529",510.30908,73.28237,171.67764
"37530",510.3224,73.18227,171.36761
"37531",510.33575,73.145645,171.11794
"37532",510.34906,73.15297,170.91106
"37533",510.36243,73.18715,170.73126
"37534",510.37573,73.23598,170.56718
"37535",510.3891,73.289696,170.40953
"37536",510.4024,73.338524,170.24866
"37537",510.41577,73.38979,170.09175
"37538",510.42908,73.43374,169.92912
"37539",510.44244,73.46792,169.7581
"37540",510.45575,73.49233,169.57838
"37541",510.46912,73.50698,169.38966
"37542",510.48242,73.50942,169.1892
"37543",510.4958,73.49966,168.9766
"37544",510.5091,73.48257,168.75636
"37545",510.52246,73.45327,168.52339
"37546",510.53577,73.41421,168.27974
"37547",510.54913,73.37026,168.02998
"37548",510.56244,73.32876,167.7813
"37549",510.5758,73.29214,167.5362
"37550",510.5891,73.26284,167.29727
"37551",510.60248,73.24574,167.06964
"37552",510.61578,73.23842,166.85124
"37553",510.62915,73.23842,166.63994
"37554",510.64246,73.253075,166.4433
"37555",510.65582,73.28237,166.26175
"37556",510.66913,73.32876,166.0982
"37557",510.6825,73.392235,165.9532
"37558",510.6958,73.47036,165.82483
"37559",510.70917,73.56313,165.71355
"37560",510.72247,73.66323,165.61249
"37561",510.73584,73.7731,165.52434
"37562",510.74915,73.89517,165.45181
"37563",510.7625,74.022125,165.38799
"37564",510.77582,74.15152,165.33057
"37565",510.78918,74.2736,165.26988
"37566",510.8025,74.37858,165.1959
"37567",510.81586,74.47135,165.113
"37568",510.82916,74.5568,165.02568
"37569",510.84253,74.666664,164.96544
"37570",510.85583,74.91081,165.04292
"37571",510.8692,75.51629,165.48936
"37572",510.8825,76.76387,166.59683
"37573",510.89587,78.905014,168.63684
"37574",510.90918,82.02518,171.72278
"37575",510.92255,85.97543,175.73633
"37576",510.93585,90.38224,180.32986
"37577",510.94922,94.730446,185.00252
"37578",510.96252,98.51713,189.24953
"37579",510.9759,101.37606,192.68712
"37580",510.9892,103.13878,195.11784
"37581",511.00256,103.800415,196.50256
"37582",511.01587,103.48058,196.9265
"37583",511.02924,102.38926,196.56894
"37584",511.04254,100.77547,195.65482
"37585",511.0559,98.89555,194.42413
"37586",511.0692,96.97414,193.0932
"37587",511.08258,95.17479,191.8243
"37588",511.0959,93.58541,190.70914
"37589",511.10925,92.21576,189.76402
"37590",511.12256,91.00969,188.9397
"37591",511.13593,89.89395,188.16801
"37592",511.14923,88.80263,187.38588
"37593",511.1626,87.7235,186.58183
"37594",511.1759,86.68589,185.78558
"37595",511.18927,85.76059,185.06921
"37596",511.20258,85.00618,184.49483
"37597",511.21594,84.46906,184.11415
"37598",511.22925,84.14923,183.93398
"37599",511.2426,84.00275,183.91716
"37600",511.25592,83.95392,183.99342
"37601",511.2693,83.91974,184.08281
"37602",511.2826,83.79767,184.08324
"37603",511.29596,83.509575,183.91382
"37604",511.30927,83.021286,183.5352
