"","Time..s.","PPG.trace","Preprocessed.PPG"
"51823",703.5051,81.86893,181.64194
"51824",703.51843,82.08865,181.92007
"51825",703.53174,82.06424,181.96094
"51826",703.54504,81.85428,181.81549
"51827",703.55835,81.549095,181.56825
"51828",703.57166,81.2195,181.28706
"51829",703.58496,80.92653,181.03221
"51830",703.59827,80.69703,180.83167
"51831",703.6116,80.53101,180.68744
"51832",703.6249,80.40406,180.57709
"51833",703.6382,80.291756,180.47742
"51834",703.6515,80.181885,180.37666
"51835",703.6648,80.0647,180.26517
"51836",703.6781,79.957275,180.15976
"51837",703.6914,79.87427,180.07541
"51838",703.7047,79.83276,180.02997
"51839",703.718,79.83032,180.02231
"51840",703.7313,79.852295,180.03897
"51841",703.7446,79.87915,180.06122
"51842",703.75793,79.88403,180.06232
"51843",703.77124,79.85718,180.03183
"51844",703.78455,79.79126,179.96146
"51845",703.79785,79.69848,179.86215
"51846",703.81116,79.5935,179.74774
"51847",703.82446,79.48852,179.63005
"51848",703.83777,79.3933,179.51884
"51849",703.8511,79.310295,179.41687
"51850",703.8644,79.237045,179.32207
"51851",703.8777,79.17113,179.2323
"51852",703.891,79.114975,179.15024
"51853",703.9043,79.06615,179.07375
"51854",703.9176,79.029526,179.00793
"51855",703.9309,79.00023,178.9483
"51856",703.9442,78.97337,178.8902
"51857",703.9575,78.95628,178.84102
"51858",703.9708,78.941635,178.79375
"51859",703.98413,78.92943,178.74846
"51860",703.99744,78.924545,178.71011
"51861",704.01074,78.92943,178.68138
"51862",704.02405,78.93919,178.65768
"51863",704.03735,78.9514,178.63673
"51864",704.05066,78.96849,178.62105
"51865",704.06396,78.9807,178.60101
"51866",704.0773,78.98558,178.57404
"51867",704.0906,78.98558,178.54233
"51868",704.1039,78.975815,178.50085
"51869",704.1172,78.96117,178.4542
"51870",704.1305,78.9514,178.41196
"51871",704.1438,78.9807,178.40848
"51872",704.1571,79.097885,178.4938
"51873",704.1704,79.3518,178.71953
"51874",704.1837,79.764404,179.11188
"51875",704.197,80.29664,179.63675
"51876",704.2103,80.87038,180.21976
"51877",704.22363,81.373314,180.7499
"51878",704.23694,81.71023,181.12973
"51879",704.25024,81.83475,181.3077
"51880",704.26355,81.76395,181.29424
"51881",704.27686,81.549095,181.1345
"51882",704.29016,81.26833,180.90216
"51883",704.30347,80.98512,180.65858
"51884",704.3168,80.73609,180.44034
"51885",704.3301,80.54322,180.27048
"51886",704.3434,80.39918,180.14342
"51887",704.3567,80.28687,180.0436
"51888",704.37,80.181885,179.94757
"51889",704.3833,80.079346,179.85071
"51890",704.3966,79.974365,179.7482
"51891",704.4099,79.88159,179.65463
"51892",704.4232,79.818115,179.58746
"51893",704.4365,79.7937,179.55737
"51894",704.4498,79.81079,179.56802
"51895",704.46313,79.85474,179.60605
"51896",704.47644,79.906006,179.65277
"51897",704.48975,79.9353,179.67914
"51898",704.50305,79.93042,179.67224
"51899",704.51636,79.886475,179.62613
"51900",704.52966,79.80591,179.54202
"51901",704.54297,79.708244,179.4383
"51902",704.5563,79.61059,179.33151
"51903",704.5696,79.52514,179.23389
"51904",704.5829,79.45434,179.14824
"51905",704.5962,79.395744,179.07259
"51906",704.6095,79.34203,178.99998
"51907",704.6228,79.29809,178.93547
"51908",704.6361,79.25414,178.86958
"51909",704.6494,79.21263,178.80476
"51910",704.6627,79.18089,178.74841
"51911",704.676,79.16136,178.70328
"51912",704.68933,79.151596,178.6673
"51913",704.70264,79.149155,178.63834
"51914",704.71594,79.15648,178.61906
"51915",704.72925,79.166245,178.60246
"51916",704.74255,79.17601,178.58617
"51917",704.75586,79.183334,178.56773
"51918",704.76917,79.18822,178.54709
"51919",704.7825,79.18822,178.52171
"51920",704.7958,79.18822,178.49634
"51921",704.8091,79.183334,178.46608
"51922",704.8224,79.17113,178.42834
"51923",704.8357,79.15892,178.39023
"51924",704.849,79.14183,178.34685
"51925",704.8623,79.12718,178.30537
"51926",704.8756,79.12962,178.28053
"51927",704.8889,79.200424,178.32413
"51928",704.9022,79.398186,178.4969
"51929",704.9155,79.75952,178.83943
"51930",704.92883,80.26978,179.34218
"51931",704.94214,80.86549,179.94632
"51932",704.95544,81.43679,180.54466
"51933",704.96875,81.87137,181.02414
"51934",704.98206,82.09354,181.3048
"51935",704.99536,82.09598,181.37267
"51936",705.00867,81.9324,181.2746
"51937",705.022,81.671165,181.07375
"51938",705.0353,81.38308,180.83789
"51939",705.0486,81.13161,180.62964
"51940",705.0619,80.936295,180.4697
"51941",705.0752,80.80202,180.36469
"51942",705.0885,80.70191,180.28964
"51943",705.1018,80.60914,180.21881
"51944",705.1151,80.499275,180.12799
"51945",705.1284,80.365,180.00932
"51946",705.1417,80.21362,179.86935
"51947",705.155,80.07202,179.73444
"51948",705.16833,79.96216,179.62683
"51949",705.18164,79.89868,179.56216
"51950",705.19495,79.87671,179.53702
"51951",705.20825,79.87915,179.53561
"51952",705.22156,79.88159,179.53427
"51953",705.23486,79.871826,179.52081
"51954",705.24817,79.84009,179.48508
"51955",705.2615,79.78638,179.42636
"51956",705.2748,79.72045,179.35376
"51957",705.2881,79.65209,179.27666
"51958",705.3014,79.57885,179.19254
"51959",705.3147,79.50561,179.10612
"51960",705.328,79.432365,179.01743
"51961",705.3413,79.364006,178.93132
"51962",705.3546,79.30053,178.84796
"51963",705.3679,79.24681,178.77238
"51964",705.3812,79.21263,178.71466
"51965",705.39453,79.19066,178.66808
"51966",705.40784,79.17601,178.62813
"51967",705.42114,79.17357,178.59993
"51968",705.43445,79.17845,178.57898
"51969",705.44775,79.17845,178.5533
"51970",705.46106,79.17357,178.52274
"51971",705.47437,79.166245,178.48958
"51972",705.4877,79.166245,178.46352
"51973",705.501,79.17357,178.44478
"51974",705.5143,79.183334,178.42871
"51975",705.5276,79.19798,178.41783
"51976",705.5409,79.202866,178.39764
"51977",705.5542,79.19798,178.36784
"51978",705.5675,79.183334,178.32812
"51979",705.5808,79.168686,178.28795
"51980",705.5941,79.15648,178.24976
"51981",705.6074,79.15892,178.22583
"51982",705.6207,79.17113,178.21175
"51983",705.63403,79.18822,178.20293
"51984",705.64734,79.200424,178.18976
"51985",705.66064,79.20531,178.16965
"51986",705.67395,79.200424,178.13992
"51987",705.68726,79.19066,178.10516
"51988",705.70056,79.17357,178.06277
"51989",705.71387,79.1638,178.02718
"51990",705.7272,79.166245,178.00348
"51991",705.7405,79.21263,178.0238
"51992",705.7538,79.34936,178.13593
"51993",705.7671,79.63256,178.39879
"51994",705.7804,80.08179,178.83653
"51995",705.7937,80.66285,179.42015
"51996",705.807,81.29275,180.07077
"51997",705.8203,81.8616,180.68002
"51998",705.8336,82.25712,181.13371
"51999",705.8469,82.42802,181.37515
"52000",705.8602,82.38407,181.40709
"52001",705.87354,82.18387,181.28139
"52002",705.88684,81.898224,181.064
"52003",705.90015,81.600365,180.82545
"52004",705.91345,81.3489,180.62401
"52005",705.92676,81.16823,180.48549
"52006",705.94006,81.05348,180.40726
"52007",705.95337,80.98024,180.36694
"52008",705.9667,80.91432,180.33167
"52009",705.98,80.816666,180.26259
"52010",705.9933,80.67994,180.15138
"52011",706.0066,80.52125,180.01395
"52012",706.0199,80.35767,179.86667
"52013",706.0332,80.22095,179.74112
"52014",706.0465,80.130615,179.65768
"52015",706.0598,80.079346,179.6105
"52016",706.0731,80.05737,179.591
"52017",706.0864,80.045166,179.5806
"52018",706.09973,80.028076,179.56491
"52019",706.11304,79.9939,179.53162
"52020",706.12634,79.940186,179.47772
"52021",706.13965,79.86694,179.40262
"52022",706.15295,79.77905,179.31058
"52023",706.16626,79.68627,179.21089
"52024",706.17957,79.59106,179.10587
"52025",706.1929,79.500725,179.00275
"52026",706.2062,79.41772,178.90413
"52027",706.2195,79.3518,178.82
"52028",706.2328,79.29565,178.74359
"52029",706.2461,79.25414,178.68007
"52030",706.2594,79.22484,178.62746
"52031",706.2727,79.202866,178.58125
"52032",706.286,79.183334,178.5368
"52033",706.2993,79.168686,178.49663
"52034",706.3126,79.15892,178.46088
"52035",706.3259,79.151596,178.42726
"52036",706.33923,79.14183,178.39098
"52037",706.35254,79.13695,178.35927
"52038",706.36584,79.132065,178.32741
"52039",706.37915,79.13451,178.30272
"52040",706.39246,79.13695,178.2781
"52041",706.40576,79.14671,178.2609
"52042",706.41907,79.15648,178.24399
"52043",706.4324,79.15892,178.22006
"52044",706.4457,79.15404,178.18889
"52045",706.459,79.13939,178.1478
"52046",706.4723,79.11986,178.10136
"52047",706.4856,79.10033,178.05432
"52048",706.4989,79.09056,178.01643
"52049",706.5122,79.08568,177.98312
"52050",706.5255,79.09056,177.95943
"52051",706.5388,79.097885,177.93832
"52052",706.5521,79.10521,177.91745
"52053",706.5654,79.11009,177.89436
"52054",706.57874,79.10765,177.8641
"52055",706.59204,79.10765,177.83621
"52056",706.60535,79.10765,177.80832
"52057",706.61865,79.10765,177.78043
"52058",706.63196,79.12474,177.76962
"52059",706.64526,79.19554,177.81306
"52060",706.65857,79.378654,177.97104
"52061",706.6719,79.72289,178.29585
"52062",706.6852,80.24048,178.80478
"52063",706.6985,80.88014,179.45197
"52064",706.7118,81.53445,180.13377
"52065",706.7251,82.08377,180.73105
"52066",706.7384,82.41581,181.1282
"52067",706.7517,82.493935,181.28183
"52068",706.765,82.34745,181.21329
"52069",706.7783,82.054474,180.99367
"52070",706.7916,81.69802,180.70142
"52071",706.80493,81.35378,180.41025
"52072",706.81824,81.07301,180.17178
"52073",706.83154,80.87038,180.00269
"52074",706.84485,80.73365,179.89316
"52075",706.85815,80.638435,179.82088
"52076",706.87146,80.5481,179.7505
"52077",706.88477,80.448006,179.66754
"52078",706.8981,80.33326,179.5668
"52079",706.9114,80.21118,179.45514
"52080",706.9247,80.1062,179.35675
"52081",706.938,80.028076,179.28195
"52082",706.9513,79.98657,179.24133
"52083",706.9646,79.96948,179.22382
"52084",706.9779,79.96948,179.22287
"52085",706.9912,79.971924,179.22437
"52086",707.0045,79.971924,179.22348
"52087",707.0178,79.96216,179.21283
"52088",707.0311,79.93286,179.18234
"52089",707.04443,79.88403,179.13141
"52090",707.05774,79.80835,179.0521
"52091",707.07104,79.71557,178.95332
"52092",707.08435,79.61547,178.84433
"52093",707.09766,79.51537,178.73221
"52094",707.11096,79.432365,178.63405
"52095",707.12427,79.36889,178.55283
"52096",707.1376,79.32494,178.48915
"52097",707.1509,79.29565,178.43875
"52098",707.1642,79.27123,178.39232
"52099",707.1775,79.24925,178.34756
"52100",707.1908,79.22728,178.30212
"52101",707.2041,79.20775,178.25844
"52102",707.2174,79.19554,178.22147
"52103",707.2307,79.19554,178.19632
"52104",707.244,79.202866,178.1785
"52105",707.2573,79.217514,178.16823
"52106",707.2706,79.23216,178.15842
"52107",707.28394,79.24193,178.14418
"52108",707.29724,79.24193,178.12048
"52109",707.31055,79.23949,178.09435
"52110",707.32385,79.23216,178.06325
"52111",707.33716,79.22484,178.03192
"52112",707.35046,79.217514,178.00037
"52113",707.3638,79.21019,177.96858
"52114",707.3771,79.200424,177.93413
"52115",707.3904,79.18822,177.89693
"52116",707.4037,79.17845,177.86179
"52117",707.417,79.166245,177.8239
"52118",707.4303,79.16136,177.79295
"52119",707.4436,79.15892,177.7643
"52120",707.4569,79.15892,177.738
"52121",707.4702,79.15892,177.71172
"52122",707.4835,79.15892,177.68542
"52123",707.4968,79.1638,177.66402
"52124",707.51013,79.200424,177.6745
"52125",707.52344,79.327385,177.77647
"52126",707.53674,79.605705,178.03377
"52127",707.55005,80.06714,178.48288
"52128",707.56335,80.6775,179.09534
"52129",707.57666,81.341576,179.7806
"52130",707.58997,81.9324,180.41335
"52131",707.6033,82.33524,180.87657
"52132",707.6166,82.48905,181.10336
"52133",707.6299,82.408485,181.10059
"52134",707.6432,82.15701,180.92438
"52135",707.6565,81.81766,180.65244
"52136",707.6698,81.45632,180.3479
"52137",707.6831,81.12428,180.06137
"52138",707.6964,80.850845,179.82307
"52139",707.7097,80.6482,179.64702
"52140",707.723,80.49439,179.51347
"52141",707.7363,80.377205,179.41174
"52142",707.74963,80.28199,179.32832
"52143",707.76294,80.20386,179.259
"52144",707.77625,80.14526,179.20679
"52145",707.78955,80.11841,179.18448
"52146",707.80286,80.128174,179.19794
"52147",707.81616,80.16235,179.23611
"52148",707.82947,80.21118,179.29001
"52149",707.8428,80.25269,179.33812
"52150",707.8561,80.274666,179.368
"52151",707.8694,80.26734,179.36926
"52152",707.8827,80.23071,179.34099
"52153",707.896,80.16235,179.27985
"52154",707.9093,80.06714,179.1897
"52155",707.9226,79.95239,179.07706
"52156",707.9359,79.82788,178.95105
"52157",707.9492,79.70336,178.82115
"52158",707.9625,79.5935,178.70201
"52159",707.9758,79.500725,178.59653
"52160",707.98914,79.429924,178.51012
"52161",708.00244,79.38354,178.4459
"52162",708.01575,79.3518,178.3949
"52163",708.02905,79.33715,178.35999
"52164",708.04236,79.32983,178.33194
"52165",708.05566,79.33471,178.31587
"52166",708.069,79.344475,178.30484
"52167",708.0823,79.35912,178.299
"52168",708.0956,79.37133,178.29117
"52169",708.1089,79.38354,178.28372
"52170",708.1222,79.39086,178.27177
"52171",708.1355,79.39086,178.25273
"52172",708.1488,79.381096,178.22392
"52173",708.1621,79.36889,178.19237
"52174",708.1754,79.35424,178.15799
"52175",708.1887,79.34203,178.1256
"52176",708.202,79.327385,178.09038
"52177",708.21533,79.31762,178.05959
"52178",708.22864,79.30297,178.0236
"52179",708.24194,79.28832,177.98717
"52180",708.25525,79.26635,177.94295
"52181",708.26855,79.23949,177.89316
"52182",708.28186,79.21019,177.84009
"52183",708.29517,79.1931,177.79831
"52184",708.3085,79.2224,177.80238
"52185",708.3218,79.35668,177.91237
"52186",708.3351,79.64721,178.18279
"52187",708.3484,80.1062,178.63075
"52188",708.3617,80.68726,179.21513
"52189",708.375,81.30251,179.85187
"52190",708.3883,81.832306,180.42236
"52191",708.4016,82.176544,180.82387
"52192",708.4149,82.29374,181.00908
"52193",708.4282,82.19119,180.97821
"52194",708.4415,81.934845,180.79034
"52195",708.45483,81.59792,180.51389
"52196",708.46814,81.25613,180.22203
"52197",708.48145,80.96315,179.9683
"52198",708.49475,80.7483,179.78355
"52199",708.50806,80.6067,179.66534
"52200",708.52136,80.51881,179.59642
"52201",708.53467,80.45777,179.5516
"52202",708.548,80.394295,179.50244
"52203",708.5613,80.323494,179.44397
"52204",708.5746,80.255135,179.38573
"52205",708.5879,80.2063,179.34486
"52206",708.6012,80.19409,179.33911
"52207",708.6145,80.20874,179.35983
"52208",708.6278,80.24048,179.3981
"52209",708.6411,80.272224,179.43736
"52210",708.6544,80.289314,179.46297
"52211",708.6677,80.274666,179.45737
"52212",708.681,80.235596,179.42688
"52213",708.69434,80.17212,179.37076
"52214",708.70764,80.093994,179.298
"52215",708.72095,80.0061,179.21304
"52216",708.73425,79.91089,179.11801
"52217",708.74756,79.80835,179.0127
"52218",708.76086,79.708244,178.9066
"52219",708.7742,79.605705,178.79494
"52220",708.7875,79.51537,178.69228
"52221",708.8008,79.447014,178.60876
"52222",708.8141,79.3933,178.53777
"52223",708.8274,79.35424,178.47974
"52224",708.8407,79.32494,178.43025
"52225",708.854,79.29809,178.3823
"52226",708.8673,79.27123,178.3335
"52227",708.8806,79.24681,178.2863
"52228",708.8939,79.2224,178.23834
"52229",708.9072,79.20775,178.19939
"52230",708.92053,79.202866,178.16974
"52231",708.93384,79.20775,178.1497
"52232",708.94714,79.217514,178.1347
"52233",708.96045,79.22972,178.12245
"52234",708.97375,79.24437,178.11302
"52235",708.98706,79.25414,178.09918
"52236",709.00037,79.27123,178.09296
"52237",709.0137,79.290764,178.0897
"52238",709.027,79.31762,178.09439
"52239",709.0403,79.34692,178.10236
"52240",709.0536,79.37621,178.11124
"52241",709.0669,79.40063,178.11615
"52242",709.0802,79.415276,178.11206
"52243",709.0935,79.41772,178.09622
"52244",709.1068,79.412834,178.07314
"52245",709.1201,79.40063,178.04257
"52246",709.1334,79.40795,178.03116
"52247",709.1467,79.483635,178.08833
"52248",709.16003,79.68627,178.27483
"52249",709.17334,80.06958,178.64833
"52250",709.18665,80.63355,179.21448
"52251",709.19995,81.31228,179.91301
"52252",709.21326,81.99588,180.63762
"52253",709.22656,82.55985,181.26396
"52254",709.23987,82.899216,181.68332
"52255",709.2532,82.98222,181.85693
"52256",709.2665,82.84062,181.80853
"52257",709.2798,82.533,181.58968
"52258",709.2931,82.14725,181.28308
"52259",709.3064,81.75174,180.95468
"52260",709.3197,81.39773,180.65541
"52261",709.333,81.12428,180.42564
"52262",709.3463,80.94118,180.27768
"52263",709.3596,80.82399,180.18991
"52264",709.3729,80.743416,180.13509
"52265",709.3862,80.6775,180.0924
"52266",709.39954,80.59937,180.03546
"52267",709.41284,80.51148,179.96631
"52268",709.42615,80.428474,179.89929
"52269",709.43945,80.35767,179.84189
"52270",709.45276,80.31373,179.80913
"52271",709.46606,80.291756,179.79697
"52272",709.4794,80.28443,179.79877
"52273",709.4927,80.27955,179.80278
"52274",709.506,80.26734,179.79932
"52275",709.5193,80.22827,179.7686
"52276",709.5326,80.164795,179.71225
"52277",709.5459,80.07446,179.62708
"52278",709.5592,79.96216,179.51709
"52279",709.5725,79.84009,179.39383
"52280",709.5858,79.72045,179.2692
"52281",709.5991,79.605705,179.1457
"52282",709.6124,79.50317,179.03084
"52283",709.62573,79.412834,178.92497
"52284",709.63904,79.33471,178.82849
"52285",709.65234,79.26635,178.73933
"52286",709.66565,79.20531,178.65536
"52287",709.67896,79.151596,178.57681
"52288",709.69226,79.10765,178.50635
"52289",709.70557,79.07591,178.44672
"52290",709.7189,79.05638,178.3983
"52291",709.7322,79.05394,178.36636
"52292",709.7455,79.05882,178.34167
"52293",709.7588,79.06615,178.31958
"52294",709.7721,79.07103,178.29527
"52295",709.7854,79.06615,178.26135
"52296",709.7987,79.05882,178.22484
"52297",709.812,79.05394,178.19054
"52298",709.8253,79.061264,178.16829
"52299",709.8386,79.07591,178.1536
"52300",709.8519,79.097885,178.14668
"52301",709.86523,79.11986,178.14046
"52302",709.87854,79.13695,178.13004
"52303",709.89185,79.14427,178.11038
"52304",709.90515,79.14427,178.08363
"52305",709.91846,79.14183,178.05444
"52306",709.93176,79.13695,178.02274
"52307",709.94507,79.13939,177.9982
"52308",709.9584,79.14427,177.97618
"52309",709.9717,79.14671,177.95187
"52310",709.985,79.14183,177.92032
"52311",709.9983,79.12962,177.88129
"52312",710.0116,79.12474,177.8492
"52313",710.0249,79.17845,177.87555
"52314",710.0382,79.36889,178.04031
"52315",710.0515,79.74975,178.40144
"52316",710.0648,80.325935,178.9698
"52317",710.0781,81.03151,179.68556
"52318",710.09143,81.74929,180.43558
"52319",710.10474,82.337685,181.07864
"52320",710.11804,82.69413,181.50815
"52321",710.13135,82.78203,181.68024
"52322",710.14465,82.63798,181.62312
"52323",710.15796,82.337685,181.40527
"52324",710.17126,81.95438,181.09502
"52325",710.1846,81.56374,180.76546
"52326",710.1979,81.20973,180.46031
"52327",710.2112,80.919205,180.2076
"52328",710.2245,80.70191,180.01903
"52329",710.2378,80.552986,179.89204
"52330",710.2511,80.45289,179.80923
"52331",710.2644,80.38209,179.7526
"52332",710.2777,80.325935,179.70839
"52333",710.291,80.28443,179.67708
"52334",710.3043,80.25269,179.65424
"52335",710.3176,80.23804,179.64748
"52336",710.33093,80.24292,179.65979
"52337",710.34424,80.26246,179.68692
"52338",710.35754,80.27711,179.70978
"52339",710.37085,80.28443,179.72577
"52340",710.38416,80.26734,179.71758
"52341",710.39746,80.22339,179.68198
"52342",710.41077,80.147705,179.61328
"52343",710.4241,80.05005,179.52023
"52344",710.4374,79.9353,179.40704
"52345",710.4507,79.818115,179.28784
"52346",710.464,79.70092,179.16496
"52347",710.4773,79.5935,179.04819
"52348",710.4906,79.49828,178.94026
"52349",710.5039,79.42504,178.85133
"52350",710.5172,79.36889,178.7772
"52351",710.5305,79.32983,178.71841
"52352",710.5438,79.30785,178.67549
"52353",710.5571,79.29809,178.64409
"52354",710.57043,79.293205,178.61726
"52355",710.58374,79.293205,178.59517
"52356",710.59705,79.30297,178.58284
"52357",710.61035,79.31274,178.57082
"52358",710.62366,79.32006,178.55666
"52359",710.63696,79.327385,178.54272
"52360",710.65027,79.32983,178.52414
"52361",710.6636,79.32494,178.4983
"52362",710.6769,79.327385,178.47964
"52363",710.6902,79.33715,178.46838
"52364",710.7035,79.3518,178.46231
"52365",710.7168,79.36889,178.45914
"52366",710.7301,79.38842,178.45894
"52367",710.7434,79.40307,178.45447
"52368",710.7567,79.40795,178.44069
"52369",710.77,79.40551,178.41974
"52370",710.7833,79.40307,178.39871
"52371",710.79663,79.40063,178.37761
"52372",710.80994,79.395744,178.35399
"52373",710.82324,79.3933,178.33266
"52374",710.83655,79.38842,178.3088
"52375",710.84985,79.381096,178.28236
"52376",710.86316,79.38598,178.2679
"52377",710.87646,79.4519,178.31462
"52378",710.8898,79.65453,178.50012
"52379",710.9031,80.045166,178.87996
"52380",710.9164,80.62379,179.45999
"52381",710.9297,81.32693,180.18263
"52382",710.943,82.039825,180.937
"52383",710.9563,82.62821,181.58913
"52384",710.9696,82.98711,182.03015
"52385",710.9829,83.07744,182.21384
"52386",710.9962,82.93828,182.17085
"52387",711.0095,82.63065,181.95505
"52388",711.0228,82.23514,181.64174
"52389",711.03613,81.815216,181.29167
"52390",711.04944,81.42458,180.95776
"52391",711.06274,81.094986,180.67268
"52392",711.07605,80.84108,180.453
"52393",711.08936,80.65797,180.29617
"52394",711.10266,80.52613,180.1849
"52395",711.11597,80.43336,180.10858
"52396",711.1293,80.36256,180.05133
"52397",711.1426,80.31129,180.0114
"52398",711.1559,80.27955,179.9894
"52399",711.1692,80.27711,179.9957
"52400",711.1825,80.2942,180.02145
"52401",711.1958,80.323494,180.05995
"52402",711.2091,80.34058,180.08716
"52403",711.2224,80.33814,180.09537
"52404",711.2357,80.306404,180.0742
"52405",711.249,80.24292,180.0203
"52406",711.2623,80.15259,179.93756
"52407",711.27563,80.04761,179.83734
"52408",711.28894,79.940186,179.73141
"52409",711.30225,79.83276,179.62213
"52410",711.31555,79.727776,179.51192
"52411",711.32886,79.62524,179.40086
"52412",711.34216,79.517815,179.28172
"52413",711.35547,79.412834,179.16167
"52414",711.3688,79.32006,179.05054
"52415",711.3821,79.24193,178.95116
"52416",711.3954,79.185776,178.8713
"52417",711.4087,79.15404,178.81412
"52418",711.422,79.13695,178.77058
"52419",711.4353,79.12718,178.73384
"52420",711.4486,79.11986,178.69923
"52421",711.4619,79.11009,178.66196
"52422",711.4752,79.10033,178.62437
"52423",711.4885,79.08812,178.58405
"52424",711.50183,79.080795,178.54822
"52425",711.51514,79.07347,178.51216
"52426",711.52844,79.06615,178.47588
"52427",711.54175,79.05394,178.43448
"52428",711.55505,79.03685,178.38782
"52429",711.56836,79.0222,178.34306
"52430",711.58167,79.00511,178.29541
"52431",711.595,78.99779,178.25699
"52432",711.6083,79.00267,178.23055
"52433",711.6216,79.01732,178.21402
"52434",711.6349,79.03197,178.19795
"52435",711.6482,79.05394,178.18967
"52436",711.6615,79.07347,178.17963
"52437",711.6748,79.08568,178.16287
"52438",711.6881,79.09056,178.13918
"52439",711.7014,79.08568,178.10587
"52440",711.7147,79.078354,178.06996
"52441",711.728,79.093,178.0558
"52442",711.74133,79.1931,178.12755
"52443",711.75464,79.44457,178.3538
"52444",711.76794,79.89136,178.78323
"52445",711.78125,80.516365,179.40485
"52446",711.79456,81.24147,180.14609
"52447",711.80786,81.94705,180.89047
"52448",711.82117,82.496376,181.50064
"52449",711.8345,82.79668,181.87895
"52450",711.8478,82.83086,182.00053
"52451",711.8611,82.62821,181.88635
"52452",711.8744,82.26444,181.60472
"52453",711.8877,81.8201,181.23114
"52454",711.901,81.36355,180.83147
"52455",711.9143,80.953384,180.46391
"52456",711.9276,80.621346,180.16167
"52457",711.9409,80.37965,179.93939
"52458",711.9542,80.216064,179.78767
"52459",711.9675,80.10864,179.68701
"52460",711.98083,80.03784,179.6196
"52461",711.99414,79.98657,179.56952
"52462",712.00745,79.954834,179.53735
"52463",712.02075,79.94751,179.52863
"52464",712.03406,79.96948,179.54895
"52465",712.04736,80.01343,179.59195
"52466",712.06067,80.06958,179.64853
"52467",712.074,80.12329,179.7044
"52468",712.0873,80.16235,179.74731
"52469",712.1006,80.177,179.76703
"52470",712.1139,80.15747,179.75302
"52471",712.1272,80.10376,179.70422
"52472",712.1405,80.02319,179.62689
"52473",712.1538,79.91821,179.52264
"52474",712.1671,79.801025,179.4029
"52475",712.1804,79.68627,179.28192
"52476",712.1937,79.57885,179.16469
"52477",712.20703,79.48608,179.05875
"52478",712.22034,79.415276,178.97188
"52479",712.23364,79.364006,178.90233
"52480",712.24695,79.327385,178.84583
"52481",712.26025,79.293205,178.79062
"52482",712.27356,79.26147,178.73679
"52483",712.28687,79.234604,178.68684
"52484",712.3002,79.21263,178.64095
"52485",712.3135,79.21263,178.61633
"52486",712.3268,79.22972,178.60881
"52487",712.3401,79.2517,178.60672
"52488",712.3534,79.273674,178.6053
"52489",712.3667,79.28344,178.59236
"52490",712.38,79.27856,178.56508
"52491",712.3933,79.26635,178.53032
"52492",712.4066,79.25414,178.49518
"52493",712.4199,79.24925,178.46698
"52494",712.4332,79.24681,178.44107
"52495",712.44653,79.2517,178.42242
"52496",712.45984,79.2517,178.39903
"52497",712.47314,79.24437,178.36832
"52498",712.48645,79.22972,178.33005
"52499",712.49976,79.21507,178.29132
"52500",712.51306,79.20531,178.25702
"52501",712.52637,79.202866,178.22974
"52502",712.5397,79.20775,178.2097
"52503",712.553,79.21263,178.18982
"52504",712.5663,79.21263,178.1652
"52505",712.5796,79.20775,178.13571
"52506",712.5929,79.2224,178.1256
"52507",712.6062,79.3225,178.2014
"52508",712.6195,79.586174,178.4439
"52509",712.6328,80.05493,178.89972
"52510",712.6461,80.71656,179.56306
"52511",712.6594,81.478294,180.3472
"52512",712.6727,82.210724,181.12582
"52513",712.68604,82.76494,181.74913
"52514",712.69934,83.05791,182.12851
"52515",712.71265,83.075,182.24117
"52516",712.72595,82.86748,182.12975
"52517",712.73926,82.51835,181.87022
"52518",712.75256,82.09354,181.52411
"52519",712.76587,81.66628,181.16228
"52520",712.7792,81.270775,180.81885
"52521",712.7925,80.936295,180.52408
"52522",712.8058,80.66773,180.28477
"52523",712.8191,80.46754,180.10545
"52524",712.8324,80.323494,179.97603
"52525",712.8457,80.22583,179.88847
"52526",712.859,80.17212,179.84183
"52527",712.8723,80.16968,179.84476
"52528",712.8856,80.20874,179.88913
"52529",712.8989,80.27711,179.96402
"52530",712.91223,80.360115,180.0557
"52531",712.92554,80.430916,180.13776
"52532",712.93884,80.47242,180.19273
"52533",712.95215,80.47486,180.20995
"52534",712.96545,80.44068,180.19061
"52535",712.97876,80.37232,180.13603
"52536",712.99207,80.27955,180.0549
"52537",713.0054,80.16968,179.95377
"52538",713.0187,80.045166,179.83456
"52539",713.032,79.91333,179.70413
"52540",713.0453,79.77417,179.56226
"52541",713.0586,79.63744,179.41847
"52542",713.0719,79.51293,179.28262
"52543",713.0852,79.41039,179.16486
"52544",713.0985,79.33227,179.0683
"52545",713.1118,79.28588,179.00104
"52546",713.1251,79.26147,178.9543
"52547",713.1384,79.24681,178.91656
"52548",713.15173,79.237045,178.88326
"52549",713.16504,79.23216,178.85452
"52550",713.17834,79.234604,178.83296
"52551",713.19165,79.24437,178.8188
"52552",713.20496,79.26635,178.81717
"52553",713.21826,79.293205,178.82109
"52554",713.23157,79.31762,178.82341
"52555",713.2449,79.32983,178.81429
"52556",713.2582,79.327385,178.7909
"52557",713.2715,79.31518,178.75766
"52558",713.2848,79.30541,178.72649
"52559",713.2981,79.30297,178.70233
"52560",713.3114,79.30541,178.68298
"52561",713.3247,79.30785,178.66371
"52562",713.338,79.30297,178.63719
"52563",713.3513,79.30053,178.61296
"52564",713.3646,79.33715,178.62772
"52565",713.3779,79.49096,178.7608
"52566",713.39124,79.83032,179.08426
"52567",713.40454,80.36256,179.61119
"52568",713.41785,81.03151,180.29147
"52569",713.43115,81.72976,181.02196
"52570",713.44446,82.31571,181.66197
"52571",713.45776,82.6746,182.09323
"52572",713.47107,82.76982,182.27203
"52573",713.4844,82.63065,182.21942
"52574",713.4977,82.3328,182.00378
"52575",713.511,81.94949,181.69337
"52576",713.5243,81.55398,181.35878
"52577",713.5376,81.19264,181.046
"52578",713.5509,80.89235,180.78299
"52579",713.5642,80.65797,180.57649
"52580",713.5775,80.482185,180.42128
"52581",713.5908,80.34547,180.29964
"52582",713.6041,80.235596,180.20056
"52583",713.61743,80.15259,180.12491
"52584",713.63074,80.09888,180.07596
"52585",713.64404,80.08179,180.06195
"52586",713.65735,80.10132,180.08405
"52587",713.67065,80.147705,180.1336
"52588",713.68396,80.201416,180.19193
"52589",713.69727,80.24292,180.23972
"52590",713.7106,80.26246,180.26685
"52591",713.7239,80.24536,180.25795
"52592",713.7372,80.19165,180.21191
"52593",713.7505,80.1062,180.13245
"52594",713.7638,80.00122,180.03079
"52595",713.7771,79.87671,179.90631
"52596",713.7904,79.74731,179.77306
"52597",713.8037,79.62524,179.64308
"52598",713.817,79.50561,179.51173
"52599",713.8303,79.398186,179.38885
"52600",713.8436,79.30297,179.27483
"52601",713.85693,79.22972,179.1798
"52602",713.87024,79.17845,179.10445
"52603",713.88354,79.149155,179.04947
"52604",713.89685,79.13451,179.00822
"52605",713.91016,79.12962,178.97629
"52606",713.92346,79.12718,178.94664
"52607",713.93677,79.12718,178.91936
"52608",713.9501,79.12962,178.89452
"52609",713.9634,79.13451,178.8722
"52610",713.9767,79.14183,178.85246
"52611",713.99,79.15404,178.83784
"52612",714.0033,79.16136,178.81873
"52613",714.0166,79.16136,178.79251
"52614",714.0299,79.151596,178.75653
"52615",714.0432,79.13451,178.71292
"52616",714.0565,79.10765,178.65901
"52617",714.0698,79.08568,178.60915
"52618",714.0831,79.10033,178.59521
"52619",714.09644,79.202866,178.66963
"52620",714.10974,79.45678,178.89864
"52621",714.12305,79.89624,179.32112
"52622",714.13635,80.499275,179.92091
"52623",714.14966,81.18532,180.62256
"52624",714.16296,81.84207,181.31636
"52625",714.1763,82.34745,181.8793
"52626",714.1896,82.62333,182.22855
"52627",714.2029,82.65751,182.34471
"52628",714.2162,82.49149,182.26175
"52629",714.2295,82.18631,182.03442
"52630",714.2428,81.81033,181.72678
"52631",714.2561,81.42458,181.3976
"52632",714.2694,81.08034,181.09787
"52633",714.2827,80.80446,180.85576
"52634",714.296,80.6067,180.68314
"52635",714.3093,80.47486,180.57027
"52636",714.32263,80.38453,180.49478
"52637",714.33594,80.308846,180.43112
"52638",714.34924,80.235596,180.36752
"52639",714.36255,80.164795,180.30408
"52640",714.37585,80.10376,180.2482
"52641",714.38916,80.0647,180.21237
"52642",714.40247,80.05737,180.20706
"52643",714.4158,80.06958,180.22107
"52644",714.4291,80.09155,180.24521
"52645",714.4424,80.10864,180.26517
"52646",714.4557,80.09888,180.25879
"52647",714.469,80.05737,180.22037
"52648",714.4823,79.97681,180.1416
"52649",714.4956,79.871826,180.03589
"52650",714.5089,79.74731,179.90736
"52651",714.5222,79.62524,179.77739
"52652",714.5355,79.50805,179.64848
"52653",714.5488,79.41039,179.53545
"52654",714.56213,79.3225,179.42912
"52655",714.57544,79.24925,179.3347
"52656",714.58875,79.185776,179.24776
"52657",714.60205,79.13451,179.17104
"52658",714.61536,79.09056,179.10004
"52659",714.62866,79.05882,179.03987
"52660",714.64197,79.03929,178.99092
"52661",714.6553,79.029526,178.95113
"52662",714.6686,79.027084,178.91835
"52663",714.6819,79.03441,178.89526
"52664",714.6952,79.044174,178.87485
"52665",714.7085,79.0515,178.8523
"52666",714.7218,79.05638,178.82753
"52667",714.7351,79.05638,178.79803
"52668",714.7484,79.05638,178.76854
"52669",714.7617,79.05638,178.73904
"52670",714.775,79.061264,178.71443
"52671",714.7883,79.07591,178.69974
"52672",714.80164,79.093,178.68794
"52673",714.81494,79.10033,178.66692
"52674",714.82825,79.10277,178.64124
"52675",714.84155,79.09544,178.60587
"52676",714.85486,79.08568,178.56783
"52677",714.86816,79.07347,178.52704
"52678",714.8815,79.063705,178.48831
"52679",714.8948,79.08812,178.48346
"52680",714.9081,79.20531,178.57214
"52681",714.9214,79.483635,178.82564
"52682",714.9347,79.9646,179.29047
"52683",714.948,80.62623,179.95099
"52684",714.9613,81.38552,180.72986
"52685",714.9746,82.11063,181.49826
"52686",714.9879,82.65507,182.10866
"52687",715.0012,82.93828,182.47484
"52688",715.0145,82.950485,182.57887
"52689",715.02783,82.74052,182.4611
"52690",715.04114,82.38651,182.19275
"52691",715.05444,81.969025,181.84984
"52692",715.06775,81.55154,181.49388
"52693",715.08105,81.18776,181.17859
"52694",715.09436,80.89723,180.92519
"52695",715.10767,80.689705,180.7457
"52696",715.121,80.5481,180.62566
"52697",715.1343,80.445564,180.54025
"52698",715.1476,80.35767,180.4663
"52699",715.1609,80.27711,180.39691
"52700",715.1742,80.19653,180.325
"52701",715.1875,80.12573,180.26035
"52702",715.2008,80.07202,180.21057
"52703",715.2141,80.042725,180.18353
"52704",715.2274,80.03296,180.17511
"52705",715.2407,80.02319,180.16638
"52706",715.254,80.0061,180.15002
"52707",715.26733,79.971924,180.11603
"52708",715.28064,79.91577,180.05899
"52709",715.29395,79.83765,179.97824
"52710",715.30725,79.744865,179.88039
"52711",715.32056,79.64721,179.77475
"52712",715.33386,79.54467,179.66118
"52713",715.34717,79.449455,179.55173
"52714",715.3605,79.35912,179.44418
"52715",715.3738,79.273674,179.3387
"52716",715.3871,79.19554,179.23787
"52717",715.4004,79.12962,179.1468
"52718",715.4137,79.07103,179.061
"52719",715.427,79.02464,178.98558
"52720",715.4403,78.98558,178.91603
"52721",715.4536,78.958725,178.85747
"52722",715.4669,78.941635,178.80783
"52723",715.4802,78.92943,178.76254
"52724",715.4935,78.92699,178.72664
"52725",715.50684,78.93919,178.7053
"52726",715.52014,78.95628,178.68924
"52727",715.53345,78.9807,178.68103
"52728",715.54675,79.009995,178.67847
"52729",715.56006,79.03441,178.67194
"52730",715.57336,79.05638,178.66373
"52731",715.5867,79.07103,178.64888
"52732",715.6,79.07591,178.62473
"52733",715.6133,79.07103,178.59096
"52734",715.6266,79.06859,178.55948
"52735",715.6399,79.07103,178.5328
"52736",715.6532,79.078354,178.5111
"52737",715.6665,79.08568,178.48961
"52738",715.6798,79.08812,178.46347
"52739",715.6931,79.080795,178.42764
"52740",715.7064,79.078354,178.39647
"52741",715.7197,79.12962,178.41893
"52742",715.73303,79.31274,178.57484
"52743",715.74634,79.693596,178.93422
"52744",715.75964,80.274666,179.5057
"52745",715.77295,80.99977,180.2394
"52746",715.78625,81.74929,181.02016
"52747",715.79956,82.38407,181.70961
"52748",715.81287,82.77959,182.17963
"52749",715.8262,82.9041,182.391
"52750",715.8395,82.78203,182.3597
"52751",715.8528,82.48417,182.14877
"52752",715.8661,82.08865,181.83089
"52753",715.8794,81.671165,181.47867
"52754",715.8927,81.2781,181.13783
"52755",715.906,80.9485,180.84818
"52756",715.9193,80.689705,180.61902
"52757",715.9326,80.49439,180.44527
"52758",715.9459,80.35279,180.31912
"52759",715.9592,80.25269,180.23006
"52760",715.97253,80.18677,180.17203
"52761",715.98584,80.15503,180.14612
"52762",715.99915,80.16235,180.1583
"52763",716.01245,80.20386,180.20486
"52764",716.02576,80.26734,180.27472
"52765",716.03906,80.325935,180.34167
"52766",716.05237,80.365,180.39093
"52767",716.0657,80.37232,180.40967
"52768",716.079,80.34791,180.3969
"52769",716.0923,80.289314,180.34918
"52770",716.1056,80.20386,180.27277
"52771",716.1189,80.096436,180.17172
"52772",716.1322,79.974365,180.05267
"52773",716.1455,79.84009,179.9176
"52774",716.1588,79.70336,179.77588
"52775",716.1721,79.571526,179.63477
"52776",716.1854,79.45434,179.50418
"52777",716.1987,79.35668,179.38947
"52778",716.21204,79.27856,179.29123
"52779",716.22534,79.22484,179.21497
"52780",716.23865,79.18822,179.15411
"52781",716.25195,79.166245,179.10677
"52782",716.26526,79.15648,179.07094
"52783",716.27856,79.14671,179.0348
"52784",716.2919,79.13939,179.00081
"52785",716.3052,79.132065,178.96658
"52786",716.3185,79.1223,178.92969
"52787",716.3318,79.11253,178.89249
"52788",716.3451,79.10521,178.85742
"52789",716.3584,79.10277,178.82701
"52790",716.3717,79.10277,178.79897
"52791",716.385,79.10521,178.77336
"52792",716.3983,79.10765,178.74783
"52793",716.4116,79.10521,178.7175
"52794",716.4249,79.10277,178.68709
"52795",716.43823,79.09544,178.65172
"52796",716.45154,79.09056,178.61856
"52797",716.46484,79.08324,178.58281
"52798",716.47815,79.07591,178.54683
"52799",716.49146,79.06615,178.50818
"52800",716.50476,79.07103,178.48387
"52801",716.51807,79.13695,178.52075
"52802",716.5314,79.33715,178.69398
"52803",716.5447,79.73022,179.06633
"52804",716.558,80.33082,179.6585
"52805",716.5713,81.07057,180.40858
"52806",716.5846,81.832306,181.20378
"52807",716.5979,82.476845,181.90558
"52808",716.6112,82.89433,182.40047
"52809",716.6245,83.035934,182.63252
"52810",716.6378,82.933395,182.62486
"52811",716.6511,82.65507,182.4382
"52812",716.6644,82.28153,182.14764
"52813",716.67773,81.883575,181.82098
"52814",716.69104,81.51736,181.51363
"52815",716.70435,81.214615,181.2583
"52816",716.71765,80.987564,181.06921
"52817",716.73096,80.82887,180.94139
"52818",716.74426,80.719,180.85742
"52819",716.75757,80.63111,180.792
"52820",716.7709,80.552986,180.73361
"52821",716.7842,80.48463,180.68254
"52822",716.7975,80.430916,180.64398
"52823",716.8108,80.394295,180.62083
"52824",716.8241,80.37476,180.61363
"52825",716.8374,80.36988,180.62047
"52826",716.8507,80.37232,180.63448
"52827",716.864,80.36744,180.64124
"52828",716.8773,80.34791,180.6332
"52829",716.8906,80.30396,180.60013
"52830",716.90393,80.233154,180.53882
"52831",716.91724,80.1355,180.44846
"52832",716.93054,80.02075,180.33795
"52833",716.94385,79.89624,180.21408
"52834",716.95715,79.77661,180.09122
"52835",716.97046,79.65942,179.96704
"52836",716.98376,79.55932,179.8563
"52837",716.9971,79.47143,179.75462
"52838",717.0104,79.40551,179.67218
"52839",717.0237,79.3518,179.59988
"52840",717.037,79.310295,179.53812
"52841",717.0503,79.273674,179.47993
"52842",717.0636,79.24193,179.42549
"52843",717.0769,79.21263,179.3725
"52844",717.0902,79.185776,179.32103
"52845",717.1035,79.15648,179.26628
"52846",717.1168,79.12962,179.21306
"52847",717.1301,79.097885,179.15411
"52848",717.14343,79.06859,179.09662
"52849",717.15674,79.03685,179.03577
"52850",717.17004,79.00755,178.97636
"52851",717.18335,78.98558,178.92337
"52852",717.19666,78.97337,178.87946
"52853",717.20996,78.96849,178.84248
"52854",717.22327,78.97093,178.81268
"52855",717.2366,78.97093,178.78052
"52856",717.2499,78.96605,178.74347
"52857",717.2632,78.95628,178.70139
"52858",717.2765,78.93675,178.64923
"52859",717.2898,78.93675,178.616
"52860",717.3031,79.00267,178.64868
"52861",717.3164,79.21019,178.82503
"52862",717.3297,79.60815,179.1983
"52863",717.343,80.19653,179.77444
"52864",717.3563,80.90944,180.4935
"52865",717.3696,81.62722,181.2397
"52866",717.38293,82.213165,181.8765
"52867",717.39624,82.564735,182.29723
"52868",717.40955,82.650185,182.46283
"52869",717.42285,82.511024,182.4065
"52870",717.43616,82.22049,182.19443
"52871",717.44946,81.85672,181.90005
"52872",717.46277,81.480736,181.58209
"52873",717.4761,81.143814,181.29144
"52874",717.4894,80.867935,181.05132
"52875",717.5027,80.66529,180.8758
"52876",717.516,80.52369,180.75499
"52877",717.5293,80.42603,180.6737
"52878",717.5426,80.35035,180.61134
"52879",717.5559,80.289314,180.56126
"52880",717.5692,80.23071,180.5117
"52881",717.5825,80.181885,180.4701
"52882",717.5958,80.15259,180.44647
"52883",717.60913,80.14526,180.44391
"52884",717.62244,80.15015,180.45334
"52885",717.63574,80.15991,180.4678
"52886",717.64905,80.164795,180.47769
"52887",717.66235,80.15015,180.4682
"52888",717.67566,80.10376,180.42651
"52889",717.68896,80.025635,180.35162
"52890",717.7023,79.91821,180.245
"52891",717.7156,79.79126,180.11548
"52892",717.7289,79.65453,179.97223
"52893",717.7422,79.52514,179.83203
"52894",717.7555,79.412834,179.70488
"52895",717.7688,79.31518,179.58887
"52896",717.7821,79.23949,179.49178
"52897",717.7954,79.185776,179.41429
"52898",717.8087,79.13939,179.34245
"52899",717.822,79.09544,179.2716
"52900",717.8353,79.05638,179.20427
"52901",717.84863,79.02464,179.14304
"52902",717.86194,78.99779,179.0857
"52903",717.87524,78.98558,179.04216
"52904",717.88855,78.98558,179.01045
"52905",717.90186,78.995346,178.98851
"52906",717.91516,79.00267,178.96443
"52907",717.92847,79.00511,178.9357
"52908",717.9418,78.99779,178.89728
"52909",717.9551,78.99046,178.85863
"52910",717.9684,78.9807,178.8173
"52911",717.9817,78.975815,178.78056
"52912",717.995,78.975815,178.74855
"52913",718.0083,78.98314,178.72386
"52914",718.0216,78.99046,178.6994
"52915",718.0349,78.995346,178.67273
"52916",718.0482,78.992905,178.63889
"52917",718.0615,78.98558,178.60008
"52918",718.0748,78.97093,178.55373
"52919",718.08813,78.95384,178.50447
"52920",718.10144,78.9514,178.46933
"52921",718.11475,78.99779,178.48294
"52922",718.12805,79.16136,178.61519
"52923",718.14136,79.50317,178.93079
"52924",718.15466,80.0354,179.4475
"52925",718.16797,80.71168,180.12488
"52926",718.1813,81.43191,180.86736
"52927",718.1946,82.05936,181.53955
"52928",718.2079,82.476845,182.0214
"52929",718.2212,82.63065,182.25261
"52930",718.2345,82.54276,182.24693
"52931",718.2478,82.27665,182.06029
"52932",718.2611,81.90311,181.75789
"52933",718.2744,81.497826,181.41208
"52934",718.2877,81.12428,181.08534
"52935",718.301,80.816666,180.81287
"52936",718.31433,80.587166,180.60889
"52937",718.32764,80.43336,180.47343
"52938",718.34094,80.323494,180.37712
"52939",718.35425,80.235596,180.29933
"52940",718.36755,80.15991,180.23102
"52941",718.38086,80.09888,180.17499
"52942",718.39417,80.059814,180.139
"52943",718.4075,80.045166,180.12622
"52944",718.4208,80.05737,180.13983
"52945",718.4341,80.08667,180.17093
"52946",718.4474,80.1062,180.19318
"52947",718.4607,80.111084,180.20139
"52948",718.474,80.09155,180.18533
"52949",718.4873,80.04028,180.13693
"52950",718.5006,79.954834,180.05273
"52951",718.5139,79.84985,179.94635
"52952",718.5272,79.7351,179.8269
"52953",718.5405,79.61791,179.70143
"52954",718.55383,79.50805,179.57962
"52955",718.56714,79.40795,179.46414
"52956",718.58044,79.3225,179.36018
"52957",718.59375,79.23949,179.256
"52958",718.60706,79.168686,179.16142
"52959",718.62036,79.114975,179.08173
"52960",718.63367,79.07591,179.015
"52961",718.647,79.0515,178.9617
"52962",718.6603,79.03929,178.91985
"52963",718.6736,79.03685,178.88737
"52964",718.6869,79.03685,178.85727
"52965",718.7002,79.03441,178.82472
"52966",718.7135,79.03441,178.79454
"52967",718.7268,79.04173,178.77168
"52968",718.7401,79.04906,178.74905
"52969",718.7534,79.05638,178.72665
"52970",718.7667,79.06615,178.70692
"52971",718.78,79.07103,178.68262
"52972",718.79333,79.07103,178.65358
"52973",718.80664,79.06615,178.61966
"52974",718.81995,79.05638,178.5807
"52975",718.83325,79.04173,178.53656
"52976",718.84656,79.02464,178.48952
"52977",718.85986,79.012436,178.44682
"52978",718.87317,79.0222,178.42572
"52979",718.8865,79.11253,178.48549
"52980",718.8998,79.33715,178.68237
"52981",718.9131,79.73266,179.05716
"52982",718.9264,80.27955,179.59569
"52983",718.9397,80.91676,180.24164
"52984",718.953,81.529564,180.88309
"52985",718.9663,82.00076,181.40208
"52986",718.9796,82.25712,181.72096
"52987",718.9929,82.28153,181.81592
"52988",719.0062,82.11063,181.71631
"52989",719.01953,81.80789,181.47954
"52990",719.03284,81.44167,181.16982
"52991",719.04614,81.075455,180.84865
"52992",719.05945,80.74586,180.55266
"52993",719.07275,80.479744,180.30986
"52994",719.08606,80.27711,180.12222
"52995",719.09937,80.1355,179.98927
"52996",719.1127,80.0354,179.8934
"52997",719.126,79.96704,179.82614
"52998",719.1393,79.91821,179.77628
"52999",719.1526,79.8938,179.7493
"53000",719.1659,79.8938,179.74597
"53001",719.1792,79.91333,179.76218
"53002",719.1925,79.95239,179.79852
"53003",719.2058,79.99878,179.84341
"53004",719.2191,80.03296,179.87756
"53005",719.2324,80.04028,179.88593
"53006",719.2457,80.01587,179.86276
"53007",719.25903,79.954834,179.80222
"53008",719.27234,79.86694,179.71292
"53009",719.28564,79.764404,179.60623
"53010",719.29895,79.65453,179.489
"53011",719.31226,79.54955,179.37321
"53012",719.32556,79.45434,179.26392
"53013",719.33887,79.36889,179.1614
"53014",719.3522,79.29565,179.06844
"53015",719.3655,79.23949,178.99026
"53016",719.3788,79.19798,178.92499
"53017",719.3921,79.168686,178.87062
"53018",719.4054,79.149155,178.8251
"53019",719.4187,79.13451,178.78386
"53020",719.432,79.12474,178.74704
"53021",719.4453,79.11986,178.7148
"53022",719.4586,79.114975,178.6824
"53023",719.4719,79.11253,178.6523
"53024",719.4852,79.10277,178.61479
"53025",719.49854,79.08812,178.5721
"53026",719.51184,79.07103,178.5265
"53027",719.52515,79.05394,178.48038
"53028",719.53845,79.03929,178.43616
"53029",719.55176,79.03197,178.3988
"53030",719.56506,79.03197,178.36855
"53031",719.57837,79.03197,178.33829
"53032",719.5917,79.029526,178.30559
"53033",719.605,79.01976,178.26549
"53034",719.6183,78.99779,178.21288
"53035",719.6316,78.97826,178.16202
"53036",719.6449,78.99046,178.14229
"53037",719.6582,79.097885,178.21815
"53038",719.6715,79.37133,178.46341
"53039",719.6848,79.83276,178.9052
"53040",719.6981,80.448006,179.51521
"53041",719.7114,81.13161,180.21281
"53042",719.72473,81.76639,180.88297
"53043",719.73804,82.22781,181.3996
"53044",719.75134,82.45243,181.69383
"53045",719.76465,82.44022,181.75827
"53046",719.77795,82.2449,181.6392
"53047",719.79126,81.92752,181.39198
"53048",719.80457,81.55886,181.08356
"53049",719.8179,81.19997,180.77338
"53050",719.8312,80.89235,180.50327
"53051",719.8445,80.66285,180.30165
"53052",719.8578,80.50172,180.16124
"53053",719.8711,80.396736,180.07195
"53054",719.8844,80.31617,180.00378
"53055",719.8977,80.24536,179.94286
"53056",719.911,80.17456,179.87973
"53057",719.9243,80.1062,179.81683
"53058",719.9376,80.05493,179.76889
"53059",719.9509,80.02319,179.73886
"53060",719.96423,80.01343,179.72983
"53061",719.97754,80.01587,179.7327
"53062",719.99084,80.02075,179.73807
"53063",720.00415,80.01099,179.72894
"53064",720.01746,79.98657,179.70486
"53065",720.03076,79.93286,179.65073
"53066",720.04407,79.85718,179.57294
"53067",720.0574,79.764404,179.47571
"53068",720.0707,79.6643,179.36824
"53069",720.084,79.569084,179.26253
"53070",720.0973,79.48852,179.16849
"53071",720.1106,79.412834,179.07681
"53072",720.1239,79.344475,178.9901
"53073",720.1372,79.27856,178.90369
"53074",720.1505,79.2224,178.82498
"53075",720.1638,79.17601,178.75429
"53076",720.1771,79.13695,178.68947
"53077",720.1904,79.10765,178.6332
"53078",720.20374,79.08812,178.58577
"53079",720.21704,79.06859,178.53773
"53080",720.23035,79.04906,178.48909
"53081",720.24365,79.03197,178.44228
"53082",720.25696,79.01976,178.39981
"53083",720.27026,79.012436,178.36185
"53084",720.28357,79.00755,178.3261
"53085",720.2969,79.00023,178.28775
"53086",720.3102,78.99046,178.24673
"53087",720.3235,78.98558,178.2103
"53088",720.3368,78.9807,178.1737
"53089",720.3501,78.97826,178.1394
"53090",720.3634,78.98314,178.11235
"53091",720.3767,78.992905,178.09033
"53092",720.39,79.00755,178.0735
"53093",720.4033,79.01976,178.05469
"53094",720.4166,79.02464,178.02893
"53095",720.42993,79.0222,177.996
"53096",720.44324,79.00755,177.95079
"53097",720.45654,79.00023,177.91245
"53098",720.46985,79.046616,177.92758
"53099",720.48315,79.21507,178.06624
"53100",720.49646,79.569084,178.39572
"53101",720.50977,80.11841,178.93158
"53102",720.5231,80.80202,179.6189
"53103",720.5364,81.514915,180.35686
"53104",720.5497,82.11795,181.00723
"53105",720.563,82.496376,181.45184
"53106",720.5763,82.616005,181.64949
"53107",720.5896,82.5037,181.61894
"53108",720.6029,82.22049,181.41397
"53109",720.6162,81.846954,181.10983
"53110",720.6295,81.45632,180.77692
"53111",720.6428,81.094986,180.46109
"53112",720.6561,80.79469,180.19502
"53113",720.66943,80.56275,179.98792
"53114",720.68274,80.39185,179.83461
"53115",720.69604,80.2649,179.71991
"53116",720.70935,80.15991,179.6232
"53117",720.72266,80.07202,179.54031
"53118",720.73596,80.00122,179.47177
"53119",720.74927,79.95239,179.42297
"53120",720.7626,79.92798,179.39706
"53121",720.7759,79.92554,179.39236
"53122",720.7892,79.937744,179.40225
"53123",720.8025,79.95239,179.41495
"53124",720.8158,79.957275,179.41833
"53125",720.8291,79.94995,179.40967
"53126",720.8424,79.920654,179.37881
"53127",720.8557,79.869385,179.32507
"53128",720.869,79.798584,179.25018
"53129",720.8823,79.708244,179.15355
"53130",720.8956,79.605705,179.04189
"53131",720.90894,79.50317,178.92702
"53132",720.92224,79.40795,178.81627
"53133",720.93555,79.32006,178.70987
"53134",720.94885,79.2517,178.62025
"53135",720.96216,79.202866,178.54803
"53136",720.97546,79.17113,178.49138
"53137",720.9888,79.15892,178.45326
"53138",721.0021,79.166245,178.4343
"53139",721.0154,79.18089,178.42288
"53140",721.0287,79.1931,178.40948
"53141",721.042,79.20531,178.39647
"53142",721.0553,79.21019,178.37651
"53143",721.0686,79.21019,178.35182
"53144",721.0819,79.21019,178.32713
"53145",721.0952,79.21019,178.30244
"53146",721.1085,79.20775,178.27531
"53147",721.1218,79.202866,178.24567
"53148",721.13513,79.200424,178.2183
"53149",721.14844,79.19554,178.18843
"53150",721.16174,79.185776,178.15352
"53151",721.17505,79.17601,178.1183
"53152",721.18835,79.16136,178.0779
"53153",721.20166,79.14427,178.03459
"53154",721.21497,79.1223,177.98587
"53155",721.2283,79.097885,177.93402
"53156",721.2416,79.07347,177.88141
"53157",721.2549,79.046616,177.82559
"53158",721.2682,79.027084,177.77626
"53159",721.2815,79.009995,177.72876
"53160",721.2948,79.0222,177.71002
"53161",721.3081,79.11253,177.76979
"53162",721.3214,79.35424,177.98376
"53163",721.3347,79.77661,178.38596
"53164",721.348,80.36744,178.9698
"53165",721.3613,81.05104,179.66489
"53166",721.37463,81.71023,180.35692
"53167",721.38794,82.213165,180.9133
"53168",721.40125,82.48417,181.25346
"53169",721.41455,82.51591,181.36284
"53170",721.42786,82.34257,181.26813
"53171",721.44116,82.03494,181.0337
"53172",721.45447,81.65896,180.72131
"53173",721.4678,81.27566,180.38986
"53174",721.4811,80.92653,180.0806
"53175",721.4944,80.638435,179.82146
"53176",721.5077,80.42359,179.62657
"53177",721.521,80.2649,179.48112
"53178",721.5343,80.15015,179.37465
"53179",721.5476,80.0647,179.29388
"53180",721.5609,80.00366,179.23486
"53181",721.5742,79.96704,179.19836
"53182",721.5875,79.95972,179.19
"53183",721.6008,79.974365,179.2034
"53184",721.61414,80.0061,179.23434
"53185",721.62744,80.045166,179.27359
"53186",721.64075,80.07446,179.30429
"53187",721.65405,80.08667,179.31882
"53188",721.66736,80.07446,179.30933
"53189",721.68066,80.0354,179.27258
"53190",721.694,79.9646,179.20288
"53191",721.7073,79.87671,179.11389
"53192",721.7206,79.77173,179.00507
"53193",721.7339,79.66674,178.89294
"53194",721.7472,79.5642,178.77998
"53195",721.7605,79.46899,178.67114
"53196",721.7738,79.378654,178.56421
"53197",721.7871,79.29565,178.46178
"53198",721.8004,79.2224,178.36652
"53199",721.8137,79.1638,178.28362
"53200",721.827,79.1223,178.21597
"53201",721.84033,79.10033,178.16656
"53202",721.85364,79.08812,178.12624
"53203",721.86694,79.08324,178.09285
"53204",721.88025,79.080795,178.06175
"53205",721.89355,79.078354,178.03058
"53206",721.90686,79.08324,178.00665
"53207",721.92017,79.08568,177.98044
"53208",721.9335,79.08568,177.95186
"53209",721.9468,79.080795,177.9184
"53210",721.9601,79.078354,177.88722
"53211",721.9734,79.07591,177.85597
"53212",721.9867,79.078354,177.82953
"53213",722,79.080795,177.80316
"53214",722.0133,79.08568,177.77931
"53215",722.0266,79.08324,177.74829
"53216",722.0399,79.07591,177.71231
"53217",722.0532,79.06859,177.6761
"53218",722.0665,79.05882,177.63722
"53219",722.07983,79.0515,177.60048
"53220",722.09314,79.05394,177.57327
"53221",722.10645,79.09544,177.5852
"53222",722.11975,79.237045,177.69853
"53223",722.13306,79.54955,177.9872
"53224",722.14636,80.04761,178.47118
"53225",722.15967,80.689705,179.11476
"53226",722.173,81.3782,179.82481
"53227",722.1863,81.986115,180.4758
"53228",722.1996,82.388954,180.9407
"53229",722.2129,82.545204,181.17162
"53230",722.2262,82.46464,181.1706
"53231",722.2395,82.20828,180.99126
"53232",722.2528,81.83963,180.69162
"53233",722.2661,81.43191,180.34138
"53234",722.2794,81.02907,179.98329
"53235",722.2927,80.67506,179.66144
"53236",722.306,80.38697,179.39445
"53237",722.31934,80.15991,179.17949
"53238",722.33264,79.98657,179.01114
"53239",722.34595,79.85474,178.87888
"53240",722.35925,79.764404,178.784
"53241",722.37256,79.71801,178.73024
"53242",722.38586,79.72289,178.7263
"53243",722.3992,79.781494,178.77625
"53244",722.4125,79.87915,178.86707
"53245",722.4258,79.98901,178.97314
"53246",722.4391,80.08667,179.07047
"53247",722.4524,80.15747,179.14398
"53248",722.4657,80.19409,179.18552
"53249",722.479,80.19409,179.19159
"53250",722.4923,80.15259,179.15616
"53251",722.5056,80.08179,179.09012
"53252",722.5189,79.98657,178.99747
"53253",722.5322,79.87427,178.88474
"53254",722.54553,79.7522,178.75873
"53255",722.55884,79.63012,178.6289
"53256",722.57214,79.520256,178.50748
"53257",722.58545,79.42504,178.39726
"53258",722.59875,79.34692,178.30116
"53259",722.61206,79.290764,178.2246
"53260",722.62537,79.2517,178.16336
"53261",722.6387,79.22972,178.118
"53262",722.652,79.219955,178.08415
"53263",722.6653,79.21507,178.05489
"53264",722.6786,79.21507,178.03035
"53265",722.6919,79.21507,178.00581
"53266",722.7052,79.21507,177.98128
"53267",722.7185,79.219955,177.96162
"53268",722.7318,79.22728,177.94456
"53269",722.7451,79.237045,177.93018
"53270",722.7584,79.2517,177.92099
"53271",722.7717,79.26635,177.91225
"53272",722.78503,79.27123,177.8942
"53273",722.79834,79.27123,177.87141
"53274",722.81165,79.27123,177.84863
"53275",722.82495,79.273674,177.8283
"53276",722.83826,79.30785,177.83977
"53277",722.85156,79.43725,177.94753
"53278",722.86487,79.72045,178.21313
"53279",722.8782,80.184326,178.66827
"53280",722.8915,80.79225,179.28195
"53281",722.9048,81.46609,179.98055
"53282",722.9181,82.08621,180.64648
"53283",722.9314,82.528114,181.15358
"53284",722.9447,82.72831,181.43279
"53285",722.958,82.69169,181.48143
"53286",722.9713,82.46708,181.34094
"53287",722.9846,82.12039,181.07135
"53288",722.9979,81.71511,180.73233
"53289",723.0112,81.31228,180.3831
"53290",723.02454,80.94362,180.05545
"53291",723.03784,80.62623,179.76755
"53292",723.05115,80.36988,179.53078
"53293",723.06445,80.17212,179.34457
"53294",723.07776,80.025635,179.20346
"53295",723.09106,79.91821,179.09683
"53296",723.1044,79.852295,179.02835
"53297",723.1177,79.83032,179.00177
"53298",723.131,79.84985,179.01599
"53299",723.1443,79.90845,179.06989
"53300",723.1576,79.991455,179.15002
"53301",723.1709,80.08423,179.24252
"53302",723.1842,80.15991,179.32083
"53303",723.1975,80.20386,179.36978
"53304",723.2108,80.21118,179.38348
"53305",723.2241,80.177,179.3559
"53306",723.2374,80.10864,179.29306
"53307",723.25073,80.01099,179.19879
"53308",723.26404,79.8938,179.08194
"53309",723.27734,79.76929,178.9541
"53310",723.29065,79.64965,178.82726
"53311",723.30396,79.537346,178.704
"53312",723.31726,79.44213,178.59431
"53313",723.33057,79.364006,178.49875
"53314",723.3439,79.30297,178.41783
"53315",723.3572,79.25414,178.34721
"53316",723.3705,79.2224,178.29216
"53317",723.3838,79.200424,178.24588
"53318",723.3971,79.18822,178.20868
"53319",723.4104,79.183334,178.17842
"53320",723.4237,79.185776,178.15533
"53321",723.437,79.18822,178.13232
"53322",723.4503,79.1931,178.11183
"53323",723.4636,79.19554,178.08905
"53324",723.4769,79.19554,178.0639
"53325",723.49023,79.200424,178.04364
"53326",723.50354,79.202866,178.02109
"53327",723.51685,79.20775,178.00105
"53328",723.53015,79.217514,177.98605
"53329",723.54346,79.26635,178.01044
"53330",723.55676,79.415276,178.13643
"53331",723.57007,79.72045,178.42332
"53332",723.5834,80.21118,178.90532
"53333",723.5967,80.848404,179.54913
"53334",723.61,81.54665,180.2739
"53335",723.6233,82.17166,180.94724
"53336",723.6366,82.61112,181.45456
"53337",723.6499,82.804,181.72903
"53338",723.6632,82.76494,181.7776
"53339",723.6765,82.54276,181.64183
"53340",723.6898,82.2034,181.38193
"53341",723.7031,81.81033,181.05772
"53342",723.71643,81.41238,180.71634
"53343",723.72974,81.04616,180.39426
"53344",723.74304,80.73609,180.11688
"53345",723.75635,80.49683,179.90063
"53346",723.76965,80.31617,179.7355
"53347",723.78296,80.184326,179.61354
"53348",723.79626,80.09155,179.52652
"53349",723.8096,80.03296,179.4708
"53350",723.8229,80.00122,179.4401
"53351",723.8362,79.99878,179.43768
"53352",723.8495,80.025635,179.46451
"53353",723.8628,80.06714,179.5068
"53354",723.8761,80.12085,179.56262
"53355",723.8894,80.17944,179.625
"53356",723.9027,80.23071,179.68188
"53357",723.916,80.26002,179.7184
"53358",723.9293,80.25269,179.71921
"53359",723.9426,80.201416,179.67583
"53360",723.95593,80.10376,179.58447
"53361",723.96924,79.97681,179.46075
"53362",723.98254,79.835205,179.31842
"53363",723.99585,79.69604,179.1741
"53364",724.00916,79.571526,179.04008
"53365",724.02246,79.4641,178.91927
"53366",724.03577,79.37133,178.80974
"53367",724.0491,79.28832,178.70708
"53368",724.0624,79.217514,178.61403
"53369",724.0757,79.16136,178.53342
"53370",724.089,79.12718,178.47302
"53371",724.1023,79.10521,178.42377
"53372",724.1156,79.093,178.38359
"53373",724.1289,79.09056,178.3528
"53374",724.1422,79.08812,178.32193
"53375",724.1555,79.07591,178.28122
"53376",724.1688,79.061264,178.23769
"53377",724.1821,79.044174,178.19125
"53378",724.19543,79.027084,178.14429
"53379",724.20874,79.029526,178.11632
"53380",724.22205,79.093,178.14946
"53381",724.23535,79.28588,178.314
"53382",724.24866,79.65453,178.66032
"53383",724.26196,80.19653,179.19153
"53384",724.27527,80.86061,179.86176
"53385",724.2886,81.532005,180.56004
"53386",724.3019,82.08133,181.15724
"53387",724.3152,82.41581,181.55676
"53388",724.3285,82.5037,181.72015
"53389",724.3418,82.36942,181.66412
"53390",724.3551,82.074005,181.44275
"53391",724.3684,81.69314,181.1267
"53392",724.3817,81.28054,180.76701
"53393",724.395,80.88258,180.40907
"53394",724.4083,80.52857,180.08264
"53395",724.42163,80.23804,179.80862
"53396",724.43494,80.00366,179.5817
"53397",724.44824,79.81323,179.39139
"53398",724.46155,79.66674,179.23906
"53399",724.47485,79.554436,179.11633
"53400",724.48816,79.483635,179.0316
"53401",724.50146,79.45434,178.98616
"53402",724.5148,79.47143,178.98619
"53403",724.5281,79.52758,179.02582
"53404",724.5414,79.605705,179.08917
"53405",724.5547,79.68383,179.15497
"53406",724.568,79.74731,179.20856
"53407",724.5813,79.78638,179.23973
"53408",724.5946,79.78638,179.23306
"53409",724.6079,79.74975,179.18976
"53410",724.6212,79.67895,179.11113
"53411",724.6345,79.58373,179.00587
"53412",724.6478,79.47875,178.88788
"53413",724.66113,79.36889,178.76172
"53414",724.67444,79.26879,178.64189
"53415",724.68774,79.183334,178.53358
"53416",724.70105,79.10765,178.43237
"53417",724.71436,79.046616,178.34344
"53418",724.72766,78.995346,178.26237
"53419",724.74097,78.95384,178.18947
"53420",724.7543,78.91966,178.12259
"53421",724.7676,78.89525,178.0644
"53422",724.7809,78.8806,178.01523
"53423",724.7942,78.873276,177.97292
"53424",724.8075,78.87572,177.94014
"53425",724.8208,78.8806,177.90988
"53426",724.8341,78.887924,177.88222
"53427",724.8474,78.89769,177.85722
"53428",724.8607,78.907455,177.83253
"53429",724.874,78.93919,177.83012
"53430",724.8873,79.03929,177.89706
"53431",724.90063,79.28344,178.11119
"53432",724.91394,79.708244,178.5136
"53433",724.92725,80.31373,179.10995
"53434",724.94055,81.03151,179.83754
"53435",724.95386,81.74929,180.58755
"53436",724.96716,82.340126,181.23306
"53437",724.98047,82.69901,181.66508
"53438",724.9938,82.79668,181.84709
"53439",725.0071,82.667274,181.80508
"53440",725.0204,82.371864,181.59303
"53441",725.0337,81.97635,181.27164
"53442",725.047,81.55398,180.91103
"53443",725.0603,81.146255,180.55186
"53444",725.0736,80.78493,180.22636
"53445",725.0869,80.479744,179.94571
"53446",725.1002,80.233154,179.71411
"53447",725.1135,80.03296,179.52121
"53448",725.12683,79.871826,179.36111
"53449",725.14014,79.742424,179.2277
"53450",725.15344,79.656975,179.1342
"53451",725.16675,79.61303,179.07953
"53452",725.18005,79.62035,179.07475
"53453",725.19336,79.67162,179.11415
"53454",725.20667,79.7522,179.18446
"53455",725.22,79.83765,179.26218
"53456",725.2333,79.906006,179.32547
"53457",725.2466,79.940186,179.35672
"53458",725.2599,79.93286,179.34753
"53459",725.2732,79.88403,179.2966
"53460",725.2865,79.80347,179.2124
"53461",725.2998,79.69848,179.10127
"53462",725.3131,79.588615,178.98198
"53463",725.3264,79.47875,178.85925
"53464",725.3397,79.37621,178.74042
"53465",725.353,79.281,178.6257
"53466",725.36633,79.200424,178.52266
"53467",725.37964,79.132065,178.4293
"53468",725.39294,79.080795,178.3509
"53469",725.40625,79.046616,178.288
"53470",725.41956,79.0222,178.23378
"53471",725.43286,79.00755,178.18857
"53472",725.44617,78.99779,178.14778
"53473",725.4595,78.98802,178.10669
"53474",725.4728,78.9807,178.06773
"53475",725.4861,78.97826,178.03343
"53476",725.4994,78.98802,178.01126
"53477",725.5127,79.04173,178.03334
"53478",725.526,79.19798,178.15964
"53479",725.5393,79.51049,178.44708
"53480",725.5526,79.99634,178.91763
"53481",725.5659,80.61402,179.5352
"53482",725.5792,81.27566,180.21603
"53483",725.5925,81.864044,180.84428
"53484",725.60583,82.266884,181.30537
"53485",725.61914,82.4329,181.54224
"53486",725.63245,82.371864,181.55724
"53487",725.64575,82.13016,181.38965
"53488",725.65906,81.76395,181.09001
"53489",725.67236,81.34402,180.7252
"53490",725.68567,80.919205,180.34239
"53491",725.699,80.52613,179.97804
"53492",725.7123,80.18677,179.65512
"53493",725.7256,79.90845,179.38263
"53494",725.7389,79.68383,179.15515
"53495",725.7522,79.51049,178.97192
"53496",725.7655,79.395744,178.84187
"53497",725.7788,79.344475,178.77171
"53498",725.7921,79.35912,178.76587
"53499",725.8054,79.43481,178.82152
"53500",725.8187,79.554436,178.92348
"53501",725.83203,79.67895,179.03406
"53502",725.84534,79.79126,179.13634
"53503",725.85864,79.86206,179.20062
"53504",725.87195,79.888916,179.22318
"53505",725.88525,79.869385,179.20016
"53506",725.89856,79.818115,179.1448
"53507",725.91187,79.73754,179.05855
"53508",725.9252,79.639885,178.95268
"53509",725.9385,79.52514,178.82668
"53510",725.9518,79.40795,178.69464
"53511",725.9651,79.290764,178.55894
"53512",725.9784,79.17845,178.42447
"53513",725.9917,79.078354,178.29869
"53514",726.005,78.99779,178.18932
"53515",726.0183,78.941635,178.10184
"53516",726.0316,78.9099,178.03702
"53517",726.0449,78.89525,177.9883
"53518",726.0582,78.89769,177.9562
"53519",726.07153,78.907455,177.93152
"53520",726.08484,78.91722,177.90714
"53521",726.09814,78.91966,177.87573
"53522",726.11145,78.93187,177.85417
"53523",726.12476,78.99046,177.87938
"53524",726.13806,79.15892,178.01628
"53525",726.15137,79.49096,178.32204
"53526",726.1647,79.99878,178.81395
"53527",726.178,80.635994,179.45113
"53528",726.1913,81.30251,180.13753
"53529",726.2046,81.881134,180.75685
"53530",726.2179,82.26444,181.19894
"53531",726.2312,82.41337,181.41864
"53532",726.2445,82.34501,181.4257
"53533",726.2578,82.11307,181.26704
"53534",726.2711,81.778595,180.99861
"53535",726.2844,81.40017,180.67577
"53536",726.2977,81.0193,180.33865
"53537",726.31104,80.67017,180.02138
"53538",726.32434,80.365,179.73715
"53539",726.33765,80.113525,179.49709
"53540",726.35095,79.90845,179.29556
"53541",726.36426,79.75464,179.13889
"53542",726.37756,79.64721,179.02379
"53543",726.39087,79.588615,178.95416
"53544",726.4042,79.58373,178.93642
"53545",726.4175,79.63012,178.96979
"53546",726.4308,79.70336,179.03146
"53547",726.4441,79.7937,179.11253
"53548",726.4574,79.87427,179.18665
"53549",726.4707,79.92798,179.23642
"53550",726.484,79.94751,179.2537
"53551",726.4973,79.93286,179.2374
"53552",726.5106,79.888916,179.19135
"53553",726.5239,79.82544,179.12439
"53554",726.53723,79.7522,179.04568
"53555",726.55054,79.67895,178.96469
"53556",726.56384,79.59838,178.87408
"53557",726.57715,79.51293,178.77608
"53558",726.59045,79.42504,178.67296
"53559",726.60376,79.33959,178.56953
"53560",726.61707,79.26147,178.47076
"53561",726.6304,79.19066,178.37688
"53562",726.6437,79.13939,178.30031
"53563",726.657,79.10033,178.23434
"53564",726.6703,79.06859,178.17448
"53565",726.6836,79.044174,178.12096
"53566",726.6969,79.029526,178.07643
"53567",726.7102,79.0222,178.03877
"53568",726.7235,79.01732,178.00333
"53569",726.7368,79.0222,177.9775
"53570",726.7501,79.07103,177.99576
"53571",726.7634,79.23216,178.12785
"53572",726.77673,79.56176,178.43346
"53573",726.79004,80.079346,178.93735
"53574",726.80334,80.75075,179.61124
"53575",726.81665,81.47585,180.3598
"53576",726.82996,82.12039,181.05046
"53577",726.84326,82.56718,181.5635
"53578",726.85657,82.757614,181.83417
"53579",726.8699,82.701454,181.86418
"53580",726.8832,82.45243,181.69958
"53581",726.8965,82.08377,181.40756
"53582",726.9098,81.6614,181.05031
"53583",726.9231,81.24147,180.6823
"53584",726.9364,80.85329,180.33292
"53585",726.9497,80.52369,180.02998
"53586",726.963,80.26246,179.78513
"53587",726.9763,80.062256,179.59312
"53588",726.9896,79.90845,179.44125
"53589",727.0029,79.798584,179.32852
"53590",727.01624,79.727776,179.25142
"53591",727.02954,79.693596,179.20872
"53592",727.04285,79.70092,179.20647
"53593",727.05615,79.744865,179.24106
"53594",727.06946,79.815674,179.3039
"53595",727.08276,79.89624,179.3787
"53596",727.09607,79.96216,179.44138
"53597",727.1094,80.00122,179.47925
"53598",727.1227,80.00122,179.47928
"53599",727.136,79.957275,179.43536
"53600",727.1493,79.87427,179.35101
"53601",727.1626,79.766846,179.23965
"53602",727.1759,79.64721,179.11273
"53603",727.1892,79.52758,178.98207
"53604",727.2025,79.41772,178.85744
"53605",727.2158,79.3225,178.74402
"53606",727.2291,79.24193,178.64227
"53607",727.24243,79.17845,178.5551
"53608",727.25574,79.12718,178.47815
"53609",727.26904,79.09056,178.41425
"53610",727.28235,79.06615,178.3614
"53611",727.29565,79.04906,178.31512
"53612",727.30896,79.044174,178.28052
"53613",727.32227,79.04906,178.25552
"53614",727.3356,79.05638,178.23312
"53615",727.3489,79.063705,178.21095
"53616",727.3622,79.06615,178.18413
"53617",727.3755,79.05882,178.14761
"53618",727.3888,79.04906,178.10843
"53619",727.4021,79.08568,178.11533
"53620",727.4154,79.24681,178.24788
"53621",727.4287,79.59838,178.57591
"53622",727.442,80.15259,179.11757
"53623",727.4553,80.86305,179.8328
"53624",727.4686,81.61257,180.60928
"53625",727.48193,82.25712,181.30423
"53626",727.49524,82.68192,181.79958
"53627",727.50854,82.83574,182.0372
"53628",727.52185,82.738075,182.02815
"53629",727.53516,82.45487,181.83052
"53630",727.54846,82.05936,181.51172
"53631",727.56177,81.619896,181.13661
"53632",727.5751,81.18532,180.75266
"53633",727.5884,80.78981,180.3942
"53634",727.6017,80.45289,180.08195
"53635",727.615,80.177,179.82022
"53636",727.6283,79.95972,179.60846
"53637",727.6416,79.7937,179.4412
"53638",727.6549,79.67895,179.31999
"53639",727.6682,79.61303,179.24403
"53640",727.6815,79.60082,179.21973
"53641",727.6948,79.639885,179.2463
"53642",727.7081,79.71801,179.31317
"53643",727.72144,79.81079,179.39714
"53644",727.73474,79.89868,179.47913
"53645",727.74805,79.95972,179.53699
"53646",727.76135,79.98657,179.56259
"53647",727.77466,79.97681,179.5524
"53648",727.78796,79.92554,179.5004
"53649",727.8013,79.84741,179.41995
"53650",727.8146,79.74975,179.31752
"53651",727.8279,79.635,179.19495
"53652",727.8412,79.51537,179.0639
"53653",727.8545,79.398186,178.93156
"53654",727.8678,79.290764,178.80533
"53655",727.8811,79.1931,178.6855
"53656",727.8944,79.11253,178.57971
"53657",727.9077,79.0515,178.49094
"53658",727.921,79.009995,178.41978
"53659",727.9343,78.97826,178.3571
"53660",727.94763,78.96117,178.30807
"53661",727.96094,78.95384,178.26828
"53662",727.97424,78.94652,178.22826
"53663",727.98755,78.94652,178.19533
"53664",728.00085,78.95384,178.16972
"53665",728.01416,78.958725,178.1419
"53666",728.02747,78.96361,178.11424
"53667",728.0408,78.96605,178.08429
"53668",728.0541,78.9807,178.06662
"53669",728.0674,79.05882,178.11288
"53670",728.0807,79.273674,178.29832
"53671",728.094,79.68627,178.68822
"53672",728.1073,80.29664,179.28877
"53673",728.1206,81.041275,180.04268
"53674",728.1339,81.80057,180.83452
"53675",728.1472,82.43534,181.52556
"53676",728.1605,82.83574,182.00206
"53677",728.1738,82.96269,182.21764
"53678",728.18713,82.85039,182.19792
"53679",728.20044,82.564735,182.00134
"53680",728.21375,82.178986,181.69574
"53681",728.22705,81.74197,181.32681
"53682",728.24036,81.304955,180.94424
"53683",728.25366,80.907,180.58707
"53684",728.26697,80.55543,180.26384
"53685",728.2803,80.2649,179.99068
"53686",728.2936,80.03784,179.7719
"53687",728.3069,79.86694,179.60217
"53688",728.3202,79.75464,179.48572
"53689",728.3335,79.69848,179.42189
"53690",728.3468,79.69848,179.41246
"53691",728.3601,79.74975,179.4543
"53692",728.3734,79.84009,179.53682
"53693",728.3867,79.94751,179.63925
"53694",728.4,80.04761,179.7377
"53695",728.4133,80.11597,179.80756
"53696",728.42664,80.14038,179.8356
"53697",728.43994,80.113525,179.81314
"53698",728.45325,80.03784,179.741
"53699",728.46655,79.92798,179.63232
"53700",728.47986,79.79126,179.49335
"53701",728.49316,79.64477,179.34033
"53702",728.5065,79.500725,179.18518
"53703",728.5198,79.361565,179.03041
"53704",728.5331,79.24193,178.89082
"53705",728.5464,79.13695,178.76215
"53706",728.5597,79.0515,178.64972
"53707",728.573,78.9807,178.54927
"53708",728.5863,78.92943,178.46614
"53709",728.5996,78.89281,178.39606
"53710",728.6129,78.873276,178.34192
"53711",728.6262,78.870834,178.30426
"53712",728.6395,78.87816,178.27629
"53713",728.65283,78.890366,178.25343
"53714",728.66614,78.89525,178.22363
"53715",728.67944,78.890366,178.18422
"53716",728.69275,78.88304,178.14221
"53717",728.70605,78.90257,178.12683
"53718",728.71936,79.009995,178.19995
"53719",728.73267,79.28588,178.4449
"53720",728.746,79.764404,178.90111
"53721",728.7593,80.42359,179.55293
"53722",728.7726,81.17799,180.32057
"53723",728.7859,81.8909,181.0703
"53724",728.7992,82.425575,181.66406
"53725",728.8125,82.69901,182.0133
"53726",728.8258,82.70878,182.10742
"53727",728.8391,82.49882,181.98212
"53728",728.8524,82.144806,181.70619
"53729",728.8657,81.71511,181.34352
"53730",728.879,81.26589,180.9479
"53731",728.89233,80.8362,180.55777
"53732",728.90564,80.445564,180.19327
"53733",728.91895,80.113525,179.87515
"53734",728.93225,79.84253,179.6077
"53735",728.94556,79.62524,179.38548
"53736",728.95886,79.46166,179.21019
"53737",728.97217,79.35668,179.08838
"53738",728.9855,79.31518,179.02676
"53739",728.9988,79.33471,179.02489
"53740",729.0121,79.41039,179.07977
"53741",729.0254,79.52758,179.17853
"53742",729.0387,79.65453,179.29071
"53743",729.052,79.76929,179.39467
"53744",729.0653,79.852295,179.47046
"53745",729.0786,79.8938,179.50735
"53746",729.0919,79.88403,179.49426
"53747",729.1052,79.835205,179.4418
"53748",729.1185,79.75464,179.35608
"53749",729.13184,79.65209,179.24586
"53750",729.14514,79.534904,179.1178
"53751",729.15845,79.42016,178.98851
"53752",729.17175,79.31274,178.86296
"53753",729.18506,79.21263,178.74138
"53754",729.19836,79.12718,178.63132
"53755",729.2117,79.061264,178.53812
"53756",729.225,79.012436,178.45995
"53757",729.2383,78.98314,178.39978
"53758",729.2516,78.96605,178.3509
"53759",729.2649,78.95628,178.30882
"53760",729.2782,78.94896,178.26888
"53761",729.2915,78.94652,178.23358
"53762",729.3048,78.94652,178.20065
"53763",729.3181,78.99779,178.219
"53764",729.3314,79.15404,178.34392
"53765",729.3447,79.483635,178.64708
"53766",729.35803,80.00122,179.14853
"53767",729.37134,80.66285,179.8102
"53768",729.38464,81.36599,180.53406
"53769",729.39795,81.988556,181.19931
"53770",729.41125,82.41093,181.68382
"53771",729.42456,82.58427,181.93251
"53772",729.43787,82.51835,181.94736
"53773",729.4512,82.269325,181.77704
"53774",729.4645,81.900665,181.4793
"53775",729.4778,81.47585,181.11388
"53776",729.4911,81.04372,180.72786
"53777",729.5044,80.63111,180.34787
"53778",729.5177,80.26002,179.9965
"53779",729.531,79.94507,179.68968
"53780",729.5443,79.68139,179.42429
"53781",729.5576,79.466545,179.19948
"53782",729.5709,79.31518,179.03143
"53783",729.5842,79.237045,178.9319
"53784",729.59753,79.22728,178.89828
"53785",729.61084,79.293205,178.94006
"53786",729.62415,79.42016,179.04492
"53787",729.63745,79.58129,179.18793
"53788",729.65076,79.7351,179.32864
"53789",729.66406,79.85962,179.44489
"53790",729.67737,79.940186,179.52106
"53791",729.6907,79.96704,179.54605
"53792",729.704,79.94263,179.5206
"53793",729.7173,79.87915,179.45532
"53794",729.7306,79.78882,179.3612
"53795",729.7439,79.674065,179.23985
"53796",729.7572,79.551994,179.10759
"53797",729.7705,79.429924,178.97151
"53798",729.7838,79.31762,178.84138
"53799",729.7971,79.22728,178.72972
"53800",729.8104,79.15892,178.6372
"53801",729.8237,79.11009,178.56209
"53802",729.83704,79.07591,178.50009
"53803",729.85034,79.0515,178.4468
"53804",729.86365,79.029526,178.39517
"53805",729.87695,79.012436,178.34775
"53806",729.89026,79.00511,178.30956
"53807",729.90356,79.04906,178.3224
"53808",729.9169,79.20531,178.44893
"53809",729.9302,79.537346,178.75613
"53810",729.9435,80.062256,179.26659
"53811",729.9568,80.73365,179.93993
"53812",729.9701,81.45144,180.68065
"53813",729.9834,82.08377,181.35834
"53814",729.9967,82.51835,181.85803
"53815",730.01,82.69413,182.11252
"53816",730.0233,82.62089,182.12347
"53817",730.0366,82.3621,181.9466
"53818",730.0499,81.98123,181.63954
"53819",730.06323,81.54665,181.26688
"53820",730.07654,81.10719,180.87575
"53821",730.08984,80.70435,180.5075
"53822",730.10315,80.35523,180.1804
"53823",730.11646,80.062256,179.89853
"53824",730.12976,79.83032,179.66855
"53825",730.14307,79.65209,179.48502
"53826",730.1564,79.52514,179.34718
"53827",730.1697,79.45434,179.26154
"53828",730.183,79.447014,179.23715
"53829",730.1963,79.49828,179.27113
"53830",730.2096,79.60082,179.35799
"53831",730.2229,79.727776,179.47246
"53832",730.2362,79.852295,179.58847
"53833",730.2495,79.94751,179.67908
"53834",730.2628,79.99878,179.7287
"53835",730.2761,79.9939,179.72379
"53836",730.2894,79.937744,179.66745
"53837",730.30273,79.84253,179.57028
"53838",730.31604,79.72289,179.44572
"53839",730.32935,79.59106,179.30522
"53840",730.34265,79.466545,179.16792
"53841",730.35596,79.3518,179.0365
"53842",730.36926,79.26147,178.9259
"53843",730.38257,79.183334,178.82469
"53844",730.3959,79.1223,178.73813
"53845",730.4092,79.06859,178.65698
"53846",730.4225,79.027084,178.58636
"53847",730.4358,78.99046,178.51933
"53848",730.4491,78.96361,178.46092
"53849",730.4624,78.94408,178.409
"53850",730.4757,78.958725,178.39064
"53851",730.489,79.04906,178.44843
"53852",730.5023,79.28832,178.65797
"53853",730.5156,79.72289,179.0703
"53854",730.52893,80.34547,179.6842
"53855",730.54224,81.077896,180.42743
"53856",730.55554,81.795685,181.17891
"53857",730.56885,82.36454,181.80388
"53858",730.58215,82.68925,182.20248
"53859",730.59546,82.74784,182.34512
"53860",730.60876,82.579384,182.26254
"53861",730.6221,82.252235,182.016
"53862",730.6354,81.83475,181.6689
"53863",730.6487,81.39529,181.28677
"53864",730.662,80.96803,180.90312
"53865",730.6753,80.584724,180.55006
"53866",730.6886,80.26246,180.24608
"53867",730.7019,80.00366,179.99548
"53868",730.7152,79.79614,179.78809
"53869",730.7285,79.64477,179.63034
"53870",730.7418,79.54467,179.51913
"53871",730.7551,79.4934,179.45363
"53872",730.76843,79.49828,179.44267
"53873",730.78174,79.54711,179.47581
"53874",730.79504,79.63256,179.5471
"53875",730.80835,79.73266,179.63571
"53876",730.82166,79.823,179.7177
"53877",730.83496,79.886475,179.77563
"53878",730.84827,79.903564,179.78918
"53879",730.8616,79.87427,179.75687
"53880",730.8749,79.801025,179.67969
"53881",730.8882,79.693596,179.56604
"53882",730.9015,79.569084,179.43195
"53883",730.9148,79.44457,179.29396
"53884",730.9281,79.327385,179.15941
"53885",730.9414,79.22972,179.04073
"53886",730.9547,79.149155,178.93608
"53887",730.968,79.09056,178.85089
"53888",730.9813,79.044174,178.77608
"53889",730.9946,79.00511,178.70714
"53890",731.00793,78.97337,178.6443
"53891",731.02124,78.94652,178.58536
"53892",731.03455,78.924545,178.53046
"53893",731.04785,78.9099,178.4822
"53894",731.06116,78.89769,178.43591
"53895",731.07446,78.90013,178.4039
"53896",731.08777,78.95384,178.42323
"53897",731.1011,79.12718,178.56387
"53898",731.1144,79.48119,178.89061
"53899",731.1277,80.03052,179.42372
"53900",731.141,80.723885,180.11804
"53901",731.1543,81.45876,180.87555
"53902",731.1676,82.09598,181.55835
"53903",731.1809,82.51591,182.04378
"53904",731.1942,82.67216,182.27866
"53905",731.2075,82.579384,182.2694
"53906",731.2208,82.29862,182.06924
"53907",731.23413,81.90555,181.748
"53908",731.24744,81.47097,181.37297
"53909",731.26074,81.0486,180.99657
"53910",731.27405,80.67506,180.65579
"53911",731.28735,80.365,180.36684
"53912",731.30066,80.12329,180.13654
"53913",731.31396,79.93042,179.94751
"53914",731.3273,79.783936,179.79886
"53915",731.3406,79.67895,179.68712
"53916",731.3539,79.61303,179.61116
"53917",731.3672,79.5935,179.57953
"53918",731.3805,79.62035,179.59367
"53919",731.3938,79.68383,179.64528
"53920",731.4071,79.76196,179.71353
"53921",731.4204,79.83276,179.77689
"53922",731.4337,79.871826,179.81073
"53923",731.447,79.871826,179.80673
"53924",731.4603,79.83276,179.76367
"53925",731.47363,79.766846,179.69254
"53926",731.48694,79.67895,179.59735
"53927",731.50024,79.58129,179.48965
"53928",731.51355,79.47387,179.36914
"53929",731.52686,79.36645,179.24527
"53930",731.54016,79.256584,179.1156
"53931",731.55347,79.15648,178.99226
"53932",731.5668,79.07103,178.88045
"53933",731.5801,79.00755,178.78793
"53934",731.5934,78.96605,178.71541
"53935",731.6067,78.94408,178.66112
"53936",731.62,78.93431,178.61835
"53937",731.6333,78.93431,178.58504
"53938",731.6466,78.93675,178.55417
"53939",731.6599,78.93431,178.5185
"53940",731.6732,78.93431,178.48518
"53941",731.6865,78.93187,178.44943
"53942",731.6998,78.93187,178.41605
"53943",731.71313,78.96361,178.4144
"53944",731.72644,79.08324,178.50163
"53945",731.73975,79.35912,178.74887
"53946",731.75305,79.82788,179.1976
"53947",731.76636,80.47486,179.8392
"53948",731.77966,81.21706,180.59624
"53949",731.79297,81.92264,181.33986
"53950",731.8063,82.45243,181.92973
"53951",731.8196,82.72831,182.28226
"53952",731.8329,82.735634,182.37485
"53953",731.8462,82.52323,182.24794
"53954",731.8595,82.161896,181.96545
"53955",731.8728,81.73464,181.60576
"53956",731.8861,81.30251,181.22784
"53957",731.8994,80.90456,180.87059
"53958",731.9127,80.56275,180.55705
"53959",731.926,80.28199,180.29388
"53960",731.93933,80.05737,180.07808
"53961",731.95264,79.88159,179.90408
"53962",731.96594,79.74731,179.7661
"53963",731.97925,79.656975,179.66786
"53964",731.99255,79.62035,179.62051
"53965",732.00586,79.63256,179.62085
"53966",732.01917,79.68139,179.65819
"53967",732.0325,79.75464,179.72148
"53968",732.0458,79.83032,179.78949
"53969",732.0591,79.87915,179.83301
"53970",732.0724,79.888916,179.83899
"53971",732.0857,79.8645,179.8111
"53972",732.099,79.801025,179.74338
"53973",732.1123,79.71557,179.6517
"53974",732.1256,79.61547,179.54271
"53975",732.1389,79.50805,179.42326
"53976",732.1522,79.40063,179.30046
"53977",732.1655,79.30053,179.18163
"53978",732.17883,79.21019,179.06943
"53979",732.19214,79.132065,178.96661
"53980",732.20544,79.06859,178.876
"53981",732.21875,79.01976,178.79807
"53982",732.23206,78.98314,178.7308
"53983",732.24536,78.95628,178.67216
"53984",732.25867,78.941635,178.6249
"53985",732.272,78.92943,178.5796
"53986",732.2853,78.924545,178.54126
"53987",732.2986,78.91966,178.50276
"53988",732.3119,78.91234,178.46167
"53989",732.3252,78.905014,178.42035
"53990",732.3385,78.89769,178.3788
"53991",732.3518,78.90013,178.34679
"53992",732.3651,78.96361,178.37589
"53993",732.3784,79.151596,178.53148
"53994",732.3917,79.5227,178.87607
"53995",732.405,80.08179,179.42024
"53996",732.41833,80.77272,180.11374
"53997",732.43164,81.48562,180.85078
"53998",732.44495,82.08133,181.49292
"53999",732.45825,82.44999,181.92662
"54000",732.47156,82.55497,182.10817
"54001",732.48486,82.41825,182.0513
"54002",732.49817,82.1033,181.81192
"54003",732.5115,81.69314,181.46748
"54004",732.5248,81.26101,181.08827
"54005",732.5381,80.848404,180.71507
"54006",732.5514,80.49439,180.38757
"54007",732.5647,80.198975,180.1076
"54008",732.578,79.9646,179.87946
"54009",732.5913,79.77661,179.69037
"54010",732.6046,79.635,179.54178
"54011",732.6179,79.53979,179.43515
"54012",732.6312,79.49828,179.37926
"54013",732.64453,79.51049,179.37578
"54014",732.65784,79.57397,179.42395
"54015",732.67114,79.674065,179.51073
"54016",732.68445,79.77905,179.60553
"54017",732.69775,79.86206,179.68164
"54018",732.71106,79.90845,179.72372
"54019",732.72437,79.91089,179.7233
"54020",732.7377,79.86694,179.67657
"54021",732.751,79.78638,179.59186
"54022",732.7643,79.67895,179.47775
"54023",732.7776,79.56176,179.35052
"54024",732.7909,79.44457,179.21964
"54025",732.8042,79.33227,179.08997
"54026",732.8175,79.234604,178.97144
"54027",732.8308,79.15404,178.86694
"54028",732.8441,79.09056,178.77702
"54029",732.8574,79.04173,178.69977
"54030",732.8707,79.00267,178.63075
"54031",732.88403,78.975815,178.57272
"54032",732.89734,78.95384,178.51874
"54033",732.91064,78.93919,178.47139
"54034",732.92395,78.92943,178.42847
"54035",732.93726,78.91966,178.38524
"54036",732.95056,78.9099,178.3417
"54037",732.96387,78.907455,178.30519
"54038",732.9772,78.91234,178.27592
"54039",732.9905,78.96117,178.29076
"54040",733.0038,79.11986,178.41698
"54041",733.0171,79.43969,178.7093
"54042",733.0304,79.94263,179.19473
"54043",733.0437,80.587166,179.83748
"54044",733.057,81.28298,180.55165
"54045",733.0703,81.898224,181.20699
"54046",733.0836,82.31815,181.68623
"54047",733.0969,82.48417,181.9247
"54048",733.1102,82.41825,181.93642
"54049",733.12354,82.16434,181.75807
"54050",733.13684,81.7908,181.45218
"54051",733.15015,81.36599,181.08333
"54052",733.16345,80.94606,180.70609
"54053",733.17676,80.56275,180.35234
"54054",733.19006,80.23804,180.04521
"54055",733.20337,79.974365,179.78897
"54056",733.2167,79.766846,179.58066
"54057",733.23,79.61303,179.41956
"54058",733.2433,79.50805,179.30247
"54059",733.2566,79.45434,179.23338
"54060",733.2699,79.46166,179.22365
"54061",733.2832,79.53002,179.27518
"54062",733.2965,79.64477,179.37523
"54063",733.3098,79.781494,179.50085
"54064",733.3231,79.90845,179.62097
"54065",733.3364,80.01099,179.72064
"54066",733.34973,80.05737,179.76736
"54067",733.36304,80.05249,179.76428
"54068",733.37634,79.99878,179.71222
"54069",733.38965,79.91333,179.62674
"54070",733.40295,79.80591,179.5166
"54071",733.41626,79.693596,179.39822
"54072",733.42957,79.58129,179.27634
"54073",733.4429,79.47387,179.15582
"54074",733.4562,79.378654,179.04416
"54075",733.4695,79.29809,178.94417
"54076",733.4828,79.234604,178.85875
"54077",733.4961,79.183334,178.78355
"54078",733.5094,79.149155,178.72385
"54079",733.5227,79.12962,178.67772
"54080",733.536,79.1223,178.64319
"54081",733.5493,79.11742,178.61087
"54082",733.5626,79.10765,178.57352
"54083",733.5759,79.097885,178.53586
"54084",733.58923,79.10033,178.5101
"54085",733.60254,79.17113,178.55278
"54086",733.61584,79.378654,178.7344
"54087",733.62915,79.77905,179.11539
"54088",733.64246,80.360115,179.68954
"54089",733.65576,81.05592,180.3966
"54090",733.66907,81.74441,181.11809
"54091",733.6824,82.30106,181.72926
"54092",733.6957,82.62333,182.12344
"54093",733.709,82.69413,182.27623
"54094",733.7223,82.53788,182.20418
"54095",733.7356,82.22781,181.97342
"54096",733.7489,81.829865,181.6451
"54097",733.7622,81.41482,181.28723
"54098",733.7755,81.02174,180.93837
"54099",733.7888,80.67506,180.62361
"54100",733.8021,80.38209,180.35175
"54101",733.8154,80.13794,180.11954
"54102",733.82874,79.9353,179.9212
"54103",733.84204,79.77661,179.7605
"54104",733.85535,79.66674,179.64365
"54105",733.86865,79.605705,179.57219
"54106",733.88196,79.59838,179.55254
"54107",733.89526,79.639885,179.58148
"54108",733.90857,79.71557,179.6459
"54109",733.9219,79.801025,179.72247
"54110",733.9352,79.871826,179.78705
"54111",733.9485,79.91577,179.827
"54112",733.9618,79.920654,179.82925
"54113",733.9751,79.88403,179.79016
"54114",733.9884,79.80591,179.7084
"54115",734.0017,79.7058,179.60223
"54116",734.015,79.5935,179.48073
"54117",734.0283,79.47387,179.34839
"54118",734.0416,79.35668,179.21475
"54119",734.05493,79.24925,179.08722
"54120",734.06824,79.15648,178.97098
"54121",734.08154,79.08568,178.87381
"54122",734.09485,79.03685,178.7964
"54123",734.10815,79.00267,178.73212
"54124",734.12146,78.98314,178.68141
"54125",734.13477,78.97093,178.63742
"54126",734.1481,78.958725,178.59305
"54127",734.1614,78.94652,178.5483
"54128",734.1747,78.93187,178.50072
"54129",734.188,78.922104,178.45757
"54130",734.2013,78.93431,178.43608
"54131",734.2146,79.0222,178.49066
"54132",734.2279,79.26391,178.70181
"54133",734.2412,79.69604,179.11093
"54134",734.2545,80.31373,179.71912
"54135",734.2678,81.03883,180.45403
"54136",734.2811,81.74929,181.19695
"54137",734.29443,82.303505,181.80583
"54138",734.30774,82.616005,182.19032
"54139",734.32104,82.65751,182.31358
"54140",734.33435,82.476845,182.21597
"54141",734.34766,82.14725,181.96378
"54142",734.36096,81.74197,181.6256
"54143",734.37427,81.339134,181.2772
"54144",734.3876,80.98268,180.9626
"54145",734.4009,80.689705,180.70033
"54146",734.4142,80.45777,180.48996
"54147",734.4275,80.272224,180.31873
"54148",734.4408,80.11597,180.17097
"54149",734.4541,79.97681,180.03543
"54150",734.4674,79.8645,179.9224
"54151",734.4807,79.783936,179.83759
"54152",734.494,79.74731,179.7942
"54153",734.5073,79.74731,179.7863
"54154",734.5206,79.781494,179.81259
"54155",734.53394,79.823,179.84726
"54156",734.54724,79.85962,179.87836
"54157",734.56055,79.871826,179.88617
"54158",734.57385,79.85718,179.86752
"54159",734.58716,79.80591,179.8118
"54160",734.60046,79.72289,179.72272
"54161",734.6138,79.62035,179.61151
"54162",734.6271,79.50561,179.4849
"54163",734.6404,79.38354,179.34737
"54164",734.6537,79.26635,179.2109
"54165",734.667,79.15892,179.08055
"54166",734.6803,79.06859,178.96393
"54167",734.6936,78.98802,178.85425
"54168",734.7069,78.922104,178.7567
"54169",734.7202,78.86595,178.66685
"54170",734.7335,78.81712,178.58258
"54171",734.7468,78.77562,178.5041
"54172",734.76013,78.74387,178.4341
"54173",734.77344,78.7219,178.37286
"54174",734.78674,78.71458,178.32559
"54175",734.80005,78.712135,178.28297
"54176",734.81335,78.71458,178.24516
"54177",734.82666,78.7219,178.21231
"54178",734.83997,78.72678,178.17725
"54179",734.8533,78.75609,178.16676
"54180",734.8666,78.86351,178.2353
"54181",734.8799,79.12718,178.46346
"54182",734.8932,79.60082,178.90982
"54183",734.9065,80.2649,179.56142
"54184",734.9198,81.03639,180.34119
"54185",734.9331,81.78104,181.11823
"54186",734.9464,82.354774,181.74762
"54187",734.9597,82.65751,182.12395
"54188",734.973,82.67948,182.22897
"54189",734.9863,82.47196,182.1052
"54190",734.99963,82.11551,181.82599
"54191",735.01294,81.6907,181.46729
"54192",735.02625,81.27566,181.10509
"54193",735.03955,80.91676,180.78606
"54194",735.05286,80.62379,180.52173
"54195",735.06616,80.40162,180.31906
"54196",735.07947,80.233154,180.16315
"54197",735.0928,80.093994,180.03128
"54198",735.1061,79.97681,179.91702
"54199",735.1194,79.88159,179.82108
"54200",735.1327,79.82056,179.75635
"54201",735.146,79.7937,179.72388
"54202",735.1593,79.798584,179.72232
"54203",735.1726,79.82788,179.74533
"54204",735.1859,79.86206,179.77414
"54205",735.1992,79.886475,179.79425
"54206",735.2125,79.886475,179.79071
"54207",735.2258,79.86206,179.76276
"54208",735.23914,79.80835,179.70474
"54209",735.25244,79.73266,179.62306
"54210",735.26575,79.639885,179.52193
"54211",735.27905,79.53246,179.40324
"54212",735.29236,79.42016,179.27632
"54213",735.30566,79.310295,179.14833
"54214",735.319,79.19554,179.01202
"54215",735.3323,79.093,178.88434
"54216",735.3456,79.00023,178.76321
"54217",735.3589,78.93187,178.6636
"54218",735.3722,78.8806,178.57895
"54219",735.3855,78.84886,178.51222
"54220",735.3988,78.839096,178.46648
"54221",735.4121,78.84398,178.43507
"54222",735.4254,78.8513,178.40627
"54223",735.4387,78.86595,178.38501
"54224",735.452,78.88304,178.36665
"54225",735.46533,78.89525,178.34395
"54226",735.47864,78.905014,178.31918
"54227",735.49194,78.91478,178.29472
"54228",735.50525,78.924545,178.27057
"54229",735.51855,78.93431,178.24672
"54230",735.53186,78.94652,178.22562
"54231",735.54517,78.992905,178.23907
"54232",735.5585,79.132065,178.34676
"54233",735.5718,79.43725,178.62482
"54234",735.5851,79.94263,179.11261
"54235",735.5984,80.621346,179.78954
"54236",735.6117,81.3782,180.56581
"54237",735.625,82.07156,181.30225
"54238",735.6383,82.562294,181.85771
"54239",735.6516,82.76738,182.14287
"54240",735.6649,82.69657,182.15854
"54241",735.6782,82.41581,181.96205
"54242",735.6915,82.005646,181.62738
"54243",735.70483,81.549095,181.2335
"54244",735.71814,81.1194,180.85222
"54245",735.73145,80.740974,180.50877
"54246",735.74475,80.4358,180.22676
"54247",735.75806,80.198975,180.00356
"54248",735.77136,80.02319,179.83398
"54249",735.78467,79.88159,179.69312
"54250",735.798,79.77173,179.57956
"54251",735.8113,79.68627,179.48697
"54252",735.8246,79.63256,179.42345
"54253",735.8379,79.61547,179.39487
"54254",735.8512,79.63744,179.40482
"54255",735.8645,79.691154,179.44719
"54256",735.8778,79.75708,179.50346
"54257",735.8911,79.815674,179.55447
"54258",735.9044,79.84985,179.58289
"54259",735.9177,79.85474,179.58307
"54260",735.931,79.82544,179.54922
"54261",735.94434,79.766846,179.48517
"54262",735.95764,79.68871,179.39975
"54263",735.97095,79.603264,179.30457
"54264",735.98425,79.51537,179.20427
"54265",735.99756,79.42504,179.09879
"54266",736.01086,79.33471,178.99048
"54267",736.0242,79.2517,178.88667
"54268",736.0375,79.17845,178.79004
"54269",736.0508,79.11253,178.69844
"54270",736.0641,79.05882,178.61699
"54271",736.0774,79.01732,178.54607
"54272",736.0907,78.98558,178.48361
"54273",736.104,78.95628,178.4226
"54274",736.1173,78.92943,178.36313
"54275",736.1306,78.9099,178.31013
"54276",736.1439,78.89525,178.26141
"54277",736.1572,78.88304,178.21468
"54278",736.17053,78.870834,178.16756
"54279",736.18384,78.86107,178.1225
"54280",736.19714,78.84886,178.07469
"54281",736.21045,78.83177,178.02162
"54282",736.22375,78.8098,177.96313
"54283",736.23706,78.785385,177.90152
"54284",736.25037,78.76097,177.83914
"54285",736.2637,78.75365,177.79309
"54286",736.277,78.81468,177.81517
"54287",736.2903,79.01488,177.97832
"54288",736.3036,79.415276,178.34793
"54289",736.3169,80.01587,178.93025
"54290",736.3302,80.74586,179.66074
"54291",736.3435,81.4905,180.4287
"54292",736.3568,82.09598,181.08075
"54293",736.3701,82.45487,181.50514
"54294",736.3834,82.54032,181.66731
"54295",736.3967,82.38407,181.59045
"54296",736.41003,82.0618,181.34268
"54297",736.42334,81.65896,181.00427
"54298",736.43665,81.24391,180.64107
"54299",736.44995,80.85817,180.2942
"54300",736.46326,80.53101,179.99387
"54301",736.47656,80.26978,179.74924
"54302",736.48987,80.06958,179.55746
"54303",736.5032,79.91333,179.40338
"54304",736.5165,79.79126,179.2786
"54305",736.5298,79.69848,179.17929
"54306",736.5431,79.63744,179.10883
"54307",736.5564,79.61791,179.07796
"54308",736.5697,79.635,179.0831
"54309",736.583,79.68383,179.12051
"54310",736.5963,79.7522,179.179
"54311",736.6096,79.823,179.24207
"54312",736.6229,79.87915,179.2927
"54313",736.6362,79.90845,179.3182
"54314",736.64954,79.90112,179.30801
"54315",736.66284,79.85474,179.25854
"54316",736.67615,79.77417,179.17343
"54317",736.68945,79.67162,179.06383
"54318",736.70276,79.55932,178.94125
"54319",736.71606,79.449455,178.81761
"54320",736.7294,79.34692,178.69786
"54321",736.7427,79.256584,178.58711
"54322",736.756,79.185776,178.49307
"54323",736.7693,79.12718,178.40903
"54324",736.7826,79.080795,178.33536
"54325",736.7959,79.044174,178.27
"54326",736.8092,79.01488,178.21083
"54327",736.8225,78.99046,178.15562
"54328",736.8358,78.97093,178.10454
"54329",736.8491,78.958725,178.06017
"54330",736.8624,78.95384,178.02274
"54331",736.87573,78.95628,177.99248
"54332",736.88904,78.958725,177.9623
"54333",736.90234,78.958725,177.92975
"54334",736.91565,78.96117,177.89964
"54335",736.92896,78.96117,177.86717
"54336",736.94226,78.95384,177.82738
"54337",736.95557,78.94408,177.78491
"54338",736.9689,78.941635,177.74947
"54339",736.9822,78.99046,177.76521
"54340",736.9955,79.15404,177.89723
"54341",737.0088,79.49584,178.2126
"54342",737.0221,80.0354,178.7364
"54343",737.0354,80.71412,179.41623
"54344",737.0487,81.42458,180.14902
"54345",737.062,82.0325,180.80145
"54346",737.0753,82.423134,181.2556
"54347",737.0886,82.55009,181.45828
"54348",737.1019,82.43046,181.41835
"54349",737.11523,82.13504,181.19888
"54350",737.12854,81.73708,180.86765
"54351",737.14185,81.307396,180.49225
"54352",737.15515,80.89723,180.12294
"54353",737.16846,80.54078,179.79453
"54354",737.18176,80.25025,179.5209
"54355",737.19507,80.01587,179.29434
"54356",737.2084,79.835205,179.11417
"54357",737.2217,79.693596,178.9674
"54358",737.235,79.59594,178.86017
"54359",737.2483,79.54955,178.80115
"54360",737.2616,79.55932,178.79683
"54361",737.2749,79.62035,178.84409
"54362",737.2882,79.72045,178.93231
"54363",737.3015,79.835205,179.03833
"54364",737.3148,79.940186,179.13815
"54365",737.3281,80.01343,179.20953
"54366",737.34143,80.045166,179.2417
"54367",737.35474,80.03052,179.22845
"54368",737.36804,79.97925,179.17813
"54369",737.38135,79.89624,179.09448
"54370",737.39465,79.79126,178.98627
"54371",737.40796,79.674065,178.86255
"54372",737.42126,79.554436,178.73273
"54373",737.4346,79.44457,178.60893
"54374",737.4479,79.34936,178.49635
"54375",737.4612,79.26879,178.39545
"54376",737.4745,79.202866,178.30667
"54377",737.4878,79.14427,178.22316
"54378",737.5011,79.097885,178.15002
"54379",737.5144,79.063705,178.08765
"54380",737.5277,79.0515,178.04617
"54381",737.541,79.063705,178.02873
"54382",737.5543,79.08812,178.02388
"54383",737.5676,79.11253,178.01979
"54384",737.58093,79.13451,178.01402
"54385",737.59424,79.14427,177.99673
"54386",737.60754,79.14183,177.96754
"54387",737.62085,79.13695,177.93584
"54388",737.63416,79.15648,177.92839
"54389",737.64746,79.25414,177.9997
"54390",737.66077,79.500725,178.22296
"54391",737.6741,79.93042,178.63705
"54392",737.6874,80.52857,179.23303
"54393",737.7007,81.21217,179.93315
"54394",737.714,81.8616,180.62047
"54395",737.7273,82.34745,181.16449
"54396",737.7406,82.59647,181.48688
"54397",737.7539,82.59647,181.56802
"54398",737.7672,82.39628,181.44897
"54399",737.7805,82.0618,181.18938
"54400",737.7938,81.66628,180.85829
"54401",737.8071,81.25613,180.50021
"54402",737.82043,80.87526,180.1586
"54403",737.83374,80.54078,179.85147
"54404",737.84705,80.26002,179.58762
"54405",737.86035,80.03296,179.36868
"54406",737.87366,79.85474,179.1915
"54407",737.88696,79.725334,179.05756
"54408",737.90027,79.64721,178.97084
"54409",737.9136,79.622795,178.9354
"54410",737.9269,79.656975,178.95778
"54411",737.9402,79.7351,179.02518
"54412",737.9535,79.84741,179.12921
"54413",737.9668,79.9646,179.24164
"54414",737.9801,80.059814,179.33575
"54415",737.9934,80.11841,179.39621
"54416",738.0067,80.13794,179.41943
"54417",738.02,80.10864,179.39444
"54418",738.0333,80.042725,179.33191
"54419",738.04663,79.94995,179.24048
"54420",738.05994,79.84741,179.13638
"54421",738.07324,79.73754,179.02174
"54422",738.08655,79.635,178.911
"54423",738.09985,79.54223,178.80681
"54424",738.11316,79.46166,178.71193
"54425",738.12646,79.39086,178.6243
"54426",738.1398,79.33227,178.54666
"54427",738.1531,79.28588,178.4794
"54428",738.1664,79.24925,178.42046
"54429",738.1797,79.217514,178.36525
"54430",738.193,79.1931,178.31638
"54431",738.2063,79.17601,178.27406
"54432",738.2196,79.168686,178.24098
"54433",738.2329,79.1638,178.21011
"54434",738.2462,79.168686,178.18886
"54435",738.2595,79.17845,178.17264
"54436",738.2728,79.183334,178.15184
"54437",738.28613,79.185776,178.12875
"54438",738.29944,79.185776,178.1033
"54439",738.31274,79.21019,178.10226
"54440",738.32605,79.31762,178.18501
"54441",738.33936,79.58373,178.4298
"54442",738.35266,80.05493,178.88799
"54443",738.36597,80.70191,179.53668
"54444",738.3793,81.44167,180.29839
"54445",738.3926,82.13748,181.03925
"54446",738.4059,82.65751,181.62607
"54447",738.4192,82.91142,181.96303
"54448",738.4325,82.90166,182.04425
"54449",738.4458,82.67948,181.91275
"54450",738.4591,82.320595,181.6376
"54451",738.4724,81.900665,181.29019
"54452",738.4857,81.46853,180.91745
"54453",738.499,81.06813,180.56294
"54454",738.5123,80.72877,180.25696
"54455",738.52563,80.45045,180.00142
"54456",738.53894,80.23804,179.80309
"54457",738.55225,80.079346,179.65182
"54458",738.56555,79.96704,179.54199
"54459",738.57886,79.89136,179.46527
"54460",738.59216,79.85474,179.42526
"54461",738.60547,79.85962,179.4256
"54462",738.6188,79.90112,179.4627
"54463",738.6321,79.96948,179.52798
"54464",738.6454,80.04761,179.60516
"54465",738.6587,80.113525,179.67258
"54466",738.672,80.15503,179.71762
"54467",738.6853,80.15747,179.72491
"54468",738.6986,80.11597,179.68832
"54469",738.7119,80.0354,179.61139
"54470",738.7252,79.93042,179.5075
"54471",738.7385,79.80835,179.38327
"54472",738.75183,79.67895,179.24788
"54473",738.76514,79.554436,179.11333
"54474",738.77844,79.44213,178.98709
"54475",738.79175,79.34203,178.86955
"54476",738.80505,79.256584,178.76353
"54477",738.81836,79.1931,178.67682
"54478",738.83167,79.14427,178.60277
"54479",738.845,79.11009,178.54184
"54480",738.8583,79.08568,178.48961
"54481",738.8716,79.063705,178.43906
"54482",738.8849,79.046616,178.3927
"54483",738.8982,79.03441,178.3507
"54484",738.9115,79.029526,178.31563
"54485",738.9248,79.027084,178.28285
"54486",738.9381,79.03197,178.25732
"54487",738.9514,79.03685,178.23195
"54488",738.9647,79.04173,178.20673
"54489",738.978,79.044174,178.17921
"54490",738.99133,79.04173,178.1469
"54491",739.00464,79.0515,178.12671
"54492",739.01794,79.11253,178.1581
"54493",739.03125,79.29565,178.31348
"54494",739.04456,79.65942,178.65523
"54495",739.05786,80.216064,179.20123
"54496",739.07117,80.91432,179.90625
"54497",739.0845,81.651634,180.67213
"54498",739.0978,82.27665,181.34877
"54499",739.1111,82.684364,181.82764
"54500",739.1244,82.82353,182.05069
"54501",739.1377,82.71122,182.02661
"54502",739.151,82.408485,181.80861
"54503",739.1643,81.99832,181.47371
"54504",739.1776,81.55154,181.08937
"54505",739.1909,81.1194,180.70572
"54506",739.2042,80.73365,180.35495
"54507",739.2175,80.413826,180.05806
"54508",739.23083,80.16235,179.81952
"54509",739.24414,79.9646,179.62683
"54510",739.25745,79.80835,179.46948
"54511",739.27075,79.691154,179.3463
"54512",739.28406,79.60815,179.25363
"54513",739.29736,79.55932,179.19255
"54514",739.31067,79.551994,179.17145
"54515",739.324,79.58373,179.18918
"54516",739.3373,79.64477,179.2372
"54517",739.3506,79.72289,179.30421
"54518",739.3639,79.79614,179.3688
"54519",739.3772,79.84985,179.41614
"54520",739.3905,79.86694,179.42853
"54521",739.4038,79.84741,179.40485
"54522",739.4171,79.79614,179.34882
"54523",739.4304,79.71557,179.26187
"54524",739.4437,79.61791,179.15532
"54525",739.45703,79.51293,179.03839
"54526",739.47034,79.40795,178.91818
"54527",739.48364,79.30785,178.79958
"54528",739.49695,79.21263,178.68272
"54529",739.51025,79.132065,178.57755
"54530",739.52356,79.06859,178.48694
"54531",739.53687,79.01488,178.40411
"54532",739.5502,78.975815,178.33426
"54533",739.5635,78.94652,178.27295
"54534",739.5768,78.92699,178.22049
"54535",739.5901,78.91478,178.17474
"54536",739.6034,78.905014,178.13106
"54537",739.6167,78.89769,178.08951
"54538",739.63,78.89281,178.05017
"54539",739.6433,78.89525,178.018
"54540",739.6566,78.90013,177.98836
"54541",739.6699,78.9099,177.96375
"54542",739.6832,78.92699,177.94676
"54543",739.69653,78.97337,177.95961
"54544",739.70984,79.11009,178.06424
"54545",739.72314,79.38842,178.31476
"54546",739.73645,79.85474,178.76196
"54547",739.74976,80.482185,179.38487
"54548",739.76306,81.1902,180.10796
"54549",739.77637,81.85184,180.8068
"54550",739.7897,82.34989,181.36272
"54551",739.803,82.60136,181.68762
"54552",739.8163,82.6038,181.77136
"54553",739.8296,82.408485,181.65742
"54554",739.8429,82.07889,181.40309
"54555",739.8562,81.67849,181.06766
"54556",739.8695,81.26589,180.70752
"54557",739.8828,80.87526,180.35645
"54558",739.8961,80.533455,180.04199
"54559",739.9094,80.25025,179.77547
"54560",739.9227,80.028076,179.56111
"54561",739.93604,79.852295,179.3862
"54562",739.94934,79.72289,179.25218
"54563",739.96265,79.63256,179.15318
"54564",739.97595,79.58373,179.09286
"54565",739.98926,79.59106,179.08717
"54566",740.00256,79.64965,179.13298
"54567",740.01587,79.74975,179.22212
"54568",740.0292,79.871826,179.33638
"54569",740.0425,79.98169,179.44223
"54570",740.0558,80.059814,179.51978
"54571",740.0691,80.096436,179.55826
"54572",740.0824,80.076904,179.54175
"54573",740.0957,80.01587,179.48312
"54574",740.109,79.923096,179.39084
"54575",740.1223,79.81079,179.27612
"54576",740.1356,79.691154,179.15057
"54577",740.1489,79.57397,179.02373
"54578",740.16223,79.46899,178.90543
"54579",740.17554,79.378654,178.7985
"54580",740.18884,79.30053,178.70094
"54581",740.20215,79.237045,178.6156
"54582",740.21545,79.183334,178.53804
"54583",740.22876,79.13695,178.46613
"54584",740.24207,79.10277,178.40497
"54585",740.2554,79.08812,178.36227
"54586",740.2687,79.08324,178.32889
"54587",740.282,79.093,178.31
"54588",740.2953,79.10277,178.29141
"54589",740.3086,79.10765,178.26825
"54590",740.3219,79.10765,178.24036
"54591",740.3352,79.12962,178.23444
"54592",740.3485,79.219955,178.29756
"54593",740.3618,79.45678,178.51001
"54594",740.3751,79.87671,178.91296
"54595",740.3884,80.462654,179.49506
"54596",740.40173,81.13161,180.17847
"54597",740.41504,81.76883,180.85106
"54598",740.42834,82.252235,181.38974
"54599",740.44165,82.50614,181.71404
"54600",740.45496,82.513466,181.79968
"54601",740.46826,82.31815,181.68292
"54602",740.48157,81.991,181.4282
"54603",740.4949,81.5906,181.09003
"54604",740.5082,81.17311,180.72224
"54605",740.5215,80.77516,180.36096
"54606",740.5348,80.42359,180.03362
"54607",740.5481,80.128174,179.75143
"54608",740.5614,79.88403,179.51129
"54609",740.5747,79.691154,179.31479
"54610",740.588,79.54955,179.16353
"54611",740.6013,79.46166,179.06155
"54612",740.6146,79.42748,179.01054
"54613",740.6279,79.447014,179.01218
"54614",740.64124,79.520256,179.06813
"54615",740.65454,79.63256,179.16544
"54616",740.66785,79.75708,179.27847
"54617",740.68115,79.869385,179.38318
"54618",740.69446,79.94995,179.45966
"54619",740.70776,79.98169,179.48984
"54620",740.72107,79.95972,179.46729
"54621",740.7344,79.8938,179.40012
"54622",740.7477,79.80347,179.30646
"54623",740.761,79.69604,179.19289
"54624",740.7743,79.586174,179.07352
"54625",740.7876,79.48119,178.9556
"54626",740.8009,79.38842,178.8466
"54627",740.8142,79.310295,178.74936
"54628",740.8275,79.24437,178.66188
"54629",740.8408,79.1931,178.58699
"54630",740.8541,79.15648,178.52515
"54631",740.86743,79.12474,178.46704
"54632",740.88074,79.10277,178.41771
"54633",740.89404,79.08324,178.37013
"54634",740.90735,79.06615,178.32439
"54635",740.92065,79.0515,178.28055
"54636",740.93396,79.03929,178.2387
"54637",740.94727,79.029526,178.1989
"54638",740.9606,79.05638,178.19542
"54639",740.9739,79.17601,178.28555
"54640",740.9872,79.45434,178.53813
"54641",741.0005,79.92554,178.99228
"54642",741.0138,80.56275,179.62717
"54643",741.0271,81.2781,180.3601
"54644",741.0404,81.93973,181.06168
"54645",741.0537,82.41825,181.60081
"54646",741.067,82.64042,181.89856
"54647",741.0803,82.60624,181.9469
"54648",741.0936,82.371864,181.79398
"54649",741.10693,82.00809,181.50432
"54650",741.12024,81.59548,181.15446
"54651",741.13354,81.18532,180.79416
"54652",741.14685,80.81911,180.465
"54653",741.16016,80.5066,180.17809
"54654",741.17346,80.24536,179.93268
"54655",741.18677,80.0354,179.73038
"54656",741.2001,79.869385,179.56546
"54657",741.2134,79.73754,179.42953
"54658",741.2267,79.65209,179.33588
"54659",741.24,79.61059,179.2835
"54660",741.2533,79.61547,179.2762
"54661",741.2666,79.65453,179.30324
"54662",741.2799,79.71557,179.35347
"54663",741.2932,79.783936,179.41295
"54664",741.3065,79.84253,179.46478
"54665",741.3198,79.87671,179.49405
"54666",741.3331,79.87915,179.49265
"54667",741.34644,79.852295,179.462
"54668",741.35974,79.7937,179.3988
"54669",741.37305,79.710686,179.30934
"54670",741.38635,79.61303,179.20264
"54671",741.39966,79.50561,179.08311
"54672",741.41296,79.395744,178.9578
"54673",741.4263,79.29809,178.84125
"54674",741.4396,79.21507,178.7363
"54675",741.4529,79.14671,178.6434
"54676",741.4662,79.097885,178.5679
"54677",741.4795,79.06859,178.5104
"54678",741.4928,79.05394,178.46664
"54679",741.5061,79.0515,178.43463
"54680",741.5194,79.05882,178.41231
"54681",741.5327,79.07103,178.3951
"54682",741.546,79.080795,178.37582
"54683",741.5593,79.08324,178.34953
"54684",741.57263,79.080795,178.31844
"54685",741.58594,79.07347,178.28238
"54686",741.59924,79.063705,178.24365
"54687",741.61255,79.080795,178.23148
"54688",741.62585,79.17357,178.29552
"54689",741.63916,79.41039,178.50652
"54690",741.65247,79.84009,178.91779
"54691",741.6658,80.45533,179.52803
"54692",741.6791,81.17555,180.26248
"54693",741.6924,81.881134,181.0048
"54694",741.7057,82.4329,181.61536
"54695",741.719,82.74052,181.99901
"54696",741.7323,82.77959,182.12372
"54697",741.7456,82.598915,182.0299
"54698",741.7589,82.269325,181.78154
"54699",741.7722,81.864044,181.44717
"54700",741.7855,81.45144,181.09282
"54701",741.7988,81.075455,180.76219
"54702",741.81213,80.75807,180.47842
"54703",741.82544,80.499275,180.24332
"54704",741.83875,80.29664,180.05629
"54705",741.85205,80.1355,179.90442
"54706",741.86536,80.00122,179.77438
"54707",741.87866,79.90112,179.67432
"54708",741.89197,79.83765,179.60776
"54709",741.9053,79.81323,179.57828
"54710",741.9186,79.82544,179.58466
"54711",741.9319,79.8645,179.61826
"54712",741.9452,79.91577,179.66528
"54713",741.9585,79.9646,179.71149
"54714",741.9718,79.991455,179.73724
"54715",741.9851,79.991455,179.73697
"54716",741.9984,79.957275,179.70251
"54717",742.0117,79.8938,179.6377
"54718",742.025,79.801025,179.5416
"54719",742.0383,79.69848,179.43283
"54720",742.05164,79.59106,179.31598
"54721",742.06494,79.48608,179.19821
"54722",742.07825,79.38842,179.08449
"54723",742.09155,79.30785,178.9848
"54724",742.10486,79.24193,178.89725
"54725",742.11816,79.19066,178.82228
"54726",742.1315,79.14427,178.7506
"54727",742.1448,79.10277,178.68234
"54728",742.1581,79.063705,178.61523
"54729",742.1714,79.03197,178.55423
"54730",742.1847,79.009995,178.502
"54731",742.198,79.00511,178.46617
"54732",742.2113,79.009995,178.43996
"54733",742.2246,79.0222,178.42122
"54734",742.2379,79.029526,178.39798
"54735",742.2512,79.029526,178.36765
"54736",742.2645,79.02464,178.33243
"54737",742.27783,79.01976,178.29706
"54738",742.29114,79.01732,178.26398
"54739",742.30444,79.0222,178.23814
"54740",742.31775,79.03685,178.22223
"54741",742.33105,79.097885,178.25316
"54742",742.34436,79.276115,178.4032
"54743",742.35767,79.635,178.73946
"54744",742.371,80.18921,179.28226
"54745",742.3843,80.89967,179.99863
"54746",742.3976,81.654076,180.78114
"54747",742.4109,82.31083,181.4896
"54748",742.4242,82.7454,181.99638
"54749",742.4375,82.899216,182.236
"54750",742.4508,82.79668,182.22406
"54751",742.4641,82.5037,182.01848
"54752",742.4774,82.09598,181.689
"54753",742.4907,81.651634,181.31015
"54754",742.504,81.22438,180.93451
"54755",742.51733,80.850845,180.59924
"54756",742.53064,80.54566,180.32065
"54757",742.54395,80.308846,180.10089
"54758",742.55725,80.128174,179.92987
"54759",742.57056,79.98901,179.79471
"54760",742.58386,79.886475,179.69183
"54761",742.59717,79.81323,179.61505
"54762",742.6105,79.77661,179.5726
"54763",742.6238,79.781494,179.5705
"54764",742.6371,79.82544,179.6076
"54765",742.6504,79.89136,179.66806
"54766",742.6637,79.96216,179.73547
"54767",742.677,80.01343,179.78555
"54768",742.6903,80.028076,179.80063
"54769",742.7036,80.00122,179.77466
"54770",742.7169,79.93286,179.70633
"54771",742.7302,79.83276,179.60413
"54772",742.7435,79.72045,179.48659
"54773",742.75684,79.605705,179.3631
"54774",742.77014,79.49828,179.24335
"54775",742.78345,79.40551,179.13489
"54776",742.79675,79.3225,179.0333
"54777",742.81006,79.25414,178.94376
"54778",742.82336,79.19554,178.86185
"54779",742.8367,79.14671,178.78787
"54780",742.85,79.10277,178.71725
"54781",742.8633,79.06615,178.65259
"54782",742.8766,79.03929,178.59654
"54783",742.8899,79.01976,178.54698
"54784",742.9032,79.009995,178.50658
"54785",742.9165,79.00755,178.47319
"54786",742.9298,79.012436,178.44705
"54787",742.9431,79.0222,178.42595
"54788",742.9564,79.02464,178.39783
"54789",742.9697,79.027084,178.36978
"54790",742.98303,79.029526,178.34181
"54791",742.99634,79.03197,178.31392
"54792",743.00964,79.03197,178.28366
"54793",743.02295,79.03685,178.25829
"54794",743.03625,79.044174,178.2355
"54795",743.04956,79.0515,178.21295
"54796",743.06287,79.078354,178.21016
"54797",743.0762,79.183334,178.28633
"54798",743.0895,79.43969,178.51717
"54799",743.1028,79.89136,178.95132
"54800",743.1161,80.52369,179.58026
"54801",743.1294,81.26345,180.3364
"54802",743.1427,81.98123,181.09366
"54803",743.156,82.53788,181.71222
"54804",743.1693,82.8333,182.08694
"54805",743.1826,82.85771,182.1999
"54806",743.1959,82.64774,182.07924
"54807",743.2092,82.286415,181.80066
"54808",743.22253,81.846954,181.43265
"54809",743.23584,81.40017,181.04358
"54810",743.24915,80.987564,180.67473
"54811",743.26245,80.64088,180.3589
"54812",743.27576,80.365,180.10306
"54813",743.28906,80.15015,179.89961
"54814",743.30237,79.98657,179.74072
"54815",743.3157,79.86694,179.62067
"54816",743.329,79.78638,179.53595
"54817",743.3423,79.74975,179.49265
"54818",743.3556,79.75464,179.48972
"54819",743.3689,79.801025,179.52844
"54820",743.3822,79.87427,179.59546
"54821",743.3955,79.94995,179.6672
"54822",743.4088,80.01099,179.72668
"54823",743.4221,80.042725,179.75876
"54824",743.4354,80.03784,179.75522
"54825",743.4487,79.99634,179.7149
"54826",743.46204,79.920654,179.6391
"54827",743.47534,79.82056,179.53653
"54828",743.48865,79.70336,179.41373
"54829",743.50195,79.58373,179.28482
"54830",743.51526,79.46899,179.15706
"54831",743.52856,79.36645,179.03792
"54832",743.5419,79.276115,178.92778
"54833",743.5552,79.200424,178.82947
"54834",743.5685,79.13695,178.741
"54835",743.5818,79.078354,178.65543
"54836",743.5951,79.027084,178.57535
"54837",743.6084,78.98802,178.50587
"54838",743.6217,78.96361,178.44983
"54839",743.635,78.94896,178.40279
"54840",743.6483,78.94652,178.3675
"54841",743.6616,78.9514,178.33945
"54842",743.6749,78.958725,178.314
"54843",743.68823,78.958725,178.28145
"54844",743.70154,78.95628,178.24646
"54845",743.71484,78.95384,178.2114
"54846",743.72815,78.9514,178.17625
"54847",743.74146,78.95384,178.14592
"54848",743.75476,78.96849,178.12787
"54849",743.76807,78.98802,178.11516
"54850",743.7814,79.009995,178.1055
"54851",743.7947,79.027084,178.09164
"54852",743.808,79.03929,178.07344
"54853",743.8213,79.044174,178.0483
"54854",743.8346,79.044174,178.01842
"54855",743.8479,79.044174,177.98854
"54856",743.8612,79.08324,177.99773
"54857",743.8745,79.22484,178.11067
"54858",743.8878,79.54223,178.40384
"54859",743.9011,80.06958,178.91689
"54860",743.9144,80.7776,179.62708
"54861",743.92773,81.56374,180.43752
"54862",743.94104,82.28397,181.20662
"54863",743.95435,82.79912,181.79314
"54864",743.96765,83.03349,182.11499
"54865",743.98096,82.99199,182.16829
"54866",743.99426,82.74052,182.01031
"54867",744.00757,82.354774,181.71022
"54868",744.0209,81.90555,181.33458
"54869",744.0342,81.45144,180.94002
"54870",744.0475,81.02663,180.56056
"54871",744.0608,80.65797,180.22398
"54872",744.0741,80.35767,179.94426
"54873",744.0874,80.12085,179.71861
"54874",744.1007,79.94751,179.54904
"54875",744.114,79.823,179.42288
"54876",744.1273,79.7522,179.34656
"54877",744.1406,79.727776,179.31439
"54878",744.15393,79.75708,179.33519
"54879",744.16724,79.83032,179.40085
"54880",744.18054,79.9353,179.50052
"54881",744.19385,80.0354,179.5986
"54882",744.20715,80.11841,179.68271
"54883",744.22046,80.16235,179.73035
"54884",744.23376,80.164795,179.73785
"54885",744.2471,80.12329,179.7015
"54886",744.2604,80.04761,179.62967
"54887",744.2737,79.94507,179.52863
"54888",744.287,79.82788,179.40973
"54889",744.3003,79.70336,179.27983
"54890",744.3136,79.57885,179.14604
"54891",744.3269,79.46166,179.01569
"54892",744.3402,79.361565,178.89876
"54893",744.3535,79.276115,178.79335
"54894",744.3668,79.20775,178.70236
"54895",744.3801,79.15892,178.62877
"54896",744.39343,79.11986,178.56342
"54897",744.40674,79.093,178.50905
"54898",744.42004,79.07103,178.45872
"54899",744.43335,79.05638,178.41504
"54900",744.44666,79.04906,178.37822
"54901",744.45996,79.046616,178.34605
"54902",744.47327,79.046616,178.31625
"54903",744.4866,79.046616,178.28645
"54904",744.4999,79.0515,178.26154
"54905",744.5132,79.05882,178.23921
"54906",744.5265,79.06859,178.21956
"54907",744.5398,79.08324,178.2051
"54908",744.5531,79.10521,178.19841
"54909",744.5664,79.12474,178.18997
"54910",744.5797,79.13939,178.17726
"54911",744.593,79.14671,178.15768
"54912",744.6063,79.15404,178.13834
"54913",744.6196,79.17845,178.1363
"54914",744.63293,79.276115,178.2083
"54915",744.64624,79.520256,178.42981
"54916",744.65955,79.96216,178.85672
"54917",744.67285,80.58228,179.47566
"54918",744.68616,81.29763,180.20921
"54919",744.69946,81.991,180.94313
"54920",744.71277,82.530556,181.5449
"54921",744.7261,82.82109,181.91452
"54922",744.7394,82.85039,182.03198
"54923",744.7527,82.66239,181.93306
"54924",744.766,82.32304,181.67691
"54925",744.7793,81.900665,181.32713
"54926",744.7926,81.45876,180.94463
"54927",744.8059,81.03395,180.5654
"54928",744.8192,80.655525,180.21928
"54929",744.8325,80.33814,179.9224
"54930",744.8458,80.076904,179.67172
"54931",744.85913,79.871826,179.46906
"54932",744.87244,79.727776,179.321
"54933",744.88574,79.64477,179.22948
"54934",744.89905,79.63256,179.20616
"54935",744.91235,79.68871,179.25082
"54936",744.92566,79.801025,179.35341
"54937",744.93896,79.94751,179.49368
"54938",744.9523,80.10376,179.64828
"54939",744.9656,80.23804,179.7858
"54940",744.9789,80.323494,179.8787
"54941",744.9922,80.35767,179.92299
"54942",745.0055,80.33326,179.90976
"54943",745.0188,80.255135,179.84206
"54944",745.0321,80.14526,179.74016
"54945",745.0454,80.01831,179.61774
"54946",745.0587,79.886475,179.48648
"54947",745.072,79.75952,179.35599
"54948",745.0853,79.63744,179.2264
"54949",745.09863,79.5227,179.10031
"54950",745.11194,79.42016,178.98285
"54951",745.12524,79.33227,178.87683
"54952",745.13855,79.25414,178.77783
"54953",745.15186,79.18822,178.6886
"54954",745.16516,79.132065,178.60707
"54955",745.17847,79.08812,178.536
"54956",745.1918,79.05638,178.47575
"54957",745.2051,79.03197,178.42184
"54958",745.2184,79.01732,178.37694
"54959",745.2317,79.012436,178.34134
"54960",745.245,79.012436,178.31047
"54961",745.2583,79.009995,178.27716
"54962",745.2716,79.01488,178.2511
"54963",745.2849,79.0222,178.22763
"54964",745.2982,79.027084,178.20195
"54965",745.3115,79.03197,178.17642
"54966",745.3248,79.03685,178.15105
"54967",745.33813,79.05638,178.14047
"54968",745.35144,79.13695,178.19154
"54969",745.36475,79.344475,178.3721
"54970",745.37805,79.73998,178.74712
"54971",745.39136,80.32838,179.32738
"54972",745.40466,81.0486,180.05786
"54973",745.41797,81.78348,180.82552
"54974",745.4313,82.40116,181.49893
"54975",745.4446,82.78691,181.95972
"54976",745.4579,82.899216,182.15912
"54977",745.4712,82.77226,182.12277
"54978",745.4845,82.47196,181.9091
"54979",745.4978,82.074005,181.5884
"54980",745.5111,81.64431,181.22351
"54981",745.5244,81.231705,180.86229
"54982",745.5377,80.86305,180.53214
"54983",745.551,80.5481,180.24416
"54984",745.56433,80.291756,180.00494
"54985",745.57764,80.08667,179.80898
"54986",745.59094,79.93286,179.65787
"54987",745.60425,79.82788,179.55078
"54988",745.61755,79.76929,179.48682
"54989",745.63086,79.75708,179.4674
"54990",745.64417,79.78638,179.4891
"54991",745.6575,79.84741,179.54346
"54992",745.6708,79.920654,179.61194
"54993",745.6841,79.9939,179.68271
"54994",745.6974,80.05005,179.73868
"54995",745.7107,80.076904,179.76709
"54996",745.724,80.0647,179.7573
"54997",745.7373,80.01587,179.71048
"54998",745.7506,79.9353,179.6304
"54999",745.7639,79.83276,179.52585
"55000",745.7772,79.71557,179.40343
"55001",745.7905,79.59838,179.27734
"55002",745.80383,79.48608,179.15248
"55003",745.81714,79.38354,179.03387
"55004",745.83044,79.29565,178.92671
"55005",745.84375,79.22484,178.8339
"55006",745.85706,79.17357,178.75839
"55007",745.87036,79.13451,178.6935
"55008",745.88367,79.10277,178.6347
"55009",745.897,79.07591,178.5798
"55010",745.9103,79.05638,178.53139
"55011",745.9236,79.03685,178.48236
"55012",745.9369,79.02464,178.44005
"55013",745.9502,79.0222,178.40712
"55014",745.9635,79.03197,178.38632
"55015",745.9768,79.044174,178.36827
"55016",745.9901,79.05394,178.34816
"55017",746.0034,79.061264,178.32591
"55018",746.0167,79.061264,178.29657
"55019",746.03,79.05638,178.26234
"55020",746.04333,79.05394,178.23041
"55021",746.05664,79.09544,178.24234
"55022",746.06995,79.24925,178.36787
"55023",746.08325,79.571526,178.66669
"55024",746.09656,80.076904,179.15868
"55025",746.10986,80.73609,179.82027
"55026",746.12317,81.45144,180.55862
"55027",746.1365,82.08377,181.23631
"55028",746.1498,82.52323,181.74089
"55029",746.1631,82.718544,182.01506
"55030",746.1764,82.667274,182.04875
"55031",746.1897,82.42802,181.89285
"55032",746.203,82.07645,181.61716
"55033",746.2163,81.67849,181.28409
"55034",746.2296,81.27566,180.93372
"55035",746.2429,80.91432,180.61224
"55036",746.2562,80.60914,180.33563
"55037",746.26953,80.360115,180.10565
