"","Time..s.","PPG.trace","Preprocessed.PPG"
"47156",651.1164,78.93919,86.62523
"47157",651.1297,78.92699,86.57987
"47158",651.143,78.92699,86.54634
"47159",651.1563,78.93431,86.520134
"47160",651.1696,78.94896,86.50148
"47161",651.1829,78.96849,86.48817
"47162",651.1962,78.99046,86.477905
"47163",651.20953,79.00755,86.46345
"47164",651.22284,79.01488,86.43976
"47165",651.23615,79.01976,86.41386
"47166",651.24945,79.01976,86.383224
"47167",651.26276,79.02464,86.357475
"47168",651.27606,79.05638,86.358734
"47169",651.28937,79.1638,86.43667
"47170",651.3027,79.40307,86.6498
"47171",651.316,79.80347,87.03155
"47172",651.3293,80.35035,87.57229
"47173",651.3426,80.97536,88.208244
"47174",651.3559,81.56374,88.82711
"47175",651.3692,82.003204,89.31544
"47176",651.3825,82.21805,89.59288
"47177",651.3958,82.18875,89.6329
"47178",651.4091,81.9617,89.47424
"47179",651.4224,81.600365,89.17421
"47180",651.4357,81.17799,88.80185
"47181",651.44904,80.7483,88.408966
"47182",651.46234,80.35767,88.041725
"47183",651.47565,80.03784,87.73307
"47184",651.48895,79.801025,87.49744
"47185",651.50226,79.635,87.325195
"47186",651.51556,79.53979,87.218575
"47187",651.5289,79.50805,87.172455
"47188",651.5422,79.534904,87.18394
"47189",651.5555,79.61791,87.25241
"47190",651.5688,79.7522,87.374756
"47191",651.5821,79.920654,87.53547
"47192",651.5954,80.09888,87.71121
"47193",651.6087,80.25269,87.86812
"47194",651.622,80.36256,87.98588
"47195",651.6353,80.411385,88.046036
"47196",651.6486,80.40162,88.049126
"47197",651.6619,80.3357,87.99576
"47198",651.67523,80.22827,87.89882
"47199",651.68854,80.10376,87.78144
"47200",651.70184,79.96704,87.647964
"47201",651.71515,79.83765,87.51754
"47202",651.72845,79.72045,87.39527
"47203",651.74176,79.62035,87.28644
"47204",651.75507,79.537346,87.19157
"47205",651.7684,79.47143,87.11119
"47206",651.7817,79.42016,87.0434
"47207",651.795,79.378654,86.98378
"47208",651.8083,79.34692,86.932625
"47209",651.8216,79.32494,86.89024
"47210",651.8349,79.30541,86.84962
"47211",651.8482,79.293205,86.815704
"47212",651.8615,79.290764,86.791176
"47213",651.8748,79.327385,86.80563
"47214",651.8881,79.449455,86.906685
"47215",651.9014,79.708244,87.14827
"47216",651.91473,80.11841,87.54932
"47217",651.92804,80.64332,88.07793
"47218",651.94135,81.20485,88.65956
"47219",651.95465,81.69314,89.1855
"47220",651.96796,82.01541,89.560684
"47221",651.98126,82.11551,89.72376
"47222",651.99457,82.005646,89.68001
"47223",652.0079,81.73464,89.47168
"47224",652.0212,81.375755,89.167
"47225",652.0345,80.98268,88.81692
"47226",652.0478,80.61158,88.476524
"47227",652.0611,80.28687,88.17093
"47228",652.0744,80.01831,87.91133
"47229",652.0877,79.80347,87.69706
"47230",652.101,79.639885,87.527336
"47231",652.1143,79.52758,87.40378
"47232",652.1276,79.483635,87.34507
"47233",652.1409,79.517815,87.36311
"47234",652.15424,79.62768,87.45791
"47235",652.16754,79.798584,87.61718
"47236",652.18085,79.9939,87.8062
"47237",652.19415,80.17456,87.98667
"47238",652.20746,80.30152,88.11909
"47239",652.22076,80.35279,88.17978
"47240",652.2341,80.325935,88.16395
"47241",652.2474,80.23071,88.07891
"47242",652.2607,80.08911,87.94452
"47243",652.274,79.92554,87.78373
"47244",652.2873,79.75708,87.612946
"47245",652.3006,79.603264,87.45154
"47246",652.3139,79.4641,87.29998
"47247",652.3272,79.34936,87.16849
"47248",652.3405,79.259026,87.05782
"47249",652.3538,79.18822,86.96386
"47250",652.3671,79.14427,86.89455
"47251",652.38043,79.11986,86.84339
"47252",652.39374,79.10765,86.80368
"47253",652.40704,79.10033,86.76847
"47254",652.42035,79.10277,86.7428
"47255",652.43365,79.10765,86.71964
"47256",652.44696,79.12474,86.70885
"47257",652.46027,79.17601,86.732765
"47258",652.4736,79.3225,86.85351
"47259",652.4869,79.61547,87.125305
"47260",652.5002,80.08667,87.58449
"47261",652.5135,80.69703,88.197556
"47262",652.5268,81.356224,88.87853
"47263",652.5401,81.94461,89.5093
"47264",652.5534,82.34501,89.97047
"47265",652.5667,82.48905,90.18779
"47266",652.58,82.38651,90.16303
"47267",652.5933,82.08865,89.93975
"47268",652.6066,81.67605,89.592415
"47269",652.61993,81.214615,89.18336
"47270",652.63324,80.76784,88.774536
"47271",652.64655,80.37232,88.403015
"47272",652.65985,80.05249,88.09482
"47273",652.67316,79.80835,87.85232
"47274",652.68646,79.635,87.67298
"47275",652.69977,79.52758,87.55415
"47276",652.7131,79.48119,87.493004
"47277",652.7264,79.49584,87.49144
"47278",652.7397,79.57397,87.55381
"47279",652.753,79.70092,87.66745
"47280",652.7663,79.85474,87.81192
"47281",652.7796,80.00122,87.953865
"47282",652.7929,80.113525,88.06621
"47283",652.8062,80.17456,88.13079
"47284",652.8195,80.177,88.13869
"47285",652.8328,80.12085,88.088066
"47286",652.8461,80.02075,87.991745
"47287",652.85944,79.89136,87.863
"47288",652.87274,79.742424,87.71067
"47289",652.88605,79.59594,87.55614
"47290",652.89935,79.46166,87.40923
"47291",652.91266,79.344475,87.27522
"47292",652.92596,79.24681,87.157074
"47293",652.9393,79.17601,87.06274
"47294",652.9526,79.12718,86.98816
"47295",652.9659,79.10033,86.93403
"47296",652.9792,79.08568,86.891266
"47297",652.9925,79.08812,86.865135
"47298",653.0058,79.097885,86.846405
"47299",653.0191,79.114975,86.835304
"47300",653.0324,79.12962,86.822296
"47301",653.0457,79.14183,86.807304
"47302",653.059,79.149155,86.78781
"47303",653.0723,79.149155,86.76122
"47304",653.08563,79.149155,86.734634
"47305",653.09894,79.185776,86.74467
"47306",653.11224,79.31274,86.84618
"47307",653.12555,79.59594,87.10791
"47308",653.13885,80.059814,87.55916
"47309",653.15216,80.67506,88.17627
"47310",653.16547,81.341576,88.863884
"47311",653.1788,81.934845,89.49908
"47312",653.1921,82.3328,89.9575
"47313",653.2054,82.46952,90.167114
"47314",653.2187,82.357216,90.13198
"47315",653.232,82.04715,89.89558
"47316",653.2453,81.62722,89.53962
"47317",653.2586,81.160904,89.12415
"47318",653.2719,80.71168,88.711205
"47319",653.2852,80.31617,88.33794
"47320",653.2985,79.99878,88.030426
"47321",653.3118,79.764404,87.79601
"47322",653.32513,79.61059,87.634834
"47323",653.33844,79.52758,87.53966
"47324",653.35175,79.51049,87.507805
"47325",653.36505,79.55688,87.538895
"47326",653.37836,79.656975,87.625145
"47327",653.39166,79.80347,87.76092
"47328",653.40497,79.96948,87.92079
"47329",653.4183,80.130615,88.08097
"47330",653.4316,80.25269,88.20713
"47331",653.4449,80.31617,88.2785
"47332",653.4582,80.31373,88.28594
"47333",653.4715,80.25025,88.23227
"47334",653.4848,80.1355,88.125336
"47335",653.4981,79.98657,87.980644
"47336",653.5114,79.815674,87.809326
"47337",653.5247,79.64233,87.63022
"47338",653.538,79.48119,87.45791
"47339",653.55133,79.33959,87.300095
"47340",653.56464,79.22728,87.167145
"47341",653.57794,79.14183,87.05755
"47342",653.59125,79.08324,86.97214
"47343",653.60455,79.044174,86.90443
"47344",653.61786,79.0222,86.852585
"47345",653.63116,79.01488,86.814705
"47346",653.6445,79.02464,86.793686
"47347",653.6578,79.04173,86.7803
"47348",653.6711,79.06859,86.77721
"47349",653.6844,79.09544,86.774956
"47350",653.6977,79.1223,86.773544
"47351",653.711,79.14427,86.76809
"47352",653.7243,79.16136,86.75844
"47353",653.7376,79.168686,86.739555
"47354",653.7509,79.16136,86.70625
"47355",653.7642,79.14183,86.660515
"47356",653.7775,79.13451,86.62637
"47357",653.79083,79.19066,86.65548
"47358",653.80414,79.3933,86.83283
"47359",653.81744,79.7937,87.21427
"47360",653.83075,80.38209,87.79621
"47361",653.84406,81.077896,88.50396
"47362",653.85736,81.75662,89.21637
"47363",653.87067,82.27909,89.79373
"47364",653.884,82.545204,90.131065
"47365",653.8973,82.533,90.198395
"47366",653.9106,82.30106,90.045616
"47367",653.9239,81.92264,89.7391
"47368",653.9372,81.47341,89.34995
"47369",653.9505,81.01198,88.93456
"47370",653.9638,80.587166,88.541374
"47371",653.9771,80.22095,88.193504
"47372",653.9904,79.92798,87.90744
"47373",654.0037,79.70336,87.68057
"47374",654.017,79.55932,87.52726
"47375",654.03033,79.4934,87.44757
"47376",654.04364,79.51293,87.45127
"47377",654.05695,79.61303,87.53615
"47378",654.07025,79.783936,87.69496
"47379",654.08356,79.9939,87.89817
"47380",654.09686,80.20874,88.11282
"47381",654.11017,80.38453,88.295135
"47382",654.1235,80.49439,88.417015
"47383",654.1368,80.52125,88.45932
"47384",654.1501,80.47486,88.42922
"47385",654.1634,80.36256,88.33176
"47386",654.1767,80.2063,88.18683
"47387",654.19,80.025635,88.01261
"47388",654.2033,79.84009,87.827866
"47389",654.2166,79.656975,87.639755
"47390",654.2299,79.4934,87.46546
"47391",654.2432,79.34936,87.30559
"47392",654.25653,79.234604,87.1705
"47393",654.26984,79.149155,87.061134
"47394",654.28314,79.09056,86.97595
"47395",654.29645,79.05394,86.91091
"47396",654.30975,79.03441,86.86182
"47397",654.32306,79.027084,86.82432
"47398",654.33636,79.03197,86.7988
"47399",654.3497,79.044174,86.780754
"47400",654.363,79.05882,86.76553
"47401",654.3763,79.07347,86.75077
"47402",654.3896,79.08568,86.734024
"47403",654.4029,79.09544,86.71522
"47404",654.4162,79.097885,86.68939
"47405",654.4295,79.11009,86.67341
"47406",654.4428,79.1638,86.69931
"47407",654.4561,79.32006,86.82944
"47408",654.4694,79.63744,87.12557
"47409",654.4827,80.12329,87.60009
"47410",654.49603,80.73609,88.21674
"47411",654.50934,81.36599,88.869644
"47412",654.52264,81.898224,89.444565
"47413",654.53595,82.21805,89.82371
"47414",654.54926,82.28397,89.95895
"47415",654.56256,82.127716,89.87406
"47416",654.57587,81.80789,89.62073
"47417",654.5892,81.3904,89.259735
"47418",654.6025,80.93385,88.846634
"47419",654.6158,80.48463,88.42659
"47420",654.6291,80.06958,88.02669
"47421",654.6424,79.7058,87.665085
"47422",654.6557,79.40307,87.35316
"47423",654.669,79.17113,87.10256
"47424",654.6823,79.02464,86.930176
"47425",654.6956,78.97337,86.84843
"47426",654.7089,79.03441,86.87738
"47427",654.7222,79.20531,87.018105
"47428",654.73553,79.45434,87.2423
"47429",654.74884,79.73998,87.510895
"47430",654.76215,80.008545,87.77133
"47431",654.77545,80.21362,87.97668
"47432",654.78876,80.32838,88.09811
"47433",654.80206,80.35035,88.13034
"47434",654.81537,80.2942,88.08514
"47435",654.8287,80.17456,87.97469
"47436",654.842,80.01831,87.8239
"47437",654.8553,79.84009,87.64625
"47438",654.8686,79.6643,87.46546
"47439",654.8819,79.49828,87.288956
"47440",654.8952,79.34936,87.12435
"47441",654.9085,79.22484,86.9795
"47442",654.9218,79.12474,86.85518
"47443",654.9351,79.0515,86.754585
"47444",654.9484,79.00023,86.673676
"47445",654.96173,78.96849,86.610695
"47446",654.97504,78.95384,86.56381
"47447",654.98834,78.94652,86.523796
"47448",655.00165,78.94896,86.49332
"47449",655.01495,78.9514,86.46291
"47450",655.02826,78.958725,86.43747
"47451",655.04156,78.97093,86.41714
"47452",655.0549,79.01976,86.43381
"47453",655.0682,79.15648,86.539894
"47454",655.0815,79.43725,86.794304
"47455",655.0948,79.89136,87.23083
"47456",655.1081,80.46998,87.80605
"47457",655.1214,81.0901,88.440865
"47458",655.1347,81.6321,89.01693
"47459",655.148,81.986115,89.42194
"47460",655.1613,82.10086,89.598755
"47461",655.1746,81.99344,89.556984
"47462",655.1879,81.71511,89.34095
"47463",655.20123,81.33425,89.01369
"47464",655.21454,80.90944,88.63057
"47465",655.22784,80.479744,88.229294
"47466",655.24115,80.06714,87.83168
"47467",655.25446,79.70092,87.46756
"47468",655.26776,79.37621,87.13351
"47469",655.28107,79.10765,86.84545
"47470",655.2944,78.91234,86.62225
"47471",655.3077,78.8098,86.485725
"47472",655.321,78.819565,86.4583
"47473",655.3343,78.95628,86.55813
"47474",655.3476,79.200424,86.76965
"47475",655.3609,79.51293,87.057175
"47476",655.3742,79.83032,87.359344
"47477",655.3875,80.093994,87.617714
"47478",655.4008,80.2649,87.79156
"47479",655.4141,80.325935,87.86087
"47480",655.4274,80.2942,87.83932
"47481",655.44073,80.18921,87.74352
"47482",655.45404,80.03784,87.59807
"47483",655.46735,79.86694,87.42835
"47484",655.48065,79.691154,87.248405
"47485",655.49396,79.52758,87.07518
"47486",655.50726,79.378654,86.91149
"47487",655.52057,79.2517,86.76512
"47488",655.5339,79.151596,86.64163
"47489",655.5472,79.078354,86.54188
"47490",655.5605,79.0222,86.456924
"47491",655.5738,78.98802,86.39219
"47492",655.5871,78.96605,86.33859
"47493",655.6004,78.9514,86.29163
"47494",655.6137,78.94408,86.25154
"47495",655.627,78.94652,86.220985
"47496",655.6403,79.00755,86.2491
"47497",655.6536,79.183334,86.39387
"47498",655.66693,79.534904,86.71992
"47499",655.68024,80.05737,87.22785
"47500",655.69354,80.69703,87.8693
"47501",655.70685,81.3489,88.54295
"47502",655.72015,81.88846,89.124664
"47503",655.73346,82.213165,89.508385
"47504",655.74677,82.28397,89.64835
"47505",655.7601,82.13504,89.57079
"47506",655.7734,81.82254,89.32501
"47507",655.7867,81.40505,88.96448
"47508",655.8,80.94606,88.54939
"47509",655.8133,80.49195,88.12485
"47510",655.8266,80.06958,87.71785
"47511",655.8399,79.691154,87.3416
"47512",655.8532,79.37133,87.01212
"47513",655.8665,79.11742,86.73856
"47514",655.8798,78.94408,86.53764
"47515",655.8931,78.87572,86.43629
"47516",655.90643,78.924545,86.44998
"47517",655.91974,79.097885,86.589714
"47518",655.93304,79.37377,86.83741
"47519",655.94635,79.70092,87.14499
"47520",655.95966,80.02075,87.455475
"47521",655.97296,80.28443,87.7198
"47522",655.98627,80.45045,87.89471
"47523",655.9996,80.50416,87.962494
"47524",656.0129,80.462654,87.936745
"47525",656.0262,80.35523,87.84378
"47526",656.0395,80.2063,87.70595
"47527",656.0528,80.0354,87.5415
"47528",656.0661,79.8645,87.371704
"47529",656.0794,79.69604,87.199005
"47530",656.0927,79.53979,87.03326
"47531",656.106,79.40307,86.88216
"47532",656.1193,79.28832,86.74876
"47533",656.1326,79.19798,86.63618
"47534",656.14594,79.132065,86.5452
"47535",656.15924,79.08324,86.469246
"47536",656.17255,79.0515,86.40886
"47537",656.18585,79.03929,86.36701
"47538",656.19916,79.05882,86.35652
"47539",656.21246,79.15892,86.42721
"47540",656.22577,79.40551,86.647514
"47541",656.2391,79.84253,87.065956
"47542",656.2524,80.445564,87.66407
"47543",656.2657,81.13893,88.37136
"47544",656.279,81.80789,89.07591
"47545",656.2923,82.31083,89.635345
"47546",656.3056,82.56718,89.963905
"47547",656.3189,82.55741,90.03436
"47548",656.3322,82.33036,89.88723
"47549",656.3455,81.951935,89.58163
"47550",656.3588,81.49294,89.18363
"47551",656.37213,81.00954,88.74688
"47552",656.38544,80.54078,88.30967
"47553",656.39874,80.1062,87.89199
"47554",656.41205,79.72289,87.512
"47555",656.42535,79.40063,87.181076
"47556",656.43866,79.151596,86.913315
"47557",656.45197,78.995346,86.73055
"47558",656.4653,78.94896,86.65277
"47559",656.4786,79.02464,86.69561
"47560",656.4919,79.21507,86.85556
"47561",656.5052,79.483635,87.099594
"47562",656.5185,79.783936,87.38376
"47563",656.5318,80.05737,87.650444
"47564",656.5451,80.2649,87.859764
"47565",656.5584,80.37476,87.977905
"47566",656.5717,80.38941,88.004265
"47567",656.585,80.32105,87.948074
"47568",656.5983,80.19409,87.83115
"47569",656.61163,80.03296,87.67608
"47570",656.62494,79.85718,87.50133
"47571",656.63824,79.68139,87.321075
"47572",656.65155,79.51537,87.1451
"47573",656.66486,79.36645,86.98103
"47574",656.67816,79.24193,86.836716
"47575",656.69147,79.13695,86.708046
"47576",656.7048,79.061264,86.60539
"47577",656.7181,79.009995,86.52479
"47578",656.7314,78.98314,86.466995
"47579",656.7447,78.97093,86.42301
"47580",656.758,78.97826,86.39818
"47581",656.7713,79.029526,86.41752
"47582",656.7846,79.185776,86.54344
"47583",656.7979,79.50317,86.83539
"47584",656.8112,80.01343,87.330124
"47585",656.8245,80.6775,87.99461
"47586",656.8378,81.39529,88.733574
"47587",656.85114,82.0325,89.41439
"47588",656.86444,82.46952,89.914925
"47589",656.87775,82.63554,90.15811
"47590",656.89105,82.54276,90.1477
"47591",656.90436,82.25468,89.93907
"47592",656.91766,81.83719,89.59204
"47593",656.93097,81.358665,89.17093
"47594",656.9443,80.87282,88.72754
"47595",656.9576,80.411385,88.29338
"47596",656.9709,79.99634,87.89119
"47597",656.9842,79.64233,87.53706
"47598",656.9975,79.3518,87.23536
"47599",657.0108,79.14427,87.007576
"47600",657.0241,79.027084,86.86365
"47601",657.0374,79.027084,86.833244
"47602",657.0507,79.14427,86.92003
"47603",657.064,79.36645,87.11546
"47604",657.07733,79.65209,87.38131
"47605",657.09064,79.94751,87.665855
"47606",657.10394,80.19653,87.91324
"47607",657.11725,80.360115,88.08296
"47608",657.13055,80.430916,88.165016
"47609",657.14386,80.411385,88.15895
"47610",657.15717,80.32105,88.081474
"47611",657.1705,80.184326,87.95478
"47612",657.1838,80.01831,87.794525
"47613",657.1971,79.84497,87.62176
"47614",657.2104,79.67895,87.45089
"47615",657.2237,79.52758,87.28949
"47616",657.237,79.395744,87.14289
"47617",657.2503,79.28588,87.014145
"47618",657.2636,79.19798,86.90393
"47619",657.2769,79.132065,86.81295
"47620",657.2902,79.08324,86.737
"47621",657.3035,79.0515,86.67661
"47622",657.31683,79.03441,86.62988
"47623",657.33014,79.04906,86.61436
"47624",657.34344,79.13939,86.67497
"47625",657.35675,79.37621,86.8849
"47626",657.37006,79.798584,87.28778
"47627",657.38336,80.38453,87.86743
"47628",657.39667,81.058365,88.55328
"47629",657.41,81.69802,89.22601
"47630",657.4233,82.1741,89.75516
"47631",657.4366,82.40116,90.050156
"47632",657.4499,82.37675,90.10078
"47633",657.4632,82.13992,89.938225
"47634",657.4765,81.76639,89.63156
"47635",657.4898,81.31472,89.23509
"47636",657.5031,80.83864,88.800095
"47637",657.5164,80.37476,88.36243
"47638",657.5297,79.940186,87.93956
"47639",657.543,79.551994,87.5495
"47640",657.55634,79.2224,87.2059
"47641",657.56964,78.97337,86.93258
"47642",657.58295,78.82201,86.74913
"47643",657.59625,78.79027,86.68058
"47644",657.60956,78.89281,86.745316
"47645",657.62286,79.11253,86.93044
"47646",657.63617,79.41039,87.20057
"47647",657.6495,79.73266,87.50441
"47648",657.6628,80.01831,87.78171
"47649",657.6761,80.22095,87.98492
"47650",657.6894,80.31861,88.089485
"47651",657.7027,80.31617,88.097
"47652",657.716,80.235596,88.026306
"47653",657.7293,80.1062,87.904274
"47654",657.7426,79.95239,87.753784
"47655",657.7559,79.783936,87.58384
"47656",657.7692,79.622795,87.41595
"47657",657.78253,79.47143,87.25279
"47658",657.79584,79.33471,87.099556
"47659",657.80914,79.217514,86.96157
"47660",657.82245,79.12718,86.84679
"47661",657.83575,79.05638,86.74871
"47662",657.84906,79.00267,86.66551
"47663",657.86237,78.96361,86.59528
"47664",657.8757,78.93431,86.5336
"47665",657.889,78.92699,86.49297
"47666",657.9023,78.97337,86.50583
"47667",657.9156,79.132065,86.63244
"47668",657.9289,79.45922,86.93247
"47669",657.9422,79.96948,87.425835
"47670",657.9555,80.604256,88.059654
"47671",657.9688,81.26345,88.73773
"47672",657.9821,81.815216,89.32898
"47673",657.9954,82.159454,89.72994
"47674",658.0087,82.24979,89.88776
"47675",658.02203,82.108185,89.81646
"47676",658.03534,81.80057,89.57472
"47677",658.04865,81.392845,89.22327
"47678",658.06195,80.936295,88.81024
"47679",658.07526,80.46998,88.373184
"47680",658.08856,80.02075,87.938644
"47681",658.10187,79.605705,87.52425
"47682",658.1152,79.234604,87.14082
"47683",658.1285,78.924545,86.80685
"47684",658.1418,78.69016,86.53886
"47685",658.1551,78.56809,86.375854
"47686",658.1684,78.57786,86.34087
"47687",658.1817,78.73167,86.45024
"47688",658.195,79.00755,86.68649
"47689",658.2083,79.361565,87.00949
"47690",658.2216,79.72045,87.34843
"47691",658.2349,80.02319,87.64243
"47692",658.2482,80.23071,87.85068
"47693",658.26154,80.32105,87.94823
"47694",658.27484,80.306404,87.94361
"47695",658.28815,80.21118,87.85796
"47696",658.30145,80.0647,87.71808
"47697",658.31476,79.8938,87.5492
"47698",658.32806,79.71801,87.370094
"47699",658.3414,79.54711,87.190384
"47700",658.3547,79.395744,87.024864
"47701",658.368,79.26391,86.874146
"47702",658.3813,79.151596,86.73883
"47703",658.3946,79.063705,86.62443
"47704",658.4079,78.99046,86.52193
"47705",658.4212,78.92943,86.429344
"47706",658.4345,78.88548,86.351944
"47707",658.4478,78.86839,86.300026
"47708",658.4611,78.91234,86.30861
"47709",658.4744,79.07347,86.43575
"47710",658.48773,79.415276,86.748604
"47711",658.50104,79.9353,87.25036
"47712",658.51434,80.57496,87.88799
"47713",658.52765,81.22926,88.560265
"47714",658.54095,81.78104,89.15045
"47715",658.55426,82.125275,89.55035
"47716",658.56757,82.22537,89.71686
"47717",658.5809,82.10086,89.66189
"47718",658.5942,81.812775,89.43945
"47719",658.6075,81.42214,89.10547
"47720",658.6208,80.97536,88.703125
"47721",658.6341,80.51148,88.26973
"47722",658.6474,80.0647,87.83893
"47723",658.6607,79.64477,87.42102
"47724",658.674,79.26635,87.0315
"47725",658.6873,78.94896,86.691185
"47726",658.7006,78.712135,86.42152
"47727",658.7139,78.58518,86.25432
"47728",658.72723,78.59495,86.21987
"47729",658.74054,78.75365,86.33466
"47730",658.75385,79.03685,86.57892
"47731",658.76715,79.3933,86.90527
"47732",658.78046,79.76196,87.254974
"47733",658.79376,80.076904,87.56248
"47734",658.80707,80.2942,87.78217
"47735",658.8204,80.396736,87.893906
"47736",658.8337,80.396736,87.9063
"47737",658.847,80.31617,87.838135
"47738",658.8603,80.184326,87.71617
"47739",658.8736,80.02319,87.5608
"47740",658.8869,79.85474,87.39307
"47741",658.9002,79.693596,87.22739
"47742",658.9135,79.54955,87.07377
"47743",658.9268,79.4226,86.93274
"47744",658.9401,79.31518,86.807274
"47745",658.9534,79.22484,86.69553
"47746",658.96674,79.14671,86.593185
"47747",658.98004,79.07591,86.49572
"47748",658.99335,79.027084,86.418015
"47749",659.00665,79.03197,86.392494
"47750",659.01996,79.16136,86.49164
"47751",659.03326,79.466545,86.770615
"47752",659.0466,79.96216,87.24956
"47753",659.0599,80.58961,87.875824
"47754",659.0732,81.24391,88.54855
"47755",659.0865,81.79813,89.14164
"47756",659.0998,82.144806,89.54451
"47757",659.1131,82.23758,89.70431
"47758",659.1264,82.10086,89.63751
"47759",659.1397,81.79813,89.40043
"47760",659.153,81.392845,89.05134
"47761",659.1663,80.938736,88.640755
"47762",659.1796,80.4773,88.20866
"47763",659.19293,80.03052,87.77679
"47764",659.20624,79.61059,87.35781
"47765",659.21954,79.22972,86.964775
"47766",659.23285,78.907455,86.61844
"47767",659.24615,78.66819,86.34503
"47768",659.25946,78.54124,86.17646
"47769",659.27277,78.551,86.14064
"47770",659.2861,78.709694,86.25405
"47771",659.2994,78.992905,86.49694
"47772",659.3127,79.35668,86.82925
"47773",659.326,79.7351,87.18756
"47774",659.3393,80.06714,87.51132
"47775",659.3526,80.30396,87.750244
"47776",659.3659,80.428474,87.884254
"47777",659.3792,80.448006,87.917175
"47778",659.3925,80.38209,87.86526
"47779",659.4058,80.26246,87.75757
"47780",659.4191,80.11841,87.62172
"47781",659.43243,79.9646,87.47161
"47782",659.44574,79.82056,87.32646
"47783",659.45905,79.68383,87.18413
"47784",659.47235,79.55932,87.049736
"47785",659.48566,79.44457,86.92122
"47786",659.49896,79.33715,86.79644
"47787",659.51227,79.23949,86.67806
"47788",659.5256,79.166245,86.581055
"47789",659.5389,79.16136,86.55012
"47790",659.5522,79.28832,86.65087
"47791",659.5655,79.605705,86.946014
"47792",659.5788,80.111084,87.43907
"47793",659.5921,80.75075,88.08221
"47794",659.6054,81.40749,88.76241
"47795",659.6187,81.951935,89.35084
"47796",659.632,82.27909,89.73899
"47797",659.6453,82.354774,89.885895
"47798",659.6586,82.210724,89.81543
"47799",659.67194,81.90799,89.58178
"47800",659.68524,81.50759,89.241005
"47801",659.69855,81.06569,88.846214
"47802",659.71185,80.61646,88.43029
"47803",659.72516,80.177,88.01009
"47804",659.73846,79.764404,87.60303
"47805",659.7518,79.39086,87.22212
"47806",659.7651,79.07347,86.8857
"47807",659.7784,78.839096,86.62237
"47808",659.7917,78.71946,86.46645
"47809",659.805,78.73655,86.44353
"47810",659.8183,78.89525,86.562744
"47811",659.8316,79.17357,86.80654
"47812",659.8449,79.517815,87.12496
"47813",659.8582,79.869385,87.461464
"47814",659.8715,80.16968,87.757675
"47815",659.8848,80.377205,87.970505
"47816",659.89813,80.47486,88.07995
"47817",659.91144,80.4773,88.09723
"47818",659.92474,80.40162,88.03646
"47819",659.93805,80.27711,87.9245
"47820",659.95135,80.128174,87.784225
"47821",659.96466,79.97925,87.639305
"47822",659.97797,79.84009,87.4995
"47823",659.9913,79.7058,87.360214
"47824",660.0046,79.58129,87.22651
"47825",660.0179,79.47143,87.10356
"47826",660.0312,79.36889,86.984505
"47827",660.0445,79.28832,86.88422
"47828",660.0578,79.276115,86.84977
"47829",660.0711,79.398186,86.94922
"47830",660.0844,79.71801,87.25024
"47831",660.0977,80.24048,87.76389
"47832",660.111,80.91188,88.44281
"47833",660.1243,81.62234,89.18176
"47834",660.13763,82.22781,89.83794
"47835",660.15094,82.61112,90.29086
"47836",660.16425,82.72587,90.487206
"47837",660.17755,82.59647,90.44299
"47838",660.19086,82.28886,90.216515
"47839",660.20416,81.86893,89.86811
"47840",660.21747,81.39773,89.455315
"47841",660.2308,80.91188,89.013145
"47842",660.2441,80.4358,88.56556
"47843",660.2574,79.98901,88.13239
"47844",660.2707,79.59106,87.73409
"47845",660.284,79.256584,87.38684
"47846",660.2973,79.01488,87.1219
"47847",660.3106,78.89281,86.96905
"47848",660.3239,78.90257,86.944214
"47849",660.3372,79.046616,87.05396
"47850",660.3505,79.29809,87.27564
"47851",660.36383,79.61303,87.56865
"47852",660.37714,79.93286,87.87639
"47853",660.39044,80.2063,88.14773
"47854",660.40375,80.394295,88.34217
"47855",660.41705,80.48707,88.447266
"47856",660.43036,80.48707,88.46249
"47857",660.44366,80.411385,88.40202
"47858",660.457,80.28199,88.285484
"47859",660.4703,80.11841,88.130714
"47860",660.4836,79.94263,87.95863
"47861",660.4969,79.77173,87.78594
"47862",660.5102,79.61547,87.62255
"47863",660.5235,79.47631,87.471375
"47864",660.5368,79.35912,87.33782
"47865",660.5501,79.259026,87.2177
"47866",660.5634,79.183334,87.11885
"47867",660.5767,79.17357,87.083565
"47868",660.59,79.29565,87.17982
"47869",660.60333,79.61303,87.47519
"47870",660.61664,80.14038,87.99045
"47871",660.62994,80.82399,88.678444
"47872",660.64325,81.549095,89.4293
"47873",660.65656,82.176544,90.105156
"47874",660.66986,82.58915,90.58578
"47875",660.68317,82.73319,90.81073
"47876",660.6965,82.63065,90.7936
"47877",660.7098,82.34257,90.58772
"47878",660.7231,81.92996,90.24832
"47879",660.7364,81.45388,89.83255
"47880",660.7497,80.96559,89.389694
"47881",660.763,80.499275,88.95355
"47882",660.7763,80.06958,88.53946
"47883",660.7896,79.69604,88.16809
"47884",660.8029,79.381096,87.84365
"47885",660.8162,79.149155,87.59237
"47886",660.8295,79.02464,87.44127
"47887",660.84283,79.02464,87.41079
"47888",660.85614,79.149155,87.50482
"47889",660.86945,79.381096,87.710175
"47890",660.88275,79.674065,87.9838
"47891",660.89606,79.96704,88.266594
"47892",660.90936,80.20874,88.50726
"47893",660.92267,80.360115,88.66516
"47894",660.936,80.411385,88.727684
"47895",660.9493,80.37476,88.70392
"47896",660.9626,80.26734,88.60821
"47897",660.9759,80.11597,88.46519
"47898",660.9892,79.94263,88.29547
"47899",661.0025,79.76929,88.12034
"47900",661.0158,79.60082,87.944664
"47901",661.0291,79.44213,87.7735
"47902",661.0424,79.29565,87.60958
"47903",661.0557,79.16136,87.453285
"47904",661.06903,79.04173,87.30745
"47905",661.08234,78.941635,87.17741
"47906",661.09564,78.89281,87.095505
"47907",661.10895,78.95384,87.12194
"47908",661.12225,79.19554,87.33095
"47909",661.13556,79.656975,87.76724
"47910",661.14886,80.306404,88.40595
"47911",661.1622,81.05348,89.162605
"47912",661.1755,81.76639,89.90843
"47913",661.1888,82.30106,90.49831
"47914",661.2021,82.57206,90.84121
"47915",661.2154,82.56962,90.91914
"47916",661.2287,82.34745,90.777275
"47917",661.242,81.97635,90.47953
"47918",661.2553,81.52224,90.08718
"47919",661.2686,81.05104,89.66355
"47920",661.2819,80.58961,89.23496
"47921",661.2952,80.164795,88.828575
"47922",661.30853,79.78638,88.45531
"47923",661.32184,79.46899,88.13124
"47924",661.33514,79.2224,87.86806
"47925",661.34845,79.06615,87.68751
"47926",661.36176,79.01732,87.6095
"47927",661.37506,79.08324,87.64471
"47928",661.38837,79.256584,87.789406
"47929",661.4017,79.50561,88.0152
"47930",661.415,79.783936,88.278076
"47931",661.4283,80.03784,88.52523
"47932",661.4416,80.22339,88.71196
"47933",661.4549,80.31129,88.80684
"47934",661.4682,80.29664,88.80192
"47935",661.4815,80.201416,88.715965
"47936",661.4948,80.04761,88.56845
"47937",661.5081,79.86206,88.38439
"47938",661.5214,79.66674,88.18476
"47939",661.5347,79.47875,87.98636
"47940",661.54803,79.30541,87.79673
"47941",661.56134,79.149155,87.61877
"47942",661.57465,79.01976,87.46278
"47943",661.58795,78.91478,87.32717
"47944",661.60126,78.82689,87.20537
"47945",661.61456,78.76341,87.10523
"47946",661.62787,78.751205,87.05438
"47947",661.6412,78.8513,87.115456
"47948",661.6545,79.12474,87.353
"47949",661.6678,79.605705,87.80661
"47950",661.6811,80.25025,88.438835
"47951",661.6944,80.96315,89.15955
"47952",661.7077,81.61501,89.841515
"47953",661.721,82.07645,90.35342
"47954",661.7343,82.28153,90.62339
"47955",661.7476,82.2327,90.64585
"47956",661.7609,81.98367,90.4666
"47957",661.77423,81.60769,90.1526
"47958",661.78754,81.16579,89.76094
"47959",661.80084,80.709236,89.34082
"47960",661.81415,80.26978,88.92353
"47961",661.82745,79.86206,88.52424
"47962",661.84076,79.4934,88.15127
"47963",661.85406,79.185776,87.82781
"47964",661.8674,78.95628,87.572876
"47965",661.8807,78.836655,87.42063
"47966",661.894,78.84642,87.39404
"47967",661.9073,78.98802,87.499596
"47968",661.9206,79.237045,87.716995
"47969",661.9339,79.54711,88.00322
"47970",661.9472,79.852295,88.29425
"47971",661.9605,80.09888,88.53622
"47972",661.9738,80.25025,88.69068
"47973",661.9871,80.30396,88.75221
"47974",662.0004,80.26734,88.72509
"47975",662.01373,80.16724,88.63334
"47976",662.02704,80.025635,88.49696
"47977",662.04034,79.86206,88.33419
"47978",662.05365,79.69848,88.1663
"47979",662.06696,79.54223,88.000626
"47980",662.08026,79.395744,87.839836
"47981",662.09357,79.26391,87.68912
"47982",662.1069,79.14427,87.54648
"47983",662.1202,79.03685,87.412315
"47984",662.1335,78.941635,87.287
"47985",662.1468,78.86595,87.178246
"47986",662.1601,78.81712,87.09398
"47987",662.1734,78.84154,87.08143
"47988",662.1867,79.00755,87.21124
"47989",662.2,79.364006,87.53668
"47990",662.2133,79.91089,88.06369
"47991",662.2266,80.58961,88.739624
"47992",662.2399,81.290306,89.45875
"47993",662.25323,81.87381,90.08257
"47994",662.26654,82.2327,90.500015
"47995",662.27985,82.3328,90.66989
"47996",662.29315,82.20096,90.61095
"47997",662.30646,81.90311,90.381874
"47998",662.31976,81.50027,90.038506
"47999",662.33307,81.05592,89.641045
"48000",662.3464,80.6067,89.224815
"48001",662.3597,80.16968,88.806755
"48002",662.373,79.76196,88.40434
"48003",662.3863,79.40063,88.03557
"48004",662.3996,79.10765,87.72386
"48005",662.4129,78.91234,87.50066
"48006",662.4262,78.836655,87.39099
"48007",662.4395,78.89525,87.41323
"48008",662.4528,79.080795,87.564255
"48009",662.4661,79.35912,87.81386
"48010",662.47943,79.674065,88.10877
"48011",662.49274,79.96948,88.394005
"48012",662.50604,80.19653,88.6201
"48013",662.51935,80.32838,88.75809
"48014",662.53265,80.35523,88.795204
"48015",662.54596,80.2942,88.74527
"48016",662.55927,80.17212,88.632385
"48017",662.5726,80.01587,88.481514
"48018",662.5859,79.84497,88.31111
"48019",662.5992,79.674065,88.13536
"48020",662.6125,79.51049,87.9616
"48021",662.6258,79.35912,87.79494
"48022",662.6391,79.22484,87.640625
"48023",662.6524,79.11009,87.501656
"48024",662.6657,79.01732,87.38107
"48025",662.679,78.93919,87.27224
"48026",662.6923,78.88304,87.18294
"48027",662.7056,78.85863,87.12362
"48028",662.71893,78.9099,87.13922
"48029",662.73224,79.093,87.28826
"48030",662.74554,79.45434,87.621254
"48031",662.75885,79.991455,88.14132
"48032",662.77216,80.64088,88.790474
"48033",662.78546,81.290306,89.45993
"48034",662.79877,81.8201,90.030045
"48035",662.8121,82.13016,90.39698
"48036",662.8254,82.20096,90.53435
"48037",662.8387,82.056915,90.45908
"48038",662.852,81.75906,90.22551
"48039",662.8653,81.36111,89.88252
"48040",662.8786,80.919205,89.483154
"48041",662.8919,80.462654,89.05533
"48042",662.9052,80.02075,88.627884
"48043",662.9185,79.61303,88.22081
"48044",662.9318,79.256584,87.85227
"48045",662.9451,78.97093,87.54339
"48046",662.95844,78.78294,87.32324
"48047",662.97174,78.71702,87.219284
"48048",662.98505,78.78294,87.24512
"48049",662.99835,78.97826,87.4024
"48050",663.01166,79.26635,87.65856
"48051",663.02496,79.59106,87.96034
"48052",663.03827,79.89624,88.25275
"48053",663.0516,80.12573,88.479
"48054",663.0649,80.257576,88.61477
"48055",663.0782,80.289314,88.65456
"48056",663.0915,80.23804,88.61232
"48057",663.1048,80.128174,88.509895
"48058",663.1181,79.98413,88.36986
"48059",663.1314,79.82056,88.20579
"48060",663.1447,79.656975,88.0366
"48061",663.158,79.50561,87.87451
"48062",663.1713,79.36889,87.72234
"48063",663.18463,79.24681,87.58054
"48064",663.19794,79.13939,87.449585
"48065",663.21124,79.046616,87.32992
"48066",663.22455,78.97093,87.22444
"48067",663.23785,78.92699,87.14834
"48068",663.25116,78.958725,87.146545
"48069",663.26447,79.12474,87.28002
"48070",663.2778,79.47143,87.59936
"48071",663.2911,79.98901,88.100426
"48072",663.3044,80.6067,88.717766
"48073",663.3177,81.22194,89.35197
"48074",663.331,81.71755,89.885765
"48075",663.3443,81.99588,90.217766
"48076",663.3576,82.037384,90.32164
"48077",663.3709,81.883575,90.2315
"48078",663.3842,81.5906,89.99738
"48079",663.3975,81.21217,89.66866
"48080",663.4108,80.79469,89.28906
"48081",663.42413,80.36744,88.88664
"48082",663.43744,79.94507,88.47575
"48083",663.45074,79.54711,88.07608
"48084",663.46405,79.19554,87.71036
"48085",663.47736,78.91234,87.402016
"48086",663.49066,78.73167,87.187355
"48087",663.50397,78.675514,87.09157
"48088",663.5173,78.75853,87.133194
"48089",663.5306,78.96361,87.29948
"48090",663.5439,79.25414,87.557625
"48091",663.5572,79.57641,87.85658
"48092",663.5705,79.86694,88.13388
"48093",663.5838,80.08179,88.34457
"48094",663.5971,80.19409,88.45943
"48095",663.6104,80.2063,88.4777
"48096",663.6237,80.1355,88.413345
"48097",663.637,80.008545,88.29063
"48098",663.6503,79.85718,88.13953
"48099",663.66364,79.70092,87.978806
"48100",663.67694,79.54711,87.81565
"48101",663.69025,79.40551,87.6599
"48102",663.70355,79.281,87.51681
"48103",663.71686,79.166245,87.379585
"48104",663.73016,79.063705,87.25099
"48105",663.74347,78.97093,87.12896
"48106",663.7568,78.9099,87.03577
"48107",663.7701,78.92699,87.01879
"48108",663.7834,79.093,87.151276
"48109",663.7967,79.44457,87.4745
"48110",663.81,79.96704,87.979614
"48111",663.8233,80.58228,88.59383
"48112",663.8366,81.17311,89.20285
"48113",663.8499,81.62234,89.688736
"48114",663.8632,81.85184,89.96893
"48115",663.8765,81.85184,90.0268
"48116",663.88983,81.66628,89.89912
"48117",663.90314,81.358665,89.64357
"48118",663.91644,80.97536,89.30272
"48119",663.92975,80.56519,88.923035
"48120",663.94305,80.147705,88.52321
"48121",663.95636,79.742424,88.12254
"48122",663.96967,79.36645,87.73852
"48123",663.983,79.04173,87.394005
"48124",663.9963,78.79271,87.115036
"48125",664.0096,78.64866,86.93326
"48126",664.0229,78.624245,86.866615
"48127",664.0362,78.73167,86.931046
"48128",664.0495,78.94896,87.1087
"48129",664.0628,79.237045,87.363945
"48130",664.0761,79.53979,87.642845
"48131",664.0894,79.81323,87.90191
"48132",664.1027,80.01343,88.09627
"48133",664.116,80.11841,88.20167
"48134",664.12933,80.13794,88.2249
"48135",664.14264,80.08423,88.1755
"48136",664.15594,79.98169,88.07559
"48137",664.16925,79.84985,87.943184
"48138",664.18256,79.708244,87.79688
"48139",664.19586,79.56664,87.646164
"48140",664.20917,79.429924,87.4959
"48141",664.2225,79.30297,87.351135
"48142",664.2358,79.183334,87.20972
"48143",664.2491,79.07347,87.07433
"48144",664.2624,78.995346,86.967255
"48145",664.2757,78.992905,86.93342
"48146",664.289,79.12962,87.038666
"48147",664.3023,79.4519,87.33374
"48148",664.3156,79.95239,87.81711
"48149",664.3289,80.56275,88.42598
"48150",664.3422,81.17311,89.053925
"48151",664.3555,81.66384,89.581314
"48152",664.36884,81.94705,89.91652
"48153",664.38214,81.99832,90.02863
"48154",664.39545,81.85184,89.944595
"48155",664.40875,81.56863,89.71925
"48156",664.42206,81.20485,89.404495
"48157",664.43536,80.80202,89.039314
"48158",664.44867,80.396736,88.659096
"48159",664.462,80.008545,88.2833
"48160",664.4753,79.65209,87.92712
"48161",664.4886,79.33959,87.603745
"48162",664.5019,79.10033,87.34384
"48163",664.5152,78.94896,87.16436
"48164",664.5285,78.9099,87.09245
"48165",664.5418,78.98558,87.13407
"48166",664.5551,79.168686,87.28548
"48167",664.5684,79.42016,87.51097
"48168",664.5817,79.69604,87.76873
"48169",664.59503,79.940186,88.00338
"48170",664.60834,80.113525,88.17485
"48171",664.62164,80.201416,88.26629
"48172",664.63495,80.198975,88.27014
"48173",664.64825,80.130615,88.208
"48174",664.66156,80.01587,88.097336
"48175",664.67487,79.88403,87.965996
"48176",664.6882,79.744865,87.823204
"48177",664.7015,79.61547,87.68584
"48178",664.7148,79.4934,87.55175
"48179",664.7281,79.378654,87.42117
"48180",664.7414,79.26879,87.29189
"48181",664.7547,79.1638,87.164055
"48182",664.768,79.08812,87.06224
"48183",664.7813,79.09544,87.04107
"48184",664.7946,79.24681,87.16417
"48185",664.8079,79.59106,87.48488
"48186",664.8212,80.10376,87.9848
"48187",664.83453,80.709236,88.59352
"48188",664.84784,81.28542,89.19187
"48189",664.86115,81.71755,89.66417
"48190",664.87445,81.9324,89.93269
"48191",664.88776,81.92752,89.9882
"48192",664.90106,81.74441,89.86532
"48193",664.91437,81.446556,89.62198
"48194",664.9277,81.08278,89.303406
"48195",664.941,80.69947,88.95393
"48196",664.9543,80.323494,88.599815
"48197",664.9676,79.96704,88.25347
"48198",664.9809,79.64477,87.93017
"48199",664.9942,79.36889,87.64319
"48200",665.0075,79.1638,87.41838
"48201",665.0208,79.046616,87.27506
"48202",665.0341,79.03197,87.23062
"48203",665.0474,79.1223,87.2907
"48204",665.0607,79.30297,87.44395
"48205",665.07404,79.53002,87.649216
"48206",665.08734,79.76196,87.86647
"48207",665.10065,79.954834,88.0519
"48208",665.11395,80.076904,88.17256
"48209",665.12726,80.12329,88.22135
"48210",665.14056,80.10132,88.20323
"48211",665.1539,80.01831,88.12339
"48212",665.1672,79.89868,88.00433
"48213",665.1805,79.75952,87.86201
"48214",665.1938,79.61059,87.70556
"48215",665.2071,79.4641,87.546906
"48216",665.2204,79.327385,87.39344
"48217",665.2337,79.20775,87.252785
"48218",665.247,79.10521,87.12549
"48219",665.2603,79.029526,87.02184
"48220",665.2736,79.00511,86.9671
"48221",665.2869,79.080795,87.011696
"48222",665.30023,79.310295,87.21247
"48223",665.31354,79.71313,87.59375
"48224",665.32684,80.25025,88.12191
"48225",665.34015,80.8362,88.715675
"48226",665.35345,81.356224,89.26183
"48227",665.36676,81.70779,89.65578
"48228",665.38007,81.83719,89.83855
"48229",665.3934,81.75662,89.81539
"48230",665.4067,81.5198,89.63346
"48231",665.42,81.18532,89.34647
"48232",665.4333,80.81178,89.00998
"48233",665.4466,80.43824,88.661804
"48234",665.4599,80.08423,88.32149
"48235",665.4732,79.77173,88.01162
"48236",665.4865,79.50805,87.74081
"48237",665.4998,79.30541,87.5228
"48238",665.5131,79.183334,87.37901
"48239",665.5264,79.15648,87.32664
"48240",665.53973,79.219955,87.363754
"48241",665.55304,79.364006,87.48343
"48242",665.56635,79.55932,87.65887
"48243",665.57965,79.766846,87.85262
"48244",665.59296,79.94507,88.02356
"48245",665.60626,80.06714,88.14391
"48246",665.61957,80.12085,88.19972
"48247",665.6329,80.10376,88.18641
"48248",665.6462,80.028076,88.11397
"48249",665.6595,79.90845,87.99522
"48250",665.6728,79.764404,87.84831
"48251",665.6861,79.61303,87.689575
"48252",665.6994,79.46899,87.53344
"48253",665.7127,79.33715,87.38501
"48254",665.726,79.2224,87.24954
"48255",665.7393,79.12474,87.12759
"48256",665.7526,79.04173,87.01723
"48257",665.7659,78.975815,86.921364
"48258",665.77924,78.94896,86.8625
"48259",665.79254,79.00755,86.88825
"48260",665.80585,79.21263,87.06232
"48261",665.81915,79.59106,87.41614
"48262",665.83246,80.12329,87.93559
"48263",665.84576,80.73121,88.54736
"48264",665.8591,81.29519,89.13419
"48265",665.8724,81.705345,89.58482
"48266",665.8857,81.8909,89.82367
"48267",665.899,81.849396,89.841255
"48268",665.9123,81.62966,89.67931
"48269",665.9256,81.30007,89.40065
"48270",665.9389,80.919205,89.06041
"48271",665.9522,80.533455,88.703384
"48272",665.9655,80.16968,88.35628
"48273",665.9788,79.852295,88.0442
"48274",665.9921,79.588615,87.7759
"48275",666.00543,79.38598,87.56041
"48276",666.01874,79.256584,87.41183
"48277",666.03204,79.20775,87.33976
"48278",666.04535,79.24193,87.34918
"48279",666.05865,79.35668,87.44025
"48280",666.07196,79.52758,87.59104
"48281",666.08527,79.71801,87.76671
"48282",666.0986,79.89136,87.931244
"48283",666.1119,80.01343,88.04992
"48284",666.1252,80.06958,88.10649
"48285",666.1385,80.05493,88.09402
"48286",666.1518,79.991455,88.03226
"48287",666.1651,79.888916,87.92945
"48288",666.1784,79.76929,87.80635
"48289",666.1917,79.64477,87.67462
"48290",666.205,79.52514,87.54389
"48291",666.2183,79.412834,87.41675
"48292",666.2316,79.31518,87.30074
"48293",666.24493,79.234604,87.19877
"48294",666.25824,79.168686,87.10893
"48295",666.27155,79.11986,87.03413
"48296",666.28485,79.09056,86.977325
"48297",666.29816,79.06859,86.92693
"48298",666.31146,79.05882,86.88806
"48299",666.32477,79.07347,86.8733
"48300",666.3381,79.15404,86.92491
"48301",666.3514,79.35424,87.09868
"48302",666.3647,79.71557,87.43983
"48303",666.378,80.233154,87.948524
"48304",666.3913,80.84352,88.56618
"48305",666.4046,81.43679,89.18581
"48306",666.4179,81.90311,89.69702
"48307",666.4312,82.15457,90.00796
"48308",666.4445,82.1741,90.09482
"48309",666.4578,81.99344,89.98209
"48310",666.4711,81.67849,89.72944
"48311",666.48444,81.29519,89.39859
"48312",666.49774,80.89235,89.036224
"48313",666.51105,80.51392,88.685684
"48314",666.52435,80.181885,88.369705
"48315",666.53766,79.91577,88.109276
"48316",666.55096,79.71801,87.90888
"48317",666.5643,79.59838,87.78044
"48318",666.5776,79.55688,87.72639
"48319",666.5909,79.59106,87.74672
"48320",666.6042,79.69848,87.84136
"48321",666.6175,79.86206,87.99552
"48322",666.6308,80.05005,88.1792
"48323",666.6441,80.23804,88.36875
"48324",666.6574,80.38941,88.527565
"48325",666.6707,80.479744,88.630066
"48326",666.684,80.499275,88.66459
"48327",666.6973,80.45289,88.633804
"48328",666.71063,80.35279,88.54786
"48329",666.72394,80.22339,88.42948
"48330",666.73724,80.08179,88.29486
"48331",666.75055,79.94263,88.15826
"48332",666.76385,79.81079,88.02463
"48333",666.77716,79.691154,87.89908
"48334",666.79047,79.586174,87.78445
"48335",666.8038,79.4934,87.67874
"48336",666.8171,79.412834,87.582344
"48337",666.8304,79.344475,87.495636
"48338",666.8437,79.290764,87.42144
"48339",666.857,79.24193,87.35044
"48340",666.8703,79.200424,87.28525
"48341",666.8836,79.168686,87.22852
"48342",666.8969,79.132065,87.165924
"48343",666.9102,79.09544,87.10218
"48344",666.9235,79.05882,87.03729
"48345",666.9368,79.01732,86.96638
"48346",666.95013,78.98558,86.90393
"48347",666.96344,79.009995,86.896645
"48348",666.97675,79.15892,87.01463
"48349",666.99005,79.48608,87.315506
"48350",667.00336,79.98657,87.79994
"48351",667.01666,80.601814,88.414764
"48352",667.02997,81.21706,89.04881
"48353",667.0433,81.7029,89.57269
"48354",667.0566,81.95926,89.88226
"48355",667.0699,81.96658,89.95081
"48356",667.0832,81.76395,89.80963
"48357",667.0965,81.427025,89.52783
"48358",667.1098,81.03395,89.17935
"48359",667.1231,80.64332,88.82103
"48360",667.1364,80.30152,88.49934
"48361",667.1497,80.025635,88.23287
"48362",667.163,79.82056,88.028595
"48363",667.17633,79.68139,87.88382
"48364",667.18964,79.61059,87.80306
"48365",667.20294,79.61303,87.793335
"48366",667.21625,79.68627,87.854485
"48367",667.22955,79.823,87.98141
"48368",667.24286,80.008545,88.16142
"48369",667.25616,80.20386,88.357
"48370",667.2695,80.377205,88.53672
"48371",667.2828,80.49683,88.66814
"48372",667.2961,80.5481,88.73493
"48373",667.3094,80.52613,88.73009
"48374",667.3227,80.43824,88.65864
"48375",667.336,80.30152,88.535614
"48376",667.3493,80.13306,88.37657
"48377",667.3626,79.94995,88.197624
"48378",667.3759,79.75708,88.00319
"48379",667.3892,79.57641,87.814926
"48380",667.4025,79.41772,87.643
"48381",667.41583,79.281,87.48808
"48382",667.42914,79.17113,87.35574
"48383",667.44244,79.093,87.25172
"48384",667.45575,79.03685,87.16722
"48385",667.46906,78.99779,87.09806
"48386",667.48236,78.975815,87.04477
"48387",667.49567,78.96605,87.003
"48388",667.509,78.96361,86.96825
"48389",667.5223,78.96849,86.94074
"48390",667.5356,78.97826,86.918274
"48391",667.5489,78.98802,86.89611
"48392",667.5622,79.00267,86.879135
"48393",667.5755,79.02464,86.86994
"48394",667.5888,79.080795,86.895615
"48395",667.6021,79.21507,87.00117
"48396",667.6154,79.48119,87.24276
"48397",667.6287,79.903564,87.64892
"48398",667.642,80.465096,88.207436
"48399",667.65533,81.08766,88.844536
"48400",667.66864,81.66628,89.457146
"48401",667.68195,82.08865,89.93159
"48402",667.69525,82.29618,90.204384
"48403",667.70856,82.27421,90.254166
"48404",667.72186,82.07156,90.12259
"48405",667.73517,81.74685,89.86261
"48406",667.7485,81.356224,89.52657
"48407",667.7618,80.953384,89.166115
"48408",667.7751,80.57252,88.81504
"48409",667.7884,80.233154,88.49357
"48410",667.8017,79.95239,88.22009
"48411",667.815,79.7351,88.00131
"48412",667.8283,79.588615,87.84655
"48413",667.8416,79.52514,87.77022
"48414",667.8549,79.537346,87.767586
"48415",667.8682,79.62035,87.836136
"48416",667.88153,79.75952,87.96344
"48417",667.89484,79.923096,88.1195
"48418",667.90814,80.079346,88.273346
"48419",667.92145,80.19409,88.39057
"48420",667.93475,80.24536,88.44791
"48421",667.94806,80.22583,88.43604
"48422",667.96136,80.13794,88.35521
"48423",667.9747,79.99878,88.22036
"48424",667.988,79.835205,88.05675
"48425",668.0013,79.66674,87.88313
"48426",668.0146,79.51293,87.71891
"48427",668.0279,79.378654,87.56941
"48428",668.0412,79.26635,87.43769
"48429",668.0545,79.17113,87.31954
"48430",668.0678,79.093,87.215515
"48431",668.0811,79.029526,87.123695
"48432",668.0944,78.98558,87.04942
"48433",668.1077,78.958725,86.99087
"48434",668.12103,78.94896,86.94856
"48435",668.13434,78.95628,86.92304
"48436",668.14764,78.97093,86.905075
"48437",668.16095,78.98802,86.89001
"48438",668.17426,79.00267,86.87303
"48439",668.18756,79.012436,86.85163
"48440",668.20087,79.01488,86.82321
"48441",668.2142,79.012436,86.789986
"48442",668.2275,79.03441,86.7811
"48443",668.2408,79.1223,86.83881
"48444",668.2541,79.33715,87.02624
"48445",668.2674,79.71557,87.38394
"48446",668.2807,80.233154,87.89264
"48447",668.294,80.82155,88.48832
"48448",668.3073,81.36843,89.060875
"48449",668.3206,81.75906,89.49427
"48450",668.3339,81.92996,89.72014
"48451",668.3472,81.87625,89.72674
"48452",668.36053,81.64675,89.55587
"48453",668.37384,81.307396,89.267975
"48454",668.38715,80.91676,88.9182
"48455",668.40045,80.52369,88.55377
"48456",668.41376,80.15015,88.196594
"48457",668.42706,79.81323,87.86437
"48458",668.44037,79.52758,87.57288
"48459",668.4537,79.30541,87.33595
"48460",668.467,79.1638,87.17264
"48461",668.4803,79.11742,87.10012
"48462",668.4936,79.17845,87.133575
"48463",668.5069,79.33715,87.2666
"48464",668.5202,79.56664,87.47538
"48465",668.5335,79.82544,87.720634
"48466",668.5468,80.0647,87.95444
"48467",668.5601,80.24536,88.13712
"48468",668.5734,80.34547,88.244896
"48469",668.58673,80.35767,88.2679
"48470",668.60004,80.2942,88.2156
"48471",668.61334,80.17212,88.102715
"48472",668.62665,80.008545,87.94452
"48473",668.63995,79.82788,87.76412
"48474",668.65326,79.64721,87.57807
"48475",668.66656,79.47875,87.39859
"48476",668.6799,79.32983,87.233376
"48477",668.6932,79.21263,87.09524
"48478",668.7065,79.1223,86.9803
"48479",668.7198,79.063705,86.89428
"48480",668.7331,79.029526,86.83084
"48481",668.7464,79.01488,86.785866
"48482",668.7597,79.012436,86.75264
"48483",668.773,79.01976,86.7291
"48484",668.7863,79.0222,86.70091
"48485",668.7996,79.029526,86.67768
"48486",668.8129,79.03929,86.65712
"48487",668.82623,79.07103,86.65884
"48488",668.83954,79.168686,86.72746
"48489",668.85284,79.38354,86.916336
"48490",668.86615,79.742424,87.25596
"48491",668.87946,80.218506,87.72399
"48492",668.89276,80.75563,88.267944
"48493",668.90607,81.25124,88.78717
"48494",668.9194,81.61257,89.1876
"48495",668.9327,81.778595,89.404015
"48496",668.946,81.74441,89.42541
"48497",668.9593,81.53933,89.27484
"48498",668.9726,81.21217,88.99579
"48499",668.9859,80.82155,88.64304
"48500",668.9992,80.40162,88.24879
"48501",669.0125,79.9939,87.853615
"48502",669.0258,79.622795,87.48232
"48503",669.0391,79.30053,87.14827
"48504",669.0524,79.03441,86.86029
"48505",669.06573,78.84398,86.63969
"48506",669.07904,78.751205,86.51079
"48507",669.09235,78.765854,86.48641
"48508",669.10565,78.89281,86.5748
"48509",669.11896,79.11253,86.759926
"48510",669.13226,79.39086,87.01052
"48511",669.14557,79.674065,87.27469
"48512",669.1589,79.91333,87.50377
"48513",669.1722,80.079346,87.667076
"48514",669.1855,80.15259,87.7428
"48515",669.1988,80.13794,87.73292
"48516",669.2121,80.05493,87.65422
"48517",669.2254,79.93042,87.531425
"48518",669.2387,79.783936,87.38277
"48519",669.252,79.639885,87.231964
"48520",669.2653,79.50561,87.08643
"48521",669.2786,79.39086,86.95624
"48522",669.29193,79.28588,86.83222
"48523",669.30524,79.19798,86.72201
"48524",669.31854,79.11986,86.61882
"48525",669.33185,79.05638,86.52784
"48526",669.34515,79.012436,86.45441
"48527",669.35846,78.98802,86.39913
"48528",669.37177,78.98558,86.36507
"48529",669.3851,79.00511,86.3529
"48530",669.3984,79.07591,86.39261
"48531",669.4117,79.24681,86.53463
"48532",669.425,79.57641,86.84069
"48533",669.4383,80.062256,87.3133
"48534",669.4516,80.66285,87.91584
"48535",669.4649,81.27566,88.54936
"48536",669.4782,81.7908,89.10437
"48537",669.4915,82.10574,89.47527
"48538",669.5048,82.18387,89.6192
"48539",669.5181,82.04959,89.55317
"48540",669.53143,81.75906,89.32669
"48541",669.54474,81.375755,88.99835
"48542",669.55804,80.96315,88.62874
"48543",669.57135,80.56031,88.256
"48544",669.58466,80.18921,87.902405
"48545",669.59796,79.86206,87.58117
"48546",669.61127,79.57885,87.29365
"48547",669.6246,79.35668,87.05832
"48548",669.6379,79.202866,86.8844
"48549",669.6512,79.14183,86.798454
"48550",669.6645,79.19066,86.820465
"48551",669.6778,79.3518,86.956314
"48552",669.6911,79.5935,87.17776
"48553",669.7044,79.869385,87.44094
"48554",669.7177,80.1355,87.70297
"48555",669.731,80.34058,87.91229
"48556",669.7443,80.45777,88.04012
"48557",669.7576,80.4773,88.07396
"48558",669.77094,80.41871,88.03028
"48559",669.78424,80.30152,87.92618
"48560",669.79755,80.15747,87.79155
"48561",669.81085,79.99634,87.63534
"48562",669.82416,79.835205,87.47409
"48563",669.83746,79.68627,87.32001
"48564",669.85077,79.55688,87.18081
"48565",669.8641,79.44213,87.052216
"48566",669.8774,79.34692,86.93957
"48567",669.8907,79.26391,86.83615
"48568",669.904,79.18822,86.73746
"48569",669.9173,79.12474,86.64861
"48570",669.9306,79.078354,86.574875
"48571",669.9439,79.06859,86.53631
"48572",669.9572,79.132065,86.57068
"48573",669.9705,79.33227,86.74376
"48574",669.9838,79.708244,87.09887
"48575",669.99713,80.257576,87.639084
"48576",670.01044,80.921646,88.3112
"48577",670.02374,81.5906,89.00896
"48578",670.03705,82.142365,89.61043
"48579",670.05035,82.476845,90.011856
"48580",670.06366,82.564735,90.17715
"48581",670.07697,82.4329,90.12546
"48582",670.0903,82.13748,89.90607
"48583",670.1036,81.75174,89.58712
"48584",670.1169,81.324486,89.21461
"48585",670.1302,80.89967,88.831184
"48586",670.1435,80.50416,88.46378
"48587",670.1568,80.15747,88.13285
"48588",670.1701,79.869385,87.849686
"48589",670.1834,79.65209,87.62831
"48590",670.1967,79.517815,87.48316
"48591",670.21,79.47143,87.42171
"48592",670.2233,79.52514,87.4589
"48593",670.23663,79.66674,87.58566
"48594",670.24994,79.869385,87.77789
"48595",670.26324,80.09888,88.0033
"48596",670.27655,80.31129,88.2188
"48597",670.28986,80.46754,88.38478
"48598",670.30316,80.54322,88.475075
"48599",670.31647,80.533455,88.482285
"48600",670.3298,80.445564,88.411064
"48601",670.3431,80.30152,88.280945
"48602",670.3564,80.12085,88.109695
"48603",670.3697,79.92554,87.91816
"48604",670.383,79.727776,87.71807
"48605",670.3963,79.54223,87.52402
"48606",670.4096,79.378654,87.34614
"48607",670.4229,79.24193,87.189995
"48608",670.4362,79.13695,87.061325
"48609",670.4495,79.06615,86.963554
"48610",670.4628,79.02464,86.89287
"48611",670.47614,79.00267,86.840416
"48612",670.48944,78.992905,86.799484
"48613",670.50275,78.992905,86.76801
"48614",670.51605,79.03197,86.775604
"48615",670.52936,79.1638,86.87719
"48616",670.54266,79.45922,87.14648
"48617",670.55597,79.94263,87.61298
"48618",670.5693,80.57984,88.248405
"48619",670.5826,81.28298,88.969666
"48620",670.5959,81.92264,89.649414
"48621",670.6092,82.371864,90.15872
"48622",670.6225,82.5745,90.43548
"48623",670.6358,82.533,90.47443
"48624",670.6491,82.29618,90.316765
"48625",670.6624,81.93729,90.029625
"48626",670.6757,81.514915,89.66779
"48627",670.689,81.075455,89.27567
"48628",670.70233,80.64332,88.877144
"48629",670.71564,80.24292,88.49685
"48630",670.72894,79.888916,88.15044
"48631",670.74225,79.5935,87.85155
"48632",670.75555,79.37621,87.62156
"48633",670.76886,79.256584,87.48244
"48634",670.78217,79.24437,87.44699
"48635",670.7955,79.327385,87.50639
"48636",670.8088,79.49584,87.65383
"48637",670.8221,79.710686,87.85292
"48638",670.8354,79.93286,88.066055
"48639",670.8487,80.11597,88.24706
"48640",670.862,80.233154,88.367874
"48641",670.8753,80.2649,88.406906
"48642",670.8886,80.216064,88.36635
"48643",670.9019,80.10376,88.260796
"48644",670.9152,79.94995,88.11023
"48645",670.9285,79.77661,87.935326
"48646",670.94183,79.60082,87.752556
"48647",670.95514,79.432365,87.571625
"48648",670.96844,79.273674,87.395195
"48649",670.98175,79.132065,87.23089
"48650",670.99506,79.009995,87.081696
"48651",671.00836,78.9099,86.95066
"48652",671.02167,78.83177,86.83847
"48653",671.035,78.77562,86.74581
"48654",671.0483,78.73411,86.66604
"48655",671.0616,78.70237,86.59474
"48656",671.0749,78.68284,86.53466
"48657",671.0882,78.68528,86.49594
"48658",671.1015,78.75609,86.525665
"48659",671.1148,78.958725,86.68943
"48660",671.1281,79.33227,87.03043
"48661",671.1414,79.86694,87.54424
"48662",671.1547,80.49683,88.169975
"48663",671.168,81.10475,88.79342
"48664",671.18134,81.57595,89.29914
"48665",671.19464,81.82742,89.59986
"48666",671.20795,81.84451,89.67406
"48667",671.22125,81.668724,89.55591
"48668",671.23456,81.36355,89.30288
"48669",671.24786,80.99245,88.97439
"48670",671.26117,80.604256,88.61721
"48671",671.2745,80.22827,88.26011
"48672",671.2878,79.88403,87.923004
"48673",671.3011,79.58129,87.61664
"48674",671.3144,79.32983,87.35209
"48675",671.3277,79.13695,87.13827
"48676",671.341,79.029526,87.003876
"48677",671.3543,79.0222,86.966225
"48678",671.3676,79.11986,87.033325
"48679",671.3809,79.3225,87.208466
"48680",671.3942,79.605705,87.4705
"48681",671.40753,79.91577,87.76824
"48682",671.42084,80.198975,88.04881
"48683",671.43414,80.41627,88.27232
"48684",671.44745,80.533455,88.40252
"48685",671.46075,80.550545,88.43628
"48686",671.47406,80.482185,88.385124
"48687",671.48737,80.34791,88.265915
"48688",671.5007,80.17212,88.101
"48689",671.514,79.98169,87.91595
"48690",671.5273,79.79614,87.72983
"48691",671.5406,79.63012,87.557434
"48692",671.5539,79.4934,87.40916
"48693",671.5672,79.38842,87.288345
"48694",671.5805,79.30297,87.183784
"48695",671.5938,79.22972,87.08875
"48696",671.6071,79.15892,86.99388
"48697",671.6204,79.09544,86.90412
"48698",671.6337,79.03929,86.8197
"48699",671.64703,79.00023,86.75062
"48700",671.66034,79.01732,86.736465
"48701",671.67365,79.14671,86.83515
"48702",671.68695,79.447014,87.10879
"48703",671.70026,79.92554,87.57003
"48704",671.71356,80.533455,88.17562
"48705",671.72687,81.17067,88.829506
"48706",671.7402,81.71511,89.41053
"48707",671.7535,82.06424,89.813255
"48708",671.7668,82.1741,89.987625
"48709",671.7801,82.06668,89.94814
"48710",671.7934,81.80301,89.749054
"48711",671.8067,81.43679,89.43918
"48712",671.82,81.0193,89.06659
"48713",671.8333,80.59205,88.67119
"48714",671.8466,80.17944,88.277084
"48715",671.8599,79.7937,87.89695
"48716",671.8732,79.45922,87.55602
"48717",671.88654,79.183334,87.26324
"48718",671.89984,78.98558,87.03996
"48719",671.91315,78.88548,86.908165
"48720",671.92645,78.90257,86.89043
"48721",671.93976,79.03441,86.98797
"48722",671.95306,79.26391,87.187294
"48723",671.9664,79.54955,87.449936
"48724",671.9797,79.84009,87.726395
"48725",671.993,80.08423,87.96554
"48726",672.0063,80.25269,88.136635
"48727",672.0196,80.3357,88.22754
"48728",672.0329,80.34058,88.24291
"48729",672.0462,80.28687,88.199844
"48730",672.0595,80.19653,88.11847
"48731",672.0728,80.08179,88.009865
"48732",672.0861,79.95239,87.883026
"48733",672.0994,79.818115,87.74726
"48734",672.11273,79.68139,87.60485
"48735",672.12604,79.54711,87.46062
"48736",672.13934,79.415276,87.31463
"48737",672.15265,79.28832,87.1694
"48738",672.16595,79.168686,87.02753
"48739",672.17926,79.063705,86.89657
"48740",672.19257,78.99046,86.79407
"48741",672.2059,78.992905,86.76496
"48742",672.2192,79.132065,86.87265
"48743",672.2325,79.4519,87.16536
"48744",672.2458,79.94507,87.6414
"48745",672.2591,80.5481,88.24272
"48746",672.2724,81.15602,88.86777
"48747",672.2857,81.651634,89.399506
"48748",672.299,81.94217,89.74165
"48749",672.3123,81.99588,89.85606
"48750",672.3256,81.84451,89.76706
"48751",672.3389,81.549095,89.52928
"48752",672.35223,81.160904,89.1895
"48753",672.36554,80.73853,88.803406
"48754",672.37885,80.32105,88.409004
"48755",672.39215,79.93042,88.028404
"48756",672.40546,79.58129,87.6771
"48757",672.41876,79.28344,87.366165
"48758",672.43207,79.03929,87.099625
"48759",672.4454,78.86595,86.89626
"48760",672.4587,78.7805,86.775375
"48761",672.472,78.79515,86.751915
"48762",672.4853,78.922104,86.84122
"48763",672.4986,79.13695,87.02238
"48764",672.5119,79.412834,87.27129
"48765",672.5252,79.68871,87.528824
"48766",672.5385,79.923096,87.75348
"48767",672.5518,80.079346,87.907326
"48768",672.5651,80.15015,87.980606
"48769",672.5784,80.13306,87.96821
"48770",672.59174,80.05005,87.88936
"48771",672.60504,79.92798,87.76885
"48772",672.61835,79.78882,87.62744
"48773",672.63165,79.64477,87.47679
"48774",672.64496,79.51049,87.33141
"48775",672.65826,79.39086,87.19649
"48776",672.6716,79.28832,87.07491
"48777",672.6849,79.19554,86.95989
"48778",672.6982,79.11253,86.851746
"48779",672.7115,79.04906,86.76054
"48780",672.7248,79.0222,86.703964
"48781",672.7381,79.08812,86.73933
"48782",672.7514,79.31274,86.93545
"48783",672.7647,79.725334,87.32657
"48784",672.778,80.30152,87.89417
"48785",672.7913,80.96315,88.56522
"48786",672.8046,81.58816,89.22033
"48787",672.81793,82.054474,89.736275
"48788",672.83124,82.2913,90.0373
"48789",672.84454,82.29374,90.11134
"48790",672.85785,82.11307,90.00235
"48791",672.87115,81.81033,89.76565
"48792",672.88446,81.43923,89.45112
"48793",672.89777,81.03639,89.093254
"48794",672.9111,80.63355,88.7228
"48795",672.9244,80.2478,88.35685
"48796",672.9377,79.888916,88.00571
"48797",672.951,79.57397,87.68729
"48798",672.9643,79.3225,87.42251
"48799",672.9776,79.15404,87.23287
"48800",672.9909,79.08812,87.14052
"48801",673.0042,79.13451,87.15841
"48802",673.0175,79.281,87.277855
"48803",673.0308,79.500725,87.47511
"48804",673.0441,79.74731,87.70609
"48805",673.05743,79.974365,87.925255
"48806",673.07074,80.1355,88.08559
"48807",673.08405,80.21362,88.167946
"48808",673.09735,80.21118,88.17218
"48809",673.11066,80.14038,88.10798
"48810",673.12396,80.01831,87.990295
"48811",673.13727,79.871826,87.84438
"48812",673.1506,79.71557,87.68412
"48813",673.1639,79.56176,87.52142
"48814",673.1772,79.41772,87.363686
"48815",673.1905,79.28832,87.216095
"48816",673.2038,79.17845,87.083984
"48817",673.2171,79.09056,86.97042
"48818",673.2304,79.02464,86.87608
"48819",673.2437,79.00023,86.82119
"48820",673.257,79.05882,86.84854
"48821",673.2703,79.26635,87.02666
"48822",673.2836,79.6643,87.40168
"48823",673.29694,80.24048,87.96737
"48824",673.31024,80.921646,88.65605
"48825",673.32355,81.58816,89.351364
"48826",673.33685,82.11307,89.9259
"48827",673.35016,82.406044,90.28491
"48828",673.36346,82.44999,90.404045
"48829",673.3768,82.2913,90.321915
"48830",673.3901,81.99344,90.09566
"48831",673.4034,81.61013,89.77464
"48832",673.4167,81.1902,89.40503
"48833",673.43,80.76784,89.01986
"48834",673.4433,80.35767,88.63369
"48835",673.4566,79.974365,88.26156
"48836",673.4699,79.63256,87.91895
"48837",673.4832,79.35668,87.63159
"48838",673.4965,79.168686,87.42349
"48839",673.5098,79.09056,87.31939
"48840",673.52313,79.12962,87.33003
"48841",673.53644,79.281,87.45421
"48842",673.54974,79.50561,87.65635
"48843",673.56305,79.74975,87.88504
"48844",673.57635,79.96948,88.096954
"48845",673.58966,80.12573,88.25225
"48846",673.60297,80.19653,88.32698
"48847",673.6163,80.18921,88.3258
"48848",673.6296,80.11841,88.26091
"48849",673.6429,80.00122,88.14742
"48850",673.6562,79.85962,88.00586
"48851",673.6695,79.710686,87.85254
"48852",673.6828,79.5642,87.697014
"48853",673.6961,79.42504,87.544235
"48854",673.7094,79.293205,87.39443
"48855",673.7227,79.17845,87.25759
"48856",673.736,79.07347,87.12694
"48857",673.7493,78.98802,87.012535
"48858",673.76263,78.94896,86.94185
"48859",673.77594,79.01732,86.97736
"48860",673.78925,79.24925,87.17859
"48861",673.80255,79.68139,87.587265
"48862",673.81586,80.28199,88.17791
"48863",673.82916,80.96315,88.86788
"48864",673.84247,81.59792,89.53275
"48865",673.8558,82.0618,90.04656
"48866",673.8691,82.28397,90.33317
"48867",673.8824,82.266884,90.38745
"48868",673.8957,82.056915,90.24832
"48869",673.909,81.71999,89.97568
"48870",673.9223,81.31228,89.62171
"48871",673.9356,80.8777,89.22814
"48872",673.9489,80.45289,88.83076
"48873",673.9622,80.05493,88.44695
"48874",673.9755,79.69604,88.089775
"48875",673.98883,79.395744,87.77998
"48876",674.00214,79.166245,87.5316
"48877",674.01544,79.01976,87.35906
"48878",674.02875,78.97826,87.28693
"48879",674.04205,79.044174,87.320915
"48880",674.05536,79.200424,87.447296
"48881",674.06866,79.412834,87.63472
"48882",674.082,79.63744,87.84098
"48883",674.0953,79.82544,88.01765
"48884",674.1086,79.94507,88.13182
"48885",674.1219,79.98413,88.16917
"48886",674.1352,79.94995,88.13449
"48887",674.1485,79.85962,88.042595
"48888",674.1618,79.7351,87.91369
"48889",674.1751,79.59838,87.76869
"48890",674.1884,79.47143,87.62919
"48891",674.2017,79.36645,87.50769
"48892",674.215,79.29565,87.41709
"48893",674.22833,79.259026,87.35846
"48894",674.24164,79.24437,87.32065
"48895",674.25494,79.24193,87.29459
"48896",674.26825,79.24193,87.270905
"48897",674.28156,79.26879,87.27408
"48898",674.29486,79.37621,87.35865
"48899",674.30817,79.62768,87.59062
"48900",674.3215,80.05493,88.00624
"48901",674.3348,80.63111,88.58414
"48902",674.3481,81.270775,89.24352
"48903",674.3614,81.85184,89.864296
"48904",674.3747,82.266884,90.33721
"48905",674.388,82.44755,90.588715
"48906",674.4013,82.406044,90.623695
"48907",674.4146,82.19119,90.48403
"48908",674.4279,81.85672,90.21803
"48909",674.4412,81.463646,89.88298
"48910",674.4545,81.05104,89.51611
"48911",674.46783,80.64576,89.14368
"48912",674.48114,80.26978,88.78788
"48913",674.49445,79.937744,88.46427
"48914",674.50775,79.656975,88.18156
"48915",674.52106,79.45434,87.9682
"48916",674.53436,79.34203,87.838844
"48917",674.54767,79.33959,87.81584
"48918",674.561,79.4519,87.90751
"48919",674.5743,79.65453,88.09302
"48920",674.5876,79.90112,88.32881
"48921",674.6009,80.14038,88.56498
"48922",674.6142,80.325935,88.75492
"48923",674.6275,80.42359,88.86276
"48924",674.6408,80.428474,88.88088
"48925",674.6541,80.34791,88.813705
"48926",674.6674,80.2063,88.68297
"48927",674.6807,80.03296,88.516075
"48928",674.69403,79.84497,88.32912
"48929",674.70734,79.65942,88.13872
"48930",674.72064,79.48608,87.954735
"48931",674.73395,79.327385,87.77998
"48932",674.74725,79.17845,87.61003
"48933",674.76056,79.03929,87.4452
"48934",674.77386,78.91234,87.28822
"48935",674.7872,78.79759,87.13949
"48936",674.8005,78.7219,87.02622
"48937",674.8138,78.73167,86.99605
"48938",674.8271,78.90013,87.12488
"48939",674.8404,79.26391,87.454285
"48940",674.8537,79.80835,87.97572
"48941",674.867,80.45045,88.61183
"48942",674.8803,81.075455,89.250916
"48943",674.8936,81.56374,89.77281
"48944",674.9069,81.829865,90.0878
"48945",674.9202,81.8616,90.17672
"48946",674.93353,81.69802,90.07131
"48947",674.94684,81.40505,89.831406
"48948",674.96014,81.03395,89.50421
"48949",674.97345,80.62623,89.1288
"48950",674.98676,80.218506,88.74065
"48951",675.00006,79.83276,88.36173
"48952",675.01337,79.47387,87.99761
"48953",675.0267,79.15648,87.66378
"48954",675.04,78.9099,87.39084
"48955",675.0533,78.75853,87.20541
"48956",675.0666,78.72678,87.134865
"48957",675.0799,78.819565,87.18786
"48958",675.0932,79.0222,87.35361
"48959",675.1065,79.29809,87.59894
"48960",675.1198,79.588615,87.86753
"48961",675.1331,79.84009,88.10615
"48962",675.1464,80.01343,88.27449
"48963",675.1597,80.093994,88.35548
"48964",675.17303,80.08423,88.34865
"48965",675.18634,80.00366,88.27071
"48966",675.19965,79.87427,88.14143
"48967",675.21295,79.725334,87.98857
"48968",675.22626,79.57641,87.83106
"48969",675.23956,79.432365,87.67378
"48970",675.25287,79.30297,87.52665
"48971",675.2662,79.185776,87.38767
"48972",675.2795,79.08812,87.26457
"48973",675.2928,79.00511,87.15307
"48974",675.3061,78.93431,87.05118
"48975",675.3194,78.8806,86.964165
"48976",675.3327,78.85863,86.90721
"48977",675.346,78.9099,86.92281
"48978",675.3593,79.093,87.07185
"48979",675.3726,79.4519,87.402405
"48980",675.3859,79.98169,87.91507
"48981",675.39923,80.61646,88.54927
"48982",675.41254,81.24635,89.198425
"48983",675.42584,81.75418,89.7452
"48984",675.43915,82.04471,90.090546
"48985",675.45245,82.09842,90.20815
"48986",675.46576,81.94461,90.11992
"48987",675.47906,81.64431,89.88039
"48988",675.4924,81.26101,89.54847
"48989",675.5057,80.84108,89.167946
"48990",675.519,80.41871,88.77186
"48991",675.5323,80.01099,88.37722
"48992",675.5456,79.63012,87.9967
"48993",675.5589,79.28344,87.63846
"48994",675.5722,78.995346,87.32797
"48995",675.5855,78.79759,87.09882
"48996",675.5988,78.71946,86.983116
"48997",675.6121,78.77562,86.99926
"48998",675.6254,78.96117,87.146545
"48999",675.63873,79.237045,87.38996
"49000",675.65204,79.54467,87.673744
"49001",675.66534,79.83032,87.94517
"49002",675.67865,80.045166,88.15471
"49003",675.69196,80.16968,88.28063
"49004",675.70526,80.19409,88.31035
"49005",675.71857,80.14282,88.265144
"49006",675.7319,80.03296,88.159744
"49007",675.7452,79.89136,88.01917
"49008",675.7585,79.73266,87.85708
"49009",675.7718,79.57641,87.692474
"49010",675.7851,79.43481,87.537636
"49011",675.7984,79.30541,87.39058
"49012",675.8117,79.1931,87.25656
"49013",675.825,79.09544,87.13369
"49014",675.8383,79.01488,87.02486
"49015",675.8516,78.9514,86.930595
"49016",675.8649,78.91722,86.86365
"49017",675.87823,78.96605,86.87864
"49018",675.89154,79.15404,87.03432
"49019",675.90485,79.52514,87.37898
"49020",675.91815,80.06714,87.90614
"49021",675.93146,80.71168,88.55278
"49022",675.94476,81.339134,89.20248
"49023",675.95807,81.829865,89.735054
"49024",675.9714,82.09598,90.05835
"49025",675.9847,82.125275,90.153145
"49026",675.998,81.94949,90.04378
"49027",676.0113,81.636986,89.79219
"49028",676.0246,81.24147,89.44783
"49029",676.0379,80.814224,89.05938
"49030",676.0512,80.37965,88.650246
"49031",676.0645,79.95972,88.24218
"49032",676.0778,79.569084,87.85029
"49033",676.0911,79.2224,87.490135
"49034",676.10443,78.94408,87.187515
"49035",676.11774,78.75365,86.96409
"49036",676.13104,78.675514,86.84701
"49037",676.14435,78.729225,86.85933
"49038",676.15765,78.9099,87.00029
"49039",676.17096,79.183334,87.23966
"49040",676.18427,79.4934,87.52421
"49041",676.1976,79.78638,87.80135
"49042",676.2109,80.01099,88.01929
"49043",676.2242,80.1355,88.14414
"49044",676.2375,80.164795,88.17767
"49045",676.2508,80.10864,88.12667
"49046",676.2641,79.9939,88.01532
"49047",676.2774,79.84497,87.8662
"49048",676.2907,79.68383,87.70022
"49049",676.304,79.52514,87.53165
"49050",676.3173,79.381096,87.372765
"49051",676.3306,79.256584,87.22891
"49052",676.34393,79.151596,87.10069
"49053",676.35724,79.05882,86.98141
"49054",676.37054,78.975815,86.86899
"49055",676.38385,78.91234,86.773506
"49056",676.39716,78.89525,86.72243
"49057",676.41046,78.98558,86.77824
"49058",676.42377,79.24437,87.005325
"49059",676.4371,79.693596,87.43094
"49060",676.4504,80.28687,88.01464
"49061",676.4637,80.936295,88.67303
"49062",676.477,81.512474,89.278465
"49063",676.4903,81.91287,89.72613
"49064",676.5036,82.08621,89.95924
"49065",676.5169,82.039825,89.97805
"49066",676.5302,81.829865,89.83183
"49067",676.5435,81.51003,89.56918
"49068",676.5568,81.1194,89.22574
"49069",676.5701,80.69947,88.84079
"49070",676.58344,80.26978,88.43296
"49071",676.59674,79.852295,88.0239
"49072",676.61005,79.466545,87.63354
"49073",676.62335,79.132065,87.28239
"49074",676.63666,78.87816,87.00136
"49075",676.64996,78.729225,86.81737
"49076",676.66327,78.69993,86.74836
"49077",676.6766,78.79759,86.8054
"49078",676.6899,79.00755,86.97778
"49079",676.7032,79.290764,87.22998
"49080",676.7165,79.59594,87.51299
"49081",676.7298,79.871826,87.77625
"49082",676.7431,80.08179,87.98221
"49083",676.7564,80.198975,88.10195
"49084",676.7697,80.22827,88.13747
"49085",676.783,80.184326,88.100655
"49086",676.7963,80.08911,88.0112
"49087",676.80963,79.96216,87.88703
"49088",676.82294,79.82056,87.74425
"49089",676.83624,79.676506,87.59459
"49090",676.84955,79.53979,87.44776
"49091",676.86285,79.40551,87.2991
"49092",676.87616,79.28588,87.1609
"49093",676.88947,79.17601,87.02871
"49094",676.9028,79.09056,86.91751
"49095",676.9161,79.063705,86.862236
"49096",676.9294,79.16136,86.93063
"49097",676.9427,79.432365,87.17543
"49098",676.956,79.886475,87.6118
"49099",676.9693,80.4773,88.19908
"49100",676.9826,81.09987,88.83656
"49101",676.9959,81.634544,89.40561
"49102",677.0092,81.98123,89.803375
"49103",677.0225,82.09842,89.982475
"49104",677.0358,82.00809,89.95772
"49105",677.04913,81.76883,89.78121
"49106",677.06244,81.43191,89.499565
"49107",677.07574,81.04616,89.15856
"49108",677.08905,80.635994,88.78109
"49109",677.10236,80.22339,88.38836
"49110",677.11566,79.823,87.99495
"49111",677.12897,79.45434,87.62076
"49112",677.1423,79.132065,87.28143
"49113",677.1556,78.88548,87.00773
"49114",677.1689,78.74387,86.83129
"49115",677.1822,78.72434,86.77251
"49116",677.1955,78.82445,86.83275
"49117",677.2088,79.029526,87.00109
"49118",677.2221,79.29565,87.236885
"49119",677.2354,79.569084,87.48831
"49120",677.2487,79.80347,87.70923
"49121",677.262,79.974365,87.873985
"49122",677.2753,80.05737,87.95619
"49123",677.28864,80.062256,87.96287
"49124",677.30194,80.00366,87.90622
"49125",677.31525,79.89624,87.79891
"49126",677.32855,79.76196,87.66139
"49127",677.34186,79.622795,87.514786
"49128",677.35516,79.48852,87.36872
"49129",677.36847,79.364006,87.228226
"49130",677.3818,79.259026,87.10337
"49131",677.3951,79.16136,86.98255
"49132",677.4084,79.08568,86.88066
"49133",677.4217,79.07103,86.83744
"49134",677.435,79.18822,86.9256
"49135",677.4483,79.48608,87.19809
"49136",677.4616,79.9646,87.66055
"49137",677.4749,80.5774,88.27225
"49138",677.4882,81.21217,88.925064
"49139",677.5015,81.74929,89.50006
"49140",677.51483,82.08377,89.889206
"49141",677.52814,82.19119,90.061745
"49142",677.54144,82.09354,90.03256
"49143",677.55475,81.84451,89.84896
"49144",677.56805,81.495384,89.55747
"49145",677.58136,81.09743,89.206245
"49146",677.59467,80.6775,88.82061
"49147",677.608,80.257576,88.42186
"49148",677.6213,79.86206,88.03439
"49149",677.6346,79.50805,87.67607
"49150",677.6479,79.21507,87.36772
"49151",677.6612,79.009995,87.138115
"49152",677.6745,78.91234,87.00952
"49153",677.6878,78.92699,86.99018
"49154",677.7011,79.05638,87.086044
"49155",677.7144,79.27123,87.27141
"49156",677.7277,79.53246,87.509865
"49157",677.741,79.79126,87.75405
"49158",677.75433,80.008545,87.96481
"49159",677.76764,80.15503,88.111565
"49160",677.78094,80.22095,88.18233
"49161",677.79425,80.21118,88.17947
"49162",677.80756,80.14526,88.12015
"49163",677.82086,80.04761,88.02703
"49164",677.83417,79.9353,87.916214
"49165",677.8475,79.818115,87.797005
"49166",677.8608,79.710686,87.68389
"49167",677.8741,79.603264,87.56743
"49168",677.8874,79.49584,87.44761
"49169",677.9007,79.395744,87.33176
"49170",677.914,79.33471,87.25184
"49171",677.9273,79.37377,87.27011
"49172",677.9406,79.586174,87.462944
"49173",677.9539,79.98901,87.85285
"49174",677.9672,80.54566,88.40916
"49175",677.9805,81.15846,89.03901
"49176",677.99384,81.705345,89.62209
"49177",678.00714,82.07645,90.046486
"49178",678.02045,82.21805,90.252975
"49179",678.03375,82.14725,90.25149
"49180",678.04706,81.91287,90.08421
"49181",678.06036,81.57595,89.80707
"49182",678.07367,81.19508,89.47545
"49183",678.087,80.80202,89.11973
"49184",678.1003,80.413826,88.7566
"49185",678.1136,80.045166,88.40087
"49186",678.1269,79.70092,88.05804
"49187",678.1402,79.3933,87.74107
"49188",678.1535,79.149155,87.47797
"49189",678.1668,78.995346,87.29757
"49190",678.1801,78.95628,87.22711
"49191",678.1934,79.03197,87.27018
"49192",678.2067,79.20775,87.41571
"49193",678.22003,79.43481,87.61801
"49194",678.23334,79.66674,87.83228
"49195",678.24664,79.86206,88.01719
"49196",678.25995,79.991455,88.14227
"49197",678.27325,80.042725,88.193275
"49198",678.28656,80.028076,88.17996
"49199",678.29987,79.9646,88.11736
"49200",678.3132,79.8645,88.01616
"49201",678.3265,79.744865,87.89229
"49202",678.3398,79.62035,87.7598
"49203",678.3531,79.49096,87.618546
"49204",678.3664,79.37133,87.48301
"49205",678.3797,79.26635,87.35838
"49206",678.393,79.185776,87.25488
"49207",678.4063,79.16136,87.205025
"49208",678.4196,79.24193,87.259384
"49209",678.4329,79.47631,87.47008
"49210",678.4462,79.88159,87.85899
"49211",678.45953,80.411385,88.385086
"49212",678.47284,80.990005,88.97656
"49213",678.48615,81.50515,89.522644
"49214",678.49945,81.864044,89.92857
"49215",678.51276,82.01053,90.13331
"49216",678.52606,81.95682,90.142426
"49217",678.53937,81.74685,89.99361
"49218",678.5527,81.42947,89.73081
"49219",678.566,81.058365,89.40438
"49220",678.5793,80.66529,89.04438
"49221",678.5926,80.28443,88.68431
"49222",678.6059,79.91821,88.32698
"49223",678.6192,79.586174,87.992386
"49224",678.6325,79.30053,87.69381
"49225",678.6458,79.078354,87.449776
"49226",678.6591,78.94408,87.2867
"49227",678.6724,78.91234,87.22196
"49228",678.6857,78.9807,87.25633
"49229",678.69904,79.13451,87.37829
"49230",678.71234,79.33959,87.55633
"49231",678.72565,79.54711,87.74321
"49232",678.73895,79.72289,87.90484
"49233",678.75226,79.84253,88.015816
"49234",678.76556,79.888916,88.05728
"49235",678.7789,79.86694,88.03184
"49236",678.7922,79.79614,87.95688
"49237",678.8055,79.68871,87.84308
"49238",678.8188,79.5642,87.70884
"49239",678.8321,79.43481,87.56583
"49240",678.8454,79.30297,87.41633
"49241",678.8587,79.17845,87.27003
"49242",678.872,79.06615,87.13205
"49243",678.8853,78.96605,87.00277
"49244",678.8986,78.90013,86.90454
"49245",678.9119,78.924545,86.894585
"49246",678.92523,79.09544,87.031876
"49247",678.93854,79.44213,87.350296
"49248",678.95184,79.94507,87.8358
"49249",678.96515,80.53101,88.42003
"49250",678.97845,81.0901,88.99571
"49251",678.99176,81.51736,89.45703
"49252",679.00507,81.74197,89.72906
"49253",679.0184,81.76395,89.80547
"49254",679.0317,81.62722,89.72387
"49255",679.045,81.3904,89.5379
"49256",679.0583,81.109634,89.30058
"49257",679.0716,80.82887,89.0545
"49258",679.0849,80.567635,88.81916
"49259",679.0982,80.32838,88.59764
"49260",679.1115,80.113525,88.39305
"49261",679.1248,79.91821,88.20129
"49262",679.1381,79.74731,88.027824
"49263",679.1514,79.61791,87.89053
"49264",679.16473,79.54955,87.810234
"49265",679.17804,79.551994,87.7986
"49266",679.19135,79.61547,87.848076
"49267",679.20465,79.73022,87.950806
"49268",679.21796,79.86206,88.07422
"49269",679.23126,79.974365,88.18221
"49270",679.24457,80.05249,88.25954
"49271",679.2579,80.076904,88.28559
"49272",679.2712,80.045166,88.256256
"49273",679.2845,79.96704,88.17954
"49274",679.2978,79.85474,88.06621
"49275",679.3111,79.72289,87.929825
"49276",679.3244,79.58373,87.782005
"49277",679.3377,79.449455,87.63472
"49278",679.351,79.32006,87.48812
"49279",679.3643,79.200424,87.34724
"49280",679.3776,79.09544,87.21727
"49281",679.3909,79.009995,87.10355
"49282",679.40424,78.98802,87.050644
"49283",679.41754,79.080795,87.11179
"49284",679.43085,79.33471,87.33698
"49285",679.44415,79.75708,87.73856
"49286",679.45746,80.308846,88.28274
"49287",679.47076,80.89235,88.87589
"49288",679.4841,81.392845,89.404274
"49289",679.4974,81.71267,89.767624
"49290",679.5107,81.812775,89.92125
"49291",679.524,81.71023,89.87535
"49292",679.5373,81.45632,89.67489
"49293",679.5506,81.11696,89.381035
"49294",679.5639,80.743416,89.0424
"49295",679.5772,80.36988,88.69209
"49296",679.5905,80.02075,88.35452
"49297",679.6038,79.71313,88.04755
"49298",679.6171,79.4519,87.77735
"49299",679.63043,79.2517,87.56003
"49300",679.64374,79.132065,87.41701
"49301",679.65704,79.10033,87.35815
"49302",679.67035,79.16136,87.39107
"49303",679.68365,79.30297,87.50647
"49304",679.69696,79.49584,87.67756
"49305",679.71027,79.70092,87.86688
"49306",679.7236,79.871826,88.02844
"49307",679.7369,79.98901,88.141624
"49308",679.7502,80.045166,88.19743
"49309",679.7635,80.042725,88.1964
"49310",679.7768,79.98413,88.139145
"49311",679.7901,79.886475,88.04099
"49312",679.8034,79.764404,87.915375
"49313",679.8167,79.62524,87.768845
"49314",679.83,79.48119,87.61309
"49315",679.8433,79.344475,87.46016
"49316",679.8566,79.217514,87.31271
"49317",679.86993,79.10033,87.171074
"49318",679.88324,78.99046,87.0331
"49319",679.89655,78.890366,86.90145
"49320",679.90985,78.82689,86.8033
"49321",679.92316,78.84886,86.78861
"49322",679.93646,79.01488,86.918655
"49323",679.94977,79.35912,87.23212
"49324",679.9631,79.871826,87.72479
"49325",679.9764,80.47242,88.32138
"49326",679.9897,81.058365,88.92209
"49327",680.003,81.512474,89.40927
"49328",680.0163,81.75418,89.69824
"49329",680.0296,81.778595,89.77747
"49330",680.0429,81.62234,89.676796
"49331",680.0562,81.3489,89.454056
"49332",680.0695,81.0193,89.16661
"49333",680.0828,80.672615,88.851776
"49334",680.0961,80.33082,88.531
"49335",680.10944,80.01587,88.22639
"49336",680.12274,79.73266,87.94367
"49337",680.13605,79.4934,87.69606
"49338",680.14935,79.32006,87.50689
"49339",680.16266,79.22972,87.3953
"49340",680.17596,79.22728,87.36879
"49341",680.1893,79.32006,87.43742
"49342",680.2026,79.48608,87.58219
"49343",680.2159,79.691154,87.77121
"49344",680.2292,79.89624,87.966644
"49345",680.2425,80.062256,88.12942
"49346",680.2558,80.16235,88.23146
"49347",680.2691,80.18921,88.26339
"49348",680.2824,80.15015,88.23024
"49349",680.2957,80.05249,88.137276
"49350",680.309,79.91821,88.00464
"49351",680.3223,79.766846,87.850716
"49352",680.33563,79.62524,87.70182
"49353",680.34894,79.500725,87.5656
"49354",680.36224,79.395744,87.445015
"49355",680.37555,79.310295,87.34068
"49356",680.38885,79.23949,87.24832
"49357",680.40216,79.17357,87.15864
"49358",680.41547,79.114975,87.07422
"49359",680.4288,79.063705,86.99529
"49360",680.4421,79.046616,86.948944
"49361",680.4554,79.11009,86.98263
"49362",680.4687,79.30541,87.15014
"49363",680.482,79.67162,87.494644
"49364",680.4953,80.19165,88.00441
"49365",680.5086,80.79469,88.61344
"49366",680.5219,81.375755,89.21934
"49367",680.5352,81.82742,89.714
"49368",680.5485,82.06912,90.0128
"49369",680.5618,82.091095,90.099434
"49370",680.57513,81.92996,90.00365
"49371",680.58844,81.63943,89.77342
"49372",680.60175,81.28054,89.46577
"49373",680.61505,80.89479,89.12003
"49374",680.62836,80.516365,88.76957
"49375",680.64166,80.15991,88.42925
"49376",680.65497,79.84985,88.12419
"49377",680.6683,79.59594,87.865585
"49378",680.6816,79.415276,87.672295
"49379",680.6949,79.3225,87.56125
"49380",680.7082,79.3225,87.54008
"49381",680.7215,79.41039,87.6068
"49382",680.7348,79.56176,87.73974
"49383",680.7481,79.7522,87.91648
"49384",680.7614,79.940186,88.096725
"49385",680.7747,80.096436,88.25111
"49386",680.788,80.19653,88.35422
"49387",680.80133,80.22583,88.389656
"49388",680.81464,80.18677,88.35765
"49389",680.82794,80.096436,88.273155
"49390",680.84125,79.96948,88.149216
"49391",680.85455,79.823,88.00178
"49392",680.86786,79.67895,87.852196
"49393",680.88116,79.551994,87.71521
"49394",680.8945,79.44457,87.59379
"49395",680.9078,79.35424,87.4861
"49396",680.9211,79.27856,87.390236
"49397",680.9344,79.219955,87.30909
"49398",680.9477,79.166245,87.231
"49399",680.961,79.114975,87.15368
"49400",680.9743,79.07591,87.08696
"49401",680.9876,79.05882,87.04099
"49402",681.0009,79.09544,87.0482
"49403",681.0142,79.23949,87.16398
"49404",681.0275,79.53979,87.44051
"49405",681.04083,79.991455,87.8778
"49406",681.05414,80.54322,88.4293
"49407",681.06744,81.10231,89.00536
"49408",681.08075,81.5613,89.4988
"49409",681.09406,81.832306,89.818596
"49410",681.10736,81.8909,89.93445
"49411",681.12067,81.76639,89.869026
"49412",681.134,81.51003,89.66787
"49413",681.1473,81.17799,89.38302
"49414",681.1606,80.81911,89.06094
"49415",681.1739,80.462654,88.73009
"49416",681.1872,80.12329,88.40518
"49417",681.2005,79.815674,88.10142
"49418",681.2138,79.54711,87.827095
"49419",681.2271,79.327385,87.593216
"49420",681.2404,79.183334,87.42815
"49421",681.2537,79.12962,87.348915
"49422",681.267,79.18822,87.38031
"49423",681.28033,79.34692,87.51364
"49424",681.29364,79.58129,87.72761
"49425",681.30695,79.84253,87.97576
"49426",681.32025,80.07446,88.202774
"49427",681.33356,80.23071,88.36135
"49428",681.34686,80.291756,88.4296
"49429",681.36017,80.26246,88.409424
"49430",681.3735,80.164795,88.31996
"49431",681.3868,80.028076,88.18839
"49432",681.4001,79.87671,88.0379
"49433",681.4134,79.73266,87.89
"49434",681.4267,79.60082,87.74981
"49435",681.44,79.48852,87.62503
"49436",681.4533,79.39086,87.51139
"49437",681.4666,79.30297,87.404465
"49438",681.4799,79.22484,87.30455
"49439",681.4932,79.15404,87.209526
"49440",681.50653,79.09056,87.11961
"49441",681.51984,79.03929,87.039925
"49442",681.53314,79.00267,86.97328
"49443",681.54645,79.00023,86.939674
"49444",681.55975,79.07103,86.97923
"49445",681.57306,79.26391,87.14308
"49446",681.58636,79.60815,87.46432
"49447",681.5997,80.08667,87.930595
"49448",681.613,80.638435,88.48507
"49449",681.6263,81.163345,89.02993
"49450",681.6396,81.55398,89.45692
"49451",681.6529,81.74441,89.69591
"49452",681.6662,81.73464,89.740654
"49453",681.6795,81.55642,89.61664
"49454",681.6928,81.26345,89.37231
"49455",681.7061,80.90456,89.052895
"49456",681.7194,80.52857,88.70518
"49457",681.7327,80.15259,88.34571
"49458",681.74603,79.79614,87.99403
"49459",681.75934,79.47387,87.66539
"49460",681.77264,79.202866,87.377945
"49461",681.78595,79.00023,87.1504
"49462",681.79926,78.887924,87.00685
"49463",681.81256,78.88548,86.96966
"49464",681.82587,78.99046,87.03981
"49465",681.8392,79.185776,87.203575
"49466",681.8525,79.429924,87.42228
"49467",681.8658,79.676506,87.65105
"49468",681.8791,79.87427,87.8387
"49469",681.8924,80.00122,87.96172
"49470",681.9057,80.05737,88.017914
"49471",681.919,80.04761,88.00994
"49472",681.9323,79.98413,87.94795
"49473",681.9456,79.888916,87.85224
"49474",681.9589,79.781494,87.74135
"49475",681.9722,79.66186,87.61488
"49476",681.98553,79.54711,87.48957
"49477",681.99884,79.43725,87.365555
"49478",682.01215,79.33959,87.25031
"49479",682.02545,79.256584,87.14667
"49480",682.03876,79.19066,87.05751
"49481",682.05206,79.13695,86.97851
"49482",682.06537,79.10033,86.91492
"49483",682.0787,79.07103,86.857506
"49484",682.092,79.04173,86.79918
"49485",682.1053,79.02464,86.752144
"49486",682.1186,79.05882,86.755844
"49487",682.1319,79.19554,86.86315
"49488",682.1452,79.48608,87.12855
"49489",682.1585,79.9353,87.561714
"49490",682.1718,80.50416,88.12855
"49491",682.1851,81.092545,88.73269
"49492",682.1984,81.58816,89.26244
"49493",682.21173,81.898224,89.62214
"49494",682.22504,81.988556,89.77179
"49495",682.23834,81.87625,89.72163
"49496",682.25165,81.61501,89.51902
"49497",682.26495,81.26833,89.22281
"49498",682.27826,80.88258,88.87669
"49499",682.29156,80.48463,88.50632
"49500",682.3049,80.10132,88.13815
"49501",682.3182,79.73998,87.77998
"49502",682.3315,79.40795,87.43983
"49503",682.3448,79.12718,87.14056
"49504",682.3581,78.91478,86.90088
"49505",682.3714,78.79271,86.744896
"49506",682.3847,78.77562,86.69008
"49507",682.398,78.86351,86.73971
"49508",682.4113,79.029526,86.87021
"49509",682.4246,79.23949,87.04984
"49510",682.4379,79.44213,87.22872
"49511",682.45123,79.59838,87.36754
"49512",682.46454,79.68871,87.44532
"49513",682.47784,79.71313,87.46001
"49514",682.49115,79.68627,87.42419
"49515",682.50446,79.62035,87.348465
"49516",682.51776,79.534904,87.25115
"49517",682.53107,79.44457,87.146286
"49518",682.5444,79.35668,87.04104
"49519",682.5577,79.276115,86.94037
"49520",682.571,79.202866,86.8445
"49521",682.5843,79.14183,86.75855
"49522",682.5976,79.097885,86.68779
"49523",682.6109,79.06859,86.6303
"49524",682.6242,79.05394,86.58655
"49525",682.6375,79.05394,86.556984
"49526",682.6508,79.06859,86.54207
"49527",682.6641,79.11253,86.55691
"49528",682.6774,79.22728,86.64392
"49529",682.69073,79.46899,86.86148
"49530",682.70404,79.8645,87.2404
"49531",682.71735,80.39185,87.76352
"49532",682.73065,80.98268,88.36659
"49533",682.74396,81.53933,88.95395
"49534",682.75726,81.95438,89.4171
"49535",682.77057,82.16434,89.68813
"49536",682.7839,82.17166,89.76309
"49537",682.7972,82.01297,89.672264
"49538",682.8105,81.74197,89.464165
"49539",682.8238,81.41238,89.18901
"49540",682.8371,81.058365,88.879135
"49541",682.8504,80.69947,88.553314
"49542",682.8637,80.35279,88.22849
"49543",682.877,80.03052,87.917244
"49544",682.8903,79.74975,87.63743
"49545",682.9036,79.537346,87.417206
"49546",682.91693,79.412834,87.27824
"49547",682.93024,79.39086,87.237915
"49548",682.94354,79.47631,87.30433
"49549",682.95685,79.64721,87.45886
"49550",682.97015,79.87915,87.67978
"49551",682.98346,80.12329,87.92014
"49552",682.99677,80.33814,88.13885
"49553",683.0101,80.48707,88.29834
"49554",683.0234,80.567635,88.39413
"49555",683.0367,80.5774,88.42163
"49556",683.05,80.5359,88.39817
"49557",683.0633,80.465096,88.34412
"49558",683.0766,80.38209,88.27564
"49559",683.0899,80.2942,88.19969
"49560",683.1032,80.2063,88.12099
"49561",683.1165,80.11597,88.0371
"49562",683.1298,80.02319,87.94795
"49563",683.1431,79.923096,87.84858
"49564",683.15643,79.82056,87.74364
"49565",683.16974,79.72289,87.640366
"49566",683.18304,79.639885,87.5487
"49567",683.19635,79.58129,87.47885
"49568",683.20966,79.57885,87.463326
"49569",683.22296,79.676506,87.54782
"49570",683.23627,79.92554,87.78674
"49571",683.2496,80.33814,88.19702
"49572",683.2629,80.88014,88.74959
"49573",683.2762,81.46853,89.36548
"49574",683.2895,81.99832,89.94116
"49575",683.3028,82.36698,90.37227
"49576",683.3161,82.528114,90.60737
"49577",683.3294,82.48417,90.642426
"49578",683.3427,82.28397,90.51986
"49579",683.356,81.97879,90.28605
"49580",683.3693,81.617455,89.98655
"49581",683.3826,81.23659,89.65623
"49582",683.39594,80.86061,89.31889
"49583",683.40924,80.5066,88.991776
"49584",683.42255,80.177,88.67801
"49585",683.43585,79.88403,88.39057
"49586",683.44916,79.64477,88.14768
"49587",683.46246,79.48608,87.97789
"49588",683.47577,79.42016,87.89591
"49589",683.4891,79.466545,87.92418
"49590",683.5024,79.61547,88.056435
"49591",683.5157,79.82788,88.25683
"49592",683.529,80.062256,88.485825
"49593",683.5423,80.26002,88.68553
"49594",683.5556,80.38941,88.82305
"49595",683.5689,80.428474,88.87428
"49596",683.5822,80.38209,88.841286
"49597",683.5955,80.26978,88.74092
"49598",683.6088,80.12085,88.60042
"49599",683.62213,79.95239,88.43574
"49600",683.63544,79.781494,88.26335
"49601",683.64874,79.61791,88.09294
"49602",683.66205,79.4641,87.92719
"49603",683.67535,79.327385,87.77373
"49604",683.68866,79.20775,87.63307
"49605",683.70197,79.10277,87.503334
"49606",683.7153,79.00267,87.3752
"49607",683.7286,78.90257,87.243935
"49608",683.7419,78.83177,87.13884
"49609",683.7552,78.839096,87.10966
"49610",683.7685,78.992905,87.22719
"49611",683.7818,79.33471,87.53752
"49612",683.7951,79.84985,88.031876
"49613",683.8084,80.46021,88.63754
"49614",683.8217,81.06325,89.25496
"49615",683.835,81.52712,89.75206
"49616",683.8483,81.78348,90.05614
"49617",683.86163,81.82742,90.155815
"49618",683.87494,81.6907,90.076195
"49619",683.88824,81.42947,89.8678
"49620",683.90155,81.092545,89.57555
"49621",683.91486,80.72877,89.24591
"49622",683.92816,80.365,88.904915
"49623",683.94147,80.01587,88.56719
"49624",683.9548,79.69604,88.247856
"49625",683.9681,79.415276,87.957596
"49626",683.9814,79.18089,87.70494
"49627",683.9947,79.012436,87.51089
"49628",684.008,78.91966,87.38725
"49629",684.0213,78.91478,87.34861
"49630",684.0346,79.00267,87.40259
"49631",684.0479,79.1638,87.532555
"49632",684.0612,79.364006,87.70663
"49633",684.0745,79.5642,87.88695
"49634",684.0878,79.73022,88.039345
"49635",684.10114,79.84009,88.140785
"49636",684.11444,79.87915,88.17485
"49637",684.12775,79.85718,88.1491
"49638",684.14105,79.79126,88.07872
"49639",684.15436,79.691154,87.97209
"49640",684.16766,79.571526,87.84281
"49641",684.18097,79.44457,87.70247
"49642",684.1943,79.32006,87.5606
"49643",684.2076,79.200424,87.419716
"49644",684.2209,79.08568,87.27998
"49645",684.2342,78.97337,87.13911
"49646",684.2475,78.86595,86.9996
"49647",684.2608,78.7805,86.878716
"49648",684.2741,78.75853,86.818634
"49649",684.2874,78.86351,86.88482
"49650",684.3007,79.14427,87.130066
"49651",684.314,79.5935,87.55255
"49652",684.32733,80.15991,88.10626
"49653",684.34064,80.743416,88.69476
"49654",684.35394,81.22926,89.20384
"49655",684.36725,81.532005,89.545
"49656",684.38055,81.619896,89.68076
"49657",684.39386,81.52224,89.63373
"49658",684.40717,81.29275,89.451805
"49659",684.4205,80.98024,89.179695
"49660",684.4338,80.638435,88.86852
"49661",684.4471,80.2942,88.544235
"49662",684.4604,79.96216,88.22139
"49663",684.4737,79.65209,87.91014
"49664",684.487,79.378654,87.62583
"49665",684.5003,79.151596,87.37936
"49666",684.5136,78.99046,87.19171
"49667",684.5269,78.907455,87.077156
"49668",684.5402,78.924545,87.060104
"49669",684.5535,79.03441,87.13636
"49670",684.56683,79.21263,87.28441
"49671",684.58014,79.42016,87.46733
"49672",684.59344,79.61791,87.646965
"49673",684.60675,79.77173,87.78884
"49674",684.62006,79.86206,87.87204
"49675",684.63336,79.89136,87.897026
"49676",684.64667,79.86206,87.864334
"49677",684.66,79.78882,87.78678
"49678",684.6733,79.67895,87.67031
"49679",684.6866,79.551994,87.533325
"49680",684.6999,79.40795,87.37528
"49681",684.7132,79.26391,87.21274
"49682",684.7265,79.1223,87.04813
"49683",684.7398,78.992905,86.891304
"49684",684.7531,78.87572,86.742645
"49685",684.7664,78.78783,86.61962
"49686",684.7797,78.75609,86.55
"49687",684.793,78.84398,86.59902
"49688",684.80634,79.093,86.81192
"49689",684.81964,79.51293,87.20351
"49690",684.83295,80.062256,87.73761
"49691",684.84625,80.655525,88.332825
"49692",684.85956,81.17799,88.87578
"49693",684.87286,81.53689,89.271484
"49694",684.88617,81.688255,89.47088
"49695",684.8995,81.64919,89.48457
"49696",684.9128,81.46609,89.353004
"49697",684.9261,81.19264,89.125374
"49698",684.9394,80.8777,88.8477
"49699",684.9527,80.5481,88.54553
"49700",684.966,80.218506,88.23306
"49701",684.9793,79.90112,87.92251
"49702",684.9926,79.60815,87.62644
"49703",685.0059,79.35668,87.36273
"49704",685.0192,79.17113,87.157074
"49705",685.03253,79.063705,87.02375
"49706",685.04584,79.0515,86.982285
"49707",685.05914,79.132065,87.03321
"49708",685.07245,79.293205,87.16723
"49709",685.08575,79.50317,87.3551
"49710",685.09906,79.72289,87.5593
"49711",685.11237,79.91333,87.74108
"49712",685.1257,80.05005,87.87509
"49713",685.139,80.11597,87.94257
"49714",685.1523,80.10864,87.93887
"49715",685.1656,80.05493,87.88856
"49716",685.1789,79.96704,87.80238
"49717",685.1922,79.86206,87.69637
"49718",685.2055,79.742424,87.572426
"49719",685.2188,79.62524,87.44719
"49720",685.2321,79.50317,87.31341
"49721",685.2454,79.3933,87.18802
"49722",685.2587,79.29809,87.073845
"49723",685.27203,79.22972,86.98354
"49724",685.28534,79.20775,86.9375
"49725",685.29865,79.290764,86.99576
"49726",685.31195,79.52514,87.20797
"49727",685.32526,79.937744,87.605736
"49728",685.33856,80.499275,88.16532
"49729",685.35187,81.13161,88.813255
"49730",685.3652,81.722435,89.439445
"49731",685.3785,82.15701,89.92785
"49732",685.3918,82.371864,90.210106
"49733",685.4051,82.371864,90.284225
"49734",685.4184,82.19119,90.17767
"49735",685.4317,81.89578,89.95074
"49736",685.445,81.53689,89.651085
"49737",685.4583,81.1487,89.31092
"49738",685.4716,80.762955,88.961075
"49739",685.4849,80.38941,88.611374
"49740",685.4982,80.04028,88.274414
"49741",685.51154,79.727776,87.963165
"49742",685.52484,79.48119,87.70808
"49743",685.53815,79.31518,87.52585
"49744",685.55145,79.2517,87.44097
"49745",685.56476,79.29565,87.46153
"49746",685.57806,79.432365,87.57624
"49747",685.5914,79.63012,87.756256
"49748",685.6047,79.852295,87.96687
"49749",685.618,80.05737,88.167336
"49750",685.6313,80.20874,88.320496
"49751",685.6446,80.28687,88.40515
"49752",685.6579,80.2942,88.42144
"49753",685.6712,80.23804,88.37447
"49754",685.6845,80.14038,88.284256
"49755",685.6978,80.02075,88.169014
"49756",685.7111,79.89868,88.04759
"49757",685.7244,79.77661,87.922356
"49758",685.73773,79.65942,87.79818
"49759",685.75104,79.53979,87.66791
"49760",685.76434,79.4226,87.53634
"49761",685.77765,79.310295,87.40599
"49762",685.79095,79.20531,87.27945
"49763",685.80426,79.132065,87.18137
"49764",685.81757,79.13695,87.159134
"49765",685.8309,79.293205,87.28842
"49766",685.8442,79.64965,87.62278
"49767",685.8575,80.198975,88.161156
"49768",685.8708,80.88258,88.85098
"49769",685.8841,81.583275,89.579254
"49770",685.8974,82.1741,90.21956
"49771",685.9107,82.55009,90.66348
"49772",685.924,82.684364,90.87745
"49773",685.9373,82.59647,90.87344
"49774",685.9506,82.34745,90.70556
"49775",685.9639,81.99344,90.424904
"49776",685.97723,81.59304,90.0868
"49777",685.99054,81.18776,89.7313
"49778",686.00385,80.797134,89.37779
"49779",686.01715,80.4358,89.04137
"49780",686.03046,80.11597,88.73515
"49781",686.04376,79.84985,88.472664
"49782",686.05707,79.64721,88.26533
"49783",686.0704,79.5227,88.12979
"49784",686.0837,79.49096,88.08314
"49785",686.097,79.551994,88.128265
"49786",686.1103,79.68383,88.2461
"49787",686.1236,79.85962,88.41201
"49788",686.1369,80.04028,88.58829
"49789",686.1502,80.19409,88.743355
"49790",686.1635,80.289314,88.84464
"49791",686.1768,80.31861,88.88298
"49792",686.1901,80.27711,88.85143
"49793",686.2034,80.18921,88.772194
"49794",686.21674,80.062256,88.65115
"49795",686.23004,79.91821,88.509056
"49796",686.24335,79.764404,88.35269
"49797",686.25665,79.61791,88.19884
"49798",686.26996,79.483635,88.05262
"49799",686.28326,79.35912,87.91197
"49800",686.2966,79.24681,87.77963
"49801",686.3099,79.14671,87.656
"49802",686.3232,79.05638,87.539
"49803",686.3365,78.97337,87.426506
"49804",686.3498,78.905014,87.326065
"49805",686.3631,78.86839,87.255226
"49806",686.3764,78.907455,87.25893
"49807",686.3897,79.08568,87.40301
"49808",686.403,79.4641,87.75286
"49809",686.4163,80.05005,88.32206
"49810",686.4296,80.78493,89.0585
"49811",686.44293,81.55886,89.856964
"49812",686.45624,82.230255,90.57707
"49813",686.46954,82.68192,91.098434
"49814",686.48285,82.86992,91.37024
"49815",686.49615,82.81621,91.40621
"49816",686.50946,82.579384,91.25739
"49817",686.52277,82.2327,90.99131
"49818",686.5361,81.832306,90.66069
"49819",686.5494,81.427025,90.31267
"49820",686.5627,81.03151,89.96175
"49821",686.576,80.66041,89.62288
"49822",686.5893,80.323494,89.3066
"49823",686.6026,80.03296,89.02618
"49824",686.6159,79.80347,88.797714
"49825",686.6292,79.65942,88.64752
"49826",686.6425,79.60815,88.58561
"49827",686.6558,79.65453,88.61975
"49828",686.6691,79.77905,88.733475
"49829",686.68243,79.94751,88.89503
"49830",686.69574,80.11597,89.061844
"49831",686.70905,80.25025,89.19975
"49832",686.72235,80.32838,89.2857
"49833",686.73566,80.34058,89.30817
"49834",686.74896,80.289314,89.26754
"49835",686.76227,80.18677,89.174034
"49836",686.7756,80.05249,89.04559
"49837",686.7889,79.89624,88.89098
"49838",686.8022,79.73754,88.72904
"49839",686.8155,79.57641,88.55971
"49840",686.8288,79.42016,88.39022
"49841",686.8421,79.273674,88.22562
"49842",686.8554,79.13695,88.06619
"49843",686.8687,79.012436,87.91471
"49844",686.882,78.907455,87.77887
"49845",686.8953,78.82201,87.65928
"49846",686.9086,78.75853,87.55899
"49847",686.92194,78.712135,87.4738
"49848",686.93524,78.675514,87.396935
"49849",686.94855,78.64622,87.32625
"49850",686.96185,78.61936,87.25709
"49851",686.97516,78.607155,87.20174
"49852",686.98846,78.6511,87.202156
"49853",687.0018,78.82689,87.33579
"49854",687.0151,79.19554,87.667786
"49855",687.0284,79.766846,88.21395
"49856",687.0417,80.49439,88.93421
"49857",687.055,81.27566,89.73093
"49858",687.0683,81.96658,90.461716
"49859",687.0816,82.45243,91.00902
"49860",687.0949,82.68192,91.31515
"49861",687.1082,82.67216,91.38919
"49862",687.1215,82.46708,91.26762
"49863",687.1348,82.1326,91.01023
"49864",687.14813,81.7322,90.676476
"49865",687.16144,81.30984,90.30824
"49866",687.17474,80.88991,89.929245
"49867",687.18805,80.48707,89.554214
"49868",687.20135,80.11841,89.200775
"49869",687.21466,79.798584,88.88465
"49870",687.22797,79.54711,88.626884
"49871",687.2413,79.395744,88.461365
"49872",687.2546,79.35668,88.40342
"49873",687.2679,79.42748,88.45412
"49874",687.2812,79.586174,88.59492
"49875",687.2945,79.79126,88.78707
"49876",687.3078,79.991455,88.98074
"49877",687.3211,80.15503,89.14405
"49878",687.3344,80.25025,89.24412
"49879",687.3477,80.26978,89.27147
"49880",687.361,80.22583,89.23595
"49881",687.3743,80.130615,89.14779
"49882",687.38763,80.00122,89.02248
"49883",687.40094,79.84985,88.87115
"49884",687.41425,79.693596,88.7102
"49885",687.42755,79.53979,88.546814
"49886",687.44086,79.39086,88.38351
"49887",687.45416,79.24681,88.22042
"49888",687.46747,79.11742,88.06749
"49889",687.4808,79.00267,87.92516
"49890",687.4941,78.89525,87.786575
"49891",687.5074,78.80492,87.66172
"49892",687.5207,78.73655,87.55601
"49893",687.534,78.692604,87.47258
"49894",687.5473,78.67307,87.41219
"49895",687.5606,78.66819,87.365845
"49896",687.5739,78.67063,87.32667
"49897",687.5872,78.67063,87.285126
"49898",687.6005,78.675514,87.24847
"49899",687.61383,78.729225,87.26079
"49900",687.62714,78.89769,87.38954
"49901",687.64044,79.24437,87.701775
"49902",687.65375,79.783936,88.21773
"49903",687.66705,80.46998,88.89702
"49904",687.68036,81.197525,89.63925
"49905",687.69366,81.83475,90.313896
"49906",687.707,82.27665,90.81313
"49907",687.7203,82.47196,91.07959
"49908",687.7336,82.43534,91.12022
"49909",687.7469,82.22049,90.98147
"49910",687.7602,81.88846,90.71883
"49911",687.7735,81.497826,90.38721
"49912",687.7868,81.08766,90.02385
"49913",687.8001,80.68238,89.65256
"49914",687.8134,80.29664,89.28814
"49915",687.8267,79.94263,88.9434
"49916",687.84,79.62768,88.626656
"49917",687.85333,79.37621,88.363556
"49918",687.86664,79.21019,88.17804
"49919",687.87994,79.15404,88.097206
"49920",687.89325,79.217514,88.13425
"49921",687.90656,79.38598,88.27826
"49922",687.91986,79.622795,88.49589
"49923",687.93317,79.871826,88.73313
"49924",687.9465,80.08179,88.93909
"49925",687.9598,80.218506,89.07836
"49926",687.9731,80.26246,89.12914
"49927",687.9864,80.22095,89.09583
"49928",687.9997,80.11841,89.0002
"49929",688.013,79.974365,88.859856
"49930",688.0263,79.80591,88.6906
"49931",688.0396,79.635,88.513626
"49932",688.0529,79.46899,88.336205
"49933",688.0662,79.31274,88.16336
"49934",688.0795,79.168686,87.99783
"49935",688.09283,79.03929,87.84246
"49936",688.10614,78.92943,87.702576
"49937",688.11945,78.82689,87.56658
"49938",688.13275,78.73899,87.442024
"49939",688.14606,78.66331,87.326935
"49940",688.15936,78.59983,87.22169
"49941",688.17267,78.54856,87.12666
"49942",688.186,78.5095,87.042244
"49943",688.1993,78.48264,86.96881
"49944",688.2126,78.47288,86.91163
"49945",688.2259,78.48997,86.881
"49946",688.2392,78.58518,86.92902
"49947",688.2525,78.8098,87.10943
"49948",688.2658,79.20775,87.470184
"49949",688.2791,79.77417,88.01185
"49950",688.2924,80.445564,88.676186
"49951",688.3057,81.11696,89.3615
"49952",688.31903,81.67605,89.9555
"49953",688.33234,82.03006,90.361885
"49954",688.34564,82.15701,90.55228
"49955",688.35895,82.07889,90.54156
"49956",688.37225,81.83963,90.36726
"49957",688.38556,81.495384,90.080505
"49958",688.39886,81.094986,89.72684
"49959",688.4122,80.672615,89.338684
"49960",688.4255,80.25025,88.93734
"49961",688.4388,79.84985,88.54476
"49962",688.4521,79.483635,88.17385
"49963",688.4654,79.1638,87.83788
"49964",688.4787,78.91478,87.56273
"49965",688.492,78.76341,87.37745
"49966",688.5053,78.729225,87.30462
"49967",688.5186,78.82445,87.36013
"49968",688.5319,79.03197,87.530914
"49969",688.5452,79.310295,87.77899
"49970",688.55853,79.61059,88.05773
"49971",688.57184,79.87915,88.314125
"49972",688.58514,80.07202,88.50322
"49973",688.59845,80.16968,88.60313
"49974",688.61176,80.181885,88.620636
"49975",688.62506,80.11841,88.56284
"49976",688.63837,80.00366,88.4518
"49977",688.6517,79.85962,88.30787
"49978",688.665,79.70336,88.147224
"49979",688.6783,79.53979,87.97438
"49980",688.6916,79.38354,87.80375
"49981",688.7049,79.23949,87.640434
"49982",688.7182,79.11009,87.487274
"49983",688.7315,78.992905,87.34228
"49984",688.7448,78.89281,87.21071
"49985",688.7581,78.802475,87.08578
"49986",688.7714,78.7219,86.96778
"49987",688.7847,78.643776,86.84972
"49988",688.79803,78.57053,86.73409
"49989",688.81134,78.504616,86.623505
"49990",688.82465,78.46311,86.53527
"49991",688.83795,78.487526,86.51166
"49992",688.85126,78.64622,86.623085
"49993",688.86456,78.9807,86.91526
"49994",688.87787,79.500725,87.403435
"49995",688.8912,80.15259,88.039696
"49996",688.9045,80.8362,88.72807
"49997",688.9178,81.427025,89.34503
"49998",688.9311,81.832306,89.79491
"49999",688.9444,82.003204,90.02306
"50000",688.9577,81.95926,90.04172
"50001",688.971,81.74441,89.88809
"50002",688.9843,81.4197,89.6179
"50003",688.9976,81.03395,89.27651
"50004",689.0109,80.62623,88.9011
"50005",689.02423,80.218506,88.51295
"50006",689.03754,79.818115,88.119385
"50007",689.05084,79.43725,87.732834
"50008",689.06415,79.08812,87.36612
"50009",689.07745,78.79271,87.04221
"50010",689.09076,78.57786,86.789635
"50011",689.10406,78.47288,86.64021
"50012",689.1174,78.49485,86.61446
"50013",689.1307,78.64622,86.718796
"50014",689.144,78.89525,86.92552
"50015",689.1573,79.19798,87.19373
"50016",689.1706,79.500725,87.47141
"50017",689.1839,79.76196,87.71705
"50018",689.1972,79.94263,87.890274
"50019",689.2105,80.0354,87.981255
"50020",689.2238,80.04761,87.99457
"50021",689.2371,79.99634,87.944786
"50022",689.2504,79.903564,87.8519
"50023",689.26373,79.79126,87.73658
"50024",689.27704,79.66674,87.60554
"50025",689.29034,79.54467,87.47305
"50026",689.30365,79.4226,87.336754
"50027",689.31696,79.310295,87.206406
"50028",689.33026,79.200424,87.07498
"50029",689.34357,79.093,86.94257
"50030",689.3569,78.995346,86.816574
"50031",689.3702,78.905014,86.69485
"50032",689.3835,78.83177,86.58739
"50033",689.3968,78.77562,86.49473
"50034",689.4101,78.765854,86.4467
"50035",689.4234,78.84886,86.49114
"50036",689.4367,79.080795,86.6871
"50037",689.45,79.483635,87.06122
"50038",689.4633,80.05249,87.61394
"50039",689.4766,80.706795,88.26988
"50040",689.4899,81.34402,88.92919
"50041",689.50323,81.85184,89.47901
"50042",689.51654,82.15701,89.84206
"50043",689.52985,82.247345,89.999794
"50044",689.54315,82.15457,89.97725
"50045",689.55646,81.92752,89.81753
"50046",689.56976,81.61257,89.56281
"50047",689.58307,81.24391,89.244545
"50048",689.5964,80.85329,88.89279
"50049",689.6097,80.45289,88.51906
"50050",689.623,80.05493,88.135254
"50051",689.6363,79.68383,87.76587
"50052",689.6496,79.3518,87.42396
"50053",689.6629,79.080795,87.1327
"50054",689.6762,78.89525,86.91843
"50055",689.6895,78.81468,86.80334
"50056",689.7028,78.8513,86.80292
"50057",689.7161,79.00023,86.91595
"50058",689.72943,79.23216,87.11664
"50059",689.74274,79.50317,87.36365
"50060",689.75604,79.77173,87.616684
"50061",689.76935,79.99634,87.83416
"50062",689.78265,80.15259,87.990295
"50063",689.79596,80.23071,88.07319
"50064",689.80927,80.233154,88.08284
"50065",689.8226,80.17212,88.02909
"50066",689.8359,80.0647,87.92705
"50067",689.8492,79.92798,87.79235
"50068",689.8625,79.783936,87.64606
"50069",689.8758,79.64721,87.50258
"50070",689.8891,79.52514,87.369484
"50071",689.9024,79.415276,87.24478
"50072",689.9157,79.31518,87.12641
"50073",689.929,79.217514,87.00735
"50074",689.9423,79.132065,86.897446
"50075",689.9556,79.080795,86.81905
"50076",689.96893,79.114975,86.82451
"50077",689.98224,79.29809,86.979965
"50078",689.99554,79.66186,87.3218
"50079",690.00885,80.198975,87.84835
"50080",690.02216,80.84108,88.49667
"50081",690.03546,81.4905,89.17238
"50082",690.04877,82.02518,89.75363
"50083",690.0621,82.37675,90.16849
"50084",690.0754,82.50858,90.374596
"50085",690.0887,82.44999,90.394394
"50086",690.102,82.247345,90.26831
"50087",690.1153,81.94461,90.035805
"50088",690.1286,81.58083,89.732796
"50089",690.1419,81.18288,89.38424
"50090",690.1552,80.77028,89.008606
"50091",690.1685,80.35279,88.61519
"50092",690.1818,79.94507,88.21849
"50093",690.1951,79.57397,87.84567
"50094",690.20844,79.26635,87.52474
"50095",690.22174,79.05394,87.289406
"50096",690.23505,78.95628,87.162186
"50097",690.24835,78.98802,87.16131
"50098",690.26166,79.13695,87.27861
"50099",690.27496,79.36889,87.48358
"50100",690.28827,79.635,87.72997
"50101",690.3016,79.89136,87.97492
"50102",690.3149,80.093994,88.174164
"50103",690.3282,80.22339,88.306496
"50104",690.3415,80.274666,88.36475
"50105",690.3548,80.257576,88.35625
"50106",690.3681,80.17944,88.28616
"50107",690.3814,80.062256,88.17458
"50108",690.3947,79.91577,88.030045
"50109",690.408,79.7522,87.86384
"50110",690.4213,79.586174,87.69007
"50111",690.43463,79.4226,87.513565
"50112",690.44794,79.26635,87.33927
"50113",690.46124,79.12474,87.174736
"50114",690.47455,79.00023,87.02287
"50115",690.48785,78.92699,86.91839
"50116",690.50116,78.94896,86.90683
"50117",690.51447,79.132065,87.05709
"50118",690.5278,79.51293,87.410835
"50119",690.5411,80.079346,87.96203
"50120",690.5544,80.762955,88.64812
"50121",690.5677,81.45144,89.36044
"50122",690.581,82.0325,89.98686
"50123",690.5943,82.41581,90.433685
"50124",690.6076,82.57694,90.67031
"50125",690.6209,82.53544,90.709335
"50126",690.6342,82.34257,90.595695
"50127",690.6475,82.04959,90.37592
"50128",690.6608,81.69558,90.08596
"50129",690.67413,81.307396,89.75076
"50130",690.68744,80.91188,89.3961
"50131",690.70074,80.516365,89.02908
"50132",690.71405,80.13794,88.666794
"50133",690.72736,79.801025,88.33419
"50134",690.74066,79.52758,88.05453
"50135",690.75397,79.344475,87.85666
"50136",690.7673,79.26879,87.76049
"50137",690.7806,79.30785,87.7767
"50138",690.7939,79.45678,87.904
"50139",690.8072,79.68383,88.114075
"50140",690.8205,79.94507,88.36543
"50141",690.8338,80.19165,88.6103
"50142",690.8471,80.377205,88.80184
"50143",690.8604,80.482185,88.91861
"50144",690.8737,80.499275,88.95077
"50145",690.887,80.43824,88.905334
"50146",690.9003,80.32105,88.80184
"50147",690.91364,80.17456,88.66538
"50148",690.92694,80.01587,88.512146
"50149",690.94025,79.85474,88.35151
"50150",690.95355,79.70092,88.19315
"50151",690.96686,79.56176,88.04465
"50152",690.98016,79.429924,87.89912
"50153",690.99347,79.29809,87.749466
"50154",691.0068,79.1931,87.62254
"50155",691.0201,79.166245,87.57047
"50156",691.0334,79.28832,87.6665
"50157",691.0467,79.60815,87.96408
"50158",691.06,80.13306,88.476746
"50159",691.0733,80.8069,89.15475
"50160",691.0866,81.514915,89.88798
"50161",691.0999,82.13504,90.55544
"50162",691.1132,82.56718,91.0543
"50163",691.1265,82.77959,91.34693
"50164",691.13983,82.77959,91.43379
"50165",691.15314,82.61356,91.35463
"50166",691.16644,82.33524,91.15798
"50167",691.17975,81.986115,90.88183
"50168",691.19305,81.602806,90.560585
"50169",691.20636,81.19997,90.20783
"50170",691.21967,80.797134,89.8425
"50171",691.233,80.40894,89.47922
"50172",691.2463,80.05737,89.14043
"50173",691.2596,79.77173,88.856575
"50174",691.2729,79.57641,88.65412
"50175",691.2862,79.49096,88.555435
"50176",691.2995,79.52514,88.57371
"50177",691.3128,79.65942,88.693146
"50178",691.3261,79.8645,88.88759
"50179",691.3394,80.10132,89.12017
"50180",691.3527,80.31861,89.34063
"50181",691.366,80.48463,89.5166
"50182",691.37933,80.57496,89.62208
"50183",691.39264,80.584724,89.64981
"50184",691.40594,80.516365,89.599724
"50185",691.41925,80.396736,89.49623
"50186",691.43256,80.24536,89.357254
"50187",691.44586,80.07446,89.19402
"50188",691.45917,79.903564,89.02545
"50189",691.4725,79.742424,88.8613
"50190",691.4858,79.59106,88.70188
"50191",691.4991,79.449455,88.5475
"50192",691.5124,79.33471,88.41555
"50193",691.5257,79.28344,88.34349
"50194",691.539,79.35912,88.39678
"50195",691.5523,79.61303,88.63066
"50196",691.5656,80.06714,89.07268
"50197",691.5789,80.68482,89.69246
"50198",691.5922,81.38064,90.409676
"50199",691.6055,82.039825,91.11201
"50200",691.61884,82.55497,91.690895
"50201",691.63214,82.865036,92.0808
"50202",691.64545,82.97002,92.275314
"50203",691.65875,82.896774,92.29488
"50204",691.67206,82.684364,92.173
"50205",691.68536,82.371864,91.94438
"50206",691.69867,81.99344,91.640076
"50207",691.712,81.57839,91.28732
"50208",691.7253,81.143814,90.90207
"50209",691.7386,80.709236,90.503235
"50210",691.7519,80.30396,90.120125
"50211",691.7652,79.94995,89.77561
"50212",691.7785,79.67895,89.503044
"50213",691.7918,79.51537,89.32944
"50214",691.8051,79.47387,89.27279
"50215",691.8184,79.54955,89.33203
"50216",691.8317,79.710686,89.47909
"50217",691.84503,79.90845,89.66781
"50218",691.85834,80.09888,89.85538
"50219",691.87164,80.24292,90.00251
"50220",691.88495,80.31617,90.08335
"50221",691.89825,80.31617,90.09323
"50222",691.91156,80.25025,90.03719
"50223",691.92487,80.13306,89.92782
"50224",691.9382,79.98169,89.78061
"50225",691.9515,79.81323,89.61158
"50226",691.9648,79.639885,89.432396
"50227",691.9781,79.466545,89.2478
"50228",691.9914,79.30297,89.06756
"50229",692.0047,79.14671,88.88952
"50230",692.018,79.00511,88.72125
"50231",692.0313,78.91966,88.60471
"50232",692.0446,78.95384,88.60513
"50233",692.0579,79.166245,88.78484
"50234",692.0712,79.58373,89.17628
"50235",692.08453,80.17456,89.7541
"50236",692.09784,80.86549,90.450485
"50237",692.11115,81.53689,91.148926
"50238",692.12445,82.07645,91.73651
"50239",692.13776,82.41337,92.13832
"50240",692.15106,82.54032,92.34069
"50241",692.16437,82.476845,92.3566
"50242",692.1777,82.262,92.219154
"50243",692.191,81.94949,91.97733
"50244",692.2043,81.57839,91.66715
"50245",692.2176,81.17555,91.31364
"50246",692.2309,80.75807,90.93289
"50247",692.2442,80.343025,90.541534
"50248",692.2575,79.95239,90.16162
"50249",692.2708,79.61791,89.82565
"50250",692.2841,79.36645,89.56225
"50251",692.2974,79.23216,89.408165
"50252",692.3107,79.21507,89.36708
"50253",692.32404,79.310295,89.437775
"50254",692.33734,79.48119,89.58712
"50255",692.35065,79.68871,89.77843
"50256",692.36395,79.88403,89.96402
"50257",692.37726,80.028076,90.10444
"50258",692.39056,80.10132,90.17856
"50259",692.4039,80.10132,90.181725
"50260",692.4172,80.03296,90.11653
"50261",692.4305,79.91577,90.000374
"50262",692.4438,79.76196,89.84393
"50263",692.4571,79.586174,89.660706
"50264",692.4704,79.40063,89.46223
"50265",692.4837,79.21507,89.25794
"50266",692.497,79.03197,89.05031
"50267",692.5103,78.85863,88.84672
"50268",692.5236,78.70725,88.659676
"50269",692.5369,78.60227,88.5143
"50270",692.55023,78.59983,88.46818
"50271",692.56354,78.77074,88.59533
"50272",692.57684,79.15404,88.940216
"50273",692.59015,79.73266,89.4924
"50274",692.60345,80.4358,90.18719
"50275",692.61676,81.15114,90.916145
"50276",692.63007,81.75662,91.5576
"50277",692.6434,82.16678,92.02265
"50278",692.6567,82.34989,92.273476
"50279",692.67,82.32792,92.324936
"50280",692.6833,82.13748,92.207245
"50281",692.6966,81.83475,91.971306
"50282",692.7099,81.461205,91.6551
"50283",692.7232,81.058365,91.29792
"50284",692.7365,80.6482,90.92083
"50285",692.7498,80.2478,90.54069
"50286",692.7631,79.86694,90.16757
"50287",692.7764,79.537346,89.83382
"50288",692.78973,79.28344,89.56545
"50289",692.80304,79.13451,89.39413
"50290",692.81635,79.10521,89.33778
"50291",692.82965,79.19066,89.39527
"50292",692.84296,79.35668,89.536
"50293",692.85626,79.56176,89.72098
"50294",692.86957,79.75464,89.90016
"50295",692.8829,79.888916,90.02677
"50296",692.8962,79.94507,90.07945
"50297",692.9095,79.923096,90.05576
"50298",692.9228,79.835205,89.96547
"50299",692.9361,79.69848,89.82359
"50300",692.9494,79.537346,89.65304
"50301",692.9627,79.364006,89.46524
"50302",692.976,79.18822,89.26958
"50303",692.9893,79.012436,89.06843
"50304",693.0026,78.836655,88.861786
"50305",693.0159,78.66575,88.654526
"50306",693.02924,78.49973,88.446815
"50307",693.04254,78.34348,88.24368
"50308",693.05585,78.21408,88.062515
"50309",693.06915,78.133514,87.92614
"50310",693.08246,78.167694,87.90199
"50311",693.09576,78.37766,88.0547
"50312",693.1091,78.79515,88.42149
"50313",693.1224,79.41772,89.00641
"50314",693.1357,80.17212,89.742615
"50315",693.149,80.95094,90.52682
"50316",693.1623,81.62966,91.23525
"50317",693.1756,82.11063,91.76714
"50318",693.1889,82.35233,92.07481
"50319",693.2022,82.371864,92.16785
"50320",693.2155,82.210724,92.080826
"50321",693.2288,81.9202,91.85938
"50322",693.2421,81.55886,91.55805
"50323",693.25543,81.160904,91.20881
"50324",693.26874,80.75075,90.83493
"50325",693.28204,80.34547,90.45311
"50326",693.29535,79.974365,90.092804
"50327",693.30865,79.65453,89.77217
"50328",693.32196,79.42016,89.527
"50329",693.33527,79.293205,89.38193
"50330",693.3486,79.28832,89.35496
"50331",693.3619,79.3933,89.4377
"50332",693.3752,79.58373,89.60917
"50333",693.3885,79.80835,89.82078
"50334",693.4018,80.01831,90.02475
"50335",693.4151,80.16968,90.17669
"50336",693.4284,80.24048,90.25279
"50337",693.4417,80.22339,90.24322
"50338",693.455,80.130615,90.157425
"50339",693.4683,79.98169,90.01258
"50340",693.4816,79.79614,89.82646
"50341",693.49493,79.59838,89.62233
"50342",693.50824,79.40063,89.412025
"50343",693.52155,79.21507,89.20774
"50344",693.53485,79.0515,89.01964
"50345",693.54816,78.907455,88.845955
"50346",693.56146,78.77318,88.677536
"50347",693.57477,78.6511,88.51712
"50348",693.5881,78.538795,88.36266
"50349",693.6014,78.44114,88.219345
"50350",693.6147,78.35325,88.08274
"50351",693.628,78.28245,87.96048
"50352",693.6413,78.23117,87.85553
"50353",693.6546,78.22385,87.79293
"50354",693.6679,78.30686,87.82044
"50355",693.6812,78.538795,87.999466
"50356",693.6945,78.96605,88.38106
"50357",693.7078,79.58129,88.96399
"50358",693.7211,80.325935,89.69555
"50359",693.73444,81.0901,90.4699
"50360",693.74774,81.76395,91.17781
"50361",693.76105,82.2449,91.71389
"50362",693.77435,82.48661,92.02575
"50363",693.78766,82.50126,92.1181
"50364",693.80096,82.32792,92.02293
"50365",693.8143,82.01785,91.78561
"50366",693.8276,81.6321,91.46291
"50367",693.8409,81.20973,91.091545
"50368",693.8542,80.782486,90.7021
"50369",693.8675,80.377205,90.32127
"50370",693.8808,80.01099,89.96684
"50371",693.8941,79.7058,89.662
"50372",693.9074,79.483635,89.43064
"50373",693.9207,79.36889,89.29976
"50374",693.934,79.364006,89.275154
"50375",693.9473,79.45678,89.34805
"50376",693.96063,79.61791,89.49221
"50377",693.97394,79.80835,89.67071
"50378",693.98724,79.97925,89.83562
"50379",694.00055,80.096436,89.952156
"50380",694.01385,80.14526,90.004
"50381",694.02716,80.12085,89.98412
"50382",694.04047,80.025635,89.892685
"50383",694.0538,79.871826,89.73968
"50384",694.0671,79.68627,89.55012
"50385",694.0804,79.47875,89.332794
"50386",694.0937,79.26635,89.1041
"50387",694.107,79.061264,88.87609
"50388",694.1203,78.873276,88.65877
"50389",694.1336,78.70725,88.457535
"50390",694.1469,78.56321,88.273094
"50391",694.1602,78.44358,88.10857
"50392",694.1735,78.35081,87.967155
"50393",694.1868,78.28001,87.84482
"50394",694.20013,78.22629,87.73735
"50395",694.21344,78.187225,87.64286
"50396",694.22675,78.15793,87.556915
"50397",694.24005,78.1384,87.47982
"50398",694.25336,78.116425,87.39967
"50399",694.26666,78.08957,87.31396
"50400",694.27997,78.05539,87.22008
"50401",694.2933,78.01633,87.12025
"50402",694.3066,77.994354,87.036285
"50403",694.3199,78.04074,87.02
"50404",694.3332,78.22629,87.14432
"50405",694.3465,78.59739,87.45999
"50406",694.3598,79.15892,87.97769
"50407",694.3731,79.85474,88.647224
"50408",694.3864,80.58228,89.37023
"50409",694.3997,81.21706,90.0232
"50410",694.413,81.671165,90.51534
"50411",694.42633,81.89334,90.78974
"50412",694.43964,81.89578,90.85135
"50413",694.45294,81.71755,90.73236
"50414",694.46625,81.41482,90.4833
"50415",694.47955,81.041275,90.15397
"50416",694.49286,80.638435,89.78367
"50417",694.50616,80.24292,89.408104
"50418",694.5195,79.87427,89.04704
"50419",694.5328,79.551994,88.72084
"50420",694.5461,79.290764,88.44561
"50421",694.5594,79.114975,88.24766
"50422",694.5727,79.046616,88.15164
"50423",694.586,79.09056,88.165794
"50424",694.5993,79.23949,88.2863
"50425",694.6126,79.45922,88.48227
"50426",694.6259,79.708244,88.71439
"50427",694.6392,79.93042,88.92745
"50428",694.6525,80.08911,89.08397
"50429",694.66583,80.16235,89.159996
